3.206198412725658285e-03,3.126148899198331887e-02,3.653187428895263850e-02,1.876876492554543354e-03,1.139577270297770321e-04,1.865141532992169778e-03,2.611922186584432828e-03,2.546734482972744240e-02,1.442154747040859473e-03,2.484428372983049291e-02
5.408786933019477279e-03,2.811092374041149894e-02,9.808011323910865303e-03,1.467356442518076391e-03,1.516795491938929678e-04,2.002472783754054644e-03,6.512052412035894064e-03,3.023895256106881937e-02,4.942100672400886324e-03,4.252811979204218149e-03
7.698409753602857876e-03,2.306581970234796233e-02,7.976994568895263635e-03,7.528858942700821519e-04,2.051529605723054575e-04,2.145692619814999497e-03,4.851351640420421829e-03,2.806780352978520410e-02,8.492241222569012898e-03,3.594807048503623897e-02
7.917665316367525005e-03,1.520612764629029542e-02,8.747189139328162555e-03,6.040917170912801955e-04,2.701459584874686573e-04,2.295375016317165173e-03,4.337364295002096339e-03,2.335744854893278405e-02,9.125701174041930125e-03,4.888734013682955598e-02
5.775694734149883734e-03,8.982373718187460984e-03,2.774692165447396712e-03,8.986366714072488828e-04,3.176939586846855876e-04,2.451869853688102598e-03,1.242847634768144520e-02,1.891846297351047063e-02,6.151512698190740071e-03,3.990128194659142008e-02
3.037231581308492707e-03,6.492178302949047283e-03,1.350084717903968917e-02,1.073971327499415995e-03,3.546541269706327752e-04,2.615272144931794079e-03,1.711181561335868226e-02,1.438848703338749604e-02,3.049672695472598581e-03,2.129644812801129855e-02
1.678676394938397780e-03,3.964695718883330319e-03,1.284365884585999401e-02,1.062456238060952062e-03,4.413228259561182386e-04,2.785395680140617409e-03,2.297696294207663553e-02,1.066197515036686541e-02,4.189204084333444066e-03,6.561128095432942203e-03
2.561134369417226910e-03,1.312982649572203182e-03,5.749380162624372417e-05,1.107360239658011693e-03,5.626301177775390764e-04,2.961752148116636365e-03,3.318225512649475989e-02,9.891346720808338877e-03,9.540028512902556240e-03,3.535862804785156778e-03
5.334479039888543467e-03,6.486831919972369312e-03,1.575287128889609617e-02,1.248020571373866915e-03,5.844198474351899224e-04,3.143538435661737997e-03,4.549001035846429036e-02,1.059301525513020072e-02,1.453737314616372622e-02,1.140903485192848107e-02
8.495417236499665237e-03,8.976790979408578661e-03,2.316713265218733886e-02,1.372258158801024745e-03,5.235457546805720929e-04,3.329631775509073622e-03,5.577031189699516167e-02,8.253849936478638294e-03,1.550477628875108344e-02,1.968619279221555871e-02
1.003344209420084336e-02,1.091473979171064118e-02,2.081422011243081946e-02,1.460094784462645555e-03,7.040164110301555664e-04,3.518588384315246738e-03,6.183481993016681083e-02,2.142723961786256997e-03,1.280226235895845673e-02,1.695776889560894965e-02
9.392237421930817870e-03,1.411061588848368242e-02,1.550613740991743997e-02,1.563517587648249017e-03,1.339714787596937417e-03,3.708647114170644538e-03,6.447329389977864145e-02,2.466757939665489060e-03,8.358015455673316677e-03,3.692102662535436293e-03
8.317933596607712463e-03,1.616525922152312750e-02,1.211895723942999631e-02,1.691656423456503735e-03,2.113203353811593868e-03,3.897747892536473566e-03,6.719335325651557000e-02,9.517133421620515947e-04,3.417584946758275496e-03,8.092419780138209243e-03
8.405085402852249463e-03,1.541000949853463774e-02,1.157684341049881709e-02,1.818804370657293740e-03,2.457050703423943345e-03,4.083561858687503356e-03,7.165185565865604678e-02,4.579401725300245515e-03,5.588670194882459788e-04,8.589971421774134780e-03
8.749227776947983426e-03,1.498568646841733423e-02,1.482828538333820848e-02,1.939217360325787027e-03,2.157868388962761591e-03,4.263511626504395448e-03,6.980330275379452443e-02,9.192301877499850504e-03,1.929221091665150357e-03,6.923131453284148400e-04
7.808877766316963537e-03,1.784459859362018050e-02,2.050832518192260284e-02,2.064030546166846676e-03,1.555753828793023357e-03,4.434786591933028224e-03,4.819389709534632055e-02,1.253353970280136551e-02,6.877426795045131795e-04,1.115103753408257410e-02
6.126266949498469436e-03,2.078970785347849029e-02,2.253023861574041109e-02,2.193575266066869617e-03,1.126921684323571246e-03,4.594397873773368828e-03,7.450023168100452890e-03,1.683267068657722312e-02,1.198912692604730840e-03,1.519051195760231718e-02
4.674474097680095426e-03,1.791091797016354861e-02,1.698641506424240083e-02,2.318476786144561645e-03,9.393831831947846607e-04,4.739261495070556419e-03,3.152672075596211348e-02,1.987846134090678202e-02,9.279278105943382284e-04,9.968728279597991945e-03
2.316821255456848975e-03,8.950968290810249264e-03,7.913552264583499987e-03,2.436936237980109800e-03,8.668557493872253768e-04,4.866211830852247740e-03,4.874067276039441982e-02,1.745262330962867037e-02,3.608778634944883115e-03,2.345600952604493319e-03
1.848208250193529361e-03,1.774207221708998684e-04,1.573682288895359316e-03,2.554642209520353088e-03,1.140464718785336260e-03,4.971964301499692991e-03,4.368611003176117030e-02,1.138071784722656694e-02,1.133300236197322917e-02,1.682883932853998510e-02
5.523735001350384317e-03,5.880837828030067126e-03,1.891617878880492640e-04,2.667590895680833386e-03,1.858621139884536651e-03,5.053233971655354123e-03,2.928242047872113563e-02,7.769068227991869809e-03,1.740458329933057893e-02,2.913782185069545283e-02
6.288434574165046101e-03,1.152460302990823693e-02,2.590080706245735751e-03,2.761342805334761081e-03,2.305677591541360066e-03,5.106971638329902904e-03,1.736471823016661614e-02,8.092277340189229368e-03,1.815937942386693094e-02,3.568035040550897319e-02
5.998645121907168754e-03,2.200757787515484828e-02,1.008682515108261235e-02,2.838582631161885427e-03,1.852713937516706818e-03,5.130271654548193908e-03,1.175984010607983299e-02,8.023678405286628276e-03,1.624236363926845339e-02,3.297183498240625205e-02
8.344926955873088054e-03,3.709314800004429730e-02,1.804188590390766109e-02,2.921685940091914725e-03,1.027098932848729629e-03,5.120018451757270099e-03,9.658236555434962511e-03,4.246145137764740368e-03,1.715037478553307904e-02,2.235030503738356586e-02
1.311577916273568185e-02,5.046206919826560361e-02,1.829815347347189119e-02,2.998349198074480842e-03,7.082966815444083353e-04,5.073222060287602662e-03,1.055375369700879348e-02,1.949989789625241991e-03,2.097971223886781200e-02,1.258153722884016411e-02
1.651921309772986721e-02,5.336452504355606447e-02,7.687801329644321571e-03,3.014772343695079973e-03,9.108023857662048400e-04,4.987921123609471812e-03,2.101415451012966784e-02,7.441666373061354804e-03,2.239543006399680528e-02,9.469688541300666160e-03
1.665611099920314905e-02,4.309888215653309013e-02,8.549977449532748103e-03,2.989689616339358692e-03,1.038307001002505619e-03,4.862617656908143834e-03,4.175676192797661557e-02,1.120116451579421940e-02,1.920245375313310923e-02,6.442484907849429371e-03
1.532553367193949245e-02,3.013135559452104553e-02,2.125367815662227919e-02,3.032126941071980764e-03,7.728685749043886491e-04,4.694447096076572075e-03,5.619978611493138543e-02,1.465093656819764500e-02,1.546194705079914113e-02,4.185259883928865200e-03
1.455419441701362449e-02,2.759114876981079087e-02,2.041387960092195392e-02,3.099391207689507471e-03,4.223224408912174552e-04,4.480434069309831464e-03,4.772529676309715529e-02,1.784110487337975740e-02,1.489461025832396548e-02,1.589118413306157829e-02
1.420036765118455613e-02,2.941398767400064604e-02,7.183422861382704819e-04,2.950031875327483767e-03,5.838612019005468175e-04,4.221510633427120150e-03,2.414399785931702416e-02,1.709098588059762905e-02,1.618885159092285295e-02,1.600881618614604859e-02
1.318696337019146202e-02,1.314885772624122852e-02,3.683217910504581194e-02,2.655197978167486879e-03,1.273013503087063033e-03,3.919996015497576557e-03,7.827093347660848272e-03,9.688144985143767873e-03,1.586775226079480128e-02,3.380281861900468702e-03
1.124380142318714103e-02,2.733028803709652496e-02,7.009398378737818902e-02,2.771071333948814299e-03,1.623676034784076556e-03,3.570984389452237524e-03,5.227446746848507693e-03,4.493040096646345235e-04,1.167009777654855890e-02,1.220308003694903221e-02
9.093215313528892063e-03,6.801852132518251826e-02,8.505218638951489440e-02,3.410860213381165535e-03,1.045317418945166787e-03,3.167515105825875928e-03,5.249182532308979687e-03,6.318397992493451042e-03,2.511410033645146075e-03,2.069556068990446862e-02
7.549785746109311316e-03,8.428611529428438331e-02,8.119203913124166394e-02,3.716891894095070061e-03,1.337026118967459204e-04,2.719090276877139233e-03,5.450051741237965999e-03,6.116593709921130592e-03,1.154586534360384914e-02,1.531787523183673200e-02
6.625868802846599133e-03,7.881942976963901559e-02,6.877888822068793651e-02,3.070434927125650047e-03,2.560089292603985080e-04,2.241084486576199863e-03,1.661616617017319317e-02,3.406080609905375034e-03,2.782291116186037111e-02,4.226128508704779692e-03
5.545371971523907657e-03,6.964325066579958590e-02,5.797632435522644123e-02,2.083269561119818151e-03,1.346368489934988380e-04,1.714868999140934302e-03,3.816052937019985547e-02,2.711364618413632764e-04,4.066149912555849788e-02,2.691856034835159173e-02
3.475883336112618564e-03,6.459700021193388875e-02,5.275837503538371304e-02,1.582349853343653157e-03,6.831660685783891133e-05,1.109315949401399552e-03,5.342388028327667293e-02,4.069520149955521172e-03,4.455725171743181445e-02,3.825183297749230188e-02
2.840629131663462148e-04,5.919046793823539571e-02,4.963503309266587005e-02,1.500425681962133792e-03,3.746020915153565204e-04,4.664300848926063907e-04,5.625530756361873941e-02,8.348805701539221621e-03,3.888836828262664386e-02,3.522455917348402826e-02
2.868054041680479904e-03,4.989493446948332911e-02,4.240116936323745644e-02,1.368402587792680531e-03,7.992669102927212749e-04,1.424469094578749060e-04,5.712187905581758707e-02,9.530889559185490301e-03,2.799422568061069733e-02,2.645927770208203814e-02
3.897064799494631519e-03,3.782825901939493307e-02,2.990193788230821256e-02,1.003202628817122201e-03,7.210038063453404417e-04,8.007869110595286543e-04,5.595745012393013584e-02,8.899107076108653952e-03,1.579152747896753195e-02,1.892147199584806247e-02
1.879865997180594920e-03,2.306795001649369903e-02,1.518026740380807107e-02,4.435443243046326622e-04,1.398208380376912300e-05,1.658285283005536985e-03,3.797761226310306798e-02,1.141206999987973321e-02,3.661307525748207919e-03,1.156991256986804502e-02
1.283691735326292693e-03,4.480119703280816684e-03,1.596937640355035153e-03,3.732533731116917559e-05,3.938529532505914005e-04,2.535131931877787105e-03,6.195798624404592891e-03,1.776018294992683100e-02,5.766441380944745988e-03,1.107232603435662210e-03
2.495231852876662621e-03,1.569145052037004828e-02,2.146460203787669413e-02,6.531546936498381717e-05,3.275017605711006818e-04,3.100462989406313832e-03,1.120129036966631755e-02,2.324661220518085478e-02,8.109730387323356438e-03,1.072331761115300104e-02
9.419626716343788278e-04,3.294057984637915187e-02,3.896331898410667488e-02,9.649975838910811730e-05,1.462032316341347477e-03,3.727544555720736091e-03,1.313821545042412851e-03,2.513378729708739753e-02,2.221636205354483341e-03,1.642151201587963016e-02
9.898656348477699856e-04,4.418540697100425269e-02,4.413316849548718640e-02,1.908097997483064879e-04,1.600755038251833705e-03,5.153849469616553387e-03,2.594875138128269199e-02,2.465387088296732213e-02,7.975471770017545856e-03,9.581914827133759457e-03
8.169229746060440714e-04,4.639501132318119697e-02,3.361673765071587772e-02,4.475962461989354537e-04,7.487705051515470590e-04,6.554732076187145748e-03,3.966213043527597876e-02,2.125330443050219009e-02,1.656904332650385031e-02,7.755705419597951761e-03
5.521557896676086751e-04,3.646037786301944972e-02,1.580249861823177643e-02,4.932830911686947317e-04,3.283660543621779739e-04,5.694435748890386631e-03,4.075431665767681455e-02,1.128043806404479751e-02,1.850339190491089719e-02,2.735927467819029499e-02
2.369598928702396231e-04,1.743580850511452021e-02,3.127725514074533846e-03,1.982490487397942699e-03,1.044153809116317271e-03,2.525061930158632294e-03,3.850511152456391473e-02,5.860763408801611223e-03,1.203439531093973905e-02,4.327781435919218073e-02
4.212238154096221987e-03,6.582904529071277773e-04,6.419436580247946632e-04,1.697028233699029260e-03,2.020824291636001430e-03,3.994517374203193551e-04,3.633616770267614204e-02,2.446031973862062073e-02,3.010682164586802288e-04,5.246807215880902597e-02
8.357650860099543125e-03,2.774094276872125439e-03,4.636851774156821974e-03,9.735043003727299801e-04,2.351241783178309973e-03,1.695007456187532522e-03,3.193974910473932477e-02,3.673785650890218357e-02,1.187644467057386889e-02,4.870934990365684281e-02
9.862118555107454373e-03,9.270393945200865529e-03,1.145430575115454798e-02,3.870758328045903994e-03,2.268718828110681453e-03,4.881157279444585211e-03,1.917892977648391964e-02,3.802618618551355245e-02,2.203607093638143555e-02,2.622423108431300512e-02
9.554364865957523656e-03,3.048317483308791292e-02,2.165063715527030044e-02,5.104559247817525014e-03,2.356410995263869337e-03,7.801933780095218068e-03,9.354222396885214508e-03,2.852342521375268031e-02,2.905812178699169676e-02,7.373211360893239946e-03
9.399684243434321476e-03,5.216387397257350733e-02,3.477877708698479120e-02,5.253316822036555207e-03,2.632432183211404469e-03,1.058329596570409779e-02,4.925589783295563490e-02,1.317570936172638048e-02,3.276504734902963706e-02,3.168582051289486196e-02
9.139464238770551863e-03,6.760155542308940446e-02,4.741810183904968112e-02,5.794302225032668154e-03,2.844959144731974872e-03,1.347973930133155966e-02,8.168017942769292827e-02,7.058518442268665437e-04,3.591109666232309566e-02,3.456022361970805673e-02
7.487983831417507896e-03,7.265084185641267067e-02,5.672744485354029587e-02,6.753478370167474189e-03,2.978599499048876185e-03,1.528008310529210302e-02,9.480975002717574596e-02,8.744994746426875895e-03,3.894823044449435140e-02,2.587175880254427920e-02
4.804111773071608263e-03,6.536866394771725930e-02,5.962070738732445918e-02,6.867064144081998917e-03,3.150736307960108704e-03,1.566111591941911352e-02,9.602254825028049001e-02,1.278836838728701110e-02,3.490326163934227843e-02,2.322057971144020350e-02
2.709657856137067354e-03,4.825567593926764765e-02,5.267882618433297054e-02,5.479454221077149564e-03,3.371852285357571609e-03,1.619689794357723547e-02,9.512406138017404089e-02,1.828295952345556502e-02,2.116372408630549581e-02,3.047823806312771264e-02
2.096784347546202729e-03,2.926783094179692679e-02,3.934444771418615927e-02,3.419961715339639961e-03,3.587751057710749075e-03,1.749360322371471682e-02,9.138236412755479376e-02,2.854912353859022367e-02,1.031801588969728269e-02,3.789863896045781583e-02
2.634843224066112446e-03,1.539147880592414697e-02,2.945070761689920491e-02,2.016515464228345843e-03,3.791037793172679152e-03,1.778713245271077575e-02,8.222534235745199149e-02,4.028889090574102466e-02,1.411929731199279038e-02,3.779578313993890021e-02
3.463211849416460673e-03,6.422934514246621783e-03,2.595233253245237195e-02,1.961066751641549373e-03,4.006976145176734116e-03,1.578899271995289066e-02,6.868968323414871568e-02,4.462674109766569946e-02,2.531210481527534570e-02,3.333198257335522746e-02
3.799566806032173612e-03,9.407254804858627972e-05,2.094639336697854196e-02,3.380988483896066148e-03,4.243857712676739856e-03,1.292600629060195773e-02,5.117670484226791855e-02,3.594588587065155466e-02,3.125999520955478200e-02,3.375747429618862483e-02
3.427567574084234431e-03,1.515885753268578825e-03,8.970648139832337886e-03,6.184959476650373107e-03,4.490049300229493473e-03,1.149003375811958466e-02,3.266011505559291567e-02,1.983115242091402358e-02,3.444786122713149046e-02,4.175699765233438499e-02
2.651874998196945051e-03,1.779183242499726616e-03,4.168287580434338301e-03,9.664010997637069098e-03,4.731063568296446989e-03,1.213920657778573380e-02,2.097608243783885204e-02,8.361221907294744821e-03,4.260127957536661431e-02,4.408696980135514559e-02
1.631409952092247387e-03,2.510554500027189703e-03,1.020862742148457604e-02,1.241798942694327668e-02,4.970107511831917645e-03,1.411813652618168491e-02,1.785541515681618452e-02,7.759052532066570279e-03,5.023743841624345868e-02,2.135852231955482489e-02
3.782075463986033165e-04,4.816514068809181481e-03,9.858098279446777384e-03,1.362808444728760143e-02,5.233922873249665514e-03,1.636148792498103022e-02,1.605356951488576267e-02,1.369266755345154019e-02,4.883658580791165604e-02,2.666104623159340839e-02
6.188517999027390044e-04,1.523879439767466051e-02,9.710493839279913525e-03,1.410486730885380721e-02,5.523108153589998889e-03,1.759081940337660702e-02,1.596236262249698876e-02,1.783315082861417974e-02,4.545297214261396351e-02,7.340359474803317963e-02
7.956702537405072875e-04,2.124615147149925415e-02,1.177334057089965240e-02,1.510732253314537622e-02,5.778624614784773871e-03,1.678533891411625872e-02,2.971413186477515206e-02,1.667572425778526823e-02,5.088248065601230774e-02,9.181204396305560345e-02
6.650833450705780298e-04,2.116830295378572396e-02,1.334733006207948144e-02,1.627655180614384980e-02,5.989466019340688487e-03,1.446069331629521587e-02,5.798820949548845471e-02,1.377176584784571729e-02,5.660672271290945884e-02,8.194905413348545220e-02
1.625883565480565861e-03,1.691141389574156439e-02,1.436067885407229031e-02,1.612233964275588613e-02,6.278782376463347588e-03,1.277417100574755431e-02,8.024244614475919968e-02,1.411389957792531791e-02,4.466073624798710257e-02,6.426847646553390803e-02
4.162523314352208764e-03,1.278780132147467816e-02,1.647211579313555274e-02,1.482879388388482281e-02,6.681293743122093849e-03,1.357209155873776406e-02,8.058743762014716761e-02,1.781682829651542316e-02,1.630346736702805235e-02,5.127500050066954862e-02
6.796339454415423892e-03,1.573261208499925068e-02,1.799398227688762605e-02,1.457576652328031012e-02,6.902111076388297434e-03,1.612161366987523853e-02,6.661504280919201826e-02,2.043825666358069920e-02,9.326467509720895444e-03,3.739326213382362235e-02
7.468926074011708952e-03,2.711624976150740426e-02,1.754452183480456964e-02,1.592401751533230325e-02,6.592639309035688497e-03,1.736117404466216985e-02,5.290225931871293807e-02,1.817616116279854172e-02,2.361492853583918930e-02,1.738028443686667757e-02
5.707188673599266834e-03,3.761408281808908960e-02,1.768476177689209602e-02,1.601373167931918057e-02,5.717863511553820249e-03,1.512863924624434711e-02,4.224133037630244808e-02,1.126994190205469516e-02,3.626662927897301297e-02,8.695190738340028433e-04
2.802938229168027914e-03,3.829380325582648625e-02,1.896790203338417913e-02,1.207723535358905427e-02,4.173157476891062485e-03,1.041523785091588196e-02,2.990194271626648442e-02,3.061284037468934259e-03,5.262847792594834567e-02,1.434611841265478419e-03
1.464259101865148568e-04,3.302858749565006080e-02,1.870494226091265477e-02,4.807602103670495161e-03,1.153728360145862483e-03,5.109387707420394789e-03,1.342069590421340539e-02,3.787134832074761249e-03,6.156445096022975655e-02,4.332414086898691077e-03
1.671106176119387414e-03,3.373528862286347130e-02,1.841244377137444405e-02,3.211865304132460047e-03,4.316375261852596797e-03,1.602483621796699231e-03,6.902851072779268501e-03,1.053734738447096274e-02,5.361848308851686895e-02,3.660507574914471842e-03
2.230630252209808966e-03,4.507945507769054588e-02,2.046602504877399753e-02,1.009191546802247312e-02,1.167675816129937032e-02,1.178101737549794824e-02,2.981848726130623475e-02,2.016980212925377491e-02,3.757151176211982052e-02,7.904924750195267691e-03
1.294112729445577549e-03,5.893055360887487076e-02,1.892045024699533229e-02,1.439994111375162908e-02,1.809121167253580076e-02,2.340050552980741522e-02,5.050214876040910739e-02,3.077938015033059374e-02,2.898675132268739227e-02,2.487875541840600668e-02
1.601679218130001316e-04,6.620766492041928186e-02,9.035290336880445056e-03,1.509691264436550072e-02,2.044818626909630094e-02,3.034471489306160910e-02,5.931869126140244114e-02,3.496364581499063207e-02,3.053817993138493656e-02,4.177766388369459627e-02
5.778130425654811339e-04,6.916423604403300340e-02,2.786544545193108931e-04,1.300056068187719661e-02,1.821369919885421768e-02,2.957398396048906836e-02,5.067724975136522064e-02,2.857936626125253538e-02,3.263936021777372187e-02,5.457018920907851650e-02
1.247487943996567524e-04,7.400384749628970138e-02,1.315534587311298267e-03,1.005729993816775747e-02,1.359085888240458423e-02,2.466962519300212528e-02,3.443882694539680822e-02,1.629819495081060582e-02,2.817457106952566195e-02,6.033878644586139484e-02
7.853648345796121087e-04,7.459558553701683969e-02,4.832743946422649040e-03,6.861818783745610509e-03,9.211161255427270309e-03,2.052773650877931511e-02,2.964030609649025497e-02,5.533309979268847580e-03,1.728116235304608811e-02,6.200417507502248987e-02
9.091565928441028505e-04,5.581401435532457045e-02,2.298811299449031106e-02,3.111829579784951370e-03,6.455110706742136183e-03,1.816185661935937681e-02,4.060881651432441536e-02,1.790528526168666578e-03,1.305322140531003320e-03,6.527011165112965585e-02
5.528729894607906873e-04,1.575694168049334570e-02,4.584535792835551377e-02,3.132259837701137492e-05,5.230689530522395284e-03,1.589198601245581099e-02,4.747339614490896781e-02,8.073445787931015846e-03,1.591065106133417867e-02,6.630415701495476211e-02
5.889847822220938174e-04,2.496406333155259949e-02,5.376395659607230426e-02,5.786978178509050337e-04,4.254335776548726078e-03,1.216802814157595322e-02,3.171107597966227321e-02,1.289694865289365243e-02,2.272053919974541258e-02,5.483141756914999138e-02
2.006189899064924308e-03,4.292529158667481026e-02,4.354863588955353026e-02,1.448651766314529212e-03,2.014661532927814348e-03,6.491304551003549902e-03,4.213896214025852557e-03,1.236165526618701951e-02,1.030678427834703925e-02,3.584861066980982169e-02
1.869243766843505395e-03,3.686727984479114956e-02,2.611927387408478907e-02,3.774348099563771142e-03,1.503697739055530986e-03,4.836067650841329064e-04,7.804422133680709826e-03,6.349075973495716362e-03,1.231619276907411180e-02,2.910862996332139185e-02
2.696856867615978165e-04,2.570451774315733393e-02,7.675160102470662479e-03,4.670351881186738698e-03,4.191737470230501306e-03,1.935441604336700025e-03,4.513623001293869987e-03,6.444073899487252725e-04,2.725913554430460517e-02,3.540441511494238358e-02
1.982256807346428375e-03,2.418282908384856988e-02,1.099603370842614121e-02,4.210453432912589743e-03,4.141381058211603475e-03,1.249100851004259199e-03,2.799481361761178844e-02,3.410433317851265748e-04,2.613840538427431373e-02,2.899761842192344341e-02
1.013938780946349941e-03,3.068038854338723045e-02,2.384258394480512355e-02,2.138814250076983593e-03,2.646437724983919867e-03,5.908962612400371975e-03,5.007118082844037865e-02,1.997856394869546894e-03,8.418991979925721097e-03,2.829996327668169494e-04
1.787778735424537524e-03,3.771977296868413848e-02,2.492093700204462900e-02,2.404403895735027219e-03,2.802960994114868289e-03,6.193557295981607855e-03,6.683105730222863028e-02,3.663537571341097393e-03,2.223221350011548442e-02,2.417683405804237420e-02
3.980435677039772385e-03,4.085848646231286796e-02,2.229692236838694969e-02,6.877174246965141700e-03,4.814364588723831634e-03,3.228420357178963997e-03,7.804453587525245206e-02,1.064941443565798262e-03,4.511483084307150310e-02,2.276968435675572056e-02
4.331563636653694253e-03,3.449430976426963447e-02,3.192010015978416493e-02,5.099107942547457910e-03,5.673420227481728965e-03,3.550312168032205683e-03,8.622217815791079210e-02,7.216852406551181771e-03,2.916778520058652818e-02,7.877023996368144598e-03
3.049685639028407343e-03,1.180928583990330238e-02,5.575708690074777235e-02,5.302125208206716171e-03,3.955622258778402137e-03,8.868211841000860074e-03,9.106302589324873076e-02,1.794960333363765717e-02,2.669518007249927286e-02,3.598747430384935386e-03
7.760584244145737323e-04,2.306634552680589256e-02,7.696155857840261683e-02,1.871644800603875294e-02,1.254200517066777869e-03,1.461906272563679061e-02,8.816810494759681760e-02,2.666602489886414282e-02,7.986171156363337797e-02,1.651004679424234595e-02
1.551182780668800129e-03,5.026149215083304533e-02,7.971152924268488926e-02,2.788049575698707538e-02,1.731446217491256108e-03,1.878049455809501292e-02,8.574803215068703410e-02,3.532495101342555954e-02,8.988115080830258452e-02,3.608006371329073453e-02
2.744492830715792881e-03,5.205296583078953404e-02,6.514254934683653964e-02,3.077607374605833418e-02,6.391627936108809811e-03,2.430419469721155357e-02,1.033102529422717103e-01,4.952495610009338689e-02,6.301301192512714922e-02,4.685081841146974263e-02
2.179969792158511013e-03,3.332545516737740743e-02,4.445786138165087192e-02,2.908673324404209906e-02,1.235363562000420766e-02,3.221475844545115125e-02,1.361456413871090787e-01,6.717398392217993619e-02,3.656624315378931289e-02,3.132573159805302626e-02
3.702290604575136923e-04,1.447642795433277951e-02,2.469620870917219740e-02,2.407937322127422231e-02,1.631044300311398562e-02,3.888399990211841711e-02,1.471095859761851199e-01,7.833662513138414663e-02,3.019481904943014869e-02,5.847544590944217698e-03
1.707006681710418862e-03,4.869835078538069587e-03,6.174748654228553145e-03,1.684705216663869715e-02,1.617133720246288764e-02,4.078254302198489750e-02,1.124797848468082895e-01,7.680490148229690561e-02,2.852092374291587129e-02,4.329109423340204987e-02
3.581854130728036236e-03,5.996943317929676748e-03,1.233111482648580233e-02,9.574630189958018706e-03,1.325127998332045060e-02,3.757861576975514428e-02,5.121120894188936623e-02,6.437909194935807766e-02,1.256498055750184493e-02,6.306245214624708884e-02
4.742958217187389844e-03,2.803592506769702480e-02,3.034714229841892902e-02,4.072642302108632831e-03,9.503742514491231655e-03,3.079202011691179255e-02,4.903577096689842874e-03,4.496611422525550322e-02,5.999110101342828433e-03,6.212286481329020588e-02
3.660717192364870524e-03,5.151954312039846995e-02,4.428731062652239286e-02,9.229139987553946090e-04,5.553151273005140290e-03,2.246387782543325662e-02,4.432768378014600302e-02,2.222009580419919209e-02,3.403483349299484852e-03,5.121712910320667250e-02
4.150896269181123628e-04,5.786752950458279310e-02,4.836322313636685910e-02,1.002455395295516775e-03,1.707789833350604591e-03,1.460399579731774637e-02,6.844878616878750932e-02,2.504080046067894399e-03,4.775503758075769906e-02,4.264432322993980118e-02
4.883112930078598556e-03,4.405721468718067080e-02,4.041918954430504668e-02,4.944113681280954374e-03,1.706136463643118280e-03,7.639636065185367517e-03,7.948267890930577062e-02,7.671988016098211551e-03,9.576837183551541177e-02,3.691361883447494274e-02
6.184920771171447881e-03,2.445460525513316885e-02,2.759313838691163090e-02,9.971351020579647187e-03,4.831765300130994728e-03,2.657787511365222732e-04,8.885614253735624191e-02,9.765930200611221135e-03,1.107123999610414716e-01,2.699690985888745717e-02
4.740967609956529306e-03,1.069242060285746990e-02,2.258770780186298774e-02,1.081015076077468731e-02,7.502966834259912690e-03,1.058105171892730414e-02,1.107279890888362983e-01,1.291660616785833549e-02,8.719178444216316159e-02,1.422804838587387981e-02
4.060297972467132900e-03,1.958063950396494914e-03,3.086241029785394968e-02,5.526354300875193498e-03,8.894739006962554262e-03,2.118063928593395123e-02,1.324224385067902521e-01,2.171441861321457556e-02,4.660995909025281159e-02,7.028748484290192611e-03
5.348399566499924436e-03,4.970901269968372102e-03,4.507822852394119395e-02,2.728764754934805917e-03,8.790937896815675945e-03,2.757658900116871994e-02,1.175615227979651678e-01,2.968251814527976540e-02,4.727639193855691542e-03,4.618847569294258146e-03
6.563397395945640318e-03,6.421177785547106664e-03,5.889040943506510667e-02,1.081676726643422508e-02,8.110971183075969121e-03,2.786858214992043309e-02,5.623885272623395382e-02,2.994107828243072408e-02,3.891996199324559286e-02,1.888767130693943044e-03
6.338017604630390503e-03,4.886164939775448565e-03,7.879762165706254151e-02,1.818207801580413660e-02,7.891302187115513400e-03,2.470443002425417450e-02,9.750006301187073843e-03,2.674043452480065475e-02,7.982751253015407666e-02,1.142139055152529940e-02
5.643415371504673095e-03,2.930221437381565208e-02,1.069864987202485962e-01,2.309807581331247209e-02,8.309254258245898916e-03,2.170904569362749892e-02,2.776120157003638886e-02,2.957346423742005653e-02,9.763116457979709173e-02,1.175184521808309013e-02
5.614665310033994591e-03,5.202531037758233168e-02,1.208736790582899540e-01,2.156194844357459117e-02,8.386080301451570920e-03,1.975183595949532925e-02,1.197319022234589331e-02,3.899948322238255133e-02,7.691647863647087247e-02,9.497441356033811503e-04
5.862078075586596611e-03,5.065230114916381005e-02,9.519781700770393873e-02,1.262442374866820823e-02,6.738698779580509952e-03,1.743103628754752790e-02,6.735510220675645920e-02,4.452816540771933895e-02,2.855070087945670021e-02,1.447952893943766153e-02
5.395786804363917992e-03,1.969676332584756329e-02,4.140117318091775245e-02,1.143859609646318129e-03,3.354068830074834369e-03,1.391750038990333116e-02,8.294337127288083089e-02,3.687381380573932083e-02,1.825096921695513325e-02,1.701275197058072300e-02
4.349155602684052352e-03,1.792909731547025209e-02,2.411661106477750068e-03,6.973220699358275744e-03,7.957789762250475464e-05,1.007579697321329439e-02,4.251439097043891585e-02,1.816930477258842103e-02,4.229056013751803650e-02,1.131880213802743604e-02
3.853392891558714197e-03,3.395336101190009337e-02,1.873301825169062379e-02,9.669095397008985529e-03,2.539061493321606664e-03,6.323215154042501063e-03,1.977829990293807766e-02,3.191941039919576114e-03,4.469245031684587754e-02,7.576305788100087986e-03
3.917794544447039153e-03,2.222522078187797595e-02,2.030977277944137627e-02,7.736325699039796160e-03,5.063699509637370998e-03,9.736845799408648050e-04,6.658236103776829506e-02,2.371632150603917785e-02,3.693497403259184825e-02,1.030785376705642756e-02
2.744610087603232586e-03,3.882654328419917270e-03,1.758714672680406974e-02,2.247228456506666656e-03,8.316762306533323143e-03,6.435403610957876434e-03,9.387961637502595380e-02,4.293296720730144234e-02,2.169388924489680862e-02,1.818887300414928632e-02
4.802672570603628384e-04,2.806765638132891968e-02,8.794082260687681452e-03,4.568075004576051777e-03,1.016408018883753830e-02,1.140556631238625641e-02,1.076535704093035534e-01,5.416429383549839494e-02,4.664460944452780353e-03,2.975106397107075279e-02
3.420219259290704743e-03,3.661372720821711585e-02,1.632804613563772558e-03,8.513480999321093243e-03,8.091261066555961029e-03,8.716693373341355411e-03,9.784098147072739504e-02,4.962588385171955857e-02,3.373280286666900663e-02,4.254771731379829169e-02
3.449966447909801320e-03,2.297864300613453384e-02,1.271193937979769699e-02,6.868719300034104025e-03,3.374003071484644144e-03,5.438195553650847225e-05,6.005576663145240773e-02,3.404784778995680050e-02,4.431998151536774982e-02,5.012882790705393277e-02
1.618483862047250411e-03,2.622642136667424455e-03,3.935601545580110633e-02,1.355801196417300621e-03,8.018202668176133228e-05,7.505331618429438370e-03,1.579120756827852301e-02,2.108114046754309967e-02,2.577081658404006825e-02,4.558041639839535697e-02
8.473637165731251215e-04,1.951092259843879503e-02,5.632396883267342530e-02,4.346032273374478110e-03,1.043925301640760564e-03,1.039685201906742629e-02,1.427567444552201026e-02,1.529956902611154940e-02,6.902596219042677651e-03,3.030800568025981620e-02
1.170885651258671972e-03,1.869960523509194353e-02,4.794884643403437424e-02,8.001103243847781238e-03,1.859603961171461687e-03,1.125995606668534973e-02,3.781126410499632134e-02,8.251142871627280273e-03,2.759398839556119129e-02,1.695610661183448442e-02
2.976099891727674619e-04,9.765657570150198391e-03,2.803527754198057581e-02,8.776439319145012963e-03,3.782034940725207892e-03,1.313233949014008459e-02,6.988485827395243821e-02,5.566812629264662055e-03,2.416306989744280986e-02,1.706121922751211925e-02
1.929653393588944346e-03,4.643055198534350517e-03,2.315317730840050353e-02,6.968385469109439345e-03,5.177180615051955523e-03,1.522678525061272985e-02,9.880356235971460288e-02,1.801002908040406914e-02,4.115484577317357097e-03,2.595775056439122985e-02
3.087179525173874232e-03,4.905948202189893553e-03,4.421757903755300922e-02,4.389009309982206709e-03,4.996014155475437223e-03,1.482325732249136462e-02,9.589360810512272126e-02,1.829815618563421925e-02,2.061561115603325819e-02,2.700075537764553071e-02
1.510599836602570262e-03,5.894968890414366801e-03,7.613640927490541999e-02,2.159934695953358817e-03,4.415296577793040821e-03,1.095704901617331091e-02,5.492072795533307211e-02,9.487036800389293811e-03,4.587025131842580733e-02,9.947605295030394201e-03
2.203668696458035547e-03,4.050164577859691716e-03,9.343222612694243590e-02,1.319574733074241942e-03,4.185336022794078695e-03,5.301458728828791801e-03,1.101357973012061621e-03,4.960812060972826822e-03,6.919470371175111267e-02,1.697251571936708725e-02
5.980883693528916793e-03,2.659788495454981465e-03,8.506858184688226299e-02,7.219943432269111498e-03,3.386213182335550201e-03,5.212680827053931768e-04,3.987151782692930496e-02,9.010644579693957712e-03,8.013598072906165382e-02,2.958269023283122481e-02
7.400649355691175761e-03,1.607877832911355429e-02,5.983094685539221136e-02,1.247773676705755778e-02,1.694090346608532333e-03,6.720026520819698604e-03,5.982232863105868548e-02,1.229876914692120023e-02,6.847788801534664127e-02,9.158940131850668367e-03
5.549898550374713843e-03,3.513970123580859722e-02,2.962631142104444129e-02,1.310653383066896945e-02,5.378402759550913927e-04,1.222274618293554480e-02,5.253267069167766312e-02,1.044750956272377101e-02,4.092320558226211075e-02,3.196576683914184591e-02
2.456604156360872853e-03,5.169702439672757555e-02,1.866058250341849113e-04,1.032267197419486741e-02,1.032380957156093159e-03,1.282901432995673871e-02,1.139848248210809101e-02,1.358453188993398626e-02,1.764661705320840976e-02,6.009401504210441780e-02
1.337226313926377251e-03,5.392339534248429683e-02,2.092743793702073890e-02,8.696571065898115252e-03,2.333706310830894939e-03,7.179455236550781952e-03,4.473221849002819578e-02,2.826060967760683426e-02,1.001840920678911256e-02,5.973251734651371242e-02
2.913477203609534001e-03,4.034164654802173400e-02,2.435795302933939366e-02,8.749917979381871894e-03,2.930245925487707029e-03,1.347529229428785520e-03,7.480539094550411883e-02,4.242452236054131826e-02,1.150117002043273343e-02,4.406920948779403241e-02
4.628092675429980492e-03,2.706315775590262956e-02,1.260822024875520031e-02,6.707387051215816728e-03,2.538010480019094618e-03,1.553857522055158936e-03,6.285399841243247132e-02,4.115548888674028932e-02,1.274122593502069120e-02,2.682496632576613499e-02
4.178703774040256995e-03,2.965286789065765122e-02,1.014302263250520253e-04,1.868780955438832875e-03,1.997987477591099161e-03,5.060628972615577661e-03,3.617585309548965178e-02,2.824796923107376206e-02,1.614380703377410464e-02,7.696727102445866456e-03
2.654512920444081995e-03,3.980717894542093460e-02,4.790797001695885904e-03,1.086283291108449799e-03,1.939799232950053208e-03,4.338727435312008350e-03,2.165238740274022869e-02,1.901005381107809603e-02,3.087970802140871038e-02,1.343779162676505060e-02
2.818137086427857565e-03,3.458951656643411560e-02,3.317273345503237922e-03,1.065626349009120939e-03,2.068958753497642401e-03,1.757633738066988584e-03,1.219665380789139442e-02,1.782430861813422834e-02,5.678102161115731322e-02,2.823566746452110809e-02
5.051573076253350163e-03,7.778803557362918772e-03,1.760137056419861998e-03,4.838085738035433764e-03,1.649709318648344761e-03,7.151055632092015793e-03,5.656787175053216640e-03,1.635452456943342972e-02,7.635518753168987760e-02,3.194788065600785015e-02
6.931919132782900922e-03,2.376777098404548802e-02,1.144739025632741242e-02,4.559858512402425144e-03,6.390396925863212930e-04,8.303695540521623814e-03,2.029030259738355199e-02,1.134013587443991750e-02,6.843837248195153156e-02,3.431245910510276331e-02
6.973408703778622569e-03,4.514743056369402430e-02,2.370607742065698048e-02,1.941267605790447095e-04,4.238909074930129282e-06,8.349459610028659579e-03,1.655832782602007988e-02,9.529546596676539624e-03,3.375171798483828089e-02,4.971756466517342210e-02
6.726151866315893679e-03,5.860229121034314648e-02,3.010139245252201057e-02,5.329857473435232335e-03,3.625220646547060101e-04,9.780543706023653652e-03,5.908190207276424986e-03,1.245125372084358861e-02,1.148768423374637530e-03,7.689674241595416404e-02
7.792558306835642608e-03,6.909912861704513298e-02,2.399393112760549174e-02,8.545359789453766883e-03,1.043178946902118421e-03,9.497392677219983551e-03,7.894577588939714549e-03,1.091902485937256556e-02,1.160722814231436237e-02,9.757379058521319093e-02
8.568662248221630209e-03,6.934453869371444423e-02,1.107412885363759890e-02,1.016312273034875729e-02,1.077425515281873721e-03,5.135172363753648210e-03,1.692246924045047451e-02,1.545361136966640590e-03,1.483500639638580393e-03,9.857075346419404138e-02
6.589141186860736701e-03,5.163696215707437587e-02,4.664460540076822287e-03,9.057257219163866724e-03,6.453222042712834132e-04,6.899731698507380502e-04,1.160318760418116955e-02,4.571944533650903510e-03,1.991240032012548539e-02,8.549256184671585879e-02
3.051398677563624869e-03,2.623053156445836337e-02,8.166107552076456305e-03,3.609665851658122680e-03,5.419389926546516745e-04,8.607316047733483671e-04,1.254937590365785144e-02,1.709290389005665815e-03,3.077468815651976386e-02,7.108153244637523127e-02
1.675766267400737811e-03,1.198714482650948231e-02,1.061690558883488650e-02,3.489056061123681565e-03,7.569271061123254273e-04,4.017279514861455021e-03,3.978612214106785200e-02,1.340596662718325852e-02,3.470772443727997841e-02,6.153190445962379573e-02
3.219421809189374449e-03,1.246937501519541913e-02,3.087174069227419191e-03,7.095653863377318800e-03,4.886347281382408345e-04,5.056303052167978110e-03,5.613012578583210371e-02,1.714262376882106850e-02,3.656269569137313158e-02,5.833343521079725758e-02
4.419150677926277776e-03,1.567774630018126808e-02,8.417676324422146070e-03,6.683989840606190114e-03,4.195759901767261418e-04,2.074989167409915531e-03,5.798397688360716618e-02,8.762223322440126222e-03,3.575617525495806970e-02,6.148656568540156186e-02
2.862397814536826474e-03,1.303763962040450919e-02,9.650997844111575477e-03,6.464241271633751861e-03,9.900285844442085256e-04,2.858339359020341339e-03,4.497021509641380838e-02,5.125959066589921322e-03,2.847945997172979249e-02,6.399476440244565578e-02
1.350163072041782298e-04,4.727849961601384571e-03,6.049613492856743824e-03,8.023301745861917411e-03,5.726455980980931773e-04,7.176631112200709817e-03,1.897500285578786541e-02,1.493974277588951821e-02,1.530918456016370187e-02,5.141412124755914692e-02
2.339970512734281926e-03,8.319817283423933812e-03,2.807367180904904794e-02,7.693767603195248751e-03,1.446804704753701192e-04,9.571132753390367010e-03,1.080657621134698682e-02,1.552283521661601551e-02,1.939226040327062493e-03,1.644943823276594219e-02
3.508250046183663748e-03,2.304472948884986674e-02,3.448411881884762276e-02,2.306632915273028675e-03,2.936487657391494751e-04,9.452344025330468302e-03,2.957584314592270197e-02,9.172614928891988442e-03,7.343119704549198878e-03,2.716595304939199013e-02
4.516286703926350801e-03,2.861745284796922764e-02,1.322994603425505303e-02,6.177452201358054305e-03,1.552307100514761692e-05,6.821311029350868131e-03,2.708184172899739256e-02,1.622843201901459208e-03,1.499491083608430614e-02,5.535214755751612786e-02
5.776717924011607469e-03,1.570062886441005515e-02,2.352316196875427895e-02,1.309913898000010860e-02,1.469632997510763998e-04,3.041248494844306025e-03,8.322150494699273246e-03,4.367196532141248005e-03,2.823942489947629114e-02,6.141047245881024047e-02
7.064610922705631332e-03,1.024867839363743233e-02,5.279883056949847414e-02,1.547749620074936015e-02,1.273802158514247232e-04,3.290567209830092855e-04,8.649249347047832659e-03,8.986228770098211513e-03,4.954938265676766401e-02,6.153658849489820198e-02
7.511252467121016727e-03,3.502287565577483913e-02,6.335019432791180738e-02,1.269316817655749552e-02,1.191050910399625345e-04,5.417630812773765493e-04,1.077154006446788721e-02,1.131415112069791319e-02,6.888035354693107515e-02,6.794943964225831634e-02
6.214728569589864950e-03,5.166746287303115859e-02,5.750837438094442977e-02,5.521527010327938190e-03,1.763135306211405771e-04,1.117634977404182058e-03,1.793637083065120806e-03,9.846756268772337631e-03,7.130585985603059285e-02,7.177862905926751802e-02
3.855160710453099399e-03,6.112720737614966288e-02,4.105007155469057867e-02,3.211731513603925670e-03,2.981052046707389678e-04,2.909093113166602140e-03,9.031450489046865399e-03,5.837744524427737093e-03,5.447896890955555849e-02,6.043232985554174846e-02
2.262012940099730144e-03,6.204173996052351342e-02,2.159595265392749708e-02,9.079313520397341852e-03,4.279684250888809581e-04,5.291742953022034873e-03,2.206812706242195291e-02,1.981371640086373662e-03,2.983012508050461239e-02,3.707355961923708421e-02
1.496130613525140443e-03,5.078605848085041008e-02,6.861021183133930029e-03,9.984301806600993576e-03,3.757523540354589658e-04,6.867469482282483224e-03,4.167696104038505489e-02,1.765518497607387145e-03,3.785764527024477501e-03,1.493889469070693379e-02
2.365444788437576858e-04,2.933373506425672114e-02,4.769226898875895265e-03,8.549120515578415361e-03,2.182958332419458150e-04,7.388817634064543706e-03,6.238690209782556811e-02,7.607836990705260649e-03,2.721047738539473029e-02,4.301733404493376586e-03
2.751249743976060761e-03,4.674315462924775837e-03,2.242841669269390881e-02,8.287869982911321570e-03,4.939483528589742661e-04,6.665271927319996355e-03,7.303017595670795170e-02,1.547290422629959104e-02,5.479099047811733514e-02,8.072780755098880878e-03
3.109754453612154079e-03,1.872434762099468852e-02,4.529940436209176774e-02,8.508119391199346973e-03,1.321025339994549202e-03,3.537280740903550168e-03,6.976753324708925841e-02,2.191518079840775943e-02,5.199716007544330498e-02,1.849371101208629325e-02
7.818162430536616803e-08,3.968186591841699890e-02,5.785157851650304245e-02,5.770797641582238978e-03,1.840742581918321285e-03,1.444372620134259239e-03,5.308026029345683239e-02,2.273153821801710689e-02,7.655544491968063747e-03,1.854497456220063900e-02
4.130780610440858147e-03,5.383071539338886435e-02,4.893929340017424967e-02,9.879090303418713533e-05,1.416494819609699900e-03,4.388667582985388005e-03,2.049096739217016322e-02,1.537060607366374718e-02,4.865128030064644338e-02,3.041748362078024182e-03
6.379707011671564842e-03,5.370132372243409391e-02,2.631157601425771625e-02,4.853015992449884880e-03,6.806898157989221777e-04,2.550580498288304923e-03,2.106422698016223796e-02,1.791210559050346275e-03,7.744041066012159746e-02,3.951823506386805546e-02
6.216916502968361687e-03,3.933516373724098986e-02,6.868834501073151598e-03,5.201869627153644579e-03,5.014816253800474626e-04,1.193717115939562376e-03,4.545898059141722375e-02,9.944603544364417902e-03,7.184529959272074884e-02,7.332777902850910745e-02
4.428898601905202452e-03,2.240686804210877819e-02,2.686281085469229999e-04,2.223586583721899428e-03,7.576356755280015849e-04,1.949372886226975483e-03,3.252224228474467210e-02,1.218348497338036726e-02,5.150344632917057408e-02,9.090520796933361514e-02
1.704118622116431630e-03,1.279082024541248683e-02,2.414692844291008167e-03,1.188330716082678859e-03,8.858085757651471210e-04,4.298281586173499321e-04,2.961294807846515977e-03,7.935362336830798988e-03,3.000893759912117917e-02,8.953630862719212657e-02
8.160871481281476141e-04,7.373369079853599704e-03,8.742908722026068030e-03,3.441168121558339007e-03,8.161624760878733852e-04,1.802825726690234550e-03,2.928660152243173220e-02,8.572458851663477403e-03,7.491908064168746086e-03,7.669193945618514585e-02
1.559663979048882525e-03,7.112316331699702248e-04,1.721148810389399458e-02,4.290577474743655258e-03,7.909953328394648230e-04,8.067721367601316277e-05,3.845931869176048845e-02,1.807741402966404204e-02,1.664079850237902558e-02,6.270826270357689192e-02
4.562031782366680150e-04,1.881074203620424065e-03,3.087001344541219494e-02,3.954204171505801974e-03,8.494180381109895208e-04,2.488846608549627210e-03,4.626127310957160038e-02,2.598815288839499693e-02,4.110281035417990420e-02,4.941580595960264055e-02
5.340448709641144268e-04,5.548798978878280268e-03,4.842732620176394553e-02,3.020663366803086423e-03,8.785853153479026081e-04,3.281336590628703212e-03,5.794111786239409395e-02,2.129563565427472147e-02,6.535881517881565739e-02,3.061396646013687245e-02
1.069782020331096206e-04,1.353122162357363843e-02,5.862448309159809523e-02,2.481800732367327091e-03,8.584123220088167670e-04,2.484307122083046198e-03,5.939345391745470826e-02,7.881636870638241213e-03,8.026652802774089657e-02,7.241061453821478686e-03
5.323740903231818315e-04,6.085843867431106613e-03,4.869607186285953432e-02,2.834842146789288801e-03,8.419661454097754566e-04,1.669059448384562633e-03,4.376293428908464844e-02,1.380407729187195379e-03,6.334473460902245723e-02,8.551493124690787498e-03
1.832124285160219627e-04,1.692587135163466441e-02,1.842954821455869072e-02,2.799249841333518226e-03,8.386292603769462646e-04,1.357570330641354574e-03,2.384061585496307506e-02,2.513449137039991833e-03,2.171145509735375630e-03,1.007285109887853802e-02
1.541188000253254859e-03,3.929123261765474218e-02,1.855040346151445169e-02,4.453587185676786400e-04,8.217289110404057441e-04,1.080822226289064256e-03,1.040490177924913856e-02,3.300221256824364610e-03,7.927995515824905193e-02,6.210896925585043978e-03
1.661893838422783898e-03,4.926157359945427389e-02,4.745151768960125666e-02,3.347573301407305319e-03,7.876534651612933022e-04,6.176525985949729613e-04,3.519140127165246244e-03,8.625047498053340159e-03,1.362643713469138262e-01,9.967079896694541752e-03
5.257897575881844907e-04,4.880388106707749668e-02,6.213475979000562116e-02,4.896178717977325325e-03,7.532756800330480751e-04,1.759923112354161337e-04,2.717950723521095346e-02,1.252923368066084092e-02,1.465029833368456103e-01,2.482090748465196062e-02
1.500515844478766546e-04,4.214766327839263721e-02,6.331215309208712561e-02,2.739272620235051314e-03,7.190371462966996426e-04,1.387705490912458886e-04,5.504938321455729588e-02,8.449151820501711943e-03,1.236893030141384964e-01,4.420992028366947657e-02
1.564305028593828252e-03,2.783834438254916693e-02,5.284374557540526263e-02,1.770169308733484021e-04,6.688830924293286215e-04,4.213688171702200357e-04,7.399813226318040227e-02,1.444230779526552047e-05,9.129232929508646066e-02,5.890243862117042900e-02
3.339106411265358246e-03,6.238790876048304346e-03,3.289933809183676755e-02,9.047244455208209527e-04,6.071645439879041909e-04,7.214296386766842328e-04,7.774928436874682658e-02,3.534408244958531058e-03,6.008369873448819731e-02,6.525047284072615916e-02
3.850128761489978683e-03,1.454267660092899497e-02,9.254116466757495232e-03,3.884880356024998822e-05,5.613547189122461596e-04,9.946846456474033992e-04,6.891340549748471711e-02,2.110247856303466493e-03,3.169160342328169316e-02,6.787777571894337836e-02
3.146586321973776027e-03,2.688490752513350221e-02,9.233874604052269564e-03,5.078573339065554134e-04,5.229228932490427584e-04,1.217109420064926275e-03,5.341368712980901212e-02,1.435714869268746828e-02,8.238728989764125543e-03,7.193117037402407821e-02
1.995801330715237052e-03,3.268045407129115121e-02,1.798721945899386943e-02,4.435449796684517564e-04,4.394147573927559389e-04,1.409187339269370957e-03,3.610968537202293577e-02,2.785539442510561250e-02,9.401566466142402545e-03,7.508903357323679084e-02
1.237091123701386216e-03,3.720419650143381995e-02,1.998556813573646243e-02,4.877969386166073197e-04,3.312698529078476764e-04,1.582783525380683769e-03,2.008284621971376943e-02,3.686430092453594348e-02,2.560178983293385016e-02,7.088539892137742104e-02
1.840310692516032316e-03,3.784701548426351592e-02,1.748521681565103417e-02,7.813897486269755785e-04,3.119982541418992741e-04,1.729144697356640482e-03,9.758447848104225691e-03,3.659557844585881181e-02,4.299122860311202499e-02,5.567887231803832215e-02
3.099000524945484409e-03,2.817153560144221303e-02,6.557365835413229808e-03,1.000330683881423292e-03,3.434936853717622182e-04,1.843630939965877884e-03,1.063670460952761271e-02,2.606751439286966385e-02,5.303540421621047440e-02,3.014870368932063074e-02
2.103515152861997178e-03,1.108841767861323477e-02,1.355649220517188107e-02,1.073333664782937999e-03,1.835807369952253195e-04,1.931631821770821806e-03,2.202980601253677270e-02,1.022563222287552372e-02,4.258141025324150425e-02,1.677852102232955250e-04
2.171302970814957892e-03,2.224385493181078605e-03,3.221733642148280619e-02,1.142237049503823073e-03,9.877012003895905634e-05,1.997045613209156006e-03,3.656466137914680947e-02,2.145655498653049192e-03,1.134396815260333910e-02,2.439812876768467781e-02
6.220754724830990581e-03,5.753958335923146927e-03,3.651719492261713135e-02,1.246430029339814193e-03,6.052253925142622834e-05,2.039348693799178120e-03,5.039369697095261863e-02,4.632044701665739492e-03,2.428018808545611557e-02,3.232769545025093727e-02
6.202518271806210966e-03,2.761216841224032638e-03,2.487116162301844166e-02,1.339589029555060627e-03,7.853343430644937504e-04,2.058928069384992777e-03,6.344504277212244248e-02,1.998839629776705262e-03,4.629195048697319625e-02,2.329324397576748237e-02
2.909115302810807123e-03,1.427617066979050943e-03,6.155213297171216111e-03,1.395716076909911136e-03,1.206528973845999615e-03,2.058486568294783624e-03,6.796598546694977705e-02,1.156866126379524004e-02,4.886823687943140510e-02,7.184822598993741323e-03
4.364962133184486018e-04,4.460058603533231456e-03,1.195890808537860076e-02,1.396692664677530189e-03,6.863261443999064352e-04,2.040525712345842534e-03,5.349369958389778301e-02,1.811694430309646053e-02,3.787100050350676594e-02,3.703377662950183349e-03
1.273651743055269651e-03,7.197931530286716742e-03,2.911749112534161091e-02,1.371724151696880264e-03,1.366320162700860024e-04,2.006615368040357960e-03,2.699575990051502131e-02,1.937397509520974448e-02,2.224434980486745400e-02,3.949211078192779723e-03
4.047103033230007099e-03,1.178541855829650688e-02,4.633704200176844840e-02,1.418697560513360566e-03,3.921455842860883641e-04,1.958518628906032091e-03,9.935791705917913774e-03,1.666739498221793750e-02,7.286777877430383049e-03,1.964068119119173530e-03
5.534110302300474654e-03,1.808562661049070708e-02,5.865421276130820122e-02,1.495731800065696129e-03,2.028550275984357387e-04,1.898500580035034991e-03,1.085475149208372549e-02,1.246175378524831505e-02,5.879482087488133168e-03,5.488447256567260957e-03
4.243858286296890367e-03,2.410672760786167212e-02,6.043451194357062767e-02,1.368616338842898635e-03,1.320053817761274021e-04,1.828757325820874920e-03,1.800642469489037098e-02,7.273284812355970338e-03,1.734851010997059961e-02,3.546493168046246144e-03
1.591812715661296892e-03,3.002765501673924226e-02,5.620841151270410119e-02,1.109076352536874982e-03,2.483465042543481671e-04,1.751216477642207354e-03,2.057576183968478148e-02,3.776318493719389019e-04,2.736266732824971237e-02,3.391014319837812839e-04
4.792137334106377571e-04,3.519346832360872868e-02,5.464530605456958956e-02,1.278570454607299645e-03,3.089002266000545030e-04,1.667755399562429516e-03,1.921881703210432876e-02,1.018223860850137573e-02,3.617165474959961602e-02,5.101826997774795355e-04
1.756315436990269103e-03,3.290011630921375885e-02,5.045631563915789486e-02,2.000846616328364781e-03,2.736266025346424180e-04,1.580253006162036806e-03,1.644186322703511394e-02,1.812312160927689181e-02,4.194816630639514043e-02,6.038637727917653148e-04
2.828820315147115988e-03,1.812873835661476737e-02,2.760273774301569283e-02,2.409299910843486735e-03,2.555712267962057947e-04,1.490447080161456245e-03,1.332534786383850374e-02,2.022500905068760207e-02,4.142528341796005570e-02,5.251306965991373553e-03
3.286718804555885561e-03,2.408528538941133966e-03,1.434185926816578839e-02,1.867743865958945010e-03,2.774991308867270283e-04,1.399871178098477170e-03,1.263032881928000117e-02,1.706663382415581076e-02,3.518181246579677596e-02,1.608163840281449236e-02
2.275438082672530567e-03,1.781761795755474817e-02,5.258844897374740507e-02,1.015325933034598666e-03,2.865729536839797895e-04,1.309888867290377474e-03,1.180509880235486135e-02,1.288364649310496692e-02,2.869254010045255154e-02,2.606905408872261035e-02
3.801375317276171873e-04,2.606461795634787415e-02,6.710916224892431170e-02,7.230919912604571054e-04,2.682028497107375809e-04,1.221697973292574678e-03,1.313059724283047918e-03,1.039798521007221331e-02,2.600521861225512862e-02,2.111697499555950652e-02
4.050505522336725881e-04,3.114633248385204056e-02,6.098371613147587911e-02,8.696609106625340611e-04,2.498055133254367070e-04,1.136294492350548718e-03,3.458408503730234229e-02,7.924850017319169312e-03,2.631225596829854518e-02,5.322682787676780158e-04
6.576545416267830582e-04,3.293090321259285053e-02,4.840530390594650900e-02,8.932522286593226829e-04,2.483325963493648349e-04,1.054455722321908815e-03,7.711749408184601084e-02,3.195947254333609926e-03,2.786741230825562701e-02,2.240524765849203834e-02
1.456421792213060621e-03,2.778115626415909520e-02,3.494382726152982926e-02,7.267091417963180387e-04,2.482114915088619029e-04,9.767505109810723125e-04,1.060701163990903084e-01,1.313414952630704517e-03,3.021955756316945657e-02,2.810121655557741918e-02
1.158285180387746272e-04,1.641211873119603065e-02,1.845561929768206599e-02,6.137561280955924252e-04,2.233691345036311151e-04,9.035495578214959361e-04,1.075600050873084801e-01,1.434237452774570105e-03,3.104960959745946616e-02,1.623524777530573407e-02
2.794256644057379214e-03,5.297010578461696512e-03,1.524604690543204799e-03,5.943255043851809055e-04,1.896680209337644205e-04,8.350270755686729687e-04,8.764617200069554914e-02,1.198076290747963424e-03,2.616611452992116671e-02,4.508700123017730585e-03
3.964596400349459232e-03,2.238608735423723226e-06,7.285597397017012575e-03,5.570668018232910815e-04,2.011125472518696697e-04,7.711644821690830532e-04,6.173689024985133667e-02,1.296005130305684459e-03,1.545270954508800448e-02,2.449725605568077100e-02
3.571210517526561979e-03,2.223163048416944938e-04,3.956940861087745315e-03,4.827880077755129806e-04,2.359687614200836419e-04,7.117695136724629720e-04,3.769708881597373662e-02,1.498105289413093110e-03,5.241854840089372851e-03,3.464753675875151262e-02
2.976528040573135549e-03,2.375561621552032057e-03,5.193862623551362065e-03,4.237570500352506029e-04,1.820615167057398171e-04,6.565090174028486922e-04,1.542743968555687108e-02,3.539851978861124644e-03,2.250952706779561600e-03,2.888643586870526594e-02
1.807532431804487498e-03,3.882492681897593053e-03,9.706925132087063438e-03,3.894619520107664608e-04,8.011676568114197415e-05,6.049279582496821898e-04,7.345071690871571649e-04,4.751403858003434323e-03,6.845831110736129606e-03,1.044146301527353222e-02
6.491987288487950387e-04,2.795901013649257447e-03,4.860873908183449381e-03,3.557973877578580850e-04,1.735900060274683430e-04,5.564459397738675877e-04,6.410090185533122084e-04,7.833960311689888364e-03,1.350417841862969204e-02,9.783032118941048516e-03
2.790389990038917925e-03,2.939908708763832104e-03,5.153007118293374475e-03,3.186884547930727445e-04,3.939875492802912211e-04,5.103866251354911582e-04,1.777001957257035372e-02,1.194840570725103253e-02,1.684534770621243932e-02,2.369275681006760906e-02
2.957222881512754521e-03,1.244554758707320380e-02,1.362740093966622115e-02,2.884448014369390620e-04,1.781034871492288732e-04,4.660628956994181701e-04,4.124642480295694774e-02,1.336953093942982139e-02,1.611696068078556643e-02,2.973439189388819154e-02
2.653489498942623089e-03,2.110244992652141049e-02,1.946190002643307521e-02,2.645314241308867483e-04,5.968845630490015198e-04,4.227986977578536117e-04,5.313086855707963713e-02,1.067392939977911126e-02,1.398166620362359912e-02,2.754206756251442734e-02
4.077836286174709411e-03,2.524408719696187922e-02,2.458248091643797789e-02,2.422427410649777638e-04,1.061202094445577466e-03,3.798314093617637414e-04,4.864602386378688581e-02,5.252529038543973273e-03,1.246478050137897128e-02,1.891595347851719733e-02
6.002397670500210503e-03,2.451104757668224471e-02,2.429206517901083551e-02,2.248984857834715684e-04,5.768639621065041077e-04,3.363450875347970574e-04,3.492192999197489545e-02,1.147370580066872777e-03,1.145169903776267241e-02,1.290841822985473036e-02
5.391511109773070715e-03,1.837291520108978032e-02,1.039740722489298011e-02,2.116991720512899702e-04,2.175307149783123806e-04,2.917600779492074848e-04,2.079207349046573172e-02,6.689756081112730943e-03,1.028821010413067359e-02,1.710032050049892574e-02
1.932649742275706654e-03,5.245997472370801835e-03,1.373328450590798402e-02,1.910845407287280716e-04,4.518796076838130205e-04,2.457458189202906961e-04,1.127179022403504774e-02,9.328861397958491605e-03,9.012348412011589663e-03,2.469423631779389672e-02
1.706667643730687065e-03,1.236929729312366381e-02,3.320910681603762848e-02,1.660056008113062987e-04,2.488508632324426171e-04,1.976726724489008167e-04,6.863754454519462554e-03,8.184597312541442432e-03,7.903057354277504692e-03,2.257513680949974066e-02
3.194868060055733403e-03,2.616484775309997970e-02,3.989162311724753912e-02,1.596390424886471975e-04,1.711118851689893169e-04,1.466323246865181246e-04,2.131841583260736354e-03,4.417114200921703517e-03,6.930927328660773865e-03,9.264140698633877014e-03
2.401696306221877755e-03,2.863175649070347217e-02,3.889523206531207006e-02,1.617956878794472831e-04,2.862963189191864810e-04,9.266194679543798894e-05,9.827472409183538038e-03,1.009028824247171522e-03,5.952129660942048067e-03,6.060632135067339950e-03
1.061938360292842770e-03,1.963842567579488635e-02,3.574199002858092361e-02,1.197027899074325544e-04,3.509940520426526114e-04,3.677532450192588570e-05,2.435987863663826442e-02,1.163345378481958538e-03,4.966168801656624734e-03,1.616913928234837636e-02
1.498749306311263855e-03,5.890899084214404335e-03,2.948244280257816818e-02,5.227703586776620993e-05,3.254613473194204907e-04,2.161907033927056552e-05,2.379799408720341403e-02,4.917113581295437866e-03,4.028907264416889400e-03,1.678076862506823821e-02
4.339472605836901080e-03,4.662215477766560624e-03,1.928348729597110373e-02,7.097431317968838833e-05,3.212078183915826951e-04,8.483204538057176770e-05,4.390961177720793460e-04,8.776019453770374928e-03,3.131199209962392399e-03,3.382126695080133697e-03
7.329926093846641892e-03,8.985994861374949419e-03,7.351969861093854072e-03,1.363450932257066783e-04,3.574980326314006044e-04,1.513746664399748926e-04,3.159598962585918186e-02,1.089031140225308128e-02,2.238349130871463994e-03,2.131383654675466505e-02
8.033084449913619612e-03,1.045794359304449972e-02,4.413166684906300562e-03,5.245816390441721097e-06,3.815837654344408827e-04,2.155747653885250266e-04,4.563580156592839110e-02,1.307152889723505428e-02,1.347596701886454073e-03,4.315900070058169974e-02
7.145559917674410531e-03,1.244037280679118757e-02,1.345817540414979800e-02,2.544648262064786478e-04,3.830916730230204612e-04,2.793689558603235090e-04,3.830443666150867149e-02,1.514615952881492519e-02,4.704712945258666696e-04,4.911895456015315242e-02
6.907903953232880610e-03,1.171483649042432025e-02,1.525495605481247408e-02,7.958624346213569883e-05,3.860232689133294166e-04,3.534557025423904430e-04,2.288485757221030842e-02,1.297389919389102357e-02,3.942658122060961959e-04,3.967516277107740325e-02
6.863205092172132600e-03,2.882762777829736035e-03,9.337548834463117731e-03,6.533456520396562633e-04,3.949096383420207181e-04,4.321784056204816147e-04,9.364092995734027425e-03,6.090677081987066512e-03,1.252670202199707714e-03,2.411303226493696078e-02
4.118570926981241116e-03,1.140282340336711171e-02,3.025525703983922201e-03,1.074709991240479102e-03,3.979209585201834301e-04,4.904525284044436266e-04,2.355501103796507276e-03,1.336107127811250305e-03,2.102883324347325309e-03,8.785652420249725342e-03
1.921515136082635553e-03,2.029359111022257731e-02,3.373730128651260783e-03,5.461458718807051622e-04,3.925723269513456577e-04,5.373792620945945552e-04,1.421575674634270071e-02,3.639383072751329207e-03,2.938789781100144445e-03,6.267407920772880697e-03
7.931106489907279941e-03,1.651747859190950268e-02,8.595150626936510704e-03,2.932747074536778313e-04,3.845840340862288916e-04,6.242715999607605700e-04,2.486813717273328797e-02,8.352892554456009533e-03,3.756164051631126662e-03,2.252892691876718159e-02
1.084869202457597846e-02,4.587281835755909268e-03,1.209789650962337162e-02,5.720336730967919567e-04,3.748908112520812561e-04,7.304210098067426358e-04,3.120135818708851330e-02,8.308392510565029004e-03,4.551220926029745859e-03,3.742139828324129308e-02
1.125507442957702532e-02,4.913095369274951899e-03,1.166713897838923646e-02,4.129023691017173823e-04,3.600093931552917443e-04,7.429082965707906267e-04,3.101789948575583641e-02,4.060357625655407372e-03,5.317949302883493226e-03,4.386490359206515754e-02
1.106307558171170172e-02,6.775482011198635107e-03,1.012152889681164521e-02,3.804309359468445646e-04,3.401443272672691263e-04,7.000938575898585500e-04,2.580048459246869416e-02,1.398553909606146776e-03,6.049023663156102674e-03,3.755002620292602344e-02
1.026346023370827004e-02,4.368595465034032406e-03,9.583588502644672935e-03,5.409082214778046212e-04,3.191830048801546672e-04,8.440623451052559198e-04,2.109601570447664984e-02,2.029102481281800513e-03,6.737357436800476239e-03,2.422201515941273947e-02
8.286799935093576430e-03,3.066735450964782565e-03,9.462181712561364144e-03,6.456935688716041464e-04,2.965798668977372913e-04,1.105947248874120884e-03,2.141610112299863547e-02,2.250958439806279455e-03,7.376009675188218047e-03,1.488831381319349195e-02
6.526746847546627435e-03,3.699256462688239877e-03,8.924181070661960438e-03,6.565167856532052541e-04,2.669793956401332103e-04,9.219778161875653811e-04,2.535854262897145606e-02,7.924740496074954548e-04,7.957783458138105101e-03,1.377427183138630294e-02
6.623160248313390147e-03,3.057265649119760096e-03,8.224891557783189228e-03,6.947632745704485600e-04,2.331987397027233077e-04,1.685861690850697591e-04,2.813701097923106825e-02,5.908532653835188442e-03,8.475595461428163738e-03,1.649199351360955412e-02
7.632235413305622600e-03,5.625617984368917399e-04,7.737904459536711077e-03,7.754779699422030548e-04,2.073597976751937518e-04,2.848028903503810024e-04,2.761048994988972438e-02,1.030649013626119825e-02,8.922994555250461993e-03,1.938737893711979521e-02
7.524154428964730836e-03,4.203124380452359643e-03,7.343213803487131340e-03,8.234125065044729493e-04,1.851754815647214101e-04,1.998559742674656974e-04,2.546075379131717067e-02,1.238507261740487420e-02,9.294307956560002998e-03,2.419825219782619635e-02
6.297648800731758985e-03,4.131507149210129036e-03,6.867018534134618386e-03,8.353534498239975452e-04,1.428347215386109993e-04,9.841701847497755142e-04,2.364390827785732563e-02,1.240964602968594802e-02,9.584691813978425678e-03,3.283695877929423274e-02
