3.836627022063156646e-04,7.808471995523795506e-02,8.930007620096465934e-04,2.191331637827637849e-03,2.022442033435301566e-03,1.300278935087838088e-02,6.912624226282425115e-03,6.487058219820847349e-02,7.754191732318352348e-03,1.787131751064430230e-02
3.530571575987197100e-04,6.713082599669450978e-02,8.227982223179645125e-04,2.055878615949455201e-03,2.177375300590938048e-03,1.214855220581312345e-02,1.822711419311418696e-02,6.172512718468835952e-02,6.124190716880389962e-03,1.629422628959370511e-02
2.553442542553361998e-04,5.517525934637345503e-02,7.128845361455153542e-04,1.897101184800478518e-03,1.880190984988936668e-03,1.367294603365293813e-02,3.942240896300483466e-02,5.101059649302382842e-02,6.452810137500578427e-03,1.408219762625882200e-02
2.014293330697797496e-04,4.357471680440066358e-02,6.413829892918797727e-04,1.730624746791164332e-03,1.693038376244587577e-03,1.842421083720134634e-02,3.379527390508527129e-02,4.102760297700747821e-02,8.454130985021398453e-03,1.100915753909198144e-02
1.810044631980381295e-04,2.220614983746259721e-02,5.952214441094724490e-04,1.556818023597361872e-03,1.691002051324166748e-03,2.110913745514957085e-02,1.384141951659285247e-02,3.820922655249839317e-02,1.011711480366308223e-02,6.858316369165988295e-03
1.798520186922037756e-04,1.356438845076873845e-02,4.529437165647745068e-04,1.356882332728214999e-03,1.644621107475241571e-03,1.508623284208164030e-02,1.625417353193663039e-02,3.992033524992194549e-02,1.013126896992535067e-02,2.962064450044878030e-03
1.688198561829692328e-04,4.504158274102272597e-02,2.532738045155260697e-04,1.145124226106967536e-03,1.511940256819838862e-03,1.248204878395735642e-03,4.908250881869984095e-02,3.831315793285677146e-02,8.693224683096027056e-03,8.824371337838548927e-04
7.559919162414276107e-05,5.055898653677255716e-02,2.464043273665767527e-04,9.782953212917433299e-04,1.388300486293894123e-03,1.118752519974186219e-02,8.047237262710138506e-02,3.069556241473839903e-02,7.141460332922251047e-03,2.821273805516001784e-04
1.435869880063450152e-05,4.261948971952163323e-02,3.674510173924694389e-04,8.437952512950443922e-04,1.310985037638667978e-03,1.497421704953440062e-02,8.509199999197106234e-02,2.324686617391195920e-02,6.977309893417925693e-03,1.936178307456564969e-03
1.085345953347804980e-04,5.591811714505991876e-02,5.270896070091840547e-05,6.362686526308549036e-04,1.275658998556164882e-03,1.237173751490991229e-02,7.246405014682882895e-02,2.211460376750856716e-02,8.225767148733220333e-03,2.007576256632115363e-03
2.671026204745248055e-04,9.354951575788116036e-02,8.197429312740702693e-04,3.953388043326509543e-04,1.247467285684529786e-03,9.445753381976619914e-03,6.012064433157450483e-02,2.618602588528821593e-02,9.557234746697678904e-03,3.187406371966764514e-03
5.602269054282084143e-05,1.162637796847477006e-01,1.377179264047877607e-03,3.643096835697809638e-04,1.157976179898334741e-03,6.716892475448191582e-03,4.626797446814645554e-02,3.268843185670615437e-02,1.050292852667540286e-02,1.302317223984539481e-02
7.422885073320766502e-04,9.469730510668508683e-02,9.793121061576006998e-04,4.875169724451771302e-04,1.071742431198998910e-03,2.372552174064438855e-04,2.422256777201168068e-02,4.167953665098365207e-02,1.174651859980491327e-02,2.130339146051361127e-02
9.932271945322303404e-04,4.615987760872047874e-02,2.638939415338041172e-04,2.129304821027936767e-04,1.187259235034074855e-03,9.579728212736907111e-03,3.891036190019001029e-03,4.939988586313614344e-02,1.281205006193315496e-02,2.127190733118955804e-02
7.333935910207454089e-04,9.282197241810096963e-03,1.003259827047408231e-04,5.991225851808822675e-04,1.395543506005028633e-03,1.557044100545378409e-02,5.589755278096186775e-04,4.654418612678196121e-02,1.184395271804922906e-02,1.023225466775119427e-02
7.230326575511833963e-04,6.326839439014693423e-04,3.641715639828290731e-04,1.095437453054225749e-03,1.212667216151762026e-03,1.242077362994628391e-02,1.171372888397119102e-02,3.084282091772433052e-02,8.599100993814182137e-03,1.024385878674855324e-02
9.627964178349253258e-04,7.708679311973173388e-03,4.908003940322759953e-04,5.974597876031982092e-04,6.031947938307712304e-04,4.168816294668213976e-03,2.067121056166245502e-02,1.452878156332943274e-02,5.217557160917673555e-03,3.500738445994360654e-02
6.924997783178959846e-04,1.472990816005512356e-02,4.129080828963206380e-04,2.957530683102761087e-04,2.792864407726702164e-04,7.893020604999262217e-04,2.031279702657934338e-02,1.062362254644194128e-02,2.812334550535327930e-03,5.515103339123373499e-02
1.226804598975898976e-05,2.017666470928495062e-02,3.757401363754520052e-04,6.294639163772682575e-04,6.882049329212976000e-04,1.527257020942528382e-04,2.021897187992253986e-02,1.529569026829548026e-02,1.763821526524696507e-04,6.197431597872951614e-02
3.495666305672711347e-04,2.773395535217775681e-02,4.172228040636900034e-04,4.379151591005029385e-04,1.518022542515544372e-03,1.450764364357401458e-03,2.830318597081338608e-02,1.344758184113030268e-02,2.675018473088935141e-03,5.444763292258202048e-02
1.988920355825506245e-04,3.511612218408879937e-02,4.215168482815297439e-04,4.604803495004445722e-04,2.323422710086770968e-03,3.199168820135618553e-04,3.619163611848150858e-02,1.243627386674109152e-03,3.341425261800368141e-03,4.010846652559527797e-02
8.336714831798734389e-05,4.102762623782273826e-02,3.735144999082467719e-04,9.636398834427163012e-04,2.511920512808348688e-03,3.385002696250089937e-03,3.112653906356257355e-02,8.409389066443577823e-03,1.276540574942673818e-03,2.682714787687229957e-02
1.825213396781741478e-04,5.237550820015868247e-02,3.366485624292063906e-04,1.292690600261901150e-03,1.375896178679794852e-03,9.183972319778252805e-03,1.761074078399329362e-02,6.440755089212139677e-03,6.017070469960063067e-04,1.577407639804839432e-02
2.726919141089848854e-04,7.417112924056605550e-02,3.149580047114456998e-04,6.750183893789042221e-04,3.595003079324595981e-04,1.644454695755362406e-02,1.582929915874677421e-02,2.704482557595199420e-03,7.587290359540373608e-07,3.757339923788229237e-03
2.618058428426916812e-04,9.872738123950343392e-02,2.645013462627800530e-04,5.566180281799611206e-04,5.104970129664752800e-04,2.183201051061533018e-02,3.627212620561375694e-02,1.335764231819722495e-02,2.752546500988650550e-03,9.204961858519549942e-03
2.512824562057609096e-04,1.124350777299088222e-01,1.974815520910053472e-04,1.055958278221301753e-03,1.426759703326044857e-03,2.182625247354778864e-02,6.586487756628850443e-02,3.931451424351117135e-02,7.049907153571988681e-03,1.804289599626232588e-02
2.846626354914814656e-04,1.085894190685907229e-01,1.731013480866705392e-04,1.022996432415692258e-04,3.250721055656206025e-03,1.676694233499829642e-02,8.481400214561538031e-02,6.315878370255068042e-02,1.225721881917454965e-02,1.950282655068558482e-02
3.142138052588540451e-04,8.903180495054086041e-02,1.641983982275657531e-04,1.532615700792477626e-03,3.532145611908655679e-03,9.362286553913207882e-03,8.781281741683032160e-02,6.690368758516072878e-02,1.590037172502185153e-02,1.702873710943266991e-02
3.182050245471691545e-04,5.905626433686406163e-02,6.830640733761594147e-05,2.694064083914922240e-03,3.441090049434313795e-03,1.854700599747820993e-03,8.104258433698753594e-02,5.268947582045416939e-02,1.560690115109424243e-02,1.570730134231585959e-02
3.180610911153496567e-04,2.705700929466478555e-02,4.906332335966114450e-05,2.944936193478082942e-03,3.847519723362701101e-03,3.131304984931805504e-03,6.850412433555132241e-02,4.415021763594646764e-02,1.326570843841118515e-02,1.510111913474930165e-02
3.237684396805203934e-04,6.524343971722295667e-03,3.032135162295733694e-05,2.273612207880524368e-03,3.420318147680345266e-03,2.704463807120587211e-03,5.238588692406823816e-02,6.190886251732623941e-02,1.433489072302246078e-02,1.069304619559510554e-02
3.251784191321078956e-04,1.083074151676897273e-02,1.718124457724742459e-04,6.503204093203092222e-04,1.040433781866887970e-03,2.748733720837323591e-03,3.876836681617429337e-02,9.910379414919412433e-02,2.164205522344315666e-02,1.626259087993199874e-03
3.172758230665566424e-04,4.146642031901668496e-02,1.093947709215005362e-04,1.954605480213741052e-03,2.381560816392425464e-03,9.379028852364102234e-03,3.048993680210808702e-02,1.286047725563821409e-01,3.168661991345415874e-02,6.687223464635670168e-03
3.045712260204337684e-04,8.321178839015797024e-02,4.857316585934001816e-04,5.712327936811713823e-03,5.795054153705249053e-03,1.490111786169793714e-02,1.953065627328021484e-02,1.333471554935364289e-01,3.917783761730890546e-02,9.694464843201282961e-03
2.897411289447428934e-04,1.146064044206723115e-01,6.719659311341263539e-04,1.052488629944545694e-02,9.208379402820175696e-03,1.966555022928244759e-02,8.360603870598663778e-04,1.234501026922038835e-01,4.337112546372860755e-02,1.068231663573955895e-02
2.714227996217404080e-04,1.228386157544035517e-01,4.253915219327025765e-03,1.494115065706115748e-02,1.193247937290604389e-02,2.168601900496446369e-02,2.017491845914628351e-02,1.248737305505436268e-01,4.664313140864081997e-02,1.657346992738283759e-02
2.486040975039155660e-04,1.069029229428312966e-01,8.161650396809824043e-03,1.680051619202046001e-02,1.245931194704732840e-02,1.730300631872171840e-02,2.292257809951629699e-02,1.521456049428858426e-01,4.875111957682988495e-02,2.779765107072914090e-02
2.216860256392204202e-04,6.945485281340094130e-02,8.869472722986141214e-03,1.560599457611826224e-02,1.094848201715090119e-02,9.441426706293909801e-03,1.356900491305839881e-02,1.885568855912888864e-01,4.688099117995283421e-02,3.662993765930017825e-02
1.923346629042149518e-04,1.492994700639672240e-02,5.712263654346058650e-03,1.286356650438170296e-02,9.201948558456591459e-03,7.783009492266959421e-03,8.801931007183023958e-03,1.994404834370494539e-01,4.046761981342601039e-02,3.621564047150793025e-02
1.630388873061075559e-04,3.800861776091055133e-02,2.034381400227983170e-03,1.018312802934268589e-02,8.353614150124978946e-03,1.698898035138996648e-02,6.474872223814189844e-03,1.728444377473841720e-01,3.228175714387201273e-02,2.830059160524429560e-02
1.330774584455421080e-04,5.657881982069196125e-02,1.075093093645812081e-03,8.865573782252300986e-03,8.989728029260870418e-03,3.111844681717621658e-02,1.022187014127115719e-02,1.351968303288867967e-01,2.505528900616524335e-02,2.055647379269400984e-02
9.838729913593308369e-05,2.906381272431061286e-02,2.147046631585252090e-03,1.027413856223186039e-02,1.192762917969234990e-02,4.211618226689217009e-02,3.728936908190668559e-02,1.152715209626553605e-01,1.941358677144287490e-02,1.774453654559408899e-02
6.212449290764085431e-05,1.014638123668927874e-02,2.434657840718932199e-03,1.386106225228269165e-02,1.632720265818399241e-02,4.749734159939455330e-02,4.862283741906262002e-02,1.082308141513420863e-01,1.479599644730987887e-02,1.759189387694374412e-02
3.562695072848031806e-05,1.882290182749599833e-02,1.234698127316036188e-03,1.591933555665116240e-02,1.906255827319376650e-02,4.785576661391958975e-02,3.253506787121184657e-02,9.015810836062490563e-02,1.055168136208477735e-02,1.537954943758900427e-02
1.490011581192878236e-05,1.641415243269408108e-03,2.055134490967685038e-04,1.310425967250309839e-02,1.794080913947150926e-02,4.249336405511902615e-02,2.615708410577217199e-03,5.333394565768431045e-02,5.934572495862713674e-03,1.047211710712188729e-02
2.233246218527582908e-05,2.286482018940627983e-02,2.873335229397310907e-04,6.517049769788250957e-03,1.376437182207768291e-02,3.060117398122142243e-02,2.712234979095739032e-02,1.134866660031185609e-02,3.544624614560602620e-04,6.416823925205466378e-03
6.610721522952765035e-05,3.798971997258655808e-02,7.127316517525452474e-04,4.159187925490195610e-04,8.506597985572492832e-03,1.474140102476687551e-02,5.199083208992654609e-02,2.135339033062154390e-02,5.723608573459812443e-03,4.844536847572500880e-03
6.653722388139825987e-05,5.790017058657758592e-02,7.520895906534587078e-04,2.403656134013451486e-03,3.438990152545134786e-03,3.856181324177945097e-04,6.461727244249422519e-02,4.339278708254339090e-02,1.084487193588484083e-02,2.550670491575879502e-03
4.176356419115284164e-05,7.844495358176942212e-02,6.177992393415921574e-04,2.588923774438691046e-03,6.513753109719582976e-04,9.082048506423459275e-03,5.938131321860289774e-02,6.269260071807494783e-02,1.378661748322292449e-02,2.719303207843346004e-03
9.741142817652359445e-05,8.615204709471592504e-02,6.534705633737729422e-04,2.207372478548048390e-03,3.218751839156311009e-03,1.507970205658923368e-02,4.789842910941304044e-02,8.227806930413146536e-02,1.412493392401540510e-02,7.491466128555965796e-03
1.965067880984446231e-04,8.201857708229633170e-02,7.579372211839539419e-04,2.251439684881679625e-03,4.196189736010613909e-03,1.940390941929319782e-02,4.824116014679993847e-02,9.196238436257431204e-02,1.205715181257609181e-02,8.292011336268806376e-03
1.090170622933714329e-04,7.687183066010515320e-02,7.263011612445753606e-04,2.469999342800274778e-03,3.494531423251376594e-03,1.950149961744176291e-02,5.981683457725824049e-02,8.054506257129531721e-02,8.597627648635013803e-03,7.920725313216782359e-03
1.019241173768502728e-04,7.726933421940791746e-02,6.162569500731469212e-04,2.567835725535155041e-03,1.048491631121886009e-03,1.223764999288659214e-02,6.714234434864270462e-02,5.543536167911880530e-02,5.398570378335738711e-03,1.084508248930881290e-02
9.903638359271881920e-05,8.584308301196701130e-02,6.093768466624580396e-04,2.663924944257962859e-03,1.656711051834710517e-03,7.889894925746519967e-04,6.577616859938693883e-02,3.996069306953496658e-02,3.747189266257751686e-03,1.655949896708320754e-02
8.450439766156943137e-04,1.004430967514971657e-01,6.476783620682344993e-04,2.891766467222389291e-03,1.889978022152218051e-03,6.944683650076398200e-03,6.592197814501950248e-02,4.910460015820186652e-02,4.271429127576763587e-03,2.169446989917214394e-02
1.326462032004990278e-03,1.108965106955382279e-01,4.541071215860060552e-04,3.196874066942160305e-03,9.551716128592150842e-04,6.683141960652002472e-03,7.152112836744969893e-02,7.447729415894936700e-02,7.419621589266719996e-03,2.488076580861471945e-02
8.860298082517904577e-04,1.074395089435554729e-01,1.042894432174956541e-04,3.524536363453691611e-03,4.196885258822169451e-03,1.449000125282634728e-03,7.385447479974986684e-02,9.373161798285162272e-02,1.293844501009400877e-02,2.678063599812421577e-02
3.170342492601697156e-05,8.835119387744311270e-02,1.771334110446141983e-04,3.906935596673179016e-03,5.443310778441011119e-03,3.016912765332971976e-03,6.769242101030101266e-02,9.170302100908693521e-02,1.878320974543960450e-02,2.819416606819145910e-02
3.371928586860774226e-04,5.653930036870118137e-02,7.927024790418211314e-04,4.355373576465987849e-03,5.287397961342896018e-03,4.858137678058461160e-03,5.942198652099472955e-02,7.343319969630295041e-02,2.209198828181197297e-02,2.949631890513702490e-02
2.281451318693054789e-05,1.940414745970028831e-02,1.074627174816301500e-03,4.836902518080089808e-03,5.397980431741183742e-03,7.657987331181108359e-03,5.623883879563400939e-02,5.710215067971035480e-02,2.228969517431867581e-02,3.059408832806051123e-02
6.035678753776500902e-04,9.539622852495509286e-03,3.871341443869834049e-04,5.370245329699599272e-03,6.060627142981039189e-03,1.537195719364066633e-02,5.747194720896013631e-02,5.486500351431715383e-02,2.224383938716563425e-02,3.185673147544365591e-02
1.167837260661455222e-03,2.018089501747490772e-02,6.266681199197409510e-04,5.999367915447487154e-03,6.664489835675100303e-03,2.671344449665488327e-02,5.909419702652892598e-02,6.452534891943152717e-02,2.481779153021323320e-02,3.479512551600377063e-02
1.398332328536540164e-03,1.291314086660509328e-02,1.095513820054635958e-03,6.649788889517847627e-03,7.058727648503523334e-03,3.632089447512853314e-02,5.974816598619690777e-02,7.852666038328054432e-02,2.893800576875833405e-02,3.883645843448316204e-02
1.103422751975201462e-03,6.771781952731058263e-03,1.141746402116105077e-03,7.219173996014070435e-03,7.508608973510619289e-03,4.076538117794893668e-02,6.125481031992723036e-02,9.294397681328286920e-02,3.097817535564706404e-02,3.879435600561314396e-02
4.032334273962023797e-04,3.130212922039390250e-02,1.326758228237458811e-03,7.858520715628718525e-03,8.101865185297580860e-03,4.073102331727280340e-02,6.734627911634386010e-02,1.050848500201645580e-01,2.954063787239165698e-02,3.125572831211424762e-02
2.062201797945873816e-04,5.315781531117724779e-02,1.716258482287769853e-03,8.771045300072825845e-03,8.723998238020315432e-03,3.773400797238095350e-02,7.949178762508674057e-02,1.089596118543271486e-01,2.678164322704353756e-02,2.201186295580253097e-02
3.655450851786524319e-04,7.329305700110629040e-02,2.063346477445103608e-03,9.623157291266020222e-03,9.291839184425257706e-03,3.269988071459525164e-02,9.132028482324180962e-02,1.006196722626282181e-01,2.547100288114187081e-02,2.031693641225505026e-02
2.555283489997448314e-04,9.457719517613406846e-02,2.325008962171753232e-03,9.913790322991765727e-03,9.792962889142324545e-03,2.826580626231322765e-02,9.245290835966894771e-02,8.669960218086587844e-02,2.655059582325997383e-02,2.718273993990915141e-02
2.203365229186064322e-04,1.042154217419746509e-01,2.614142064915311262e-03,1.009782805413870707e-02,1.008605636877866855e-02,2.763551853914224601e-02,8.027265730340867045e-02,7.880872508595439252e-02,2.870313871219279389e-02,3.507232713510723132e-02
2.935354835383708976e-04,8.784486994693818662e-02,2.951418254568423123e-03,1.088148396983688870e-02,9.597515408667083719e-03,2.990241526897716162e-02,6.358823294512291890e-02,7.856530475293377336e-02,2.900281426478345734e-02,3.726127905043860600e-02
3.327372171847539552e-04,6.118540144461402652e-02,3.274964866838759626e-03,1.101647060379807100e-02,7.495987464353996189e-03,3.097896609245791993e-02,5.397860253979036571e-02,7.813675396041891430e-02,2.554614407529071443e-02,3.342496750271932437e-02
3.159628520514802421e-04,5.588331118576998768e-02,3.564985878523429033e-03,8.056882255104457977e-03,3.471425882551462672e-03,2.890603792758397739e-02,5.492366924758289304e-02,7.522552854308839354e-02,1.996784360910314193e-02,2.687740414516058551e-02
3.082910336888473185e-04,7.277023552730460532e-02,3.859205068026414463e-03,2.194493380345123503e-03,1.879708667466929500e-03,2.303114702355085058e-02,5.679703947960912380e-02,7.339985751245117762e-02,1.508940153878535022e-02,1.813122635877196381e-02
3.208673822133201463e-04,7.919811604221593804e-02,4.177666370711309758e-03,3.000233111089415164e-03,7.195017822366178359e-03,1.054654636472939985e-02,4.402038600544522229e-02,6.704959738228043198e-02,1.095702961416022449e-02,3.557932644785254898e-03
3.235049775905943703e-04,5.473272953970662741e-02,4.475073949528173521e-03,4.668570688075955946e-03,1.038596676767695841e-02,8.186541601170681248e-03,1.388546589585179167e-02,4.457098675747452748e-02,6.781088493607949005e-03,1.686091758502825805e-02
3.108561362639365288e-04,1.496211458655891634e-02,4.710962831953421914e-03,3.521945168385764817e-03,9.623724109935789806e-03,2.348336387030966824e-02,1.529628807102838273e-02,1.145121304704773205e-02,5.098640581820206366e-03,3.345817148208281300e-02
2.973654043898941394e-04,1.289848551820289672e-02,4.958333755270795222e-03,1.696463637974316655e-03,5.274257701769851508e-03,2.461968754142327201e-02,2.544006794631086671e-02,9.228785264088271850e-03,9.062895912049458158e-03,3.447689101462164674e-02
2.862294818072283237e-04,2.120208540858297547e-02,5.298574470607356375e-03,5.393650831349232995e-04,3.885546371049290824e-04,1.282195434879320958e-02,2.407305496699812392e-02,7.777472806878743192e-03,1.624255764431332960e-02,2.022753464369479379e-02
2.713859081738428957e-04,2.475446382489245034e-02,5.584824359898180220e-03,4.310288633479417153e-03,5.747137563813532572e-03,1.020199696547375613e-03,3.557762897726606671e-02,7.215073716918662255e-04,1.956977585499941261e-02,5.683036770984756757e-03
2.520289550499863135e-04,3.701703448799849999e-02,5.640317736949364974e-03,9.099882328944946044e-03,1.022578484371898695e-02,9.175234636625381746e-03,6.916439446530747714e-02,2.744578813921488489e-03,1.513580734557792157e-02,6.190055711370894345e-03
2.317938942745814918e-04,4.646547815227364264e-02,5.772149477469847370e-03,1.243559704515066061e-02,1.264666211854067329e-02,1.204195795091662566e-02,1.072350060109674846e-01,5.304869051843999830e-03,6.280513856048334370e-03,2.176647327924249517e-02
2.119854923476696977e-04,3.051171902319544521e-02,6.379556096511576277e-03,1.302185054690100513e-02,1.224405981137596452e-02,1.362540268283014833e-02,1.254575956343963461e-01,3.256021086781956189e-03,9.704463114393927468e-04,3.830890733283055100e-02
1.919497514720670697e-04,2.220097785694544884e-03,6.800308791222928889e-03,1.193598327235420586e-02,1.082871089932084877e-02,1.763315192100747830e-02,1.154570694497182998e-01,1.531396222192754793e-02,4.206778300092896272e-03,4.307847598769561775e-02
1.721089435439179913e-04,1.207732891519396230e-02,5.851277664882443587e-03,1.037707053797189832e-02,1.086156349597765594e-02,2.612486073271103743e-02,8.697277376132726834e-02,1.919310393778007537e-02,4.728089267022028176e-03,3.531548916136496158e-02
1.535956942815715470e-04,1.693268276572957101e-02,4.035936249011117666e-03,8.930577239002255793e-03,1.205418196871774900e-02,3.693211088495892275e-02,5.632315745086706460e-02,1.934144692165063253e-02,4.066238266324188194e-03,2.296665127044662455e-02
1.370481888875123408e-04,5.865222715191766023e-02,3.079007419209003373e-03,8.398262974022676838e-03,1.225901774563467606e-02,4.280110665132329240e-02,3.731137105105408053e-02,2.136997688307260002e-02,3.968091470850839200e-03,1.414679098903774170e-02
1.231881966197990151e-04,8.987838556593238937e-02,2.548050933749955449e-03,7.964840975677803248e-03,1.053290243058822850e-02,3.848560725112287056e-02,3.676929097008427294e-02,1.390622015282405935e-02,7.311211254956045610e-03,1.247579287023785691e-02
1.128596042439703817e-04,1.085639069349077224e-01,2.492368044034322210e-04,4.663848607255148028e-03,7.664846812077848875e-03,2.939637605058966624e-02,5.089638845646093229e-02,1.256499313360795629e-02,1.394800990926626551e-02,1.635059850653884650e-02
1.057752075200415792e-04,1.062216396625509096e-01,3.067592391810679449e-03,1.648612727603490950e-03,4.726266716933053523e-03,2.492046460751170048e-02,6.791639272608385181e-02,4.378149708979522242e-02,1.795773168776954032e-02,2.029678279936085461e-02
1.015307051340401184e-04,7.715215441423935172e-02,3.724742033572771803e-03,6.225966450742661390e-03,1.940303443665593623e-03,2.068029382743932429e-02,7.967133644469506781e-02,5.919571578434736775e-02,1.449329484124328195e-02,1.858903753024775465e-02
1.022721216456953336e-04,4.876723538111296663e-02,8.034878184638871322e-04,5.589196235136728932e-03,9.323209082287141781e-04,9.313430756050906055e-04,8.815558296803244209e-02,5.771847160110029490e-02,6.274446260399688287e-03,9.374193104493389050e-03
1.100198512808170289e-04,4.713807352221636299e-02,2.776554707977715170e-03,1.680481157672891399e-03,2.950498676092843352e-03,3.518642704500426349e-02,9.720641395198720280e-02,5.017935441637987048e-02,1.735273268178644289e-03,3.843927184992106290e-03
1.208694568051515506e-04,5.097714545889644316e-02,5.203133362496410036e-03,2.423804630332937211e-03,2.068839134177325768e-03,6.584088433435526799e-02,1.030962095863103556e-01,4.132887167657987165e-02,8.785244747023371326e-03,1.458731703614583181e-02
1.307938582080768756e-04,3.436028092202761397e-02,7.278948336931722468e-03,6.704482820877552020e-03,2.399511807978417684e-03,7.243652457425960034e-02,9.937993403633606226e-02,3.261288725226588192e-02,1.412075429090713097e-02,1.884993455214571331e-02
1.481758691253045050e-04,2.630662217740185535e-02,9.081191596037877650e-03,1.194168823432937773e-02,8.763294112911376027e-03,5.829316227153575475e-02,8.712761552080929006e-02,2.776864495590086745e-02,1.318467210480942647e-02,1.908979842986388564e-02
1.816210156698518650e-04,7.034027203211183632e-02,9.067994674565009114e-03,1.620220856270503454e-02,1.414291630312434871e-02,3.757600891964683193e-02,7.311175707839892568e-02,2.387398748566237766e-02,4.094614934456721964e-03,2.072429696411769856e-02
2.128749231175964911e-04,1.476467602300481352e-01,6.821807648201372830e-03,1.599172539860809275e-02,1.579279412900648494e-02,2.039847083622127119e-02,5.977232497199366779e-02,1.031937908479578503e-02,7.975515203888399948e-03,2.404723269387389409e-02
2.222132613584966345e-04,1.935388620563933681e-01,4.198107965314619439e-03,1.064367880484836694e-02,1.309023045216834054e-02,1.122566524135746799e-02,4.461009602118191919e-02,1.097253178952386186e-02,1.758128038359618034e-02,2.287760482101213952e-02
2.469717536963592476e-04,1.804889156590504251e-01,2.973729723776167080e-03,3.790261504986206995e-03,8.555317937626451957e-03,1.053276490886252172e-02,2.886367119948863441e-02,1.443744366256360934e-02,2.552724385001523683e-02,1.247342638204185054e-02
3.288498167188056310e-04,1.421684349189669683e-01,2.381639470843023489e-03,1.030929921587326725e-03,4.519687550556685841e-03,1.522369393865741910e-02,1.824129203660280335e-02,2.429205921223142467e-02,3.591119501519123014e-02,4.641636633560671139e-03
3.874335521839246312e-04,1.151833996253485010e-01,1.738824360931787800e-04,4.617302753424479267e-03,8.737767198903090846e-05,2.146809880371558163e-02,1.362681592225366452e-02,9.414223335052722408e-02,4.990666201196004848e-02,2.268956350167641162e-02
3.293354728513922004e-04,9.270657316843829154e-02,3.798667791791510324e-03,9.335329103852542734e-03,6.748275045136267747e-03,2.682729791900046942e-02,8.604778973332229478e-03,1.537612508551408907e-01,6.317957916571913246e-02,3.884504511438240798e-02
3.239590509589508919e-04,4.792210002517426071e-02,6.571562415712533384e-03,1.402809416596486995e-02,1.317983269070290529e-02,2.898404236250660612e-02,1.511603077039982285e-03,1.742363127798833566e-01,6.786794530382381230e-02,5.164773173754855923e-02
5.844487903309391469e-04,1.995656668438341996e-02,5.785913165547568876e-03,1.543439281796202787e-02,1.552759412615845047e-02,2.561622015111489695e-02,1.349441281202309190e-02,1.632847328644186635e-01,5.921240662706442337e-02,5.672371193250091287e-02
7.213167323131406327e-04,8.101393775969348288e-02,3.326165572687344880e-03,1.349620143760963016e-02,1.351800671916517788e-02,1.766062524664277836e-02,2.046763286884399277e-02,1.423734762640786744e-01,4.222645592738672599e-02,5.118949615479614912e-02
2.054824645765374459e-05,1.064785975747953445e-01,3.275834792555118793e-03,1.162766780454720095e-02,1.081376768027227271e-02,1.068079679531400844e-02,1.885990564594013097e-02,1.182828803631025966e-01,2.865442014145576713e-02,4.105815644504099554e-02
1.457629030861472665e-03,8.953648513356129990e-02,6.539421721214994099e-03,1.221759597018717662e-02,1.087131463841905371e-02,1.029665686587364834e-02,1.047773684362413547e-02,9.081253740881364833e-02,2.480525972697774501e-02,3.575365689380015366e-02
2.205474688785772144e-03,3.922541387260788937e-02,1.006134627502477605e-02,1.479495198613709275e-02,1.411743024258883469e-02,1.643655778152994934e-02,2.262734822939833218e-05,7.038641923472428730e-02,2.563770249913531474e-02,3.484097707766260071e-02
1.396101609368547228e-03,2.515633663656902802e-02,1.165114504830204109e-02,1.809292258132179712e-02,1.829136328705631420e-02,2.321234474000583720e-02,8.114676475434137726e-03,6.461206252995076171e-02,2.319106595723019124e-02,2.901768221156716607e-02
1.001781678962511575e-04,7.074774600533051405e-02,1.211933050035047740e-02,2.080758107345909852e-02,1.994037772415695534e-02,2.357837587093537801e-02,1.028560994208134113e-02,5.763581499050337426e-02,1.672717180174835075e-02,1.534233474975522579e-02
9.008101580254084494e-04,6.829689152050918977e-02,1.177484560486545713e-02,2.063941886730346828e-02,1.661551791507237530e-02,1.371751687656689971e-02,2.405608668887271144e-03,2.777066999060816624e-02,1.106152916186700814e-02,2.474640915166715152e-03
8.222891314029329417e-04,2.586610149177926907e-02,9.109149265674378743e-03,1.621703437841072112e-02,9.360629637351897472e-03,4.215413661557971051e-03,1.654541954721760327e-02,1.635240116887072201e-02,8.276253828646225330e-03,1.181098567792977349e-03
6.129845654825557578e-04,1.417033320832055895e-02,4.950998670186709805e-03,1.052659544619421322e-02,2.747723499882961072e-03,2.105979815012625975e-02,3.806865150434341621e-02,3.874683725949138596e-02,5.705098043967510649e-03,2.982066147077953346e-03
6.606437640452018185e-04,2.287375797101328864e-02,4.112406638824205214e-03,9.323996916997479012e-03,1.636614810549331641e-03,2.511669431640765546e-02,4.857344931655564052e-02,2.076857657483152306e-02,1.893147318184640500e-03,7.721798722806063470e-03
7.641431614707586443e-04,1.204943500703905407e-02,9.843395564066589887e-03,1.485555665405757959e-02,7.297087834999510352e-03,1.287786417668636968e-02,4.488402523010161932e-02,1.398298893836374610e-02,9.741161049074743318e-04,7.498589939576681164e-03
7.555921319080040766e-04,8.571644946468965492e-03,1.846305927288554791e-02,2.264536328860826050e-02,1.557555901478032724e-02,4.787607006205214441e-03,3.795599659362692418e-02,2.960170291740012866e-02,7.691667694626647123e-03,6.678296396959320681e-04
7.010319891588988502e-04,2.313034795639311650e-02,2.258494823186321665e-02,2.581461708456441601e-02,1.960351396268066732e-02,1.205670253028012610e-02,3.677509781184043480e-02,1.597109706056833167e-02,1.871773972104572373e-02,1.141923675318283482e-02
6.758172388771981846e-04,4.833114406455246009e-02,1.987491869688701868e-02,2.245440805481137628e-02,1.676028418892894917e-02,4.579316854963224291e-03,3.713265777017943359e-02,1.639948441267899751e-02,2.417728507377283481e-02,2.505756748448036836e-02
6.955980291132607017e-04,6.572179574953075643e-02,1.573089207555777858e-02,1.709585637503910002e-02,1.180095032720993031e-02,7.921497403277237559e-03,3.180796104179318268e-02,5.907050543129417630e-02,1.917975625147223806e-02,3.528771549939489771e-02
7.347450091307563451e-04,5.652654035724009873e-02,1.530567047915706511e-02,1.395721960523132327e-02,1.002941928778984179e-02,1.522711507756172901e-02,2.342186344860767641e-02,1.039853939730556037e-01,8.403306095374275461e-03,3.825545254146969082e-02
6.905033535588078536e-04,2.719923029000129167e-02,1.598524482996630317e-02,1.144695763515076424e-02,9.922252742692934391e-03,1.621451970685520994e-02,1.886893120926496498e-02,1.362252757955913773e-01,1.957283720720483493e-03,3.341330341416078042e-02
5.525787984074240168e-04,1.233998170596201094e-02,1.204183173864318245e-02,6.144786546943243472e-03,7.044982116248029412e-03,1.439537752738476693e-02,1.655183355829090153e-02,1.464804294067705848e-01,1.113646706875828611e-02,2.358572952443225429e-02
5.779602040068900241e-04,2.784312896943363230e-02,4.152834521284814139e-03,6.143343082233030175e-04,2.360813121735037649e-03,1.219513193232207166e-02,9.624367883302042612e-03,1.388926405395750074e-01,2.121982747709662276e-02,1.271080765627437270e-02
8.489566150699952556e-04,4.301026739643971919e-02,1.517105165412984454e-03,4.447024167925247434e-03,7.816821524872865929e-04,1.173097250442727349e-02,8.326476043423684109e-05,1.177603273085786884e-01,3.157816874850977173e-02,3.124573265124427901e-03
7.467200382100826466e-04,3.031178696244628615e-02,2.281350600683382072e-03,4.362162779631653664e-03,3.243576751114869705e-03,1.364542298987550181e-02,2.618163634468239839e-03,8.300916728213869611e-02,3.795159040755764074e-02,5.148050723795056377e-03
4.806109954721625682e-04,1.607968228605888630e-02,1.358687773900005844e-03,3.351603247982514605e-03,5.728174028462680936e-03,1.399620709825203854e-02,4.581688603976775270e-03,4.683793550398561434e-02,3.715146422959432482e-02,1.204310148884437520e-02
2.761086516257083793e-03,4.063881890628282673e-02,2.070081158817653130e-03,3.835784744724086287e-03,5.156775393967780001e-03,9.352084344838387103e-03,1.240112148756623497e-02,3.467950837094057465e-02,3.197242729931377980e-02,1.503111750832375471e-02
5.293846235629550215e-03,9.063475249577999937e-02,4.287058166901790840e-03,5.786586512796946212e-03,1.804567658849170076e-03,4.191298801953872652e-03,1.448967152132799030e-02,5.464882587282768323e-02,2.900777597788482126e-02,1.095901219106766231e-02
6.976037086428549250e-03,1.187201078180582792e-01,6.529524842864235096e-03,8.305886213539670493e-03,3.271842823923606057e-03,6.596784051515013243e-03,1.554667569922950007e-02,8.074132964669757107e-02,3.117126470251473450e-02,1.400630900182603736e-04
6.563753314980174183e-03,1.170776251140489832e-01,8.172194104063742678e-03,1.072255658355713431e-02,9.483197754103960334e-03,1.832438228887290493e-02,1.949036030779830245e-02,8.336889155689325426e-02,3.541965810421498356e-02,1.532922120628893610e-02
3.805820029346443801e-03,1.225855303998852480e-01,9.096540493725591842e-03,1.270768606260566994e-02,1.548892983898060051e-02,3.296924271079905433e-02,2.072855642366105283e-02,6.522508593249286279e-02,3.831258058065169919e-02,3.166509654090964021e-02
5.180182645903220638e-04,1.512781269001758633e-01,9.206604979940141362e-03,1.445686407358095539e-02,1.901131291592211142e-02,4.049253113798220033e-02,1.674244638744303015e-02,4.902079422258334013e-02,4.031901834767535192e-02,4.639733167697915328e-02
1.056335042957881653e-03,1.710774586394499808e-01,8.911065081140940453e-03,1.641266568461354630e-02,1.878662663012755502e-02,3.346491955351209302e-02,1.719077324887599914e-02,4.060056367078982570e-02,4.338184704850495815e-02,5.618045522742774051e-02
7.897018779596109029e-04,1.495884304394326791e-01,8.831540775827840042e-03,1.849110971593085836e-02,1.659787875933805418e-02,1.466690814125131380e-02,2.719209595450394062e-02,2.423819393763616825e-02,4.690572793840814408e-02,5.886646392479672613e-02
2.784929568282803200e-04,9.900067120598318726e-02,8.623174134816554565e-03,1.991187297487843899e-02,1.581985428246701630e-02,3.793162878322724110e-03,3.367258193918566678e-02,1.129815248448686957e-02,4.834892688986038023e-02,5.525664167768119112e-02
4.949682404451175195e-04,5.518440098189409532e-02,7.409910276974512357e-03,1.976481776342200666e-02,1.633820770951043000e-02,1.462160931951256987e-02,2.429002734918468687e-02,5.592335689729248382e-02,4.696133817606449462e-02,4.781558007448775266e-02
9.281299847593636569e-04,2.894768954618586604e-02,5.766769133358684053e-03,1.744420990863188720e-02,1.321698038017652364e-02,2.302689429220649425e-02,9.424646071284523488e-03,8.502722903800395693e-02,4.471828822603583081e-02,3.845605592154342778e-02
6.911018355834287925e-04,1.719345532449722061e-03,5.519544246425129794e-03,1.292365038947923712e-02,3.367053415282231840e-03,3.484647819746870823e-02,8.469001226067817550e-03,8.047031732439975660e-02,4.316469900309746754e-02,2.837037033732073277e-02
1.475888054498630667e-04,3.926279052020039545e-02,6.875437863142226831e-03,7.283649217598074654e-03,8.865200727806240785e-03,4.527008199094878504e-02,2.165484205229047804e-02,4.995606586440416719e-02,4.106876607116421996e-02,1.909308591573391153e-02
5.668420653241063858e-04,8.763983383907764102e-02,7.648816640931964742e-03,2.641413969994128863e-03,1.596829154459806013e-02,4.601393552514978363e-02,3.195426344998111845e-02,2.279219381197713362e-02,3.580883823947979966e-02,1.205535057333070523e-02
1.669556605794508705e-05,1.330315118636644089e-01,6.418504133520909830e-03,6.136374604616629327e-04,1.518460402698386044e-02,3.633796909885545628e-02,3.173487442381822676e-02,1.906870660006312196e-02,2.639558635195577915e-02,7.781494777457074324e-03
7.924441137259282016e-04,1.645936108166543010e-01,4.702438201385883421e-03,7.487983962876081524e-04,9.813908395970552881e-03,2.098168426177920987e-02,3.140370516186057059e-02,2.663734508685700400e-02,1.581690668920732179e-02,7.324172374767352889e-03
1.030655874271869422e-03,1.667062036987147777e-01,4.575002684004808411e-03,1.339017823474325693e-03,4.201318813816615552e-03,3.716680442326299703e-03,3.838749603896948748e-02,1.913181398605186267e-02,1.039411842120140442e-02,1.152343760972451836e-02
8.531961590623005163e-04,1.322123815302522487e-01,5.679211954403822447e-03,2.042472222986460063e-03,4.354121579229755165e-04,1.135406767811034286e-02,4.231778566790315305e-02,3.217262987558102815e-03,1.330415680583425450e-02,1.554786636362902319e-02
8.032940245584926876e-04,7.464701036617249486e-02,6.374719965163156907e-03,4.310613731766442178e-03,4.992182112122907703e-03,1.766001248444008451e-02,3.168755410624014140e-02,7.126488929082972282e-03,1.748852373304463081e-02,1.019918785100551624e-02
9.352168574659636829e-04,1.518918633133243407e-02,6.387239484294485008e-03,8.188340002985397201e-03,8.793213081584152005e-03,1.157269091732889520e-02,1.393860760826478098e-02,2.845875555405776719e-02,1.074661900316007355e-02,5.410075206798675707e-03
1.015857731046148531e-03,3.349965002114922707e-02,6.188728468456147248e-03,1.035575345936744045e-02,9.326449728026191960e-03,3.041088826703882385e-03,4.168749873771370601e-03,7.850200972302476266e-02,9.154322949436376200e-03,1.959600302303187921e-02
1.006697762594402096e-03,6.269135229242450702e-02,5.184588695835324647e-03,7.403706437968668626e-03,5.869972141879446770e-03,1.925925543248919666e-02,2.207812366315013014e-03,1.038102035612151891e-01,3.066315545476454990e-02,2.302525246580508847e-02
1.010976421808895990e-03,6.431905081829616955e-02,2.982339765980150052e-03,3.150970158304158310e-04,1.054365209680760201e-03,3.196996488976928952e-02,3.377773764991508221e-03,9.927717917725446817e-02,4.182120902337167767e-02,2.015125885349191431e-02
1.058035077322179831e-03,4.647613638516114032e-02,1.266640211662979978e-03,6.081481299081378279e-03,1.675148386419320588e-03,3.662046099769830643e-02,1.508464445117928786e-02,8.496380451234279707e-02,4.096448704217845599e-02,1.968732511350345174e-02
1.106844197768465073e-03,3.524206208153694841e-02,1.850094266209103416e-03,8.086243025944499924e-03,1.057062867802331402e-03,3.088147298316751624e-02,2.467957829639441658e-02,6.743098786824541779e-02,3.431308706976884948e-02,2.152149837691232775e-02
1.119966900941255644e-03,4.533688247345601940e-02,3.568292128439582572e-03,6.541262161950006301e-03,9.162518339814295764e-04,2.089606109252998070e-02,2.713562982532365803e-02,3.923528536900116465e-02,2.921392263062204050e-02,1.987001494721250122e-02
1.098982556590380206e-03,6.161766867800414632e-02,3.432138715651664607e-03,5.047675988563585757e-03,7.214595399346466131e-04,1.754624607730509087e-02,2.571065812020534649e-02,3.113414657658934367e-03,2.837019365960620834e-02,1.444583598574259928e-02
1.109082745167260745e-03,5.753175293700694970e-02,5.929819365631492116e-04,5.658077296746361062e-03,2.610094872739327724e-03,2.262402370012751851e-02,2.535878025498269212e-02,2.861242666208332550e-02,2.781905931330760570e-02,1.156030159143336955e-02
1.187234737062945735e-03,1.937705112798747409e-02,2.746338817943561484e-03,7.548001292136783009e-03,5.825954349289075469e-03,2.652875117954941672e-02,2.728734981373042920e-02,4.703395614660028923e-02,2.374218307621151977e-02,1.486743964899676224e-02
1.201897480349291107e-03,4.600893247292316829e-02,4.164020082995007616e-03,9.406372882941303054e-03,5.407181512043831434e-03,2.236805397838914980e-02,2.956464201892832974e-02,4.226998768030281600e-02,1.940654835948921186e-02,2.109212436815913541e-02
1.052190577793129687e-03,1.120604247722531144e-01,3.128607738104413789e-03,1.060473816748389725e-02,1.726355117992883206e-03,1.360399839299241548e-02,2.987256819838826627e-02,4.874987237614345631e-03,1.907540190345642303e-02,2.668346700888316742e-02
1.015572700091803065e-03,1.465300474754420712e-01,5.807515534077248211e-04,9.654492048853911129e-03,2.510793916465089027e-03,5.023807893232186059e-03,2.684375909510585897e-02,5.057933526742946356e-02,1.977090305261229239e-02,3.199822913171720268e-02
1.335648158286456251e-03,1.376419689349630271e-01,2.133464108886780081e-03,4.912686257461576673e-03,6.023114518179502330e-03,4.750455380898041188e-03,2.115842962258787305e-02,8.408873416541036427e-02,1.802865358957954009e-02,3.577952632051221993e-02
1.395434664636221143e-03,9.965420106434041969e-02,3.796396510832670060e-03,1.612790900389428827e-03,8.652929191568594497e-03,1.756851523741087898e-02,1.712846688947933238e-02,7.282358256885249070e-02,1.912921326161406976e-02,3.400595028640385903e-02
3.590734090061794117e-04,5.148856410689928859e-02,3.495278627274401358e-03,4.507600515290162597e-03,9.155575292260747719e-03,2.983352751725829033e-02,1.990940268709628230e-02,3.902130009483934653e-02,2.888868051909915247e-02,2.820329466382330216e-02
1.061024360518999024e-03,5.079489248936133391e-03,1.115105564283536696e-03,1.350383062681916654e-03,6.622059245915849768e-03,3.725045324102591732e-02,2.805440841403944105e-02,1.814587071545012073e-02,4.117346249723743273e-02,2.539036274307089266e-02
1.032351079790467347e-03,2.766507654045275225e-02,1.780978684043333597e-03,3.944640003490368710e-03,2.983006711370190470e-03,4.071683886638011174e-02,3.255711965601627844e-02,1.494870913930390274e-02,4.423596264331408623e-02,2.680020242918808304e-02
5.406756907998257720e-04,3.583194329575076220e-02,2.701276906454959555e-03,6.305632849363648242e-03,1.074580349872639650e-03,4.346178677897172965e-02,2.713185827819057996e-02,9.082999037266514114e-03,3.593197550917753835e-02,2.656989081858583679e-02
1.426750985147118463e-03,2.246371281619199967e-02,1.028559561739160466e-03,4.975777367768796124e-03,1.227774260575197323e-03,4.658689867028097814e-02,1.569141846482993707e-02,1.028358344789277908e-02,2.383549954090844955e-02,2.219188330842068735e-02
3.633400733078106962e-04,8.402433233268480003e-03,1.113859036122324996e-03,1.931247864846172410e-03,1.973953654177231128e-03,5.039731869922205176e-02,5.737602718398323969e-03,3.607833863802124841e-02,1.344234826900218491e-02,1.636417706100117345e-02
1.002110565794891474e-03,1.660329325437687534e-02,1.672599460184382011e-03,1.638332718977096982e-03,2.611718110705067361e-03,5.517431020809993036e-02,1.406885948172509337e-03,5.862725133236481451e-02,4.178144555946170999e-03,1.003520703057171094e-02
9.175657894706205648e-04,4.946951723068124945e-02,9.390152183022350881e-04,5.039494267548512256e-03,3.106773803187326283e-03,5.810595564775601629e-02,9.505290009962672620e-03,7.155499691469867363e-02,4.675621743050187816e-03,2.369509821981050177e-03
3.117289417715398163e-04,8.369947742658057077e-02,4.200368266180687414e-04,7.034395519847674166e-03,2.914951893634865586e-03,5.474808128999632262e-02,2.052095519618071448e-02,7.247867810789966614e-02,1.103390506979918216e-02,5.230182009680256483e-03
7.918193977124344130e-04,9.135558835405847844e-02,6.247668475424548529e-04,6.966850728739695450e-03,1.662697928245198678e-03,4.572503261759026938e-02,3.265193662583441153e-02,6.800117663847543570e-02,1.363324893746896763e-02,1.144207034197086345e-02
1.645884310147450492e-03,6.445218652956395677e-02,3.645776169548720536e-04,5.409467033611494932e-03,1.387165465028433503e-04,3.666299061719357349e-02,4.222085180682980804e-02,6.359068405609635821e-02,1.416600806225312703e-02,1.707306738628951506e-02
1.183200255686282180e-03,1.747492267685610626e-02,2.008760195451363920e-03,3.164287537576694100e-03,2.175672987847423242e-03,2.966396443424066873e-02,4.522678406868518852e-02,4.736796994907654934e-02,1.374449231047221442e-02,2.032545173759378251e-02
3.248882104066169989e-04,2.704359140563290451e-02,6.161477430028467102e-03,9.896462509334288254e-04,4.509275852464597265e-03,2.116716327914189288e-02,3.971064629807007779e-02,7.678819485590940644e-03,9.545062596815687139e-03,1.616017923244949389e-02
1.251430453542288134e-03,4.970411882817276500e-02,8.944560039632093451e-03,4.955281139026543064e-05,5.657402677005610170e-03,1.106557672216883573e-02,2.845066280969779302e-02,3.535864834808349205e-02,1.640232985252105310e-03,5.166405377587616338e-03
1.146779826666843166e-03,4.162247401216496306e-02,7.624705236924340240e-03,9.321219165131581748e-04,3.088310213954841617e-03,6.509084954877902493e-03,1.787358259048608955e-02,4.585038783641897514e-02,1.693158305099904878e-02,3.693012026822141587e-03
8.787094035740523022e-04,1.492108312141894946e-02,3.550371129788223654e-03,2.468258970749565451e-03,2.426310295640679137e-03,1.121542184408227429e-02,1.290799203330532559e-02,1.958775319487612854e-02,2.855473468646197929e-02,4.962182118820044827e-03
9.579902746491010231e-04,5.527233242586505023e-04,5.224214927939175614e-04,3.014933303450153049e-03,6.025085762702733772e-03,1.736499171139187225e-02,1.309799275428841225e-02,1.287546486509307669e-02,3.206475746672085569e-02,4.764817531789942127e-03
1.100056169723205189e-03,1.312889986986547942e-02,9.165535777519114892e-05,2.485292390561116924e-03,5.220560027626984859e-03,1.485225533501486825e-02,1.431166668361407573e-02,3.020715683055907874e-02,2.938381852868250654e-02,1.036198740498738176e-02
1.081063185558577564e-03,4.033165634066383093e-02,7.106953819519655101e-04,1.921727985009070647e-03,3.594952586330106645e-03,3.798852390002575071e-03,1.386062235575664763e-02,3.957109539963877404e-02,2.394730428918246529e-02,1.789609172836173837e-02
1.066051479390891284e-03,5.279102466466550903e-02,8.348874346044425805e-04,1.777237071360410724e-03,4.428368063700317825e-03,8.321443441577081740e-03,1.238531977933248103e-02,5.128731860373640650e-02,1.767713350143473167e-02,1.853594723858143986e-02
1.150899058106401134e-03,4.211309992709381250e-02,5.557053657254475186e-04,1.717146248140481593e-03,4.997961250734104036e-03,1.710084978109124160e-02,1.015216678916536219e-02,6.204807094216454461e-02,1.229881638579975213e-02,1.188076597458624650e-02
1.171396932048387584e-03,1.919402996796208336e-02,4.564082216215245157e-04,1.529926675798638433e-03,1.809017454025595335e-03,2.254259872229553638e-02,4.364133714731041787e-03,6.720893773834375751e-02,8.855904898882212967e-03,4.637459860071921694e-03
1.098471191386402122e-03,2.072644575788131806e-03,5.882939344030065076e-04,1.356485484198584378e-03,2.868006175291437816e-03,2.471551438937517192e-02,6.419918219602159526e-03,6.705777283185410109e-02,6.318695055568072753e-03,6.781536262667520231e-04
1.207204268416604180e-03,7.668172979762557552e-03,6.577774517251357188e-04,1.289153153474232585e-03,4.737830623180781450e-03,2.403649729899001719e-02,1.705208165485569763e-02,5.987348062312818076e-02,3.880083033762895574e-03,7.253778234572477550e-03
1.460591184808836436e-03,1.016887395754095987e-02,4.512235686014576383e-04,1.255183379069901546e-03,4.241439168256362462e-03,2.266984250619135527e-02,2.044680437194928979e-02,4.721114208478808388e-02,2.957963559735231340e-03,1.561299443770135416e-02
1.002606513403663619e-03,3.744354104271493261e-02,1.595058700526126366e-04,1.202017749928735316e-03,4.847181788385507804e-03,2.157304235710936352e-02,1.747272286223307269e-02,4.181268434412414164e-02,4.282017041147315531e-03,2.100854943717829840e-02
9.949745286171310030e-04,4.648634059457248252e-02,3.371983686417642291e-04,1.154436858438017939e-03,6.929990852997479529e-03,1.840697506354994212e-02,1.619386101409426779e-02,5.267811720427448968e-02,5.051924588696397357e-03,2.037008700363232561e-02
3.895516987721881191e-03,2.596667238138930522e-02,1.053486815289577131e-03,1.128785490388151298e-03,7.525437916623621028e-03,1.123035951373265069e-02,2.018047852840202175e-02,6.645361710376111730e-02,1.729770985715667342e-03,1.757423246782474982e-02
5.830421474145410128e-03,1.059056000441543563e-02,1.445549156925702867e-03,1.105367753797099504e-03,5.147104708874489058e-03,3.033293103727247118e-03,2.354963414411681555e-02,5.871849288390388472e-02,5.259796160384180505e-03,1.883895202491252599e-02
5.731208219406461538e-03,4.382719861820087714e-02,9.038875831679889705e-04,1.068467121237034545e-03,1.426123980366327242e-03,6.641343788326946329e-04,1.951499303502919266e-02,2.320764323565751089e-02,1.191931420879108194e-02,2.387805241084767910e-02
4.381481229511349600e-03,6.023241854177910359e-02,6.713368087129492796e-05,1.019944902659908684e-03,1.812377040285309375e-03,9.204045236124952598e-04,9.101782815476142444e-03,2.039523868441470850e-02,1.557625154309978145e-02,2.541569420276937330e-02
3.178136300303704455e-03,4.964896643832282519e-02,2.054165400403382808e-04,9.608338740519398961e-04,4.171462997755106747e-03,3.282591332639535342e-03,7.151072670120200070e-04,4.861338408758881374e-02,1.722862975903002858e-02,1.896707898173604842e-02
2.736827286052833600e-03,1.082543971756145737e-02,3.449909659470088916e-05,8.848893775025757800e-04,5.347462986661315025e-03,4.343570692970388260e-03,4.464033926052704201e-03,5.447514945198062702e-02,1.908672765914470881e-02,9.417770636821028857e-03
2.777917611352875848e-03,3.877247049868096096e-02,2.388935652443830967e-05,7.872454317230085817e-04,4.905557201321844238e-03,6.405946186959591941e-03,2.010939269475525877e-03,4.358455559994657558e-02,2.202052250957405727e-02,5.324594879488151779e-03
2.468412040634034455e-03,7.265449898372236537e-02,9.764908316502732754e-05,6.676309285586985763e-04,3.330078517753661763e-03,9.817162267415396187e-03,2.783876272220158106e-03,2.487799568415377180e-02,2.534044974607338463e-02,9.179091342289290995e-03
1.162206708603353775e-03,7.847507891233951316e-02,1.583058281773572283e-04,5.264206404011224222e-04,1.008856423178032145e-03,1.334439046823754707e-02,5.043084038019522188e-03,1.330740459153861160e-02,2.731525855978188949e-02,1.513510254529981669e-02
5.967211333543880059e-04,6.610604731345554042e-02,1.184787342641828076e-04,3.631091405324203590e-04,2.663611170453681308e-03,2.040750973774335675e-02,2.016483165623479679e-03,2.435365235586321730e-02,2.635002082475860347e-02,1.521489913242412076e-02
1.544091898846622823e-03,5.441240319151894461e-02,8.896852336840957052e-05,1.781284696082756326e-04,6.797016510979074499e-03,3.452754988962885435e-02,4.473244664552422124e-03,5.380481723739174993e-02,2.298883252791346365e-02,7.088739538645727999e-03
1.357000441827235521e-03,5.447964054692453623e-02,9.000022515060087346e-05,2.644803511212271069e-05,7.972765749785549333e-03,4.941747051214139680e-02,9.770217959461239068e-03,7.758783477505909465e-02,2.002867749808288564e-02,4.209132107860394205e-03
9.220531573190277486e-04,6.258296588775583147e-02,7.069093181568371158e-05,2.477919520352147415e-04,4.551566819348298355e-03,5.325530152569990516e-02,1.145953545253844061e-02,7.887158847552798446e-02,1.946532383252757778e-02,1.146833176819473700e-02
9.972166553881384957e-04,6.457526729872462012e-02,2.210308569997417776e-05,4.827563057022862228e-04,3.913441233061161983e-04,4.245647593118141716e-02,1.046982608969612531e-02,6.142485474758149766e-02,2.014748584953490393e-02,1.091645737718958779e-02
1.317407981625754896e-03,4.951852766738119860e-02,3.046494160581983001e-05,7.276310386146656777e-04,2.871578984593958946e-03,2.546744920593560502e-02,7.342134944659971935e-03,3.686816368619089818e-02,1.966598129159302655e-02,4.394970457893162402e-03
1.071881771314955704e-03,2.356102994387900343e-02,8.055421327247242434e-05,9.780741361539550816e-04,2.545267756394839053e-03,1.373985952208515472e-02,1.396764084384186479e-03,1.524375071595557296e-02,1.756550919689968057e-02,1.621375079590679086e-03
1.341089769178712484e-04,6.688750384630196867e-03,1.376431365318138867e-04,1.229290491658120970e-03,1.693813900576998134e-03,1.149100631848595788e-02,6.172162637611009264e-03,4.689583500465586280e-03,1.520963383080260571e-02,1.304314581269276196e-03
4.787085150854428835e-04,1.002638194183535537e-02,2.023240641152082694e-04,1.476250366647838307e-03,1.583168899617052542e-03,1.376577800339036893e-02,1.234415173634922924e-02,4.834657966770475324e-03,1.341649586345170821e-02,4.311605904463975542e-03
6.640318863718765164e-05,2.172833708799505603e-02,2.674287234109623199e-04,1.714003703118782782e-03,1.538661379874002241e-03,1.365543300325402706e-02,1.588773331049342721e-02,4.129888487006709227e-03,1.183901302956778118e-02,9.013540263468667463e-03
1.012884055019131098e-03,2.229504978324930997e-02,3.297394365102956915e-04,1.937767096906834515e-03,8.317328000742151700e-04,1.018432623411815417e-02,1.778266856722599681e-02,5.805720657520305021e-03,1.013548961291752329e-02,9.539072396875868110e-03
9.507685742722567571e-04,7.184783578290322888e-03,3.896814913231953564e-04,2.142530168991399562e-03,2.063559013762314388e-05,7.973713046585171813e-03,1.790993998555841585e-02,1.861498660779293754e-02,8.468997212309268066e-03,7.949827883788290403e-03
9.520395516706774391e-05,1.334155180659795867e-02,4.459122529302351015e-04,2.323208754543519029e-03,4.278108765961585475e-04,1.106136397047654055e-02,1.478743475050140789e-02,2.249449463588011622e-02,7.012658682211979355e-03,6.264047720934513494e-03
7.016205003035271438e-04,3.008241291926705072e-02,4.954741760870009712e-04,2.475960204238332549e-03,1.131285104682841058e-03,1.894269050718084407e-02,9.653972418036416495e-03,1.480513421804409771e-02,5.703319517820767265e-03,4.048887500711327581e-03
1.729157755404528689e-04,4.237324143473497617e-02,5.364020177559423921e-04,2.598307508767258578e-03,2.783125248002347833e-03,2.671240237230936010e-02,7.452019670866956436e-03,3.439139508379694156e-03,4.467427221581418521e-03,1.805294946214970131e-03
6.147900829517024060e-04,5.320984849364586433e-02,5.677496495035623579e-04,2.686658201218175990e-03,3.991690150905235351e-03,2.829270937840045255e-02,1.154855255655514758e-02,1.973323225621471944e-03,3.339108100877674189e-03,1.553826701683727520e-03
7.582163958046813810e-04,6.327757774321679518e-02,5.884294544044254508e-04,2.736275196427661715e-03,3.111893004915497821e-03,2.221880243800310531e-02,1.968023286694187482e-02,3.134155048532844424e-04,2.355868891484673520e-03,2.898687689503132593e-03
4.906010409898940022e-04,7.020318359230193206e-02,5.972373277629979774e-04,2.746858324056743704e-03,1.080991246480287465e-03,1.361303323842233404e-02,2.689496459646412846e-02,1.630019410500902930e-03,1.502001669020819850e-03,2.612888383266078005e-03
3.924795285159499115e-04,7.164295590260078006e-02,5.934387877004130944e-04,2.722976428211274381e-03,6.935621979264762862e-05,7.492138588186658850e-03,3.068061256646665430e-02,6.786148061930595728e-03,7.567572479158671348e-04,9.258897857420639137e-04
4.807629379121140518e-04,6.820798716934675654e-02,5.767964157826811506e-04,2.662310918309817274e-03,3.778228183716172061e-04,2.588107719238606254e-03,3.203871424913659616e-02,2.181909343134414564e-02,1.215317995906222553e-04,5.808746694493525237e-03
5.037202398755874196e-04,6.293512594153019557e-02,5.473166314540313729e-04,2.554519720207551470e-03,7.433534642321934678e-04,4.936248869391483135e-03,3.324422846194874381e-02,3.303098093755636733e-02,4.021976823905650325e-04,9.111937613409655176e-03
4.457770425493850878e-04,5.817851311009072934e-02,5.052430742265391411e-04,2.406351231000023946e-03,6.057959342533479792e-04,1.501384751737940698e-02,3.511674817745870369e-02,3.665660746927044272e-02,8.256548729937865198e-04,9.180391951291414984e-03
