1.429786634769383055e-04,7.834161048294551594e-03,1.664450212921931216e-03,2.490788094663181143e-02,9.583921174883798869e-04,3.916359919337033917e-03,1.751059110553999237e-03,1.586307661598578694e-02,1.500141185842036352e-02,1.343820365230425640e-01
1.600179930316805493e-04,8.296086125460570143e-03,1.796863622670934451e-03,1.633935448599811019e-02,1.111688550779881012e-04,3.960729700182132398e-03,1.838730652405900709e-02,1.381480738938566794e-02,1.159216745225453114e-02,6.251426843629523389e-02
1.793485293537262087e-04,9.194514945929229896e-03,2.183558242949764847e-03,4.229183270360951366e-04,4.031387181208764998e-04,2.689552182895813947e-03,2.810106134839173223e-02,1.942635368263892839e-02,4.850576109160659351e-03,1.216220950470498115e-02
2.108275691252895314e-04,1.071577501115641463e-02,2.438218361222886047e-03,1.626886891721295372e-02,6.102894873274481683e-05,7.912983300541648378e-04,2.738951634473284907e-02,1.399600889228939937e-02,4.805797062705514065e-03,7.023247526564342647e-02
2.494414744463306784e-04,1.203889245537569271e-02,1.775689747687026875e-03,2.731996559246455125e-02,5.178088290271855776e-04,1.093569497631886184e-03,1.844048066435997890e-02,3.217112730132783496e-04,1.478195561123122129e-02,1.069333190702055070e-01
2.714397395493305218e-04,1.311998999305204541e-02,3.838509517419246161e-04,3.148346429895295534e-02,7.262204733798307459e-04,3.316017189425277210e-03,6.239311872239913966e-03,9.239204211806155073e-03,2.106578655205957815e-02,1.242749475967167838e-01
2.855227087211109540e-04,1.434968989006852984e-02,2.756635509469097236e-04,2.916892864322612536e-02,6.793496277497713173e-04,5.436465271421634868e-03,7.555681974770005888e-03,1.576458858953035114e-02,2.173681259084961695e-02,1.254031624837334269e-01
3.413405335244898680e-04,1.576801848205078987e-02,6.734441694502394694e-04,1.995927741484014931e-02,3.522008178158523607e-04,5.633109192551935193e-03,2.464330696250083275e-02,3.484087121850351632e-02,1.802747424774879190e-02,1.180918616933951670e-01
4.194608170374971461e-04,1.722015481299344480e-02,2.214099501794119032e-03,7.418841852999863255e-03,4.242183415922966814e-04,3.337417925692669728e-03,4.412249058341134039e-02,6.745546282568130880e-02,1.207262347977587288e-02,1.135684136423468493e-01
4.107829650607941344e-04,1.873483866171429812e-02,2.960916996283529702e-03,6.935596273169785872e-05,9.577439726697952339e-04,1.231408620832197959e-04,6.178524059909629162e-02,1.016833262778845254e-01,5.831615906034885201e-03,1.150599526145545254e-01
3.514938202529129321e-04,2.041632499155685704e-02,3.065884108439674832e-03,3.426700845438518969e-04,3.869678930347753031e-04,2.772211470899719511e-03,7.477428373476573131e-02,1.310367711159668158e-01,1.488345626102020132e-03,1.097948090447460612e-01
4.758861287108548713e-04,2.223618008041109567e-02,3.321587860862575646e-03,5.268107632137219911e-04,6.518860411345937366e-04,5.225003515721553769e-03,8.129802358263674145e-02,1.538587048544558245e-01,3.026955464327512214e-04,8.070540973020134956e-02
7.196912935456861900e-04,2.416394168549189717e-02,3.377849585871780819e-03,5.815857116975767412e-03,7.148756423922654826e-04,6.518610559318911701e-03,7.732071468767234834e-02,1.623599361555265741e-01,9.172807939230036463e-04,3.027336512275879965e-02
5.359010217628548418e-04,2.632988422362550832e-02,2.684861308792018189e-03,1.073721688709214014e-02,1.514316499250417572e-04,5.459406380573152834e-03,6.069111335861798046e-02,1.481478921865611587e-01,4.698434255949312122e-04,1.211441768675062571e-02
2.084886890972570666e-04,2.878882361982071716e-02,2.334468668407193009e-03,2.591700131206553168e-03,4.472040114362469516e-04,2.266587897057015071e-03,3.845450118646254883e-02,1.155281123273596694e-01,2.196715576401320896e-03,1.421335028437081122e-02
6.802560474327521301e-04,3.129816421377237812e-02,3.564849148206834101e-03,1.570908949621782624e-02,3.555766831947139895e-04,1.155692186567728761e-03,2.332010828848878406e-02,8.119417399286900372e-02,5.350586782747275040e-03,2.288100980715597477e-02
2.224493722312982451e-04,3.379804757759491407e-02,4.959837245335580770e-03,3.001970127118159040e-02,1.214607137764718613e-03,2.671085036606157467e-03,2.119166415141554571e-02,6.309797140770542767e-02,6.600139673896519843e-03,5.833783200438916183e-02
6.039398928047283194e-04,3.683700261162499434e-02,3.923152129580975353e-03,3.255490726886557662e-02,1.643597793593583106e-03,1.241327432534825850e-03,2.667690104663256526e-02,6.917526889983473259e-02,5.418394351885839899e-03,5.429886895730253599e-02
8.901728170103779180e-04,4.056996717273873843e-02,8.400976792781372554e-04,2.596064571605375196e-02,2.266887445935753150e-03,2.124755287814214175e-03,3.161622247953573689e-02,8.936643559361151512e-02,2.949106391628582811e-03,2.089444858488923723e-02
5.920723860055243301e-04,4.379810461371447250e-02,1.181240547328563616e-03,1.477968324214513213e-02,2.712534863367760916e-03,4.360909732428919217e-03,3.289532621053810335e-02,9.920538358451924665e-02,2.317255972609510994e-04,1.364151093862791750e-03
3.530096872948961201e-04,4.588265980318563531e-02,8.001653341194941505e-04,2.314688899051879460e-03,1.515696430669736172e-03,3.106663495778099089e-03,3.124309701083006693e-02,8.057955998466304059e-02,2.168695235958589037e-03,1.587248147531920839e-02
6.138536076061455521e-04,4.881422960854228665e-02,5.194373196056251488e-04,8.989589594123846561e-03,1.301870416134245445e-03,6.247346257941025177e-05,2.879895384155310711e-02,4.108975707395226551e-02,3.482758512920173209e-03,4.068318841264473296e-02
9.503755792469575220e-04,5.363793652802090195e-02,1.876271972441237662e-03,1.977383535554572136e-02,4.381908348537410201e-03,1.877928930172971479e-03,2.838867662116125595e-02,3.480409441237475657e-03,3.314325539492299702e-03,4.861509136125746061e-02
2.060739706208677003e-04,5.523633866422469202e-02,3.512619667160878003e-03,2.868362944707956302e-02,7.739105645317403276e-03,2.779833128515297579e-03,2.830949339756583596e-02,2.606893642049759943e-02,2.651474939184287651e-03,5.306277459809995850e-02
2.049954443022783922e-03,4.657790868114360106e-02,4.127075496770299390e-03,2.331460628329651633e-02,1.198402344057784494e-02,5.905160925718058208e-03,2.006040868226905902e-02,6.113434608567644424e-02,3.210298332826297656e-03,8.689636380617785094e-02
4.258622353880988851e-03,2.931981849268926882e-02,1.815953241804275312e-03,9.387933167453992728e-03,1.558961706041204001e-02,1.098917744735522506e-02,4.411382825171270873e-04,9.904018747619533491e-02,5.910897413425507396e-03,1.399569320598028910e-01
4.277012357143251779e-03,1.314923772599119883e-02,2.294636384317687121e-03,6.026605308421965207e-02,1.661109724044716740e-02,1.422461662001593512e-02,1.822061660684403187e-02,1.086864384578853093e-01,1.076405242041189592e-02,1.623796994462376186e-01
2.114404109052560234e-03,2.269002092076074194e-03,5.052098503250492152e-03,1.015312539529094893e-01,1.585395263772671273e-02,1.372462570908478639e-02,2.116375210722876155e-02,7.235063997151654214e-02,1.851927900262968774e-02,1.450086862743751870e-01
5.979717010512876438e-05,8.775183103277576363e-03,5.425929990735852207e-03,1.165678341557240261e-01,1.502669583430446022e-02,1.077081001106773399e-02,1.050619813753616086e-02,1.517893297748495844e-02,3.117222116264705550e-02,1.364946570873415976e-01
7.127138918822851664e-04,2.201184788050337959e-02,4.775027628287787512e-03,1.115962818613467356e-01,1.371613685865462513e-02,7.207048245973077596e-03,1.038594923594772165e-03,2.433212782903224417e-02,4.863594726352212655e-02,1.546200557048464652e-01
3.771827703901824689e-04,2.924067240180242000e-02,4.261947894568150763e-03,9.785910447857538996e-02,1.122785604843741167e-02,5.255847744380491397e-03,1.038129378172548880e-03,3.102625318088893594e-02,6.530472888958957500e-02,1.531432822711527586e-01
1.690003352087861993e-04,2.414960191958534855e-02,4.255991846357434424e-03,7.811862789193076140e-02,9.190015646779847724e-03,7.260335152694319567e-03,6.305123327785343290e-03,9.094384853432861335e-03,7.332277201000980682e-02,1.118452136873000491e-01
2.759068683852740323e-04,1.159408633713657558e-02,4.629633432136189865e-03,5.307534323343480326e-02,9.288035125270098155e-03,1.250426925808883170e-02,9.614074707389529129e-03,3.237735014188519722e-02,7.026999579666431961e-02,8.065804378687382870e-02
3.276492929866710638e-04,5.728338587092591042e-05,3.985792777228477045e-03,2.904175496409578880e-02,1.003410334399993525e-02,1.678252494275910695e-02,8.610959801365263705e-03,7.388770819103350485e-02,6.064840893356288065e-02,8.665283171943354013e-02
2.419955820638247949e-04,6.005075357418000054e-03,3.979167486393048484e-04,1.375091287411469264e-02,8.440348241804365020e-03,1.671792843775975201e-02,5.194976017265475962e-03,8.520327076519962350e-02,4.908846779570924523e-02,7.502712483951429201e-02
1.851792029652879381e-04,3.858763402667514646e-03,5.440506176654229774e-03,9.027424812735752868e-03,4.124052814443470577e-03,1.255341438344844546e-02,1.254893572777477555e-03,5.005317423479328093e-02,3.626815442511265725e-02,8.656843255246153210e-03
1.979596823924854474e-04,8.673781554339702812e-03,9.168829953974605776e-03,1.096026494899817426e-02,1.690646670892185198e-04,6.926312053490151985e-03,3.144287543088029359e-03,1.334093886538596091e-02,2.329106295355358805e-02,4.079978625861726410e-02
2.051937484376846021e-04,3.024512877143252856e-02,6.986570961280992413e-03,1.487263582283516322e-02,1.877617475459880930e-03,2.683238620680363992e-03,6.897705865597488287e-03,6.455634252605979562e-02,1.485820722040872600e-02,1.593175963792674635e-02
1.865711475035028606e-04,5.583299179944976876e-02,6.099307543506899418e-04,1.741490820275230431e-02,1.029278365149495717e-03,1.180670588128058824e-03,4.632294316052462321e-03,7.256499894678297702e-02,1.380261308707352377e-02,1.481293394502158911e-01
1.741368692574111424e-04,7.824084498747310712e-02,4.534986073038326654e-03,1.600012544954470053e-02,7.297723071745447574e-04,1.680296692648417314e-03,9.860637191745746238e-03,3.889394305793288792e-02,1.609039662022902079e-02,2.374678538846644871e-01
1.792832180535882856e-04,9.106072140758857125e-02,6.478439834939448208e-03,9.511593935192111729e-03,1.938287189748001509e-03,2.431695675294357969e-03,3.426685092304013192e-02,4.502072643928125423e-04,1.538366553576310004e-02,2.182747943735654506e-01
1.936335401224208771e-04,9.469123618650768237e-02,8.630220517212135178e-03,8.881928757570409921e-04,1.387064976596137211e-03,1.793279441424878258e-03,5.431020967874236605e-02,8.765026230726606637e-05,9.830860984438633335e-03,1.213790682609677402e-01
2.084996684003904391e-04,9.498935065694261159e-02,1.328328204056021880e-02,1.281064981562167991e-02,1.891356599759747795e-03,1.257027543686197162e-03,5.569121225818286780e-02,4.954040526749912271e-02,1.551255411552010868e-03,6.073233240360310578e-03
2.130089981655441337e-04,9.279412780791829185e-02,1.732076612639567997e-02,2.376994221289005157e-02,6.981681318942415879e-03,6.105626811263168904e-03,4.066882787154366130e-02,1.023834367980536592e-01,7.562614191036824869e-03,9.025078232247416010e-02
2.164180915444740010e-04,8.256634288261462118e-02,1.657491015291954334e-02,3.181021016921534161e-02,1.076124566937064313e-02,1.050428309441917007e-02,2.653756517631123552e-02,1.050127940996302689e-01,1.699346263965725856e-02,1.489015268568578965e-01
2.537445584681877935e-04,6.215052161995981289e-02,1.091968491771527251e-02,3.691754959366443795e-02,1.134833071128839299e-02,1.304244159032698705e-02,2.507317060080070659e-02,6.278872747664375475e-02,2.659276866712217968e-02,1.688320644595059927e-01
3.083826276903988469e-04,3.613649315922554117e-02,3.253441696744731500e-03,4.131510643303693692e-02,1.070560726154093541e-02,1.481524453327672311e-02,3.071897263616001419e-02,2.774740990710257774e-02,3.611270494492486993e-02,1.703604574643690639e-01
2.971286221442678713e-04,1.189974051516774246e-02,3.471852389513379981e-03,4.654272965156959485e-02,1.142093709088361220e-02,1.732895065582962940e-02,3.271312091012547330e-02,2.497338624899218124e-02,4.486203913217137046e-02,1.732541451104950281e-01
2.490789434274208371e-04,3.576813699440861000e-03,7.195982648166237769e-03,5.115934344980410664e-02,1.257615414472502621e-02,1.978886199401415358e-02,2.969521000896231666e-02,3.135668933129050900e-02,5.147711501690736130e-02,1.814951741544050534e-01
3.456753856270307823e-04,9.406715411692776613e-03,7.971259539575066555e-03,5.330938238840485927e-02,1.203798545770532781e-02,2.036120729269757720e-02,2.568735790551984408e-02,2.993472804760594075e-02,5.497922572980717265e-02,2.024646768535559860e-01
5.370799118798188186e-04,1.474996472904497626e-02,9.190052960137046895e-03,5.415328098866972056e-02,1.089821927091276163e-02,1.946213527220444148e-02,2.027931930279452261e-02,4.189748420930201889e-02,5.618097428869840704e-02,2.457291104578422369e-01
3.905486326410909917e-04,2.917662647002692428e-02,1.465494539846042346e-02,5.618912442440180538e-02,1.181155258139920949e-02,1.923836051073506831e-02,1.175063416833414115e-02,8.699233486010272964e-02,5.697547303375177785e-02,2.857557515754952093e-01
2.465415712621567973e-04,4.952338436453723042e-02,2.366108047961000896e-02,5.954339984710714517e-02,1.483331442789344139e-02,2.000107550947869545e-02,3.923948846325252086e-03,1.450922064319122018e-01,5.785898734581985253e-02,2.738993395373426343e-01
8.255067285894449004e-04,6.404814644173918714e-02,3.135197840675165576e-02,6.253944559820166782e-02,1.830047271081500226e-02,2.011388171151138465e-02,1.470085822552085787e-03,1.820453658431981925e-01,5.742121170002290054e-02,2.091902187498537458e-01
8.999216524199389611e-04,6.885588460032210367e-02,3.399114765480016481e-02,6.453348817986152841e-02,2.146927076045581154e-02,1.935639604495115185e-02,2.555803788339027459e-03,1.883758348450688680e-01,5.511773655579384201e-02,1.497631272352077103e-01
8.018279545310632054e-04,7.210545628481791758e-02,3.192653538561543436e-02,6.587565736355022183e-02,2.365438892834580142e-02,1.935234722721303549e-02,2.469111624456992154e-03,1.678794988767018381e-01,5.276309023555951494e-02,1.365558149329336168e-01
8.861342059558614251e-04,7.933954554275068904e-02,2.802448656689640605e-02,6.643252160631356318e-02,2.371631265194996604e-02,2.037616504415495564e-02,4.451199692228520466e-04,1.184367810937708015e-01,5.153778526768622997e-02,1.525277290447884238e-01
7.985305397408011931e-04,8.136448382686865821e-02,2.471793923068007701e-02,6.569081587023124780e-02,2.203184095258586134e-02,1.993307993801823885e-02,1.933755945896359178e-03,5.086471519460954854e-02,4.979632853705229234e-02,1.689916295319561501e-01
2.074894091435093200e-04,6.447911470106156007e-02,2.184841746569110219e-02,6.255706843159083985e-02,1.959266154274423577e-02,1.498600914169499754e-02,5.008142703820973873e-03,8.988445851877991180e-03,4.657611207530511221e-02,1.812981683981250425e-01
4.399722195491218924e-04,3.143545715065427376e-02,1.719891108922641521e-02,5.407336746594255256e-02,1.508679448088676676e-02,5.192547985374675566e-03,9.358091863434463489e-03,5.991389325989698866e-02,4.454382854136641062e-02,1.835412560565714835e-01
5.945087401086918827e-04,3.248612692759787150e-03,1.030948113794187375e-02,3.734621456877731949e-02,7.299336896502869355e-03,5.612661704514531474e-03,1.276315035901916597e-02,1.236134166493770975e-01,4.566228642786822334e-02,1.544039587753983644e-01
4.084206513419536759e-04,3.032225861627460724e-03,4.655253925889538472e-03,1.512119937298540134e-02,4.717465690848006519e-04,1.182273351752115287e-02,1.291273164495554231e-02,1.864566739214139346e-01,4.633521382985738429e-02,8.757443644401359528e-02
3.144363205114060673e-04,9.229266026341382059e-03,3.979459118286145930e-03,3.130700073999469896e-03,3.567528932021410068e-03,1.133250568501661081e-02,1.227405964817539566e-02,1.972013161439630791e-01,4.133974218197708494e-02,8.829631507257639650e-03
3.618407320541689571e-04,2.602903981163838878e-02,7.644254257606423672e-03,8.957028093102741353e-03,2.195864758929776724e-03,7.212920763842585806e-03,1.684326967159188032e-02,1.409896536331298189e-01,3.164687684015758673e-02,4.551957256336021385e-02
3.682122839804030808e-04,3.894422022896640301e-02,1.164624689999040758e-02,2.600060354851979789e-03,3.007499389676359606e-04,2.699174590764915650e-03,2.887179222051302133e-02,6.241536336239962568e-02,2.353764216757959701e-02,5.458843563027442058e-02
3.048861261028440765e-04,4.373975622344557918e-02,1.311172588023279753e-02,9.010793523756286186e-03,2.915658501520345877e-03,2.564324228759514140e-03,4.308819178286033003e-02,2.477942213971183558e-03,1.861460207886859314e-02,2.076089290219815947e-02
2.567257936920299788e-04,3.528072328851428185e-02,1.240219165121279887e-02,1.991158049040569686e-02,6.147283955221875471e-03,8.892610923985452831e-03,5.248070688459226252e-02,3.924698590274129650e-02,1.017627737224995055e-02,4.150742468254548651e-02
2.393058850464904004e-04,1.728717870654744582e-02,1.205320644544156765e-02,2.900992036378622491e-02,8.871201940616057699e-03,1.323246275242890603e-02,5.602910644510322030e-02,7.536922454721592390e-02,5.967040179152296141e-03,1.179684826370950845e-01
2.141878952534539851e-04,5.943940065205731427e-03,1.418394254737928573e-02,3.890315011594731864e-02,1.014002313255502052e-02,1.313867983025476978e-02,5.767128060673960832e-02,1.035773497431470985e-01,2.236142553983146847e-02,1.824953666669391628e-01
1.746820050512272373e-04,1.141449874449035340e-02,1.796572670668355673e-02,5.199033359422650102e-02,1.139604717830637430e-02,1.106361616747772274e-02,6.016163249103134714e-02,1.151124744366752439e-01,2.794618500355471741e-02,1.919985564009401569e-01
1.397776155765727074e-04,2.679787435282262112e-02,2.071759333411902007e-02,6.478678227910360243e-02,1.425199384005482704e-02,1.146451300031395802e-02,6.390911357830882100e-02,1.138839808814529758e-01,2.106215467529877830e-02,1.343520293206698357e-01
1.139099903253655734e-04,4.052926654258994649e-02,2.182271153475988726e-02,6.576277882402591091e-02,1.792590139753423573e-02,1.500054244355556766e-02,6.849525548828200305e-02,1.158737262347493968e-01,9.377327008724546664e-03,6.501480432954355460e-02
8.927784443041065230e-05,4.508627521128311111e-02,2.141375690163629941e-02,4.290535547188968624e-02,1.978674905776044157e-02,1.763073740522165880e-02,7.094138748592132560e-02,1.185556582579127410e-01,1.358199397025713125e-03,4.941927074611122961e-02
6.463784077620641285e-05,3.432193758655185944e-02,1.441775671366054591e-02,3.633196614536959943e-03,1.766026616282990666e-02,1.575967035724435902e-02,6.616003641735741791e-02,8.965218494013102446e-02,1.685357133029308230e-03,8.872741623146301881e-02
4.443275229425964692e-05,9.420862151405388560e-03,6.334423487387085168e-03,5.663555043815077239e-02,1.224359544490493876e-02,1.099679455080616354e-02,5.310948721392426408e-02,1.951646032191381094e-02,1.069274788629171434e-02,1.419680390936275405e-01
3.006068939169696431e-05,1.444210339954131624e-02,3.725940934436731272e-02,9.239386713286762420e-02,7.246000586741485963e-03,7.970898469046609411e-03,3.778571932237951431e-02,4.129084207666299661e-02,2.467641413636550637e-02,1.881938825829138351e-01
2.014581146153218599e-05,2.097643396547545572e-02,6.240158083504240144e-02,9.922181970531458728e-02,5.640070065829959171e-03,8.155651195689554711e-03,2.790984488449139642e-02,4.502271852618998371e-02,3.845992559943957334e-02,2.241457533652566614e-01
1.439776259701198486e-05,1.070614608900756493e-02,7.029194599739495286e-02,8.499074498197679850e-02,5.838150245289334267e-03,8.153878864761480993e-03,2.557554599957325217e-02,2.345894816718865211e-02,4.874207295959960551e-02,2.287867319240994290e-01
1.354190043867284062e-05,1.098585861716679796e-03,6.569954767166975851e-02,6.582692217364749521e-02,2.945258002452259827e-03,3.750972872788440032e-03,2.434044827751163584e-02,5.022393982590216827e-02,5.400769593578341743e-02,1.714755966420164202e-01
1.796801220422654613e-05,2.434998724586483979e-03,5.969957790280422394e-02,5.031096444537831724e-02,5.777960415261244181e-03,5.756179458154376573e-03,1.362812558994234806e-02,1.411799096934643338e-01,5.191005603206777508e-02,4.828972449807624606e-02
2.771027294681625893e-05,4.905739613100245158e-03,5.516724738102747605e-02,3.624702410235908223e-02,1.743865327024074138e-02,1.694854378956021576e-02,1.052626980010034144e-02,2.380330802807520685e-01,3.952854863096882942e-02,1.092193976415714862e-01
4.208885253532824284e-05,1.445799564836440163e-02,4.818907734359537121e-02,2.085548566585327529e-02,2.646105755262137191e-02,2.549714579135758594e-02,3.866831291443978413e-02,2.858146214520947970e-01,1.857557205984754906e-02,2.544222671781319889e-01
5.976482775087145970e-05,2.833760520829163576e-02,3.836816152554124032e-02,1.033289118407913591e-02,3.028107297039292142e-02,2.964760340539755040e-02,5.608473036310136772e-02,2.865124346634717045e-01,4.738114975418298734e-04,3.457684064742925223e-01
8.103759294747701057e-05,5.209195230314179331e-02,3.064882282495690058e-02,1.437769199749527188e-02,3.027529857764352933e-02,2.989746425814582623e-02,5.821065716428178161e-02,2.696182998768923422e-01,4.181619484131916115e-03,3.616053254346757728e-01
1.078203971462243484e-04,8.110297106253448740e-02,2.862366453694679264e-02,3.150803766085032154e-02,2.828663976637690175e-02,2.659825754373409262e-02,5.286990391583486215e-02,2.443108034194858835e-01,1.044700753937385755e-02,3.115841667185314523e-01
1.380533679351489157e-04,1.063141255167612681e-01,3.088752647450739713e-02,4.767965446088746895e-02,2.529883494220713444e-02,2.033405945527377856e-02,4.759266359507806354e-02,2.028058216192528407e-01,3.138784518534996210e-02,2.358310234086979373e-01
1.656339025738689879e-04,1.292429183347724719e-01,3.357058377483437134e-02,5.171918874874537053e-02,2.259687167856726242e-02,1.382009031601082877e-02,4.309824611839676439e-02,1.518946300370014602e-01,4.423379200732571737e-02,1.905636580052417761e-01
1.927229365763020433e-04,1.549665990141047833e-01,3.390118681288701447e-02,4.504056000428068723e-02,2.139707488132186822e-02,1.084445758884524172e-02,4.140602461569885262e-02,1.152718981308916285e-01,4.627111328341713264e-02,2.172120127178361337e-01
2.302745154854211516e-04,1.760523077972003803e-01,3.227270995825876759e-02,3.516688119265495849e-02,2.224094637694336643e-02,1.379059763961617592e-02,5.043010854798422871e-02,1.086092587618316951e-01,4.445342757106279796e-02,3.050470653563115975e-01
2.716659013596177310e-04,1.799339642489091451e-01,3.157563324278811479e-02,2.637567852211589181e-02,2.585909139762429185e-02,2.291971513473132355e-02,7.331304847213045151e-02,1.272291348696664159e-01,4.378212270446265458e-02,3.982386864457826969e-01
2.909277230200017945e-04,1.655474305394771528e-01,3.242748163265993244e-02,1.724842364344858492e-02,3.212577809501152709e-02,3.564855014837269714e-02,9.927839746954174316e-02,1.555060328768132494e-01,4.283681547445618298e-02,4.544871945113792000e-01
2.991450715643374195e-04,1.411932638276166552e-01,3.071448354188029833e-02,4.421427459918383235e-03,3.774970479068074508e-02,4.611935089648753344e-02,1.133391191601554743e-01,1.804836242604284657e-01,3.856646374921904319e-02,4.740486523870285351e-01
3.497763338827514093e-04,1.148916188541655586e-01,2.402747953289128408e-02,9.929080593297102270e-03,3.848398529909375504e-02,4.890112144350550888e-02,1.112253384215450974e-01,1.970822270562714307e-01,3.091259726348638895e-02,4.700490817062681348e-01
4.183551487526563804e-04,9.237882494368927777e-02,1.717208809202805039e-02,1.732706023187355684e-02,3.395803343981651512e-02,4.395494571179930920e-02,9.801145237859461290e-02,2.023005674555604649e-01,2.193716595056480201e-02,4.464204553971116707e-01
3.879096385058631202e-04,7.380995010783363008e-02,1.527395998573084085e-02,1.600999106941079081e-02,2.741656202338536158e-02,3.603115552025398100e-02,7.916208897589070703e-02,1.901520986808843960e-01,1.239486733085713374e-02,4.045289141658958143e-01
3.055490307309811937e-04,5.105965802238037615e-02,1.533566065817786733e-02,1.746857113438704187e-02,2.127210651839712280e-02,2.950121885652338960e-02,6.098934442211056961e-02,1.596944056179797067e-01,1.585588285654544478e-03,3.439666995968018726e-01
4.232514499219963916e-04,1.952536422861191057e-02,1.123309620160606141e-02,2.790950305675914817e-02,1.572766323432996105e-02,2.507588795133321169e-02,5.081020500915009452e-02,1.225019272896599176e-01,9.049412457918567382e-03,2.675865681548884045e-01
6.548812115432701584e-04,8.225347229481200576e-03,3.326026357754876660e-03,3.164198985907826223e-02,1.105017899227839391e-02,2.108530818549059910e-02,4.822927576138572731e-02,9.150377396405452723e-02,1.569282693613238341e-02,2.010089127914994611e-01
4.163617071647099485e-04,1.316971931884977978e-02,2.986042494855170246e-03,9.935133440652067424e-03,8.472588451814278346e-03,1.672325650613329037e-02,4.451406113235285844e-02,6.463252619024345558e-02,1.773966766680100393e-02,1.771967850302363645e-01
3.781569812906965299e-04,4.187453926570987306e-03,5.278642672519873180e-03,2.925411819208301872e-02,8.389335983680327666e-03,1.285394163533443851e-02,3.488930727342809401e-02,2.726920242066259437e-02,1.913749490829399352e-02,1.824445232822748952e-01
8.134739373341793450e-04,2.046801174427775871e-02,6.093277095726110440e-03,5.772301085851452851e-02,8.734486544248000472e-03,9.384860003883013779e-03,2.202139530406991771e-02,2.989481685901316729e-02,2.060052061715076169e-02,1.555467409429131531e-01
3.295881444219827443e-04,1.666109108137018777e-02,9.068626508763114741e-03,5.984882147189941187e-02,6.268471278976079503e-03,4.158106850697945202e-03,6.785359070691988209e-03,1.000425820438340663e-01,1.649156607278123507e-02,6.808561746589432417e-02
3.363231809142618956e-04,1.669055892873871644e-03,1.565555098791546196e-02,4.365546367347226259e-02,4.147432067130507258e-04,3.295100449280361637e-03,1.238618887072208234e-02,1.660724581209369055e-01,4.481859930207113957e-03,2.900193109592115459e-02
4.820348436584971207e-04,1.735365403752058000e-02,2.407458077197973181e-02,2.220413262395007359e-02,5.294213161592180479e-03,9.172754746445938023e-03,3.053617703911789411e-02,2.115730536753961388e-01,8.559814018445329256e-03,6.689076613571437457e-02
4.587650319083137491e-04,2.478691109235416079e-02,3.083040474372010856e-02,4.693998078207119173e-05,7.483883379836275482e-03,9.879062271986231367e-03,3.832319588443750674e-02,2.235571468581271648e-01,1.587737117204200687e-02,3.584506125037714708e-02
4.481518364107162262e-04,3.154574901166891376e-02,3.441309093453537998e-02,2.166971526651247787e-02,6.938315224751630088e-03,6.905764731082603310e-03,3.438469578093106965e-02,1.925581916109801728e-01,1.895863674185949838e-02,2.162487720224077342e-02
2.646495935714850340e-04,4.400653280985639126e-02,3.661421374894743147e-02,3.912941782927506496e-02,6.139764782587299463e-03,4.130007092238488324e-03,2.784811802910975090e-02,1.248371147660379404e-01,2.128055540331464865e-02,6.215916192822303066e-02
1.752610244838283694e-03,6.108300671080496569e-02,3.950281890963409925e-02,5.073668305749141905e-02,5.722387335357427378e-03,3.196377758622290233e-03,2.958831410782471888e-02,5.474161963240035955e-02,2.119243148717967623e-02,6.514753577561208098e-02
2.607062415018247467e-03,7.926336253303351009e-02,4.305117810292267977e-02,5.567805707757829403e-02,5.998103756855624469e-03,4.435834074881366343e-03,4.483868701951190805e-02,2.505877845249728647e-02,1.710228038737417189e-02,3.102721590851395886e-02
1.813059872997404729e-03,9.619386750906067096e-02,4.606865827981049960e-02,4.756999723411008824e-02,8.525848431202603939e-03,8.694694858784338121e-03,6.784582205395293941e-02,4.461811980301138431e-02,1.431212072666282302e-02,2.632718698907816207e-02
3.517126860909007904e-04,1.103384651394399840e-01,4.755181594212722074e-02,1.973729062191709183e-02,1.338663819366245518e-02,1.514716288559075051e-02,8.006055862357436270e-02,7.903762764223189186e-02,1.930500537514798567e-02,9.354306992092982498e-02
2.676439583583964106e-04,1.212643428840650683e-01,4.735241124795004641e-02,2.060428464792338904e-02,1.776594778441581771e-02,2.018067446534818274e-02,6.409681290280967725e-02,9.154166936531252241e-02,2.926091857373388713e-02,1.636379242605645323e-01
1.342471511944638403e-04,1.283565911247868119e-01,4.656282663848136660e-02,5.350203136778737545e-02,1.896961353246849266e-02,2.087613095239273381e-02,2.381200581056258994e-02,7.745747474708428171e-02,3.400471628542710290e-02,2.270749200953572633e-01
2.021247297630423721e-04,1.282884129179688582e-01,4.602909400944391050e-02,6.560202431715562998e-02,1.674700275246660680e-02,1.766336456833403692e-02,1.978116170140284055e-02,5.004807809683305825e-02,2.804408459612893825e-02,2.698891131659575393e-01
2.339211000057914614e-04,1.184661277193626155e-01,4.448573325193937167e-02,6.081735198247885388e-02,1.262919247362916456e-02,1.267302504072559226e-02,5.239802583309890321e-02,1.368374619089630234e-02,1.530924126358483572e-02,2.821686886230623803e-01
6.813311824469989956e-04,1.028147283549877833e-01,4.092648834018401682e-02,4.865213253459442500e-02,8.911694239589386043e-03,7.810302131661275502e-03,7.390159334906205857e-02,3.132749689187054598e-02,2.883912737673466776e-03,2.605990326632979803e-01
1.968979602070612157e-03,8.856912119861158617e-02,3.833691294181532788e-02,3.117681474931641855e-02,7.474720260531098233e-03,4.920887415858533898e-03,8.471456505395076608e-02,7.099514616578034287e-02,4.628109626192900526e-03,2.140157025607411223e-01
2.022702550007255372e-03,7.956792460764103292e-02,3.981263198399668385e-02,9.331443512392475700e-03,8.305577024298604547e-03,5.446571963079946399e-03,7.984538525468577730e-02,7.933515009863188749e-02,5.388365807002025096e-03,1.751378177873350872e-01
7.614249978719071950e-04,7.782154405355674875e-02,4.006418793618660157e-02,4.938342254017383595e-03,9.966957162138138232e-03,8.923608759245660674e-03,5.938634581088182707e-02,3.846462797363719294e-02,2.530392584437681641e-04,1.807288382466703536e-01
2.620653616284182564e-04,8.506706023787419246e-02,2.840928388809305441e-02,3.636121534457293497e-03,1.116040056745818722e-02,1.267803343906948044e-02,3.619774236099843751e-02,3.373221182460098277e-02,6.665031714959516150e-03,2.189790241659599068e-01
2.625458880758015242e-04,9.606658906195206238e-02,4.395171420266102968e-03,3.221965243596541795e-02,1.093891624276172904e-02,1.372072037853257209e-02,2.604236640690395579e-02,7.923141755964113742e-02,9.923347288004294789e-03,2.251398593755732369e-01
5.349403829536466832e-05,9.908528280353616491e-02,1.700468664517430437e-02,5.761048980503391537e-02,9.318159977039249323e-03,1.154045170550015847e-02,2.985627788888135098e-02,5.548513576737054004e-02,6.436800356216563525e-03,1.608927366807877124e-01
3.681270894903059746e-05,8.996947910467872900e-02,2.155194491138771526e-02,6.120631142992898066e-02,8.429272198114420508e-03,8.704476694017400026e-03,3.251548544229231757e-02,3.664873518960181167e-03,2.748508053542923768e-03,7.482201768658605645e-02
1.281218707139559891e-04,7.599416091560376452e-02,1.112796612660087170e-02,4.745745565800337656e-02,1.000242605130003716e-02,7.606151725824403416e-03,2.317259939492472692e-02,2.278755978464498330e-02,1.410670835870326233e-02,5.021239504321585445e-02
1.501024863682883295e-04,6.042018278332220160e-02,1.908703017638793513e-03,3.133787977533594032e-02,1.169460428585137289e-02,7.517524923376343524e-03,8.233937177398689689e-03,2.348204357207576282e-02,2.457280636636922921e-02,1.072355924780734743e-01
1.056809825939754142e-04,3.625863274803447361e-02,1.035599131804018809e-02,1.711319237151006853e-02,9.949821114531361144e-03,6.455131855504966584e-03,3.126583504179858072e-03,9.630936699762386588e-02,3.286209781827537091e-02,1.851284314859160951e-01
1.301909506106454020e-04,3.097731428076462568e-03,1.681670180500175610e-02,2.966165040213560988e-04,5.820042623587214081e-03,4.596134864243775486e-03,1.554596949118958182e-02,1.558063582185978679e-01,3.895271528968792529e-02,2.178647721607130106e-01
1.886273727462815623e-04,2.269277946421761893e-02,2.548861488419004034e-02,1.959062227101974335e-02,3.387752876668545434e-03,3.923229796808317543e-03,3.696053491373439692e-02,1.883214102911838217e-01,4.307637984622410265e-02,2.046602612254845854e-01
2.161929219493146682e-04,2.638329804014979268e-02,3.472647186294958860e-02,3.248641282038684103e-02,3.362967354043666472e-03,5.474795192724226517e-03,5.919275834323179525e-02,1.834656239338287587e-01,4.501359577016620511e-02,1.865296269068739965e-01
2.273940802992551586e-04,1.633266361714666437e-02,3.782514743174612143e-02,3.711586389603578617e-02,2.749249121463296936e-03,8.366118696871847199e-03,6.429505633384849372e-02,1.344451632272798125e-01,4.449082426497432546e-02,1.682884675974737620e-01
2.516574595985222374e-04,1.467586387259138363e-02,2.686363645372167458e-02,3.733608554058680251e-02,1.757656379232103855e-04,1.100017673891303706e-02,4.930973204362107398e-02,6.103249050173008977e-02,4.205974432813328057e-02,1.155530378238907585e-01
2.814877254271913229e-04,2.839118876728486535e-02,3.227179831452554534e-03,2.918101991822649732e-02,2.409883599293395975e-03,1.251448594434877506e-02,3.213665993693139850e-02,1.594604708731956269e-03,3.839377855653869354e-02,3.461408695346116643e-02
3.020057333057284696e-04,4.133450872297030065e-02,4.708158374524731848e-02,5.758060861408771311e-03,3.096658472009306603e-03,1.340812240356327456e-02,3.064367690271282627e-02,1.662028587869241250e-02,3.336653120500331082e-02,1.136427054492263403e-02
3.156098994383025442e-04,3.813634285570556559e-02,8.527116254945223128e-02,2.342026063343594783e-02,1.686657549191888407e-03,1.521132773087887149e-02,4.678497990651591526e-02,1.054164861821095533e-02,2.779837853652605828e-02,1.156674785697989205e-02
3.284703584964551552e-04,2.599632842507799274e-02,9.798069059239981893e-02,3.601729382099962823e-02,1.828303191588584930e-03,1.894580216317799659e-02,7.351556348936545693e-02,6.717971982562090383e-02,2.487246496277617513e-02,6.399134615314600039e-02
3.388376545734553703e-04,2.474229834299382716e-02,8.511119497751834517e-02,2.151832565800770522e-02,7.148170904012788804e-03,2.314765062082498395e-02,1.030767114054695621e-01,1.237749664048596043e-01,2.721579697461282837e-02,9.356806740624910856e-02
3.432421605803694271e-04,4.076177616661351422e-02,6.436094999134910066e-02,9.712904199794517371e-03,1.198445968210188999e-02,2.438307543370452080e-02,1.229805508370662021e-01,1.547729779003913231e-01,3.355434777194873930e-02,8.687493146997914140e-02
3.420588944392618700e-04,6.043328854212400014e-02,4.791516442444249124e-02,3.895073638816413941e-02,1.358666810270935631e-02,2.087981924225732616e-02,1.199873011356916569e-01,1.577997782785508507e-01,3.995219437613767299e-02,4.918095047854371960e-02
3.366833834713041916e-04,6.770404291307656475e-02,3.182960645671058242e-02,5.227208706952743422e-02,1.185721894488090712e-02,1.445475392476870680e-02,9.692494378445251635e-02,1.490035499558374221e-01,4.324203880125448984e-02,1.347788048654336920e-02
3.268979781098917299e-04,5.901981325007576995e-02,1.112105669308760710e-02,4.708954873252166329e-02,8.688470358682054764e-03,8.121872778268136167e-03,7.342513814368031855e-02,1.421229957220715157e-01,4.285617322739328217e-02,7.430726967570462638e-02
3.121642156603319064e-04,3.978697367357274944e-02,7.963951590281567045e-03,3.285943804494004944e-02,5.415947824958166831e-03,3.656521689992358638e-03,6.594105080666508301e-02,1.437918344703207063e-01,4.063159839681750735e-02,9.141752516924178673e-02
2.928695377824222360e-04,1.431173698196580406e-02,1.750952058737107603e-02,2.301809763723583133e-02,2.885107069278829671e-03,1.710741635447772524e-03,7.593931554854586874e-02,1.614860163861775721e-01,3.857259740566456457e-02,5.286441238115349023e-02
2.697306994543766144e-04,1.325056242850914702e-02,1.841084540217469145e-02,2.373552619769463135e-02,2.039803944152771345e-03,2.004658191503143946e-03,9.309131879068749393e-02,1.947402375611839154e-01,3.647799065863638335e-02,1.166460991025688315e-02
2.431917957511558830e-04,2.968300242820854501e-02,1.440800040929849160e-02,3.094946363453508417e-02,2.508221397201599884e-03,3.323785499329040029e-03,1.014088279138429805e-01,2.226293241678653778e-01,3.291532148852593237e-02,7.195782046892446049e-02
2.136813753154453239e-04,1.819832557145585963e-02,5.882318346941156455e-03,3.596148662795901896e-02,2.232350462218104202e-03,4.622105179394976789e-03,9.028046294309066688e-02,2.198713973640014085e-01,2.791926209416109583e-02,1.222948185732903176e-01
1.818789630176818298e-04,1.686359891894322754e-02,4.836996430076305822e-03,3.154126533017725248e-02,2.785568937885122848e-04,5.153222196382476958e-03,6.414137596937868890e-02,1.804129847163059575e-01,2.315459005870984174e-02,1.602610508852971849e-01
1.485762793557593182e-04,4.326594706335352286e-02,1.172496469610094863e-02,1.637915095892010162e-02,4.341827743910008607e-03,3.364677644084232075e-03,3.467139125740314326e-02,1.148486071223965843e-01,2.018769526753209920e-02,1.719020841559479040e-01
1.145264815581615052e-04,3.588121903106376159e-02,1.323009941360561194e-02,2.319065948096092449e-03,8.128719158313257864e-03,1.588471827277304757e-03,8.747618396315213693e-03,4.293221383531249657e-02,1.927404341016276251e-02,1.495847311945946168e-01
8.048101972109468873e-05,1.044496235389167152e-02,1.379509147452436142e-02,1.389446739624938462e-02,1.075669033859320833e-02,6.870013983619545524e-03,7.599961453389965024e-03,1.504163335913178551e-03,1.884207410044232145e-02,1.017903368821803933e-01
4.723302507318970629e-05,2.548478878612207149e-03,1.360442954019628822e-02,1.375665308328033638e-02,1.301136380671786760e-02,7.916366154975424188e-03,4.657539262623324600e-03,1.313499271144933506e-02,1.668181141130564357e-02,4.306738159806072774e-02
1.557224590611664918e-05,1.751428893582859803e-02,5.609360393837127708e-03,2.985036959806593518e-03,1.561268044142790495e-02,4.163338790386108927e-03,2.007569941061811136e-02,7.668109176246271086e-02,1.294589090754029274e-02,4.018053939289619771e-03
1.376413255215384955e-05,2.619480480162101471e-02,1.127118324248532408e-02,1.834033171666698062e-02,1.740248978578582545e-02,2.261598415027601342e-04,5.441147671713044559e-02,1.354945158241215863e-01,1.069402051998308463e-02,9.542956524199508461e-03
4.009857151535811134e-05,1.223185570812739334e-02,2.467112880429641469e-02,4.618470497365277649e-02,1.655946281152596844e-02,1.860277966279577644e-03,8.197523712218635072e-02,1.446308929438558100e-01,1.214231011031950518e-02,3.298620135970815187e-02
6.281640135469499235e-05,6.229277031357509549e-03,2.400236977569823391e-02,6.534365981025117009e-02,1.282864461541335238e-02,1.442337457228464858e-03,9.406362397028640576e-02,1.050159890096027115e-01,1.610931874302432010e-02,9.351017830657393226e-02
8.138663434776524381e-05,9.725556895702827664e-03,1.571002717017984732e-02,6.295343641971615223e-02,7.193208248041629317e-03,1.115967423384307475e-03,8.963613839315986986e-02,4.392835263594867951e-02,2.008814710952617696e-02,1.449831110601870199e-01
9.538212053456732870e-05,2.062824341230674353e-03,1.232573522549568028e-02,4.679319774515319080e-02,6.725001124429207805e-04,1.155385199721304258e-03,7.252094199064831881e-02,1.704462634600666798e-02,2.202996154143732621e-02,1.843017990418007179e-01
1.044882399697360782e-04,7.145463267314458231e-03,1.396327129923227890e-02,3.622169817349017718e-02,5.259061298380571757e-03,6.458989935749441091e-04,5.253870574676102606e-02,6.259370244955611562e-02,1.854870929723611422e-02,1.934538553558833585e-01
1.085080829587965420e-04,1.578281440780992390e-02,1.346515172196655757e-02,3.923893254861700319e-02,8.654056967542905418e-03,1.046062247020922544e-05,4.309239530102544624e-02,7.594404863556840357e-02,5.090596731406319374e-03,1.356322169406184164e-01
1.073689059369620777e-04,1.848542204683475965e-02,1.250316985695505353e-02,5.128410099944468586e-02,8.766838369195457947e-03,4.400071309087051716e-04,5.008775009879280066e-02,5.805417579709964276e-02,1.780256491970102009e-02,2.623346910843482593e-02
1.011259285910473901e-04,7.605356183196427394e-03,1.754639895481458628e-02,6.990794801968605587e-02,6.764074642963634719e-03,8.416008769988952368e-04,6.227598646715456349e-02,4.429245988976962534e-02,3.955971516757129935e-02,5.769555509062508636e-02
8.996101976501529594e-05,1.283058731573692365e-02,2.490970940078717291e-02,9.491785713020776949e-02,4.426572029463589700e-03,2.295968487986010768e-03,5.801867014595155775e-02,7.081523760929035738e-02,4.604564059602920395e-02,7.990229060193124178e-02
7.417803312519668450e-05,3.324969310047794224e-02,2.499104578615441580e-02,1.164963114300512359e-01,3.032494240760312890e-03,9.462293483494777294e-03,2.484993108751796381e-02,1.324655619362210546e-01,3.379200908801094361e-02,8.555519745892962991e-02
5.419602386421910726e-05,5.250169916270473053e-02,1.870408628395345968e-02,1.181721168151952661e-01,3.047779195200490347e-03,1.582538277996497697e-02,3.005995491493362523e-02,2.031801806004403244e-01,1.604461552349945724e-02,1.104302373704580398e-01
3.053970973402490781e-05,6.772381648547973199e-02,1.666805385827154276e-02,9.528467529041934059e-02,3.875294131546517216e-03,1.719355779012461324e-02,8.882472047742977217e-02,2.746669645266792137e-01,1.159875926755168409e-02,1.342919026339036981e-01
3.826872210706309790e-06,6.249083304640631192e-02,2.424740235856377712e-02,6.226177199528871997e-02,4.681744915005513902e-03,1.525059772295114281e-02,1.370552252908923963e-01,3.373498030727996033e-01,2.637433207998125459e-02,1.456775157797105535e-01
2.524662714080788776e-05,2.702767013683121319e-02,3.788003066609922642e-02,3.846874501419397102e-02,6.104018456080209307e-03,1.345211630984985939e-02,1.668439600792505362e-01,3.538963167041280222e-01,4.762311526962620389e-02,1.643768916731531415e-01
5.592359254425874934e-05,1.905464788646476712e-02,5.272816640963508272e-02,3.147554445578234356e-02,9.739387654837861411e-03,1.115606719095647154e-02,1.722863669281748389e-01,2.968215030863438075e-01,5.813100565541031578e-02,1.858318084473078724e-01
8.740375912006548992e-05,4.491892220047139644e-02,6.393413918774586147e-02,3.594187289927232298e-02,1.542248382320051021e-02,6.016150243267548089e-03,1.534006056259423212e-01,1.935846884053290251e-01,5.262241828213708866e-02,1.822571483584971008e-01
1.188632482234802803e-04,4.299535596529027032e-02,6.398468122747529019e-02,4.398611722677465974e-02,2.069738570953791323e-02,8.142389613509421094e-04,1.257854812237903797e-01,1.027424956825041119e-01,3.674124846789441484e-02,1.586079700253145153e-01
1.494746544667069018e-04,2.855137691690283128e-02,4.944090117272317841e-02,5.086153673521694174e-02,2.347925472908821143e-02,5.976019879052785373e-03,1.127297904477928686e-01,5.567398708879059410e-02,1.835970892017910194e-02,1.401854092343786107e-01
1.784272091212961984e-04,1.262504641427971384e-02,2.861663769931777068e-02,5.284314414878644312e-02,2.369038492631062726e-02,7.976086867753865578e-03,1.183422766609363158e-01,3.570190698915828853e-02,8.539881859144582768e-03,1.190944540603185442e-01
2.049465553439642140e-04,5.405168128751794074e-03,1.363499935319629174e-02,4.857216337690233032e-02,2.216238084771548697e-02,7.319951746243707341e-03,1.187280200191710711e-01,8.334088744516968822e-03,2.000202842937079395e-02,7.043191484342053998e-02
2.283136713725338821e-04,2.067522317265809220e-02,6.706142091468012857e-03,4.249781284127240877e-02,1.971588603206044649e-02,5.485546194933661225e-03,9.355524515503386984e-02,3.169844363582453861e-02,5.126305562093735890e-02,3.227805989361690053e-03
2.478824543636743392e-04,1.834238286823972053e-02,1.871969793199906602e-03,3.958136627935419233e-02,1.773688316760535510e-02,4.918402342916923693e-03,6.076966253341290619e-02,4.689441928417540512e-02,8.108298238564580485e-02,4.632205153452329666e-02
2.630955133909392723e-04,5.004465451922965671e-03,3.780174499469948768e-03,4.024098746013347189e-02,1.773777796314442157e-02,6.007914015926438603e-03,6.374506546927752315e-02,2.504340707601058341e-03,8.963080839582938941e-02,5.481392320895552006e-02
2.734977845936653064e-04,2.853654760985265687e-02,9.638255452088295705e-03,4.512469426029355746e-02,1.856352290150689935e-02,3.614449496673986708e-03,1.225513544286713635e-01,1.130379068217413491e-01,7.724772412795734289e-02,2.180430208007577003e-02
2.787476338002436039e-04,3.025596084732595087e-02,1.821753355075130323e-02,5.325858786499116510e-02,1.536910187965657808e-02,8.172659002646218834e-03,2.087612571512791060e-01,2.397343525650327822e-01,5.672748543184447101e-02,4.411970477066919083e-02
2.786251643449404983e-04,1.568886089684516649e-02,3.205387172381517907e-02,5.052991586969365206e-02,4.590984694448047021e-03,2.648058519794403015e-02,2.689833208158283195e-01,3.246435131608734759e-01,3.740416743315463921e-02,1.336114180561659148e-01
2.730375174766834197e-04,8.462475797432977842e-03,4.521146487933584007e-02,1.601842968027370612e-02,1.056842383367897868e-02,3.968718057969192192e-02,2.670037612284937856e-01,3.240738490884034206e-01,2.199771902089889611e-02,2.281864123224309204e-01
2.620210319092583073e-04,1.927824116637568558e-02,4.750610580993793602e-02,5.297467456079078124e-02,2.289412856535907870e-02,3.908419404559750066e-02,2.084588010930870927e-01,2.429889903415114460e-01,1.116491911818789408e-02,2.865416332124026688e-01
2.457402069815340599e-04,3.964542934467219643e-02,3.957185145003065674e-02,1.336617330639566503e-01,2.848319628689795213e-02,2.703640605147948628e-02,1.329281047994700926e-01,1.439479667419434894e-01,6.122348399357378443e-03,2.633697003206680320e-01
2.244834913931502223e-04,5.793567815388360465e-02,3.614246474806735721e-02,1.988390323217287536e-01,2.868986150353096051e-02,1.241545510586803541e-02,7.880441892869338716e-02,8.772965381899103243e-02,7.838931371266573411e-03,1.670816528715350358e-01
1.986559987541900297e-04,6.725596102653970398e-02,4.846945409894497236e-02,2.362417131379785651e-01,2.670049892593180998e-02,1.821880020196536181e-03,5.228030617750020759e-02,7.339208237874264573e-02,1.306174838077317837e-02,8.008458027185394457e-02
1.687693290257092759e-04,6.579996090797096686e-02,6.791597251132240609e-02,2.470529251513184921e-01,2.469758270046222906e-02,3.237538036399962346e-03,3.194749764127879921e-02,6.402104846149289652e-02,1.360997228500521877e-02,8.141043762763382208e-02
1.354287474395538720e-04,5.957083685092850328e-02,7.458609106051279636e-02,2.365601541919667428e-01,2.317585884088867176e-02,4.286078736171658812e-03,1.959075665473378886e-03,4.268250071051478411e-02,6.631303598075291399e-03,1.543227770123208331e-01
9.931803840917735517e-05,5.818019060080043686e-02,6.035543914874780258e-02,2.119271205331008934e-01,2.103372079225028501e-02,4.229761186132248788e-03,4.844134366604271880e-02,1.226720154711074054e-02,2.954620650838716937e-03,2.088119481527467014e-01
6.118241054139761479e-05,6.386025141673294658e-02,3.647644897309017253e-02,1.827829602945863496e-01,1.588811494778186520e-02,6.659877071039675689e-03,8.951818154945916095e-02,2.454217345766189495e-02,1.445458085593153558e-02,1.904197496533263922e-01
2.180987840746904057e-05,6.963444586962710958e-02,2.004265281378797212e-02,1.543734529453252569e-01,6.041424671025511298e-03,1.281922429968032628e-02,1.076486900123545948e-01,5.221167671161935919e-02,3.549525649877535716e-02,1.298608176907254386e-01
1.798841445676848709e-05,6.841956230401129158e-02,1.882590601367961983e-02,1.204789366847612425e-01,5.434697958528744710e-03,1.743308804856213284e-02,1.004175780033503551e-01,3.565771748151432691e-02,4.905185485450165583e-02,9.120469383380375161e-02
5.739843965584355968e-05,5.860414501979505086e-02,2.736147836847840562e-02,7.600199894556444735e-02,1.063845790378395439e-02,1.218064814057750155e-02,7.993818017258348674e-02,4.067380642088723464e-02,4.887698407767605835e-02,1.017578843637065023e-01
9.562358839601538491e-05,4.021299884219914356e-02,3.326406436234478903e-02,3.989947343102332594e-02,5.204880327481856139e-03,2.509145990404776805e-03,6.410129038744052932e-02,1.301351045234571679e-01,4.383967546166660928e-02,1.315100971011503306e-01
1.319045270359990335e-04,1.375457375668273294e-02,3.070044315393541737e-02,4.556105083788428850e-02,5.321148524396614177e-03,1.441360997472099573e-02,6.805700999769660753e-02,1.492317343399180707e-01,4.234459290897366057e-02,1.309691314587668742e-01
1.655381046922115647e-04,1.088780823205626191e-02,3.072430626864232350e-02,9.740384234864654656e-02,1.209879639234497616e-02,1.386941480708645154e-02,8.910803008728179764e-02,7.003150803490511278e-02,4.305088175267168804e-02,9.135299932244871080e-02
1.958948365969207591e-04,1.382484091366925454e-02,5.052652469441104577e-02,1.568992449325513627e-01,1.334391997105134793e-02,5.911962427928726949e-03,1.003985241812595797e-01,3.307335366008455624e-02,4.032197922301040960e-02,5.456095463345676799e-02
2.224345215572417903e-04,1.337450092653170129e-02,8.775110245657305463e-02,1.824124731013727074e-01,1.346951497804132342e-02,2.227178441717406372e-03,8.051484662985469720e-02,6.903955732368323439e-02,3.062512582013914020e-02,5.134292263474637963e-02
2.447195976012887255e-04,5.066261097117593509e-02,1.163975150282913207e-01,1.636200998057595057e-01,1.445997146792208504e-02,5.546288159565341755e-03,4.598046527611639872e-02,4.266209664641800597e-02,1.364645850943163770e-02,5.842484456179659891e-02
2.624258956310227377e-04,6.557540317666459007e-02,1.149318455173958531e-01,1.135149318156108700e-01,1.304220887501592215e-02,8.103482265037802862e-03,3.080117755070685762e-02,2.890109785671120257e-02,7.221215397974121986e-03,4.415410171411561502e-02
2.753505152585264361e-04,4.425447454513509876e-02,8.774709718055570540e-02,5.264369508709081796e-02,6.529334259938502499e-03,3.734190019405223600e-03,4.099071509494026794e-02,5.669842637010014119e-02,2.616294770386383417e-02,2.152073023570028748e-02
2.834166183891215240e-04,4.178351676405914206e-03,5.328802821919320643e-02,4.706854626439495662e-03,1.489181395202947636e-03,3.504118084755299210e-03,5.379203544689207389e-02,8.232550751824307955e-02,3.998113365121851170e-02,1.643042010540553266e-02
2.866750127698215658e-04,1.916632842609971785e-02,2.269330921021287667e-02,1.715067265482091846e-02,3.729810461895168017e-03,4.432135789877284480e-03,5.330494622850845410e-02,6.476154620133456330e-02,5.011023114834706194e-02,1.785392155838797998e-02
2.853024777516342337e-04,4.526958004470102437e-03,1.859380562756793309e-03,2.177604294723749223e-02,2.554124997854076342e-03,3.761969016223292231e-03,4.292313960863618216e-02,8.286773087668822604e-03,5.852000495908508265e-02,3.173808773008511552e-03
2.795968659318908193e-04,2.906957648063597521e-02,1.630618795533447796e-02,2.132880182730956947e-02,1.301327517730994053e-02,1.483613104612192812e-02,2.836809550070941086e-02,6.366351234348295585e-02,6.403672713709777919e-02,1.740560697864910675e-02
2.699690951202984683e-04,4.159617961175643419e-02,1.469320357470130581e-02,1.165488509108634010e-02,2.251654628785902321e-02,2.201817783413749507e-02,1.088873141760058477e-02,1.286104367206464538e-01,6.316263747174739873e-02,2.418788022533158513e-02
2.569322231958034455e-04,2.254198049640809484e-02,1.242637023720870315e-03,1.034051534705367550e-02,2.923496336859337727e-02,2.392013258531302394e-02,1.354402916479726521e-03,1.552398848424462463e-01,5.428759457175144632e-02,3.570015809591191996e-02
2.410878719387540999e-04,2.457155165281727470e-04,7.437936301264810868e-03,2.683577461330884095e-02,3.141830659462598735e-02,2.106574956168967908e-02,6.255106996908477504e-03,1.113789010835793125e-01,4.176984010337440184e-02,9.714793290201535758e-02
2.231103329914402452e-04,4.006108522620430851e-03,1.045199954099468830e-03,1.967483248155338718e-02,2.669098191339220466e-02,1.307274159637298282e-02,3.368831207566960750e-02,5.035399443643614331e-03,3.333574293300952535e-02,2.192012493020769615e-01
2.037287480329455069e-04,2.107251506982125641e-03,2.145758287310406062e-02,3.857435495084421580e-03,1.689801228770262953e-02,1.999457187359851215e-03,5.773630002927732791e-02,9.639116540166417502e-02,3.195982784828234335e-02,3.400479799731555564e-01
1.837078045633303957e-04,1.094754634057299586e-02,4.049668448780131824e-02,2.771302911886693379e-02,7.821420451096898485e-03,6.622277337494751094e-03,5.655455967909865655e-02,1.158557419995751847e-01,3.452804242161432863e-02,3.646344245808663120e-01
1.638274271255960295e-04,2.760049717455733548e-02,5.477448077263278453e-02,5.553376385958675582e-02,2.150874721402785267e-03,9.225502419729716269e-03,3.457661861682948673e-02,4.458383901893890611e-02,3.929596532155831684e-02,2.601997471068116519e-01
1.448619703678405586e-04,4.432596335975553387e-02,7.034665166731168817e-02,9.767904620394111948e-02,2.279588416286844332e-03,8.095901023319064527e-03,1.225874869163875829e-02,4.384098984365022295e-02,4.828547146927549688e-02,1.016353103740414154e-01
1.275594343715133569e-04,6.274380777518802355e-02,8.575872424164743268e-02,1.384417228556493740e-01,6.460143687270784342e-03,7.800324343489381876e-03,2.145484078030640562e-04,6.883789054888936332e-02,5.986131860838201507e-02,4.764747446596157357e-03
1.126212237633442571e-04,7.945268845210182174e-02,8.710444904148594014e-02,1.440876475841958437e-01,7.392634040904529254e-03,8.924221280475569396e-03,7.988101444116971553e-03,2.252894760084075965e-02,6.478782733945581684e-02,2.926285527308254697e-02
1.006829602278174889e-04,7.754535050440522492e-02,6.633824062288984358e-02,1.057822399366738636e-01,2.418546165191362909e-03,7.427231419117991465e-03,1.764687357727044367e-02,3.990691932937952269e-02,5.503995384160063897e-02,1.886427944633720447e-02
9.229683340911785266e-05,4.892478134316386590e-02,3.656245014851478015e-02,5.303299483543290338e-02,6.604731902485304340e-03,1.206878609229676460e-03,2.676111835923363977e-02,7.846312803177128703e-02,3.447204671720864588e-02,8.943759857373619060e-03
8.791593841924876277e-05,1.347088677922782425e-02,1.971775004924814639e-02,2.086744527344369313e-02,1.378993291758971555e-02,4.707665036382263288e-03,2.261027614286817075e-02,1.107494767859966006e-01,1.568034120975759019e-02,1.158098471501932750e-02
8.788100013367170025e-05,1.171062114354547157e-03,2.256827999317434497e-02,2.038262312699481993e-02,1.348440774502784358e-02,3.194945235099618842e-03,7.656969474806055165e-03,1.749626109515134420e-01,7.414143671623830111e-03,4.513754842446233984e-02
9.240982631985523500e-05,7.552416911516410258e-03,3.273292731505857839e-02,4.244850852211677628e-02,5.525841038171014179e-03,5.433079119468050416e-03,5.583829646637768901e-02,2.754794323973369652e-01,9.454439751021920246e-03,5.633419237716434658e-02
1.015897648358369225e-04,2.250834634789533606e-02,3.687275560857118661e-02,7.474751947081138825e-02,4.705200672072234330e-03,1.396676926082190962e-02,8.984529437250605988e-02,3.752690128406001024e-01,1.724077281998399533e-02,2.483499487287129173e-02
1.153733663055208497e-04,3.775200546846446681e-02,3.552893360181220983e-02,1.119446633338362640e-01,1.280227983372043618e-02,1.813166941556393699e-02,8.763735687617488224e-02,4.282161658450073238e-01,2.635099326246750570e-02,1.393792245621147848e-02
1.335773746292777528e-04,5.873581406933681831e-02,3.832664773276793502e-02,1.547649110741474154e-01,1.843495830696420187e-02,1.925436249854951126e-02,5.992522439853630034e-02,4.122758147301914256e-01,3.457019222808370429e-02,5.181906398438646671e-03
1.558850853548218729e-04,7.604794590206839788e-02,4.955588378801493998e-02,1.958438549909722048e-01,2.098702485378331137e-02,1.724614082904191853e-02,2.243250593628759101e-02,3.371301966232753689e-01,4.257989101906809598e-02,6.565055170179626143e-02
1.818520283857846961e-04,6.918854396515368432e-02,6.201993516424202796e-02,2.071080389485294715e-01,1.817360542763746950e-02,9.605364171150997804e-03,2.869273005306309868e-02,2.267260519629755167e-01,4.939738694263924590e-02,1.479407037217315146e-01
2.109148488654962665e-04,3.920396669912520893e-02,6.358380715583154819e-02,1.580905023656642983e-01,1.098267665760385703e-02,1.448510621750553678e-03,9.058855423885267544e-02,1.080676070848277798e-01,4.684651966230873876e-02,1.594965203104845297e-01
2.424031803335882618e-04,1.246865825203772454e-02,4.885508590285214670e-02,5.690787357011159453e-02,4.760152865139442857e-03,8.652215348103403300e-03,1.322464295195776018e-01,1.819373561297917344e-02,2.597411951826822732e-02,7.620170256458261293e-02
2.755542293038957613e-04,8.315382261991272062e-03,2.574067552333198991e-02,4.221278035427719622e-02,3.885880381977190740e-03,7.814057856747710223e-03,1.290840828708408050e-01,1.104870996598349836e-02,8.724568681137585824e-03,2.115570059228909228e-02
3.095297222682479878e-04,2.189326118749819819e-02,9.109810771671528196e-03,8.718696235033497610e-02,8.478026583742668404e-03,1.643384174253124854e-03,9.886297133224378197e-02,9.416826802189130763e-03,3.942347403930828581e-02,3.778576792534427131e-02
3.434348067221657864e-04,4.306000337745108375e-02,6.472103091481578273e-03,7.327696129702757077e-02,1.588966015255637021e-02,3.978176678819931623e-03,7.699303847352952090e-02,3.744771187891665631e-02,5.264799921278304901e-02,2.090783260821311648e-02
3.763384483462563755e-04,7.584784168882938160e-02,1.340483149006446890e-02,3.030129639718892945e-02,2.254156397260614203e-02,4.773437844930483384e-03,6.927020322147121878e-02,5.566869858408622640e-02,5.003206066414345871e-02,8.144570125777539360e-02
4.072948277442153949e-04,1.242129678897179457e-01,2.415356095911692924e-02,1.653356421721714764e-02,2.499764174203677330e-02,5.053971557000998260e-04,5.347003515903995391e-02,7.579385373777679236e-02,3.961626444054376639e-02,1.103008457052276348e-01
4.353652137299744772e-04,1.638431282176628923e-01,3.869166393046406111e-02,5.653393743461811866e-02,2.219935311098626338e-02,5.254070463901966762e-03,2.135516960119331759e-02,9.296765347723631723e-02,2.518757477509543999e-02,1.270527602620071250e-01
4.596397777856010293e-04,1.533224692432300917e-01,5.401007768992639041e-02,8.107487525603242207e-02,1.682839809228950725e-02,8.140857336522522997e-03,6.467409920163105785e-03,8.490594288430744485e-02,9.174464269972402303e-03,1.431167009452464223e-01
4.792588150568782564e-04,8.401764932786510987e-02,5.763827263287710917e-02,8.148202432651056870e-02,1.261401211449051860e-02,6.339311361909631855e-03,1.216429626992992369e-02,5.321370237427508476e-02,1.118212680761565547e-03,1.451598635306065588e-01
4.934328489078294768e-04,2.167177496405994601e-03,4.053139888105033312e-02,5.596544601938264335e-02,1.028155768051826000e-02,1.256345234071961975e-03,5.702008193941060857e-03,2.521952416108386164e-02,7.058606355056263075e-04,1.234935285231240215e-01
5.014611209986560023e-04,5.607895070366111095e-02,1.116650689106842356e-02,1.364262806309695340e-02,7.407797863504744090e-03,3.766685718463992812e-03,5.611901542530189045e-03,1.244497242808496884e-02,9.462617372078267058e-03,8.288167324891732024e-02
5.027480113105323905e-04,6.364245180852515227e-02,1.245938388022364493e-02,2.432206416709408597e-02,2.473899954017203234e-03,5.756611494227391670e-03,1.124310345411972528e-02,6.977145075170009675e-03,1.177925425587697701e-02,3.996865218478991288e-02
4.968169859861250705e-04,3.879853423380891925e-02,2.016311162559316153e-02,3.302211585375793013e-02,1.710862664703513645e-03,5.523944890969828547e-03,1.177639179359473744e-02,5.290843212519310418e-02,1.683965257346959656e-03,2.533840312845839216e-02
4.833217235600125675e-04,1.925584913138579657e-03,1.304073184052403217e-02,4.799712332933690415e-03,4.219054393753574744e-04,7.500319823282690368e-03,9.802257306446892152e-03,1.035695378447932385e-01,1.319965062971120359e-02,5.987334741273050293e-02
4.620541323158601369e-04,4.267236762667261235e-02,3.137614199746017844e-03,3.871386793788388070e-02,5.940309560221328916e-03,1.311266976002210816e-02,1.488267902334839028e-02,1.165518981063783932e-01,2.191757053921066650e-02,1.164578381190117251e-01
4.329490641678207063e-04,6.271909680494519579e-02,2.081376591881489019e-02,6.423752668299836932e-02,1.013487515444872269e-02,1.739719254523452996e-02,2.280142321853874041e-02,8.810097343826849003e-02,2.138170874859232282e-02,1.419536189995471709e-01
3.960856273997784109e-04,4.973589520673275810e-02,2.969065962876231771e-02,6.022391600337827222e-02,6.881356016430967629e-03,1.626315504241088519e-02,2.256803397178234680e-02,5.564394893108629003e-02,1.668281655738098473e-02,1.257492307855361813e-01
3.516850505931600509e-04,1.576074073038035914e-02,1.928860607263227153e-02,4.788486123883242684e-02,5.072785623537721684e-04,1.304279853609034007e-02,1.799511321751505813e-02,3.342762331491143379e-02,1.398060506130206250e-02,1.039597067424085780e-01
3.001051017370594243e-04,1.428503109096307747e-02,1.152387140989963137e-02,5.098967505796524885e-02,8.520686108239290766e-04,1.295922746748729218e-02,2.301456800207915196e-02,1.055619264045407416e-02,1.403692570448735084e-02,9.609147370725659720e-02
2.418312241118867321e-04,2.530136351433234787e-02,4.721793115359478737e-02,5.983427401264993645e-02,3.857683174343790912e-03,1.487164462271854497e-02,4.026563903611273670e-02,9.116941504162369425e-02,1.273833183861937043e-02,8.611293810091504020e-02
1.774647064562100260e-04,1.421578183500108242e-02,6.629154827300767772e-02,4.424784853247329397e-02,8.862384981296936998e-03,1.389877417010757996e-02,6.075119345425851469e-02,1.602730147596819754e-01,8.344930554659421226e-03,6.172446705036451625e-02
1.077081271518450352e-04,1.469319509220301176e-02,6.327559289815556931e-02,1.326422700590132410e-03,1.092540073864466284e-02,1.015042396425605911e-02,8.137049472960436458e-02,1.646157320916823430e-01,4.728781489039718920e-03,2.973213959892053240e-02
3.334821810247040326e-05,4.309191859907756522e-02,5.264713034977908102e-02,3.682585713403491862e-02,1.247259811606890069e-02,9.386104780739500109e-03,1.095238755299780126e-01,1.251777501762515454e-01,4.917753845356490072e-03,1.903729715223678731e-03
4.476332122984154620e-05,4.691620050157505745e-02,4.778085726821449525e-02,4.632404208684429148e-02,1.516255373543730703e-02,1.412870708212597692e-02,1.477792532154759142e-01,1.052340551668043689e-01,6.883429342075911804e-03,7.968356261122241241e-03
1.257301224675354929e-04,2.700953623692913322e-02,4.454144751968852622e-02,3.351750573004247391e-02,1.585810251280805189e-02,1.830464893188703604e-02,1.789976351625162387e-01,1.070157272405245497e-01,9.371121420403718399e-03,8.387737662799559304e-03
2.086322681557750008e-04,1.339159139580385453e-02,3.065301607909551307e-02,9.794151860712987934e-03,1.132609106204350569e-02,1.414851879196678611e-02,1.763132169465398968e-01,6.392773635080570283e-02,1.515537673805440570e-02,3.461742479639755288e-02
2.925486957464839221e-04,2.769264711490115535e-02,5.384200078821795021e-03,2.370051449998751905e-02,3.451008693459456725e-03,2.623449875008081536e-03,1.359209548418776059e-01,5.257382587313855216e-02,2.419859278633714611e-02,3.883511176643747453e-02
3.765798963261873041e-04,5.799665205993448369e-02,1.682781303949772156e-02,5.507096501043336895e-02,2.824632988419888135e-03,7.161061843856932931e-03,8.969946572036482935e-02,1.769006349983814064e-01,2.998590076025254431e-02,9.711916585260046281e-03
4.598682167653190146e-04,7.782023287206517315e-02,2.311183524467672751e-02,5.442401721685975746e-02,4.733496528938662198e-03,8.747541243521889456e-03,7.100527902560530014e-02,2.257269798513680259e-01,2.663060096854204251e-02,3.144160354483917230e-02
5.416161201095460878e-04,7.462028835038221619e-02,1.698722003865704711e-02,8.029356977624076824e-03,2.890324327379344225e-03,4.165787699432805732e-03,7.944103329482264664e-02,1.904456674854686227e-01,1.518498675971441912e-02,5.776347595651996208e-02
6.211065041448765199e-04,5.286586673649869283e-02,1.000123058485537231e-02,5.778155194929671112e-02,8.156324766519201363e-04,1.998754197424015659e-03,9.383051065432282400e-02,1.256791837926120037e-01,1.154640230486025845e-03,6.128268155318062488e-02
6.977228427603436199e-04,2.263581020678707284e-02,4.241704857944201580e-03,1.036268889718340025e-01,4.055479513936074976e-03,8.710215098675713752e-03,1.005470193021565234e-01,7.622664698450749843e-02,1.089860721313765102e-02,4.508595794495978692e-02
7.709588633948397541e-04,3.869762204426264660e-03,4.446275309041430868e-03,1.142755807644868365e-01,4.034049440696700108e-03,1.501266627115056124e-02,8.992672871278419022e-02,5.262018390345382657e-02,2.001324527801751768e-02,1.203611209332860338e-02
8.404209428078434404e-04,1.596772639796410764e-02,1.202463656995210461e-02,1.005057074670957645e-01,4.076068032303948219e-04,1.629365684645192602e-02,4.967737899676286095e-02,5.988487518721767600e-02,2.786133182919475065e-02,2.372373610662556476e-02
9.058441321473177698e-04,1.884444685454024146e-02,1.196276391363102279e-02,8.088883773302800451e-02,6.784637856629235041e-03,1.009250482031924002e-02,1.192276059880295787e-02,1.042170113058632080e-01,3.477520565411342662e-02,3.623506028964205983e-02
9.671146318476611442e-04,3.329132734886180306e-02,9.549234413811738542e-03,6.804881871336718180e-02,1.127123576739471819e-02,1.569636214263840299e-03,5.701968958328930415e-02,1.695328892395149001e-01,3.861212847687941346e-02,2.113669599680117334e-02
1.024253177344292389e-03,6.910603393963798968e-02,1.306462844285266947e-02,6.208795331945297230e-02,1.259045539692585022e-02,2.099618429504048790e-03,5.640097980542860268e-02,2.195536351712051026e-01,3.981492646189808277e-02,1.203917331409304868e-02
1.077373039720545388e-03,1.126514982768732770e-01,1.729920141350871354e-02,5.636503233885431507e-02,1.190104947698755050e-02,2.432913920630206924e-04,2.266013665575566244e-02,2.286872364078948727e-01,4.268775094548236254e-02,3.741243977306264040e-02
1.126710078035134729e-03,1.474328222598704496e-01,1.238775978055418892e-02,4.832888863575093841e-02,1.019148493332797459e-02,4.121590946746723182e-03,6.346100032461395903e-03,1.975699908368048485e-01,4.783897807421439580e-02,7.090223864397644793e-02
1.172698213988463680e-03,1.686881282189386377e-01,1.705409266311452236e-03,3.619663918584348217e-02,7.798273466138211894e-03,4.537689174265874432e-03,1.097690112696930904e-04,1.503809491146861355e-01,4.982778971024078019e-02,5.109956437718028710e-02
1.215881909236829527e-03,1.732280966315675463e-01,3.985808770802017238e-03,1.617103960455622963e-02,5.113902063361049945e-03,2.620043460813002625e-04,5.231863748407634268e-02,1.292242729375485122e-01,4.643083495969776292e-02,5.070268819711875458e-02
1.256717701277835792e-03,1.544406337170794452e-01,3.524124114428569925e-03,1.587880934508734132e-03,1.894156933413314661e-03,6.570282449802004876e-03,1.304372699277135950e-01,1.632113887664507768e-01,4.344309193999385671e-02,1.999474876144370639e-01
1.295712132432065610e-03,1.162560670573821314e-01,4.344207139137975550e-03,7.444937472582981858e-03,2.674509138537123007e-03,7.547915290194368194e-03,1.818782394851531092e-01,2.249691513665495191e-01,4.634857863016334650e-02,3.310803110530526339e-01
1.333797666552686591e-03,8.001720023242915591e-02,8.971558163230865593e-03,4.784453778920462474e-02,6.992856280110281743e-03,2.494107972407295926e-03,1.642280762059497579e-01,2.494945500996209320e-01,5.303078060633738960e-02,3.984920442211387082e-01
1.371989978046155891e-03,6.688115525533851191e-02,1.069809189255657537e-02,9.043712265898182223e-02,5.823559753516919721e-03,1.473010451012277296e-03,1.043499902297244514e-01,2.106694630304672133e-01,5.790943263709168870e-02,4.012764022676521547e-01
1.410513266772794134e-03,7.720118720226550046e-02,2.813744490819704291e-03,1.082946716334162451e-01,3.896485520681426673e-03,1.323981716311636685e-02,7.836634967574539201e-02,1.455973218860673324e-01,5.851336816976943772e-02,3.658347052535017574e-01
1.449443030966230577e-03,9.377546444883387566e-02,9.793239615775202120e-03,1.033735929365577344e-01,1.661845246223789957e-02,3.102329990065711904e-02,1.174941881816556066e-01,9.518461715022148717e-02,5.525844632614781982e-02,3.151323309903944492e-01
1.490522832114455016e-03,1.014559613357885054e-01,1.330483992002094371e-02,8.759448250189223739e-02,2.283802120198652474e-02,4.001761721113514247e-02,1.710949055535359864e-01,5.781889710360953172e-02,4.869021457716859319e-02,2.685898055749137425e-01
1.535770995588197491e-03,9.791357528202136729e-02,4.628579554323189633e-03,6.237681919099805072e-02,2.025176189606881297e-02,3.657421639505535615e-02,1.779035097004077748e-01,1.234255378705196096e-02,3.998578264227251045e-02,2.484575146133751744e-01
1.583498100177727248e-03,8.855445429021599479e-02,5.124975326368729715e-04,2.521022059895268105e-02,1.444428519406818975e-02,2.935961487222989857e-02,1.352511054849871441e-01,4.385287931536595296e-02,3.196083927242932693e-02,2.518185720382226656e-01
1.631115863563763072e-03,7.475795396581856600e-02,9.364688990107337616e-03,2.050252040952318944e-02,9.668078901581436332e-03,2.480837565613808540e-02,8.139961095863196272e-02,9.078703283441566518e-02,2.703283589780708721e-02,2.454131430927851687e-01
1.683657911758374608e-03,4.910603004138027611e-02,2.220400297928745020e-02,6.524502577332912112e-02,6.520678102190037920e-03,2.270129184799966546e-02,4.429293477644365151e-02,1.055745334238093885e-01,2.470741459938629453e-02,2.220506241422018356e-01
1.747952241336442033e-03,9.994841377614013811e-03,2.190279316449540367e-02,9.611774310931595067e-02,6.549943015962748395e-03,2.272912023966880760e-02,2.668998799352462897e-02,8.911236450224874206e-02,2.221070988955446690e-02,2.161195350695107598e-01
1.814228481431906688e-03,1.988565273246118564e-02,1.371098552621397709e-02,1.036304204177666555e-01,1.026352253171274390e-02,2.474023086971586724e-02,1.892300286943165294e-02,7.629758858973237357e-02,1.790814829945421363e-02,2.333158667095031891e-01
1.868049378978149525e-03,9.016214265909441861e-03,1.213658430611012917e-02,8.721296791167905404e-02,1.312287159269741668e-02,2.515999040524142041e-02,1.005644172985527447e-02,9.998313613986652137e-02,1.409773260320609442e-02,2.277410284622764514e-01
1.929884182715189099e-03,4.163180831973294777e-02,1.598380397624090191e-02,5.080190817854376983e-02,1.129336818010133643e-02,2.105317926809349011e-02,6.525446964148919407e-03,1.467420732255746152e-01,1.541167313528693343e-02,1.797114017948670539e-01
2.030651302364729245e-03,9.138275034533506480e-02,1.357757076549331691e-02,5.786077866275357584e-04,7.425530525189999627e-03,1.458127812807909034e-02,3.282344328515254817e-02,1.746330674874902733e-01,2.327722865190077692e-02,1.331410143307960592e-01
2.126433828344600867e-03,1.022779113838877957e-01,4.258621698691492444e-03,4.834302943940516767e-02,5.099642237381938475e-03,8.677522321679667291e-03,6.709701221428851503e-02,1.662990053470864982e-01,3.285111833793314534e-02,1.251936000493368284e-01
2.148225394041120614e-03,7.373103510522203974e-02,9.479242814666836731e-04,7.498382333213235440e-02,3.413122955808528015e-03,2.985856330716673505e-03,9.891779073663319044e-02,1.384653325806523005e-01,3.700219757036610213e-02,1.298246255813872707e-01
2.187878048468873751e-03,3.199700287487814571e-02,2.842948960248530953e-03,6.921207868827737586e-02,1.212391562590757780e-03,2.689109410879817440e-03,1.104675690504716978e-01,1.092987606328126859e-01,3.286997173696927510e-02,1.001554410985515953e-01
2.405784466245913193e-03,1.427174900557512047e-03,6.713737113188536672e-03,3.911484317274705608e-02,2.150333994437991086e-04,5.960006953369038560e-03,9.430449800771278923e-02,8.006949674604675604e-02,2.314975067746755447e-02,3.364906772851750105e-02
2.588368985835191871e-03,1.133354836034785110e-02,2.812804008054245117e-04,1.508912371837364558e-03,6.219184265934777234e-04,5.821502161894767657e-03,6.678763708745705241e-02,5.169143609354755892e-02,1.146246301883371670e-02,3.245091731317939487e-02
2.081853010377709371e-03,1.753636485717683172e-02,1.333563940583036393e-02,2.877309484150747734e-02,9.798809414237625443e-04,5.611800448091411320e-03,5.514968182664615332e-02,4.235889483873362532e-02,1.193667095907829890e-03,7.466460457299932407e-02
4.140871736724599799e-04,3.225073432935219447e-02,1.910948908722146650e-02,4.290428812276059906e-02,6.528225653242104853e-03,9.291064689859199199e-03,6.981428645624628004e-02,6.418168961020087604e-02,1.461011908904076909e-02,1.047935830334167234e-01
2.192773368025466296e-03,5.575086538710160439e-02,5.988185652872238945e-03,4.056761483911903998e-02,1.288182702225470697e-02,1.611171977694900170e-02,9.438486898454233331e-02,8.987198061348096456e-02,2.649596709946734630e-02,1.374037968549665367e-01
4.957110994505174208e-03,7.559258101011649689e-02,2.122997829154005256e-02,3.104812704145147942e-02,1.557713292888693833e-02,2.161255599473545924e-02,1.067587719432667864e-01,8.108635526046388542e-02,3.337356536076408614e-02,1.624075380661995638e-01
7.098700371092433146e-03,8.704998309871375683e-02,4.584304677710614173e-02,2.465297187052069294e-02,1.357462649854604235e-02,2.351482187036686017e-02,1.020846250440755471e-01,4.477809700136504978e-02,3.292811339212353694e-02,1.665932987998677561e-01
8.582006018621244833e-03,9.719887034440771734e-02,5.540319481500684262e-02,1.881802899151989450e-02,8.317718527272800061e-03,2.340086106030350374e-02,8.628065411106469740e-02,2.250205865453818940e-02,2.491955639429502614e-02,1.632114900621645104e-01
1.012718603691531091e-02,1.092095216530076796e-01,5.437929171172727755e-02,2.609232956416587812e-03,1.390749988581241325e-03,2.322224481192774678e-02,6.337810599758735008e-02,3.820956694015680000e-02,1.222811542471866943e-02,1.766279340828278976e-01
1.165494731000206279e-02,1.177275065489438999e-01,5.647452062273729256e-02,1.911090254769014576e-02,3.861300102329736934e-03,2.479680616737147195e-02,4.936287688956826625e-02,9.421369246171834577e-02,1.332746219647106597e-03,2.089007534436929936e-01
1.124962201051833179e-02,1.180309546278389132e-01,6.404737873020489858e-02,2.210399001343245004e-02,2.525316194864700870e-03,3.105914715066097204e-02,7.477175232560878682e-02,1.884952083366542297e-01,1.430578030669548990e-03,2.426557693834544283e-01
7.287009515782400838e-03,1.083554071487447118e-01,6.528926143240723623e-02,5.558235575650261745e-03,4.880617539065623157e-03,4.052063501826963510e-02,1.334147431384725135e-01,2.828407422351062461e-01,4.607091775919358936e-03,2.663697156452340953e-01
1.381181944034652088e-03,8.801199994034385188e-02,5.369410644718355941e-02,4.410683642101016766e-02,9.334301438106389417e-03,4.248216366487425621e-02,1.501924495781762903e-01,2.877143558974261661e-01,1.442209753710887651e-02,2.767301604914076951e-01
2.610041762440937652e-03,6.102770741829009749e-02,3.659720220969558263e-02,6.557651720464900691e-02,3.895751416790020280e-03,2.791645495177410771e-02,6.177510272513783707e-02,1.561889545028124771e-01,2.301274502270173050e-02,2.676246769979833684e-01
2.831919869935614880e-03,3.579598542747498835e-02,2.131202896675517960e-02,6.158763271226129488e-02,5.942780213956376859e-03,4.180839911362550960e-03,8.046857814197704017e-02,2.800839892723358884e-02,2.869697992313905571e-02,2.391687393008861129e-01
1.155367960594771721e-03,1.756994867614389277e-02,7.544529527133365943e-03,3.780943211686808164e-02,1.012918730341512245e-02,1.240177229594836318e-02,1.626797399821484358e-01,1.397425099828022987e-01,3.053287829182367227e-02,2.084598723355213790e-01
1.904421624545610649e-04,7.734853109662681581e-03,2.867473578013642749e-03,2.126375161265963050e-03,9.075671261613809174e-03,1.822515943786435361e-02,1.639164360579742075e-01,1.687701029353622928e-01,2.699185450473460743e-02,1.878064424816042743e-01
2.832219675301702981e-04,9.638311733319896227e-03,3.280378282577029944e-03,5.072114641223594844e-02,1.183862024545975777e-02,2.468410096106099863e-02,1.752517711878541773e-01,1.994588500176908696e-01,2.012175421498235348e-02,1.612190425644612901e-01
4.435553870647384331e-04,2.427863857558818644e-02,5.594855485851204027e-03,8.644168908014368546e-02,2.107170532067545454e-02,3.836669539213911906e-02,2.516853233975576143e-01,2.606649454444977532e-01,1.695113508326193813e-02,1.111643038635029279e-01
4.695960783935874332e-04,3.953901456436030581e-02,1.233092900653487770e-02,9.026817699140605999e-02,2.897025933270015383e-02,5.136377952731617513e-02,3.341060177000250708e-01,2.945506488604310857e-01,2.228500263434394710e-02,5.954582335783818042e-02
5.176933917397028018e-04,3.723887231871714915e-02,8.024428919619196882e-03,6.895536266286575455e-02,2.850609845340895676e-02,5.381664058720708743e-02,3.457711930176939896e-01,2.635067706406370447e-01,3.257966040030807475e-02,4.649304646357792226e-02
1.547629492253915599e-04,1.600859379093957230e-02,5.409862143618760638e-03,4.464434785523951205e-02,2.121960519856047264e-02,4.541388424219539033e-02,2.868557478309893272e-01,1.970059333115767863e-01,4.065598982715175336e-02,7.504523379266482552e-02
2.196356262127121661e-03,4.371384490871026846e-03,2.146680795188334046e-02,2.502260468976819779e-02,1.272022017235572428e-02,3.130906224847135322e-02,2.028946442883861334e-01,1.302614286122850407e-01,4.428284886765610634e-02,1.098616381938634784e-01
4.501957129485651375e-03,7.236181997516693762e-03,3.509280409214308311e-02,2.215387971946419267e-03,6.069484253772193354e-03,1.538813287331984928e-02,1.244504695797158250e-01,6.800118876400558510e-02,4.671196706584419128e-02,1.199583403388921748e-01
4.970770245118472618e-03,3.310795666182121677e-03,4.199379137973557885e-02,2.168687151551665360e-02,1.112313667820784540e-03,6.313164345306892470e-04,6.294647330062246027e-02,1.354526659496811669e-02,5.016651944985568018e-02,9.691265143644413327e-02
2.829699250847605898e-03,1.623979425748608985e-02,4.015283158493936078e-02,3.132217585091671974e-02,3.216461376716672933e-03,1.035361952677698455e-02,1.924754744444939769e-02,1.993532082855105012e-02,5.231684852942580094e-02,5.132803398790158900e-02
4.010608562230591543e-04,3.307786423798189657e-02,3.373089388501526731e-02,2.416635008371130142e-02,7.358485584441430694e-03,1.746392697026039054e-02,1.678203392729573501e-02,3.216719473197461598e-02,5.022975512495652523e-02,1.344933844508271886e-02
2.223476533220546981e-03,5.743986490139134371e-02,3.061997190400122040e-02,1.723441281177918658e-02,1.075148121060430333e-02,2.179313999796776702e-02,4.740323412591124913e-02,3.688333205482274141e-02,4.568625756301782775e-02,1.351809604711104104e-02
1.596928520644368393e-03,7.054492175422404088e-02,3.538494479936057924e-02,2.053596533944323024e-02,1.310841180590493343e-02,2.257844728686215705e-02,5.617274674494988906e-02,4.328096434813755167e-02,4.402003815514243801e-02,4.640838652897040506e-02
9.534164719842439049e-05,4.212408658760825181e-02,4.570579211694913296e-02,2.595914272057680758e-02,1.582069044504398961e-02,1.925225109765495851e-02,3.866935278182306868e-02,5.345129201847004241e-02,4.858420542615531773e-02,7.929254278775646481e-02
5.660491388306842543e-05,2.638353619721097582e-02,5.370489873710591194e-02,3.009031576633530020e-02,1.976994494642799957e-02,1.416244364551671499e-02,1.765428267716413757e-02,5.660822140161431149e-02,5.889305196550527477e-02,9.666695460877984536e-02
1.195535346639337634e-03,9.313907352838754483e-02,5.164366665268267653e-02,4.421851851111133214e-02,2.218740743877737828e-02,8.951666555901323721e-03,4.179037859392987359e-04,1.226175672430993707e-02,7.285590465886299105e-02,1.049020654119451196e-01
2.152028060770540784e-03,1.224744233883740124e-01,4.002540007922272131e-02,7.001541984148904052e-02,1.970980509190069924e-02,1.718824039127184872e-03,4.225566951616006872e-02,1.151869894860389348e-01,8.786801599338472935e-02,9.509049559916075978e-02
2.047702178113061829e-03,1.180000659806746954e-01,2.800929967929936468e-02,8.564975802114861703e-02,1.432974876881257936e-02,7.936325439054363329e-03,1.205073827075591325e-01,2.813747697552971272e-01,1.006790080907361551e-01,4.955047756225792327e-02
1.652844566654479734e-03,1.009606787758644958e-01,2.276497512104418142e-02,7.125939989692633980e-02,1.137747664403152698e-02,1.517416571978898003e-02,1.867688056973035027e-01,3.768609563292977249e-01,1.087066832706937158e-01,1.017582282710944100e-02
1.608038949498423031e-03,8.319983368998749851e-02,2.234661009034040469e-02,3.601428693722454055e-02,1.172770914708577694e-02,1.544943715123335039e-02,1.898632658439393939e-01,3.451899735038297390e-01,1.116121022009146646e-01,3.651373018112820390e-02
1.699698263805362024e-03,7.190181349529670141e-02,2.075782550281214320e-02,6.167351768070669302e-03,1.127547559862111630e-02,1.060649416243979876e-02,1.386082736306901431e-01,2.376784953950751567e-01,1.118193497197443875e-01,2.664261067095395966e-02
1.641008096245767873e-03,7.403111304948804816e-02,1.476383407597366137e-02,6.488481259418888217e-03,8.252323189216301258e-03,6.139823618147435998e-03,8.032282327638454178e-02,1.336360784295715920e-01,1.142949590561573026e-01,2.506108255698377349e-02
1.522851646287841365e-03,8.294804011310223657e-02,5.441061826254410018e-03,1.014738605416496894e-02,6.090236345473828104e-03,4.257249209695065408e-03,3.690794155555311706e-02,5.164904063844946019e-02,1.221772555129827242e-01,4.858439405621715890e-02
1.479117250628162166e-03,7.904912525279284008e-02,2.193934356442483850e-03,9.533641581944675425e-03,8.188790677861816636e-03,2.371749488543556991e-03,8.616077603600674414e-03,3.849232651654086595e-02,1.300677077158276240e-01,6.628631240525045820e-02
1.468301904734882913e-03,5.232863607457018812e-02,2.885141929989173265e-03,4.437697540107173391e-03,1.344556972923253123e-02,1.927467502664167434e-03,6.951372756999033009e-02,1.438397248772095571e-01,1.308521020363178911e-01,6.082213009081549604e-02
1.426664776894995832e-03,1.249802105127888890e-02,2.061637998484221364e-03,3.147044574846926540e-02,1.806899754589339283e-02,7.190268229313996270e-03,1.275334453099710719e-01,2.223052133760273497e-01,1.327968292799947825e-01,5.364797417965929544e-02
1.372445721825023930e-03,2.528666289045363585e-02,5.444887353170340880e-03,4.536226725937246573e-02,1.952368096867826072e-02,1.063033299822198872e-02,1.572525919109709902e-01,2.358162964791613581e-01,1.476071910442345869e-01,5.976318840007598804e-02
1.334571626814626570e-03,5.445394829927246300e-02,3.959275490677899301e-03,2.304204006662027154e-02,1.759691019839038431e-02,1.151054161083501885e-02,1.581370220316694331e-01,2.026096732998725058e-01,1.499831435537986868e-01,6.703430299043759699e-02
1.303004795547080220e-03,7.651789014794907473e-02,2.356022970883042082e-03,1.924292632788268675e-02,1.300594839952308977e-02,9.829371717535156233e-03,1.462463857559498648e-01,1.710407398100155518e-01,8.400244895703549985e-02,7.262232347496688778e-02
1.263565548823157841e-03,9.427241547412115730e-02,5.667809230938672047e-03,4.369411295882235508e-02,6.361519214244168788e-03,4.810297418176608629e-03,1.297489237622915514e-01,1.596190762994132151e-01,6.357021422431068103e-02,9.503478354916682080e-02
1.221709503440663582e-03,1.070291922339888652e-01,1.223998844971973393e-02,3.659020428290217508e-02,1.338901968362840415e-03,2.445335621989544808e-03,1.111980704081450833e-01,1.530751756679615549e-01,2.264024220447389824e-01,1.327322368495390259e-01
1.182230266090979805e-03,1.120907188306556057e-01,1.738159455697564637e-02,1.054186264707526743e-02,7.770591980501596018e-03,7.798253553743528244e-03,1.009857485219143869e-01,1.420034629155961514e-01,3.214412448465132632e-01,1.505625742085292540e-01
1.137637652597725361e-03,1.116702445673461580e-01,2.004922427629554985e-02,2.450888015167589778e-02,1.016500012384893153e-02,8.164729623360414412e-03,1.084162438935602352e-01,1.312334865418997576e-01,3.280028099377064188e-01,1.279428891972646531e-01
1.086747826526228639e-03,1.124761452049706650e-01,2.178549941660470196e-02,5.776457090733257138e-02,8.267761901738763727e-03,4.102453714165853887e-03,1.271753988552460912e-01,1.192888671621756824e-01,2.904438499400116003e-01,8.874860705358277035e-02
1.041190039154630273e-03,1.137229478458114396e-01,2.132838756338195293e-02,5.790556470983467680e-02,5.500018885849476853e-03,2.873527796708834174e-03,1.449304454257183128e-01,1.045565208747359920e-01,2.617307538436968173e-01,6.694965496237166580e-02
9.971729159006907390e-04,1.051851812970004824e-01,1.599109903611629219e-02,2.040303303680844615e-04,5.665767741533845117e-03,1.161455697125435803e-02,1.580465092809637262e-01,1.017991900009033585e-01,2.569904866567692681e-01,6.750947849188648764e-02
9.298604011766450905e-04,8.477951793476828923e-02,8.290636201636378266e-03,8.832330938189979219e-02,9.175124685683306788e-03,1.871485932534779767e-02,1.637453263479803356e-01,1.188720311718084316e-01,2.538042751203905545e-01,7.117881727333566499e-02
8.484004235070344768e-04,6.639462628979102277e-02,5.074725537259275679e-03,1.476343712049082713e-01,1.345405367457101764e-02,1.936484090763244958e-02,1.520097203130294505e-01,1.316660164860680993e-01,2.265360711973712360e-01,5.917130574119503633e-02
8.051430037229824520e-04,6.040466943671483901e-02,8.913017883470760599e-03,1.489928115253818242e-01,1.585602517010246612e-02,1.321824114368837580e-02,1.212171537551807177e-01,1.141001331407620611e-01,1.739005277969414565e-01,2.804674540755754120e-02
7.807330748141685667e-04,5.688326025114775336e-02,1.581848490003643498e-02,1.128970520807267286e-01,1.547637325985191763e-02,5.657506307713213931e-03,8.840434255519782902e-02,7.471545549719063595e-02,1.132673366383326607e-01,7.884165129855593562e-03
6.633237905049383688e-04,3.780164413162170889e-02,2.184346002009238119e-02,6.911531959763875244e-02,1.337462706459483300e-02,1.413072337834799224e-03,7.016822713210690843e-02,3.846773618662691074e-02,5.731477036408207104e-02,2.801180637880643087e-02
4.923393677286353604e-04,1.573639000251978066e-04,2.605054466005392658e-02,2.794190223948347582e-02,1.138772065429072625e-02,2.720294994053393690e-04,6.489677793701884023e-02,1.590148605806263049e-02,5.015529269685976149e-03,2.468637991000538490e-02
5.111636716593803741e-04,3.986933485161051754e-02,2.742874426772797664e-02,1.099706249388824816e-02,9.960701797898683513e-03,2.136896343500136863e-04,6.344192827904604481e-02,1.275392581306304673e-02,4.759271900688471363e-02,8.429618984084397137e-03
6.522983492441468889e-04,5.895478821405823050e-02,2.544866692992977034e-02,4.610959176916839403e-02,7.557456631549089657e-03,1.271353839172483695e-03,6.646633743350655044e-02,4.427150263610002412e-02,9.690573131325794232e-02,4.559365250806591760e-03
3.532501649124266448e-04,5.273971349697207517e-02,2.273465755801797050e-02,7.472001822873389210e-02,2.995703734567238801e-03,4.393771687887123439e-03,7.948502491330917963e-02,1.075486754079599261e-01,1.352940873133549049e-01,3.656756528347774107e-03
5.083297104862020618e-04,4.187127188348884615e-02,2.093871771147222047e-02,9.384596172305351147e-02,2.386039334403204301e-03,8.597350449327864977e-03,9.379118867773200696e-02,1.530098151496486203e-01,1.616195665734623810e-01,1.102644168293329292e-02
1.061824019079412587e-03,4.911066046041006466e-02,1.619448246528009533e-02,9.721372594930621780e-02,5.950498439594063653e-03,1.142977829671771445e-02,8.661982658337785690e-02,1.263727068037877876e-01,1.810044387618951200e-01,2.710537955178904043e-02
6.680778733559119978e-04,6.946177650105689327e-02,4.407606700748778993e-03,7.970874632174104746e-02,6.728798208429428475e-03,1.198087518248818102e-02,5.086375780158663984e-02,4.431221997624852638e-02,1.905755946820222868e-01,3.108668755706091996e-02
3.548812986872880437e-05,7.569957335613453075e-02,1.157707361699631711e-02,4.838485307401641650e-02,6.249941692641187638e-03,1.185696492156507187e-02,1.438669529914578769e-02,1.604724506291590330e-02,1.760522367747539008e-01,2.263476302866290063e-02
1.799347605013098237e-04,5.340825298506986230e-02,2.395002621641345239e-02,2.303231978457923393e-02,6.481141199903672767e-03,1.242798776462819554e-02,1.051706997858918406e-02,1.412761478567459671e-02,1.355081123238281171e-01,7.483514493145453431e-03
1.108213306641463072e-04,1.654782345327198909e-02,2.693497836057733366e-02,1.898144979573432312e-02,7.684611178271679582e-03,1.258460105756249552e-02,3.516800965939770318e-02,1.560568305539492169e-02,9.796663883894790592e-02,1.647200709234340407e-02
2.728112018773922180e-04,1.319090957969923546e-02,2.103141783791598329e-02,3.049916327466515448e-02,8.636340560925312437e-03,1.105742158956474729e-02,5.403502802830395524e-02,2.987385819622299932e-02,9.702211252922411655e-02,4.917422433910156182e-02
2.371313906820199553e-04,2.995429261661946424e-02,1.229224948403861810e-02,3.653606154524416394e-02,8.108689590399557889e-03,9.177346452684384190e-03,4.517227864643911378e-02,2.400648793514053095e-02,1.229095276133082421e-01,7.464674936034072783e-02
2.459884297622282360e-04,4.208617906965936989e-02,6.762924107995001849e-03,2.300744402012093459e-02,5.347534104572363930e-03,8.374300401843413899e-03,1.510712416699469887e-02,5.013018770134352285e-03,1.208286497581339686e-01,7.673460344001307998e-02
3.380167546607651505e-04,5.350593197005497348e-02,5.019513465091343662e-03,3.540588296843790329e-03,3.947721556386781004e-04,7.257344877252975765e-03,1.527872754617149581e-02,2.303906321182407069e-02,5.114677754467425452e-02,6.009033804922855188e-02
4.007172044006118120e-04,5.482733215559560530e-02,3.937118836751516901e-03,2.297536830516673512e-02,4.773545913258530130e-03,4.800110018337315834e-03,2.500494945270322414e-02,4.033709038521358925e-02,6.039693987181434659e-02,4.051155049281212478e-02
4.139377521209739721e-04,3.725635654744381686e-02,2.746140793108453257e-03,2.130791422310325534e-02,7.126373722649595628e-03,3.242332891109838810e-03,9.886810099970161705e-03,3.244292948951727623e-02,1.457514239860440153e-01,2.471811548226677743e-02
4.296695206871660542e-04,9.503180892199300511e-03,3.079904427518512840e-03,6.661479919420887179e-03,6.079081995417475077e-03,3.816522795816679626e-03,5.288651977669140206e-03,2.647323546008888834e-02,1.588745342722270304e-01,1.247459967640084447e-02
4.577955435201514021e-04,9.449754375065589143e-03,3.559879355849458575e-03,2.442982125069910384e-03,4.329477363793052085e-03,3.358849637970497300e-03,7.992494024909941458e-03,5.484530824112419239e-02,1.123055268967693004e-01,7.454652123963851316e-03
4.740974010164448614e-04,1.209060343623729814e-02,8.209306821600325516e-04,1.864428524743611676e-02,4.063380237492496272e-03,7.438938264540724153e-04,4.284222123863629800e-02,9.546878153717326676e-02,6.207859642285273177e-02,1.122435205928819929e-02
4.738475885843812171e-04,7.594348877174919403e-03,2.748493316163809833e-03,3.912707325148508108e-02,4.355248778151128534e-03,5.738926687025425362e-03,6.620584629761629147e-02,9.787303077078539360e-02,5.548762652402024209e-02,1.324328492983106731e-02
4.687135650674129962e-04,8.917497916750871320e-03,5.515786779222058359e-05,4.675674514041500834e-02,3.301880334860726046e-03,7.055677841632303562e-03,6.224452106522147810e-02,5.725082292542764406e-02,8.718055031924525078e-02,7.466052591541573469e-04
4.616170054256016949e-04,2.211782065407685849e-02,1.024302553305877009e-02,4.589173543270301525e-02,7.772161842491885587e-04,4.044091088463737729e-03,4.289058938904830032e-02,2.009686966837104238e-02,1.184750546279412370e-01,2.403085886323423973e-02
4.478631806856566539e-04,4.226593981036444458e-02,2.098492756807494170e-02,4.765263432030020230e-02,1.822941301765819595e-03,3.185156128030115774e-05,2.303204340158937144e-02,1.999799183767047434e-02,1.330920855730539087e-01,4.607737612783426723e-02
4.269098985694367416e-04,5.436267932750483284e-02,2.850043180488064098e-02,5.089064062796842813e-02,3.230875085508922231e-03,1.664067275861221646e-03,6.677941961046419267e-03,3.938995451464885611e-02,1.421113365750660829e-01,5.372903777693417704e-02
4.019620880720336186e-04,4.677251022965509680e-02,3.488184979742865732e-02,5.007952415666368229e-02,3.270415047903693206e-03,6.667392107272474607e-04,6.265555261536054008e-03,4.374195559016775398e-02,1.445303852977560533e-01,4.590044012575188181e-02
3.744327155846986018e-04,2.698068156267320258e-02,3.974897779989448876e-02,4.568459639205039308e-02,2.885692621436244942e-03,1.061686089646537209e-03,1.216752830682189986e-02,3.341136663374590088e-02,1.255691392267923312e-01,2.868481039386135828e-02
3.440391586150859404e-04,1.288597003028344075e-02,3.991717337413865085e-02,3.839532015691039107e-02,2.978828167648125622e-03,2.440699354224634601e-03,3.135011681124935147e-03,3.974883316750913581e-02,8.775292102297405084e-02,1.094564226126397768e-02
3.113704665980019303e-04,7.088347944433968581e-03,3.758836452885788715e-02,2.606044794614571780e-02,2.950636793129647432e-03,4.828311278976565001e-03,2.504183503873340724e-02,7.625456948646183730e-02,4.715174073185696840e-02,6.415103864554627666e-04
2.778449282946278171e-04,4.493565649756232037e-03,3.873129568679230944e-02,9.853447026179767976e-03,1.363938995652703165e-03,9.246467572605174615e-03,6.229489564650039779e-02,1.187610590825611129e-01,5.962268343010339484e-03,5.075543586875535217e-03
2.444783671434093289e-04,2.493283976536862789e-02,4.308412887548555142e-02,5.330669085358299975e-03,1.771716856570273698e-03,1.360050925360472424e-02,8.866337175920153968e-02,1.383830272132150208e-01,3.944735467770894843e-02,3.691641032470068147e-03
2.118601376637468513e-04,3.600383378474707879e-02,4.482876790645782400e-02,1.633363820561236496e-02,4.777237477704490698e-03,1.487475044647238419e-02,9.402450313399697557e-02,1.339917372331631829e-01,6.952763999825366248e-02,3.433183653980432549e-03
1.807016856821955285e-04,2.440695373683161862e-02,4.316662919442900564e-02,2.263769302682880347e-02,6.414426644018864261e-03,1.292702926381537193e-02,8.552709248525788843e-02,1.215063622632043816e-01,5.394046350363750075e-02,1.407042043427296323e-02
1.518283078738946561e-04,2.363305008225459816e-03,4.289422649594513970e-02,2.508475338564553070e-02,6.674135784729692995e-03,9.798443293604068571e-03,7.161142974585139875e-02,1.042270575835544943e-01,3.217907446518541645e-03,2.260192023692615682e-02
1.258983596631220046e-04,8.161978991361090729e-03,4.385512006521841144e-02,2.722870358961755263e-02,5.613242406121236525e-03,6.319492801609104954e-03,4.936616553109070271e-02,6.957484417836742874e-02,5.841499126189991092e-02,2.656184801501153617e-02
1.033825518801763989e-04,9.015807994370425224e-04,3.937647343534207006e-02,3.393412693731735763e-02,3.077169855078114042e-03,2.003565969991144384e-03,1.639666130195518989e-02,1.406049450938155407e-02,7.659595202978784767e-02,2.826254974494999198e-02
8.467718745407251712e-05,1.105197380870015338e-02,2.724611511334127517e-02,4.519685450267879601e-02,1.466350942638328179e-04,1.885212850726868767e-03,1.201719825677435502e-02,4.134841014572734202e-02,6.202047455729745029e-02,2.833131519718578087e-02
7.010127331312604958e-05,8.610848334945044730e-03,1.438358201712397477e-02,5.444583386562817928e-02,2.084418154223047735e-03,1.670408738961400279e-03,1.239865203646081659e-02,7.064281881849363010e-02,3.702077937900463689e-02,2.614548008024993042e-02
5.983396953014518088e-05,1.815483863513292495e-02,7.906428922467298795e-03,5.591153397760179056e-02,1.283075880912146020e-03,4.879715886076104597e-03,1.856403605488659431e-02,7.213286124112602837e-02,1.385190490645774389e-02,2.544627239102471850e-02
5.390937745667113176e-05,6.165269933684070641e-02,6.613085930633450828e-03,5.079623895510792381e-02,1.686045565546876856e-03,1.500194143918845424e-02,6.024072257010549408e-02,6.092894714095031805e-02,4.755234480753586790e-03,2.832069458919359017e-02
5.224347462567703875e-05,1.024821851502543124e-01,3.500858788885085650e-03,4.329166688599658114e-02,4.973618720399507372e-03,2.288180975655658769e-02,9.556219546359771833e-02,3.631687808958766750e-02,1.634525646546787503e-02,2.637597377815649805e-02
5.464024073452703118e-05,1.242640882848210088e-01,5.796929450181589200e-03,3.374922080645364336e-02,6.844869115850204383e-03,2.492743603896051263e-02,1.226116076515901959e-01,1.295073640382703346e-02,1.933311828684061706e-02,1.063280376680816354e-02
6.078871936187982565e-05,1.221857179466969145e-01,1.771493110690739933e-02,1.907211703739455574e-02,6.039585595415776671e-03,2.203103262540595519e-02,1.371896867434613809e-01,7.135144107234038524e-02,1.397017541773357824e-02,1.150780755494705716e-02
7.027122151014025949e-05,1.026713498241541983e-01,2.275569330711455646e-02,2.130672884795778866e-03,2.622046854183744842e-03,1.756810497481833475e-02,1.302630532122928397e-01,1.014876323622019572e-01,1.760621603196195224e-03,2.067235130870506352e-02
8.257551376750434417e-05,7.988617284839494292e-02,1.432916311329434506e-02,2.638588764135076092e-02,1.135317418761418607e-03,1.462803676414843948e-02,1.070872855680664176e-01,9.051871400661432032e-02,1.039736569158636846e-02,8.170501071003229490e-03
9.711068056326844339e-05,6.678104747450230860e-02,3.210218712047671619e-03,4.690157473634522928e-02,2.756864471664012464e-03,1.416701780793417666e-02,8.655858530109064586e-02,6.424264607810827032e-02,1.190474502043164726e-02,1.276830464008848684e-02
1.132332045578817738e-04,6.384220589889634534e-02,1.798121230162552653e-02,5.918169356436561723e-02,2.371513393984531204e-03,1.448621727453465804e-02,7.983845071331770182e-02,5.535302145696983922e-02,1.257947779007333611e-03,2.122533721812808888e-02
1.302624693087009173e-04,6.085148415099995989e-02,2.266108491509861295e-02,6.425324899820601676e-02,1.823012858270475680e-03,1.313982953576527633e-02,8.218745226518374414e-02,7.353902450245165812e-02,1.066967587101466663e-02,1.062184694252721676e-02
1.474733877420810802e-04,5.220225015720097311e-02,1.955024791263517553e-02,6.442071703000433469e-02,1.885914237007152439e-03,9.657812599655193550e-03,8.117253363324386517e-02,1.017839373449636181e-01,1.579946644364688818e-02,7.852125054905609303e-03
1.641186116631168472e-04,4.329144752049234046e-02,1.381867265635974493e-02,5.893824517418845554e-02,2.002107391884650096e-03,5.537050206644873913e-03,6.778196559239703378e-02,1.155078486976381519e-01,1.881379798246490820e-02,2.216868420128510764e-02
1.795050784254840939e-04,3.791669443280199642e-02,6.993514606688480857e-03,4.681273779179382505e-02,1.822380651870665266e-03,1.854435748200327413e-03,4.422121390303897226e-02,1.061675068366367825e-01,2.750645027091635011e-02,3.096612141860395628e-02
1.930075332696180564e-04,2.846481131599307504e-02,1.570142019766052575e-03,3.014649711878433433e-02,1.592895081844096592e-03,2.054103223825907293e-03,1.723226252714595702e-02,7.993626692294068803e-02,4.146038379769757115e-02,3.636168543754820376e-02
2.039622900711581704e-04,8.521891069243907671e-03,1.094251510860715960e-02,1.234223220612562684e-02,1.480745604361504743e-03,7.275971397098835586e-03,1.480526819570662095e-02,3.996780173103830353e-02,5.474941580099337152e-02,3.833530304733878680e-02
2.116911092764950689e-04,9.951580790091795609e-03,1.861811575578257993e-02,3.729422807278573448e-03,1.375983293063763905e-03,1.277939776691145411e-02,5.210173568263141985e-02,9.803273956954492580e-03,6.414825634575450908e-02,4.114702281896219505e-02
2.157812513269911328e-04,7.158117822061673373e-03,2.265510869243632375e-02,1.600681378379474606e-02,1.202461407393498431e-03,1.543605053213999677e-02,7.745455210655556588e-02,5.263882671376070993e-02,7.096060222986316779e-02,5.025586503003175859e-02
2.160890776152309578e-04,1.513907234971315421e-02,2.258457429439740885e-02,2.527863029119241725e-02,1.014501525540619387e-03,1.424587218591856497e-02,7.638798133530530499e-02,7.422319131945545601e-02,7.693001665042376036e-02,5.844755890008801469e-02
2.121830613026237417e-04,3.094426374855437437e-02,1.927408971775132138e-02,3.412018137389095929e-02,8.525488450484720176e-04,1.245651166933215911e-02,6.204795830043030591e-02,7.628988072104578300e-02,8.044005746107366073e-02,5.197772271570542252e-02
2.033557694148892031e-04,2.197228344644317974e-02,1.513992585421342074e-02,3.982212114727293889e-02,6.960319112025990015e-04,1.244105749256432109e-02,4.932657686122294410e-02,5.923139457788546836e-02,7.770554317623908080e-02,3.363252019239855450e-02
1.898402384904606006e-04,2.991102868772400631e-03,1.360763660434258573e-02,3.414579639422100910e-02,5.302556235294551574e-04,1.163444722051837701e-02,2.618996207123761022e-02,2.004197773959183471e-02,6.796950979896340672e-02,2.147873048667582954e-02
1.728341596625216671e-04,2.554018366549154484e-02,1.652384708570712318e-02,1.577589336810699544e-02,3.691755139363315499e-04,7.475049591333490090e-03,1.294911891955970000e-02,1.722706429474063147e-02,5.577088740185460330e-02,2.071034544888946533e-02
