1.991834735208402804e-02,1.210830443393193095e-01,5.875140732315542458e-02,2.939083455418237817e-02,4.596556058356383325e-04,1.915818312579553725e-03,4.400960292248556893e-02,1.032767427544932157e-02,8.631813913799149529e-02,2.285730647290187822e-02
2.272308112099252764e-02,1.305462927933296602e-01,6.442771206096484238e-02,3.124578051768836517e-02,8.273627805936280364e-04,1.882447267287057921e-03,4.293964882631088470e-02,1.897309489256227000e-02,7.474065696482594390e-02,2.977160115262023066e-02
2.571547083048742258e-02,1.414750434009861557e-01,7.737219832224116745e-02,3.396760628483996153e-02,1.226379586122487231e-03,1.842290816405034405e-03,3.242502840642307038e-02,1.599284884158636358e-02,7.855766367529380678e-02,4.176393293716567506e-02
2.884418772759330535e-02,1.585157750282713829e-01,9.245048309127823494e-02,3.866974915675024105e-02,1.658670774489699046e-03,1.796079441609430786e-03,1.507273618805236685e-02,5.298998880374833007e-03,1.025150060125873119e-01,5.442019514239896522e-02
3.206862866690812081e-02,1.748046169420659768e-01,1.033310698090103286e-01,4.085794669417094210e-02,2.112262243322446994e-03,1.736462705638215425e-03,2.054877285390960956e-03,2.658075728267242279e-03,1.278162206775320942e-01,6.349632930880716453e-02
3.553384521606934437e-02,1.742779776101110734e-01,1.063129182974047737e-01,3.324139042814464734e-02,2.594512901559039002e-03,1.647869428099158276e-03,1.547055317922981475e-02,3.184221530565601969e-03,1.294978960256621681e-01,6.819576336211212453e-02
3.936410367555991108e-02,1.537805670282341441e-01,9.943308206870392352e-02,1.641856885759493748e-02,3.143113831362606692e-03,1.530964765455436558e-03,2.531418714752867519e-02,1.112839673821865074e-04,1.076731234725174791e-01,7.051185582075869540e-02
4.327815019052069778e-02,1.274685621875221997e-01,8.445287052311736820e-02,1.413022976853781131e-03,3.755027798476416687e-03,1.403901743522063296e-03,3.320217669419723433e-02,1.669224424215132825e-03,8.901361986308052587e-02,7.362137962834970628e-02
4.702521840228824496e-02,1.019999081439219302e-01,6.982226177996110617e-02,1.941170450779147391e-03,4.360852455556369668e-03,1.250453688878038275e-03,4.233661376443309532e-02,6.689349822123743031e-04,9.238782106085866030e-02,8.015886351991449721e-02
5.123377677043493283e-02,6.858769836539183040e-02,6.517599929309859930e-02,5.621251221500327480e-03,4.975635608633658183e-03,1.016323180779501361e-03,5.560602338708691555e-02,5.184270849648122195e-03,1.095775165398081563e-01,9.122231095078478513e-02
5.647295779365337637e-02,3.005188942852789202e-02,7.265183504216127242e-02,1.784211983349772573e-02,5.757302056285384072e-03,7.201647820825897960e-04,7.244143091627468223e-02,9.673270647510844727e-03,1.269442155461961708e-01,1.076425363403202551e-01
6.106348709063321584e-02,1.477390046405663467e-02,9.053908912661989827e-02,3.192566700008400010e-02,6.685574810493871353e-03,4.648333089859864819e-04,9.109380161693508837e-02,1.502573609001583120e-02,1.480344872634496989e-01,1.303407551073238191e-01
6.222965852818467675e-02,4.863598512966536835e-02,1.211797976469702331e-01,4.777510487951299595e-02,7.427902362890681162e-03,2.009035932567609342e-04,1.129316635426484694e-01,2.318989499128328025e-02,1.821756505137002990e-01,1.566830919462043059e-01
6.086381062245259377e-02,1.187596062356360560e-01,1.594790536094410627e-01,6.174710031569959068e-02,8.026312884700332814e-03,3.061339525498747976e-04,1.380607728716060911e-01,3.148577254656768215e-02,2.186548506863002506e-01,1.781489996596690162e-01
6.193136140656725630e-02,1.733008726875207572e-01,1.775635981531947238e-01,6.745282794396746662e-02,9.222611200652494970e-03,9.753259268040583886e-04,1.568281401037825984e-01,3.362606778800318608e-02,2.237557083206562492e-01,1.848244761811302928e-01
6.723291614145933404e-02,1.669860178493175751e-01,1.461804508731754104e-01,6.286030747056461920e-02,1.092072160595644950e-02,1.268326252118148582e-03,1.546422759142199177e-01,2.746078230091590286e-02,1.701064773719333234e-01,1.720253839761242132e-01
7.098301551573589496e-02,1.093079222741492884e-01,7.389795851585985453e-02,5.229772032085423100e-02,1.089069500718788802e-02,1.095186073145431932e-03,1.290492903733878038e-01,1.728428120196539089e-02,6.897011619142666417e-02,1.428100950196807273e-01
6.681073797110025081e-02,5.055474459950796973e-02,2.614158350019159596e-03,4.234137374724188801e-02,7.189896623269521371e-03,1.276443872073330368e-03,9.607070580516027802e-02,8.718042067701846365e-03,3.424951388672917846e-02,1.066300650011086787e-01
5.684394223157907683e-02,1.731878038544766227e-02,3.536233451248419618e-02,3.939144789681780362e-02,1.935614730848649176e-03,2.378868942371259714e-03,7.720900144347440930e-02,5.503636226887105576e-03,9.837968059926972819e-02,7.488139065627810731e-02
4.860015886799400053e-02,1.208874484914906379e-02,3.851315573213366650e-02,4.606737906657630555e-02,1.170089312387494586e-04,3.865623661013063185e-03,8.334639669134058515e-02,9.357418764543780007e-03,1.146984928964702444e-01,5.506540170987973132e-02
4.303083521536887196e-02,6.428519758961701025e-02,2.426181986394187681e-02,5.266215229733878234e-02,3.842872292860104438e-03,5.018044473722130250e-03,1.073070788649435892e-01,1.826682893907645086e-02,1.023606794574105222e-01,4.795003170997633180e-02
3.159640288107292555e-02,1.316560476696360948e-01,1.292578493098515621e-02,3.956934558964629589e-02,9.902435408168021314e-03,5.739550376579706167e-03,1.272737868207926559e-01,2.618068157796352852e-02,8.914180649297899495e-02,4.791592292167672767e-02
9.233759524734808793e-03,1.846389546965097050e-01,1.475584151639422123e-02,1.638830131524340872e-04,1.417429959260256729e-02,6.254615975884936056e-03,1.255574971078645130e-01,2.765361996566809491e-02,9.730442475628578447e-02,4.744236133977251801e-02
1.473940720285086235e-02,2.053982916758442800e-01,2.514236386384883712e-02,4.478232132831541645e-02,1.638943640058004511e-02,7.086172990769148104e-03,1.085601365784795574e-01,2.207215252634735225e-02,1.333214615541578330e-01,4.765195891843621023e-02
2.757313511083259866e-02,2.044308106419733539e-01,4.016567340611886666e-02,6.917460397232082225e-02,1.790984933954684402e-02,8.750836187403712024e-03,9.697644625851362110e-02,1.178765029763513376e-02,1.804236637245937025e-01,5.875301670647210817e-02
3.235769898775615189e-02,2.085300141550266995e-01,7.078201225494194782e-02,7.305040420222858044e-02,1.618720919694366725e-02,1.017395627707843100e-02,9.594648798052934913e-02,1.312884868258899513e-03,2.134392439943019470e-01,7.817593998791033671e-02
4.283803697098868130e-02,2.253459828958304101e-01,1.238304029044808574e-01,7.680886716447039853e-02,6.872521124863520056e-03,8.907932883441686475e-03,9.444297661833436774e-02,1.304444762093329852e-02,2.303493463424815535e-01,8.243913222426477172e-02
5.870029608277913674e-02,2.190453034474353078e-01,1.739389773963664620e-01,8.789231260533758583e-02,7.239791959857930746e-03,4.703951850290546792e-03,9.618674592912007659e-02,1.331161088977058510e-02,2.450629343324106091e-01,6.218582995857761808e-02
6.414995659277863971e-02,1.440493217600256337e-01,1.811124992044592930e-01,9.218146975498250906e-02,1.616219976703032676e-02,7.306800763051310953e-04,1.242400183496625149e-01,5.000908889519346291e-03,2.448627416635845711e-01,4.482756867062977907e-02
5.535383702237689496e-02,1.643508978971389839e-02,1.433734124722373937e-01,8.044115738623495993e-02,1.528375455342432208e-02,7.789499073935718734e-04,1.831372393899970696e-01,3.226076865498894719e-02,2.032539482866296821e-01,5.519368692924102315e-02
4.849584466236417368e-02,7.820578865255693735e-02,1.029869060103121570e-01,6.368125606482567813e-02,1.136920899096987257e-02,1.366770919751832646e-03,2.403849304571947509e-01,4.924736980474064135e-02,1.409628217571641529e-01,7.907016187129564666e-02
5.282940502288076268e-02,7.967731931917873545e-02,8.508887656719185677e-02,5.425353253247120616e-02,1.186794849905496371e-02,2.690074217760581466e-03,2.626886420922773802e-01,5.066555337938902226e-02,1.094812184320417825e-01,8.855060326652218483e-02
5.653799006860073945e-02,2.750611749046559529e-02,6.655438014832823490e-02,4.847974944846344253e-02,1.489593269131639017e-02,3.182631811012600394e-03,2.520605386585578200e-01,4.736189054163171541e-02,1.076930066583869500e-01,7.077163152889368036e-02
4.806833908272260120e-02,2.092374382497118324e-04,3.033651215174236471e-02,3.796456557011530786e-02,1.421832774815831070e-02,8.961290937143254285e-04,2.301247785821313729e-01,4.423373983926850994e-02,8.656611930195537430e-02,1.986667394147023646e-02
3.178480768754929353e-02,1.791110195114731934e-02,4.526838031291635991e-03,2.365055582479445168e-02,8.331983834063447919e-03,3.011834992513896282e-03,2.053963812148613122e-01,3.501239945588997815e-02,3.800932563568582001e-02,5.906853971484973820e-02
1.480717207091834450e-02,5.866598398885904814e-02,1.069277652530167474e-02,9.921754549317159111e-03,4.317757620470401270e-04,5.924449840522791159e-03,1.709340787882283053e-01,2.131853436310884517e-02,3.030447333483028000e-03,1.360023693355747465e-01
2.330885809724602027e-03,1.210032137843389116e-01,2.038686058273616458e-02,1.095661891822132146e-03,6.475623553103162892e-03,6.865487813944183733e-03,1.164995576472733357e-01,1.679185441264078107e-02,7.502882264204532164e-03,1.832840721322269162e-01
1.520187824309597244e-02,1.933362494562148315e-01,3.404473084346736067e-03,3.006129999391189342e-03,1.118262256703709753e-02,6.515159700570697342e-03,3.796441647484433135e-02,2.813416178791419697e-02,2.692998428368417393e-02,2.040039252588410901e-01
1.547562161559381741e-02,2.070357298193697959e-01,2.276777079737842338e-02,1.145015273442201442e-02,1.352087901241222530e-02,6.084464779302775454e-03,4.476274135483680056e-02,4.806743235910029832e-02,6.566585644701901370e-02,2.025995922157642903e-01
8.188581292346699264e-03,1.091411702623506785e-01,2.580482390670731790e-02,3.476098592617530431e-02,1.428451608722656856e-02,7.040190367335748614e-03,8.859234567373111546e-02,6.899160309862265028e-02,8.848067801288608814e-02,1.600324968961689964e-01
8.837230281532710077e-03,4.369715306410126843e-02,6.918364557141174973e-03,4.720013431222761652e-02,1.505046995402698796e-02,1.008326031600428364e-02,6.872274454601208504e-02,8.995090773254878214e-02,6.591833544690414715e-02,7.541163381024724999e-02
1.655500493523840225e-02,1.348466699995081453e-01,4.835228954989872346e-03,3.956218405847454489e-02,1.690054800483486303e-02,1.385355038451573616e-02,1.675022570368847608e-04,1.094895282450260021e-01,1.542646688109802072e-02,2.387909809009850989e-03
1.186103279224001890e-02,1.143924905188330454e-01,1.556921450990491132e-02,2.147648753652280085e-02,1.915190411355922190e-02,1.609687474552653694e-02,9.330783756217665703e-02,1.230515612999252967e-01,1.572826410489014046e-02,2.655790550741256306e-02
1.157790498591878582e-02,3.058107237023378888e-02,6.406931599716617076e-02,5.277421572205161747e-03,1.951403784551963838e-02,1.598962531067198156e-02,1.874181805965497438e-01,1.272743790809766073e-01,4.648891241305491695e-04,1.084470229644641896e-02
3.496765948738980723e-02,4.977991723396245349e-02,9.974933541295204209e-02,7.846086321037556294e-03,1.593615371584345894e-02,1.383967046065157254e-02,2.388788355953185838e-01,1.183108924624058644e-01,4.075651024340576356e-02,2.204132021087098353e-03
4.070805070233009942e-02,1.134877077994239647e-01,7.987758290996339883e-02,2.281891218486689979e-02,8.609710657165191641e-03,9.376861957593150831e-03,2.022928192097237510e-01,9.008866133166069934e-02,7.435212234132104747e-02,7.366182000233598495e-03
3.075581072424307671e-02,1.791979303968006809e-01,1.407853939947142745e-02,3.851474256167842364e-02,1.275028661703273979e-04,2.848289217246534073e-03,9.113993143808435393e-02,4.571037722402414988e-02,1.054001849571289534e-01,2.475197237140780437e-02
1.718214799897659073e-02,2.248456632704585734e-01,4.360863900785599129e-02,4.548844710579514478e-02,7.590233290409108269e-03,2.636401779570535318e-03,1.157342831440206880e-02,6.283376234998926807e-03,1.588261605091378370e-01,4.378457253590228165e-02
1.303773651634854841e-02,1.891274542003501258e-01,6.247044316716704460e-02,3.588884977694477979e-02,1.169715753381469006e-02,3.023695940153970588e-03,2.899292231653148935e-02,5.928588066662477882e-03,2.134917409008307010e-01,3.934301489417548620e-02
2.807672829027188510e-02,6.204196034208837168e-02,6.506729073476980041e-02,1.349834726464083090e-02,1.130916103638314983e-02,1.543958010190965915e-03,3.177722509130921635e-02,8.911278164968287202e-03,2.079595052334466398e-01,3.008149436627344936e-02
5.570141807965772740e-02,7.693457128843679549e-02,8.758857215392046314e-02,7.928326452858288492e-03,7.578133425345870422e-03,6.043678216244066301e-03,1.013732347667429812e-01,3.309675903046085249e-02,1.264896638307163035e-01,5.628531337064526796e-02
7.204432502460902943e-02,1.400619709695042348e-01,1.348597667703064773e-01,1.664481059195800292e-02,3.923793366803740232e-03,6.523163303016619834e-03,1.380044744500280307e-01,5.282235867157401843e-02,3.556370367273928301e-02,1.071262977220149709e-01
6.208656723031510255e-02,1.198650771628566036e-01,1.784106333420529267e-01,1.280956140118221127e-02,2.608154366705325508e-03,4.552378730630441718e-03,1.470532057850993668e-01,6.174875659008639134e-02,9.729791903139531697e-03,1.275801920767055397e-01
3.679790832503486431e-02,7.949550586800185892e-02,1.886321863792328468e-01,6.184522804796633438e-03,2.321262425864637109e-03,3.779230114181503404e-03,1.137838752226864175e-01,5.398631187115477542e-02,4.595273427181931214e-02,9.430420544604524447e-02
1.718540697014145704e-02,7.006393674480851375e-02,1.607617687268585727e-01,4.351039369185203363e-03,5.791442922081875208e-04,4.616449790735259288e-03,1.288966156381490119e-03,2.983194454543180996e-02,7.978733467627106835e-02,4.326507288250034527e-02
1.394596440825628461e-02,7.160771162722195937e-02,1.049895478883174221e-01,4.642633179093851037e-03,3.095545959203256647e-03,5.467204482099825152e-03,1.722333472745863625e-01,1.605206004697251132e-03,7.875229136550009057e-02,2.347838097215525222e-02
2.455934651852212727e-02,3.179582689685402780e-02,3.066226479458871237e-02,2.982542013440168385e-04,7.569387364677004210e-03,6.679252356917106219e-03,2.953606477963569010e-01,1.745015540692156780e-02,8.221201578366323093e-02,4.810456809376337239e-02
3.790551889849023970e-02,3.804176943499765901e-02,3.609072403606260887e-02,9.347164085858863242e-03,1.144137243392967865e-02,9.093869627526162194e-03,3.101690462508626123e-01,2.481887086762268185e-02,1.269724900910443044e-01,9.341938894552870298e-02
4.318437475571650780e-02,5.175707334860927405e-02,4.716480188232526072e-02,1.022547451198064887e-02,1.265595792349586031e-02,1.055530995645387674e-02,2.693259973392216899e-01,2.558737213805242772e-02,1.680667685984077730e-01,1.310226973628214053e-01
4.057375421493595452e-02,3.186088996531664247e-02,1.259431703799461510e-02,5.767908930681719601e-03,9.317360729437753480e-03,8.177285465885530957e-03,2.526326535489032410e-01,2.674350295766616745e-02,1.255600690642621753e-01,1.485639768313065934e-01
3.649407376769228661e-02,1.212222945191970963e-01,8.778481616687508482e-02,3.021863073489227183e-02,2.492436307552452039e-03,2.815565108012839900e-03,2.628535887109821334e-01,3.740347302104110594e-02,8.254555335603010885e-05,1.440915486450777550e-01
2.933528676168462718e-02,9.400848894963832747e-02,1.116079529252030078e-01,4.519133880326564601e-02,4.076769657821082381e-03,2.382246475383509657e-03,2.429179363669269620e-01,6.388321767898182124e-02,1.133941634236108609e-01,1.191169746867847268e-01
1.375437173388936035e-02,2.354080752633863627e-02,8.087659539937697151e-02,4.228727447529884859e-02,8.367083625853991014e-03,6.888557861771710429e-03,1.681125967116424424e-01,9.959913326341890416e-02,1.386910994377323070e-01,8.155501505674669915e-02
3.450437665409606964e-03,6.911387698985235750e-02,3.638873144067603788e-02,2.822381842971220800e-02,1.197045622400274255e-02,1.296629256620682527e-02,8.477266283846768280e-02,1.281301808064567727e-01,1.067041393652228276e-01,4.345847551358945904e-02
9.970020591930930931e-03,3.375600395967292416e-02,3.428779141602514725e-03,1.350137614549567523e-02,1.652124247120915004e-02,2.074860210279812212e-02,5.041528136184471320e-02,1.390813451378596077e-01,1.070887792064158794e-01,1.306008750426162872e-02
9.500069765442058570e-03,1.664710687535496392e-01,4.561563684846162842e-02,1.881340114092833280e-03,2.060723596082009862e-02,2.582633826982155476e-02,5.714027613279692303e-02,1.340635614723134084e-01,1.710547407978767476e-01,7.161065682376300742e-03
1.572130927060268191e-02,1.963009074697513456e-01,7.943203219108162239e-02,9.228372362639840343e-03,2.196520113023953807e-02,2.409357026367042048e-02,5.064983541641733533e-02,1.202605470719788766e-01,2.385206594118458867e-01,1.616264000424812511e-02
2.382508871220566371e-02,1.587559938914839264e-01,8.110307398601213080e-02,2.297203026844932272e-02,2.114205848883640368e-02,1.801807893297258448e-02,2.421223768279649399e-02,1.089071727891943175e-01,2.432264446717646023e-01,1.010358731401026118e-02
1.372984329753457883e-02,1.591536085335719664e-01,5.891531700507611491e-02,3.885074012032434243e-02,2.072930909824947585e-02,1.445400977176657456e-02,3.441088045513415739e-02,1.130882831948064327e-01,1.879719468879690047e-01,9.957948263745443340e-03
1.330609902873870418e-02,1.970012953114717857e-01,4.733368061744972627e-02,5.207463972673766206e-02,2.138826267588136987e-02,1.604988970456514355e-02,1.020989591063274082e-01,1.310089859813330093e-01,1.224008051051698603e-01,2.363641496367211228e-02
2.971968075806367265e-02,2.041339918533761899e-01,5.451385663979795015e-02,5.673633661392707417e-02,2.103168622059751330e-02,1.909142678655743192e-02,1.680896638151423428e-01,1.395755446915387665e-01,8.493076966508417147e-02,7.817133580919670421e-03
2.095802418604889028e-02,1.732244186196830182e-01,5.882858089350480324e-02,5.111960762142786496e-02,1.836390878185733405e-02,1.993195347477105459e-02,1.814778813798001433e-01,1.227835389072042122e-01,7.924592042649887536e-02,2.605456052548217952e-02
2.639463077850068284e-03,1.510537388771876210e-01,5.539352184137400631e-02,3.949429970581633254e-02,1.486910765094170278e-02,1.859685437897941329e-02,1.655236557032061517e-01,9.658495512756533341e-02,8.365964406330840542e-02,4.451275214539453934e-02
7.250879052239086325e-03,1.697757530209292043e-01,5.997746621901259984e-02,2.730399543654367725e-02,1.248058924505433473e-02,1.607609854090989027e-02,1.647932395502022529e-01,8.715475594909692647e-02,8.153489745210071304e-02,4.146372760186045614e-02
8.022739243055767439e-03,2.376336855744799470e-01,6.861233135904712399e-02,1.633613578776852565e-02,1.114270311172650858e-02,1.251425222168121680e-02,1.782132722975953432e-01,9.610840876625975637e-02,8.682244112137443848e-02,3.594478553466268211e-02
4.941822754744810281e-03,3.284826222432634113e-01,5.728006559108741319e-02,6.994042528413447340e-03,9.389982825521643942e-03,8.022622245247430089e-03,1.682346069124585619e-01,1.053454045318455018e-01,1.195218916166080475e-01,3.092289410621392939e-02
1.338403153682328635e-04,3.617849074500337214e-01,2.188033061002669227e-02,2.088009260027805757e-03,6.409445919944228159e-03,3.188211282281322272e-03,1.166507513677647323e-01,1.052151427953258722e-01,1.578360779941010983e-01,1.526677892017674031e-02
2.782982195804347813e-03,2.735946415428753831e-01,1.468043950070054872e-02,3.117519940725117615e-03,3.177564543007566772e-03,4.241256354176722778e-04,6.129457960740974237e-02,9.998713748123845557e-02,1.532883041589286899e-01,7.055237617836720813e-03
2.212678551817926029e-04,1.185137389954673132e-01,3.248605590115426212e-02,4.593211362121265087e-03,1.483142002784815575e-03,7.125299371645308147e-04,6.259908514010693870e-02,9.249433560595606008e-02,1.011263252273765650e-01,2.293017845731753351e-02
7.473158492756380548e-03,2.423550149061014583e-02,3.091925421554426665e-02,1.705930834418900761e-03,1.998339327624619292e-03,2.519317448472310154e-03,1.291401044018045396e-01,8.087874581490543668e-02,5.476330324413651585e-02,2.888958122900469813e-02
1.375296784987521323e-02,3.148849631204513055e-02,2.407237044190720099e-02,1.646686440925151235e-02,4.159365454143549960e-03,7.323622996060732276e-03,2.125242125710431196e-01,6.963322874320003464e-02,5.444940755601582194e-02,2.039942510530513148e-02
1.659380570942777314e-02,4.671137138922483445e-02,3.088243367598582367e-02,3.127841426985634998e-02,7.302428175519164871e-03,1.216632335716250589e-02,2.769572955588049945e-01,6.693761089003455456e-02,7.727101712452728866e-02,1.914437306487514270e-02
1.883287962634713070e-02,2.435097890647820382e-02,5.546525590176232257e-02,3.758833901978567149e-02,1.029377028771597154e-02,1.580688252343225714e-02,3.198594545924188237e-01,6.739293335693188891e-02,7.506127087733313608e-02,9.418616704701032738e-02
2.602709788533569962e-02,1.522853348679907848e-01,7.636823079813180593e-02,3.465339916146170651e-02,1.155439294706361690e-02,1.638324205843415607e-02,3.334065720306030323e-01,5.462212746291071619e-02,3.568597993891994835e-02,1.690896340365347916e-01
3.742088429019718027e-02,2.297520170494383451e-01,7.530038601880527371e-02,2.934658308248359188e-02,1.158647536127428365e-02,1.426630918236588240e-02,3.049035429637902972e-01,2.514532959086340780e-02,4.416754951095624299e-03,1.918599738005146160e-01
4.160922837913761524e-02,2.104910720285834425e-01,6.668485923172108587e-02,2.896651094793263256e-02,1.283289538188893061e-02,1.244302401381052262e-02,2.411858498971615472e-01,9.250063550615963623e-03,3.781741370496754726e-03,1.565246294523352233e-01
3.100488481900427404e-02,1.619760164877079023e-01,7.181784844881432261e-02,3.275256866218526075e-02,1.493704118127588479e-02,1.151577560740738894e-02,1.580784463365645376e-01,4.262623673325796614e-02,6.934675026144151988e-02,1.142750759698892837e-01
1.584148786240713661e-02,1.791757925451910316e-01,7.912922935049925000e-02,3.209545318689919352e-02,1.406671839427415215e-02,9.228906645329286798e-03,7.063538713096427502e-02,7.502343098390781839e-02,1.407376742949264237e-01,1.042832480988631350e-01
1.056274496009953351e-02,2.722706529464659075e-01,5.949903009595851333e-02,2.174523945508010855e-02,8.819164678892871603e-03,5.630840676207388498e-03,2.283306831823365968e-03,9.575253222493895766e-02,1.541955318412634446e-01,1.093949586909075122e-01
1.348156343853838292e-02,3.567023956242615923e-01,7.764787945313400032e-03,7.142557971154464037e-03,2.504426125820274473e-03,3.000258761443448229e-03,2.241110532997842367e-02,9.159937858059023774e-02,1.025937327247864739e-01,9.564443235847393254e-02
1.452465543964733680e-02,3.438530693449834419e-01,5.133167197276195665e-02,2.889600147695126076e-03,1.586267353727457627e-03,1.369095902899890565e-03,8.740773608704861114e-03,6.592408591541845664e-02,3.456430446709075205e-02,4.815615669509674263e-02
1.475089900179426400e-02,2.237552254669034346e-01,8.698687435531712864e-02,6.228234327025773676e-03,3.512293699014006933e-03,1.021418421549731169e-03,8.566823277309687512e-02,3.258572175421550060e-02,9.392311645369053746e-03,3.264558482326150590e-02
2.290915484839386312e-02,6.513921837276132054e-02,8.547591243046989695e-02,6.720208562657875237e-03,5.089738666002742440e-03,4.559759157708330804e-03,1.571549470399260517e-01,3.340687762901984378e-03,3.101190576787103692e-02,1.178580082868825041e-01
3.809095056658351464e-02,4.556666979109245952e-02,6.164483334237332024e-02,7.635605086410644435e-03,7.491301467070543389e-03,8.491647253645390886e-03,1.533080014409578251e-01,9.902547650062973328e-03,4.604037306663334023e-02,1.551068511820434259e-01
4.899632030902436458e-02,6.561210486710218615e-02,4.548825813341683677e-02,9.479567897985836239e-03,1.041240809584118888e-02,1.189564292941810639e-02,6.591198331241036878e-02,1.428652968252918255e-03,5.539582850537218967e-02,1.304884869151069493e-01
5.017401697723435083e-02,1.503404112120440214e-02,4.993328655656646686e-02,1.271145344145813497e-02,1.301967276504242821e-02,1.371304439958502541e-02,3.442096984432528595e-02,3.163717752269096239e-02,5.852616008985946777e-02,8.382090615714618553e-02
4.970299819604172276e-02,5.313714369110316554e-02,6.231408482135371296e-02,1.964292549928049400e-02,1.571296554341662308e-02,1.436114155881796847e-02,9.263709917766733970e-02,6.659255915127018643e-02,7.067310649797187150e-02,4.434380584030135630e-02
5.602357094308282187e-02,1.006216653025863994e-01,7.043963850042050945e-02,3.118426893098759714e-02,1.938367757928216931e-02,1.590451698623472632e-02,1.242772753756968274e-01,9.612160194028218640e-02,1.027199023321685445e-01,1.359735298888572162e-02
6.369457398085534572e-02,1.274194357411511380e-01,7.729235568141062940e-02,4.233855244539117685e-02,2.263727686730991617e-02,1.833878505998467329e-02,1.515214403976265223e-01,1.108353388221068464e-01,1.375874392601374174e-01,9.044562820096331904e-03
6.197972203540302871e-02,1.536413850220914867e-01,8.459139393698922316e-02,4.547590434612231586e-02,2.287225268844135170e-02,1.891437195256969600e-02,1.604423553249404999e-01,1.008218611272066745e-01,1.518115402166369254e-01,4.594121425690384647e-02
5.304747526631586191e-02,1.832788407505056005e-01,8.534608267402361836e-02,3.926283754419918059e-02,2.080602053130901907e-02,1.698858536642766301e-02,1.578098768987581946e-01,7.079257142968017891e-02,1.499674869654978870e-01,8.097169805834339429e-02
4.753019068343842385e-02,1.982889392050987132e-01,8.201569084805596099e-02,2.969937868870674291e-02,1.989419685097203530e-02,1.522376994666621575e-02,1.884031156732699219e-01,4.141282983118730471e-02,1.520585500594155426e-01,5.561320905527853548e-02
4.394991700280038993e-02,1.929380561348242595e-01,8.728950394091654352e-02,2.129300107456278193e-02,2.028626142376292046e-02,1.455525642857470776e-02,2.455982000359024919e-01,2.168435535849274481e-02,1.575233620355571962e-01,5.170550980691900403e-03
2.937775996677007700e-02,1.889013070611730571e-01,9.594257328627509018e-02,1.285520920579375469e-02,1.805930316546730877e-02,1.266064531134685617e-02,2.438871587574688582e-01,2.952971601724791936e-03,1.490214146726117350e-01,1.980171278058428380e-02
2.590146133842626854e-03,1.936000076662804381e-01,8.384641619527991030e-02,3.780723260209061486e-03,1.182067768016047474e-02,8.667913170817323140e-03,1.429446878539405719e-01,3.967200287842520545e-02,1.247707246738877229e-01,2.017743887759959609e-02
1.945072702943101417e-02,1.685075450005139308e-01,4.712856301248100760e-02,1.833316238085146849e-03,5.223562482257089468e-03,5.037185981746420717e-03,2.811841484902405375e-02,6.647233590708140349e-02,1.024258444043221888e-01,3.665499366496119404e-02
2.301965545678279906e-02,7.725196836340997297e-02,1.369788947726719927e-02,7.585272984299536517e-04,1.590066743869428516e-03,3.748849119309304468e-03,1.327689099825144631e-03,6.127755583650146970e-02,9.500850441490399367e-02,4.686827683412087518e-03
1.272870045675902721e-02,4.840074416661810375e-02,6.973585294903852233e-03,4.912317818041024922e-03,8.706843546816326294e-04,4.332484095909502723e-03,5.570831298514376112e-02,3.300160581486623335e-02,1.043005548469735366e-01,4.398280595077009442e-02
1.632860986116176430e-03,1.338142075552344323e-01,2.466175550082823353e-02,1.236977598767292040e-02,2.427796721141351789e-03,5.852797289975219044e-03,1.159303246947696181e-01,5.237024366743725512e-03,1.313583494698255805e-01,2.721860022498509210e-02
2.053237743917232794e-03,1.523758960605861856e-01,5.185029070217034297e-02,2.175885902746525075e-02,5.280074962195163008e-03,7.154933965964652490e-03,1.387485479248269093e-01,1.219548197296332903e-02,1.661526346283319355e-01,3.083246501883839252e-02
3.461959650673212055e-03,1.517992015569659126e-01,6.819339082181063993e-02,3.061414480639818025e-02,5.824845316833923183e-03,5.837184109003932218e-03,1.282903508845398555e-01,2.225425502203720596e-02,1.728998308547043117e-01,9.567701797306224498e-02
1.448567770761832567e-02,1.834161443787740431e-01,5.211674811745918567e-02,3.024096155128931651e-02,1.523489819949000890e-03,9.929124388430190899e-04,1.114441747303101665e-01,3.033245314093611922e-02,1.226058361939013908e-01,1.462647960327242702e-01
2.400764825371019470e-02,2.424016331238478539e-01,2.789154750735420296e-03,1.547745818425441851e-02,3.887200492431987491e-03,4.110842528349122234e-03,1.240645820678031586e-01,4.473085531508068369e-02,4.168884991348659891e-02,1.579282977783558473e-01
2.960302263717583260e-02,2.874882971904737516e-01,5.307594420288079540e-02,5.038400048860877320e-03,4.628570012368939460e-03,5.773942249263273874e-03,1.722696739655124876e-01,7.168247413961389980e-02,6.929988757459655535e-03,1.181118056959090390e-01
3.514259355825007092e-02,2.872373368722875298e-01,8.826636489906135308e-02,1.707302737041123397e-02,6.162015573047152119e-04,4.629458548036436034e-03,2.103424105678234901e-01,1.041824210488108693e-01,5.692218913080058368e-03,5.638246082837707063e-02
4.058386085873273014e-02,2.399988495449529302e-01,9.449856961996315474e-02,1.737395914502452843e-02,4.022447625642848468e-03,3.384002496745031497e-03,2.018877016193146856e-01,1.280123267579021673e-01,5.085700641704030828e-02,1.396042267375526870e-02
3.804976598091665274e-02,1.711064766067166565e-01,7.484246519725591684e-02,1.326546276054391647e-02,7.591652198561735579e-03,2.055687874004285664e-03,1.749878615411129268e-01,1.399940580810572210e-01,8.678574833341710926e-02,6.904627438261805306e-03
2.345832000905108752e-02,1.104446198323830175e-01,3.581395648764744422e-02,8.700208803751918393e-03,1.100862034251784763e-02,8.047720068782722967e-04,1.687170721151199093e-01,1.473320413509393856e-01,1.000579908157731568e-01,2.893670931728853715e-02
5.636198924423243065e-03,6.467419183570830010e-02,1.252535335298219157e-02,1.821521043041659854e-03,1.314060609210064394e-02,3.741265916743425658e-03,1.637579198166520533e-01,1.484567375515572496e-01,1.008610871065040993e-01,4.908415724410720993e-02
2.320409426234234813e-03,2.347875205223861825e-02,6.026465758551503848e-02,5.468530456802084966e-03,1.098864280245705725e-02,3.191572207658580594e-03,1.189823541097031478e-01,1.305917757162172177e-01,9.883891487448266677e-02,4.127482607385178637e-02
1.416699604665858396e-03,9.322944872406537312e-03,9.948806914407301583e-02,7.328046317609816437e-03,4.860403675516353911e-03,1.392673823532444149e-03,4.514500917620327403e-02,9.193264776170805008e-02,9.484579977144769192e-02,7.105546626925830604e-03
5.264028335964631572e-03,1.776355443361912062e-02,1.191356130570550426e-01,3.630891583217841882e-03,7.101364886730296595e-04,6.281456030028968393e-03,5.367499489704476157e-03,5.219014259155986546e-02,8.734024726708752850e-02,1.561144872350045745e-02
8.945550151991574737e-04,7.623788076809774952e-03,1.103199875274278596e-01,4.708160638541461322e-04,2.667564868880310455e-03,7.891537091090068332e-03,3.655363119710361430e-03,3.161226309061823669e-02,7.545530576693208757e-02,2.817018588262825297e-03
1.026057359637401294e-02,7.320854217452805665e-03,8.502182555502431349e-02,6.259438041929521468e-04,2.605395022974211008e-03,6.201741762495213001e-03,3.448778597280068720e-02,2.731181800870361581e-02,5.922057001951709643e-02,3.008586075943657512e-02
3.088245653641935162e-03,3.052397230725186622e-02,7.191852819507205119e-02,7.377720312386920089e-04,2.674217008780708366e-03,3.247895445666094949e-03,8.202405996969293345e-02,1.980926125937290672e-02,4.460081158599461804e-02,6.201127933224799549e-02
2.928795293962975152e-02,6.650657287806502338e-02,7.713067708153051316e-02,1.592739756079284818e-03,2.059411061465325592e-03,2.198320170113841551e-04,1.279870426445235965e-01,5.225634252843478628e-04,4.286731328230698052e-02,9.506933947898985049e-02
6.899220422653384865e-02,1.060125310139246740e-01,7.001884194764831926e-02,3.905769708957259126e-03,3.354345104265980294e-04,2.907094611586915050e-03,1.676470374701725663e-01,1.901327740726816568e-02,5.768832726408687495e-02,1.350869552421691822e-01
8.942204193604622042e-02,1.439500974504336894e-01,3.220415408301582211e-02,3.448664618014741102e-03,2.929280165351173977e-03,5.790730030308447601e-03,1.867849988209229206e-01,2.877362906948185278e-02,7.866159900168549768e-02,1.682287535320805549e-01
8.382643685583002213e-02,1.622427713031406871e-01,3.851158863255390273e-03,9.186448580463485274e-04,3.572560828389349102e-03,7.247337943726981507e-03,1.769799245401734444e-01,3.479183586994719773e-02,9.329540624054930009e-02,1.777745377779453850e-01
6.502511423378326549e-02,1.478608629685472797e-01,1.844875724693261290e-03,1.946532336016368325e-03,2.516878795531246084e-03,6.888994513167614152e-03,1.583281361137312271e-01,4.198414381588279343e-02,1.001213828098753839e-01,1.690905537862242292e-01
4.361067901410692338e-02,1.266969894781651007e-01,3.688374494138491055e-02,4.092481384743202819e-03,1.433144407994729709e-03,5.968774709650085698e-03,1.568507505899987275e-01,4.046337284142951379e-02,1.068451691273922949e-01,1.566071927283865517e-01
2.074308876405266816e-02,1.446425602629267670e-01,5.530477234904607187e-02,3.364447846178891290e-03,9.429972804161487407e-04,5.401605491295050944e-03,1.530402940398158107e-01,2.314670216633153699e-02,1.183991664958562867e-01,1.365413085258912751e-01
1.594173256280147222e-03,2.037268470351237259e-01,3.768831042107736312e-02,2.076709068383602967e-03,5.432962376866236082e-04,4.135131117423257105e-03,8.532300391025515740e-02,2.739227112696794066e-03,1.224309456737052021e-01,9.490617532883047214e-02
1.652508339772578924e-02,2.382939664352560216e-01,3.070141884068398972e-03,1.006710261414476594e-02,4.523276775604794919e-05,9.250205547708784636e-04,7.161353766749825600e-02,7.616181952108860148e-04,8.657168586282035228e-02,3.537042350655854317e-02
1.976139000020225855e-02,1.796211182733199740e-01,5.850789654880789864e-02,1.703813239783862760e-02,5.948603284938127787e-04,3.435429166502506054e-03,2.559761644488602328e-01,1.980462260973185271e-02,9.552151136118189681e-03,2.109326415584363706e-02
1.533487567782573086e-02,4.228931041601193680e-02,1.264201358445303514e-01,2.329616732817617678e-02,9.596870024948135755e-04,7.050222241917826135e-03,3.752402068909487798e-01,5.529011293337637856e-02,1.341579158979782083e-01,5.724895755027733374e-02
1.194642420252721784e-02,8.121855471589269071e-02,1.841559803598998568e-01,3.066891917273767768e-02,1.257278945063384449e-03,8.884398192744875564e-03,3.939566864811243629e-01,8.666460571571998894e-02,2.207845442081227127e-01,6.501408433829436451e-02
1.328878036365486841e-02,1.158534946265406540e-01,1.992340140778697810e-01,3.713763839472919437e-02,1.589775366651528885e-03,8.751225962470172634e-03,3.439019628650935578e-01,9.500241622120371432e-02,2.305479230168096805e-01,4.273277331085879871e-02
1.298690416540034670e-02,6.828917129207356940e-02,1.709271418719941482e-01,3.914874494691043816e-02,1.881276621787368207e-03,6.770279377882118532e-03,2.758038575539121240e-01,7.668106629686510800e-02,1.823334275849787522e-01,3.575620799180929607e-03
3.216378823921373607e-03,2.508364253142759265e-04,1.374646360857740557e-01,3.737708971183111017e-02,2.020960891138043596e-03,3.746430278763966584e-03,2.216257823330474996e-01,4.773315213334150542e-02,1.376192943610689001e-01,2.618348793906895289e-02
1.263908970088177021e-02,3.605615284010003918e-02,1.352008808152577735e-01,3.575287315586536674e-02,2.099285344560563021e-03,1.036594288950899072e-03,1.792670054330468554e-01,2.485011008259317006e-02,1.616835941669828858e-01,3.345710517326364736e-02
2.287616408188986733e-02,2.821057550529402699e-02,1.586621951042215817e-01,3.551800610189827928e-02,2.316805330190078310e-03,4.711253423362464000e-04,1.265134688144679831e-01,7.973416586082561486e-03,2.611886504296607181e-01,3.244665510552426774e-02
2.192646645516011308e-02,9.220141353642023491e-04,1.673681267151509167e-01,3.342928925243252719e-02,2.530836867812487952e-03,8.492449297321385832e-04,6.534922154371597403e-02,1.033318696100752471e-02,3.588836462968372221e-01,3.897006989733577120e-02
1.355374417631956263e-02,2.217849230437347885e-02,1.380519818939126842e-01,2.667993742851388489e-02,2.331894574984196694e-03,7.176572944847725219e-04,3.216946840686375764e-02,2.742752682325583918e-02,3.764459478964291006e-01,4.253958380598776845e-02
1.576635256132928077e-03,3.813070926899609497e-02,1.012349034046967355e-01,1.729978982839069576e-02,2.031432976913996429e-03,6.096365518911846509e-04,4.268469531341811951e-02,3.221552517487752398e-02,3.301367121265602611e-01,2.174211544058674006e-02
1.163727153410075432e-02,4.795750347512233586e-02,1.038038702352272608e-01,9.307987760243059683e-03,2.832802042466634092e-03,6.561532379782747046e-04,6.063043289222403570e-02,1.800080187003810783e-02,2.924063149076654433e-01,1.949436096643056629e-02
1.786533423918947733e-02,4.451162263512553618e-02,1.418114519073883084e-01,3.362631303071660690e-03,5.024192417257098905e-03,7.421606568157698052e-04,4.954814757629566468e-02,1.206872407294722234e-02,2.827536077917487400e-01,5.060172306414054133e-02
7.475531017337101909e-03,3.069028101729534899e-02,1.629540292608078200e-01,2.299465032855824067e-03,6.885445573062426092e-03,8.062589618869075991e-04,2.239211425650310811e-02,4.689287224571499213e-02,2.579045135611846007e-01,5.013883634414934704e-02
1.465825313526833082e-02,2.487164647707035270e-02,1.348474051502148718e-01,6.943866884999394876e-03,6.806817291578129425e-03,8.874102597401815548e-04,9.809436420214591792e-03,7.171221150845369374e-02,1.931356669916948487e-01,2.797742915000960007e-02
2.884713646787437705e-02,3.253155027428970836e-02,7.775444823518916360e-02,7.369137527572686489e-03,5.499020401640665467e-03,1.005785829214754295e-03,7.327548706253010635e-03,7.546644996700761776e-02,1.167657924354050941e-01,7.945415941888998163e-03
2.236124618312873569e-02,3.426491232226286376e-02,2.664439014834732097e-02,3.112600835114065663e-03,4.524577778003023229e-03,1.136563572995847541e-03,1.274990369419931949e-02,5.867603226784237624e-02,6.686820087249445432e-02,2.167064839759790798e-04
3.696735157311196226e-03,1.276618927193895470e-02,8.938500145816400885e-03,1.468173173611542377e-03,3.878090487958031889e-03,1.263749652572870733e-03,5.204109461996687946e-02,3.559216515995849289e-02,5.010491726177266486e-02,2.463221801728043142e-03
1.025544248469413035e-02,2.605877642289237614e-02,3.731429488131879357e-02,2.300737014130256174e-03,2.777356815957913137e-03,1.390956397579595598e-03,7.994040607995087089e-02,2.555916049567499848e-02,4.633582729253814259e-02,1.330833955062856941e-05
1.460299803641537143e-02,6.088150408543073488e-02,6.106897464493771244e-02,8.546704268535764391e-04,1.682728598167618174e-03,1.517859432228986418e-03,7.653412018671611194e-02,3.604926615208224605e-02,3.398927743222811965e-02,1.577051888198712642e-02
1.685212084148700676e-02,7.061336872984025348e-02,8.061710721530378210e-02,5.481357258134479139e-04,1.721563840098277358e-03,1.640188972419013040e-03,6.074355878132994130e-02,5.405795169560691227e-02,2.815975562447354391e-03,4.256212901020185041e-02
2.109275664933235941e-02,4.950601173309424063e-02,1.057003076689008864e-01,3.769703101113093709e-04,2.705445741158512066e-03,1.758137026801485188e-03,6.844134463843982996e-02,5.913527284048767513e-02,4.660409836172093451e-02,5.977245643440683848e-02
2.227973290869915760e-02,1.558494219850251050e-02,1.360567262075023653e-01,6.056904057971415969e-03,3.219211856421478907e-03,1.865332526344279287e-03,1.116557605794336050e-01,4.350334125343750108e-02,9.952739020193999975e-02,5.237771940557071210e-02
1.729739845782378785e-02,7.497702926859531151e-03,1.418855495999087057e-01,1.429123811318763933e-02,2.629603666532961091e-03,1.950303931350325006e-03,1.661333790838194768e-01,1.566824503430904597e-02,1.304529645435196228e-01,2.833691782134162285e-02
1.144835991357561443e-02,1.740447539532070584e-02,9.750485737802845609e-02,1.850679143049545686e-02,1.806271058572571191e-03,2.025741366188230520e-03,1.978123300816691521e-01,1.137153982996698398e-02,1.302024733600910533e-01,4.247185783031568948e-03
1.010001608074424968e-02,2.800303078367869306e-02,2.653115301004228474e-02,1.759754519292448111e-02,1.627599493566048465e-03,2.117062447987639023e-03,1.977955380641135408e-01,2.975815214709406561e-02,1.211672171554130095e-01,1.269566029046455095e-02
1.178164935979289160e-02,4.727452469382237982e-02,2.030556188053807970e-02,1.588473019361453381e-02,1.880491896093213280e-03,2.196850305352735476e-03,1.882960736649334499e-01,3.740174800832059970e-02,1.260807702611154435e-01,2.246743964166622587e-02
1.300619239026849783e-02,7.477466093023571458e-02,2.331310397665921005e-02,1.466480399401637498e-02,1.986208328999200436e-03,2.211694764173832446e-03,1.952373233811798559e-01,3.604470076155590064e-02,1.374397546407418180e-01,2.435965996561804958e-02
1.379837346294049243e-02,1.042328055425754962e-01,5.391180370093720184e-05,1.195589271482200983e-02,1.874964543957350965e-03,2.224105696105348369e-03,2.196590561057028268e-01,3.101225082246646114e-02,1.395976823129580491e-01,1.910260888648457334e-02
1.591480748567592959e-02,1.187107342737565574e-01,3.205276428915911774e-02,9.174140365734339414e-03,1.809524491183662608e-03,2.356738400076000689e-03,2.389092991604875871e-01,2.888829085968858124e-02,1.412738618063409390e-01,1.301770752878178908e-02
2.009666236680950763e-02,1.030456551118315994e-01,6.810814923381888764e-02,1.001381380035518825e-02,1.913939010692547894e-03,2.486708784532454426e-03,2.361837843091099121e-01,3.304575868333146232e-02,1.601010415704051670e-01,1.376095745698439898e-02
2.590355090876898803e-02,6.435692360530392842e-02,9.910184042043385100e-02,1.400484967774357978e-02,2.032770350719494395e-03,2.356930262190634791e-03,2.238946587080814787e-01,4.340513405367150968e-02,1.887927716801897637e-01,2.193353003948572341e-02
3.032939874382311468e-02,2.415381959645019130e-02,1.082760671218008786e-01,1.819869406669882492e-02,1.912214973500525389e-03,2.237118271048760439e-03,2.260550691589276462e-01,5.813782369369525915e-02,1.992509839262083526e-01,2.922611830512944833e-02
2.775306851399931066e-02,1.964394340116392898e-03,8.756682645567755163e-02,2.294172928131707478e-02,1.671246852596074183e-03,2.718588975407415509e-03,2.337747257529328437e-01,7.021011774798038840e-02,1.741421748811330661e-01,2.653958343314275284e-02
1.595006071223073127e-02,3.808044594696427532e-03,5.025548161554065085e-02,2.910825572097537617e-02,1.875359124207461427e-03,3.202056742383185741e-03,1.965047560987409347e-01,6.661282549052000013e-02,1.223265049561360757e-01,1.371242741264781448e-02
6.103130737928993315e-04,2.433123342308309706e-02,2.384078555253824755e-02,3.236331940935755630e-02,2.620130596912698118e-03,1.825065495254378153e-03,8.150567592034578535e-02,4.106098640085503737e-02,6.946980857501192097e-02,5.240995128249735513e-04
1.014033270416467986e-02,6.619659778215075674e-02,2.825858261644717540e-02,2.737363902989670833e-02,3.031342316528742691e-03,1.686156673570581759e-03,6.582492466296337164e-02,6.317487981567708293e-03,4.239898750127986393e-02,7.534943061138897440e-03
1.340592102388101295e-02,8.403650395051850963e-02,6.113798012768009715e-02,1.626708833549618538e-02,2.482317563755278081e-03,4.430867947560069263e-03,1.564312344087633588e-01,1.571752447649884046e-02,5.658036168815493150e-02,4.820479901494252421e-03
1.069453283833529493e-02,5.530487069348006407e-02,1.032574256452280653e-01,6.998069469614447147e-03,1.612200418925472268e-03,3.569555317682604912e-03,1.509832577427814848e-01,1.583357789349101527e-02,1.048257317425165674e-01,5.506220548658978531e-03
3.421043650873811359e-03,4.490509814858330284e-04,1.341779354279119818e-01,3.960683204726260682e-03,1.281830961474956804e-03,5.914330260366627216e-05,7.856468922213820372e-02,1.904564601005266037e-03,1.554006897912327823e-01,1.849573903105471845e-02
6.380282410957529432e-03,4.175556050253601686e-02,1.447892717608510460e-01,4.672517363830798985e-03,1.366202669156868325e-03,3.426230220884160082e-03,2.398506441812910811e-02,1.410950311757138732e-02,1.748152435311274011e-01,2.546284000764436478e-02
1.374607448347023135e-02,4.797486503403013136e-02,1.380526913133188760e-01,5.379634766361329756e-03,1.311614580370308678e-03,4.804039401238185437e-03,1.278919595239441653e-01,2.369828299724344514e-02,1.567297011924181915e-01,1.773336310089827436e-02
1.419155787870752389e-02,3.353294137115664375e-02,1.129335316797047545e-01,5.646086562566200902e-03,1.054009332687194482e-03,3.955045695732650225e-03,1.789234089613755130e-01,2.186863703523649061e-02,1.125850746420868909e-01,3.857371526434796860e-03
8.968357501907674861e-03,1.805709533101688274e-02,5.480208258163142554e-02,5.764025546647608134e-03,8.227261028143240812e-04,1.127965653664470078e-03,1.287219177197518882e-01,1.104400156335606613e-02,4.080696740265963435e-02,2.648555023628417979e-02
3.422086150155486100e-03,4.742779250639199418e-04,3.807026378712327630e-02,3.264913751471012083e-03,6.522901234543984281e-04,1.929331327547278204e-03,9.691834151396121200e-03,1.234042585879082526e-03,5.887652342785951176e-02,3.697640884839794445e-02
5.666536833060655627e-04,2.582657725325804288e-02,1.261015431888337368e-01,3.238804674136363127e-03,4.627435753096850344e-04,2.243243641342377876e-03,8.310094159750795739e-02,1.323886771673408796e-03,1.471778008678010230e-01,3.368095042916501025e-02
1.265826715003729678e-04,3.714609568563692621e-02,1.574254235127723334e-01,8.420766952596031238e-03,2.513792317145430405e-04,9.520850368945057637e-04,9.089187799799425260e-02,1.043813601905066685e-04,1.697900948241122254e-01,2.302623370321386226e-02
1.494589538721543447e-03,1.373115124312806676e-02,1.253633927435891249e-01,5.427772542481107756e-03,1.098753349359268133e-05,4.940749817881851143e-03,2.915532803767892714e-02,2.858423235471982318e-03,1.225590151619336404e-01,9.327182117777048365e-03
6.317652259395691548e-03,2.579396621962873684e-02,7.206685246831873171e-02,3.032055177773235015e-03,2.776596495241850666e-04,6.986050812866683411e-03,5.970632111383002844e-02,1.081808763829491225e-02,5.618660662210241130e-02,4.195404928955879034e-03
1.172793686288509975e-02,4.180447758365555405e-02,3.674855332091526983e-02,6.635640334190114759e-03,5.034588176950922228e-04,7.092025088339730561e-03,1.439936729254132075e-01,2.564213003995134688e-02,2.006226955071399587e-02,9.830334703782302869e-03
1.356834375804080034e-02,2.680378419891496500e-02,2.240671190781386504e-02,1.774051828983273099e-03,5.949783341204957238e-04,6.763179593844625623e-03,2.021991958506528519e-01,4.221213054993180891e-02,2.476683959438658392e-02,3.731086956802167655e-03
1.305385086901062960e-02,9.132818522267382999e-03,1.385717658486539626e-02,3.981957329439986953e-03,8.195031785691172469e-04,7.154272317623259006e-03,2.246639656836950660e-01,5.556691088773135084e-02,4.666674862635694643e-02,3.489538626688059447e-03
1.451826803289099806e-02,3.759015187286599523e-03,6.408146569039038093e-03,3.452770014527469910e-03,1.345853250642883121e-03,8.218269614665256462e-03,2.075794456830400425e-01,6.232940535697732015e-02,5.292157264014511059e-02,1.248314027401317694e-03
1.538461059238936841e-02,6.119717184189129439e-03,4.682427470698222009e-03,1.774498418647698327e-03,1.544666383240596037e-03,7.450159816843780584e-03,1.207790818347442285e-01,5.493034791825222862e-02,3.344664925917462117e-02,3.221159180457017733e-03
7.581387746585377049e-03,3.036211005041890287e-02,5.723110874413568465e-03,6.874696271419553084e-03,7.278776909385658396e-04,9.705276672852009446e-04,7.842083356085470525e-02,2.666041152568500786e-02,6.701234479198733135e-03,3.501827812993420913e-02
8.732339937318736936e-03,4.908893273061538942e-02,1.487374767825438938e-03,1.061948464015496398e-02,3.629540011574350637e-04,1.115561772814390069e-02,3.544339901240802782e-01,1.531907864716880799e-02,1.693368813182315538e-02,9.298100447799238777e-02
2.238361755860656180e-02,4.523601351490752487e-02,3.165627667478602622e-03,1.307053038145865667e-02,2.227037436627454369e-04,2.264112257655834584e-02,5.740035929006018778e-01,5.243765773534118935e-02,4.729147567732189250e-02,1.394189246374901159e-01
2.493210603334649472e-02,3.294645082979131417e-02,7.690245968243484588e-03,1.202715511523314365e-02,1.147817981008685938e-03,2.708179482299053614e-02,6.348427995250416345e-01,7.135803811959945397e-02,6.695964914449577254e-02,1.468124301393901321e-01
1.856504857383442855e-02,3.249765973494192495e-02,3.501913386973336956e-02,6.079810061909945648e-03,2.239362921305362245e-03,2.424713714111855628e-02,5.514942547527542649e-01,6.985345672801947237e-02,2.293906395752653635e-02,1.240883984746227464e-01
8.983386025371980013e-03,3.526705158824679914e-02,5.537161164106731148e-02,2.532299500815762133e-03,2.303740260385939240e-03,1.817233730568867944e-02,3.895516123812529097e-01,5.145997474895148277e-02,9.297392603259203858e-02,9.393016582694344030e-02
1.509087388723450883e-04,1.782219416793033237e-02,4.823182261345881211e-02,1.087454406171128006e-02,2.026589211749101841e-03,1.240040350549773303e-02,2.235779390197208116e-01,2.808727558034722002e-02,2.055584985786454710e-01,6.748422674858076120e-02
4.247796054397200149e-03,1.722029973099030442e-02,2.211025714361144687e-02,1.737278959037089066e-02,2.039533603498773148e-03,9.512085842758470633e-03,1.712982928653502268e-01,2.147593544901016394e-02,2.422623734263896211e-01,4.717361980498819413e-02
1.053321125447069257e-03,3.868180982084924030e-02,2.378524738312425002e-03,1.997528753780472913e-02,2.168616580849267502e-03,1.113387076659371269e-02,3.168404445772065037e-01,4.353059407212943321e-02,2.172949325116009245e-01,3.456030024347262614e-02
1.258420562272910027e-02,2.767635597133528275e-02,8.939140297284614393e-05,1.667549182931772969e-02,2.132920548943231537e-03,1.511104646284355292e-02,5.661850350795059050e-01,7.770864940070183746e-02,1.928420448773910945e-01,2.709846954574027245e-02
2.059374869735264638e-02,2.526267204237002753e-03,1.706048987075604352e-03,8.316990705625073796e-03,2.006807571073828192e-03,1.623556643585876563e-02,7.111228910356672817e-01,9.548181051222713600e-02,1.900010635541576065e-01,1.779799899102443156e-02
1.974581782794322324e-02,4.841613919235007377e-03,8.102132233450689072e-03,1.427494105140817565e-03,1.924031169860915573e-03,1.225251411146992958e-02,6.575997297552051979e-01,8.832487537371812303e-02,1.773564993971669390e-01,3.951418908696054111e-03
1.418262788822746527e-02,1.406438082128866167e-02,2.531491941632335249e-02,7.096060111726375068e-03,1.854876203690754245e-03,5.906167455178543656e-03,4.898908157780578754e-01,7.049127790322495812e-02,1.329651675962139623e-01,9.254567841429115621e-03
1.022333111709653602e-02,3.885368437518740836e-02,3.103154455692419891e-02,2.706351392928756441e-03,1.740499720799111539e-03,2.776654764032488463e-04,3.231152483530003727e-01,5.442497864296037824e-02,7.780748714357516027e-02,1.724054880439337967e-02
8.545674646233659966e-03,4.681985686008639097e-02,1.826499380820586355e-02,1.249133174996494913e-02,1.597953535104293605e-03,4.232991205403763627e-03,1.885899746658804554e-01,3.729516008860601223e-02,4.048353274055015855e-02,2.352598060839813932e-02
5.618367320270035298e-03,3.761993871166861153e-02,1.859522202832079862e-06,2.971754363413177738e-02,1.458617550418932381e-03,8.104561380760311878e-03,6.125711942546412103e-02,1.335125284468230422e-02,2.168895852764022442e-02,3.309318067593199769e-02
4.653739918160739765e-04,2.659239553986499777e-02,1.265953076869190397e-02,3.833844401009072617e-02,1.320200868539265788e-03,1.060941049251763225e-02,5.829118961783426311e-02,9.561903581926741238e-03,1.232113270035409269e-02,4.027680049048745076e-02
2.283826823527416484e-03,1.730450148749233807e-02,2.267063918988044408e-02,3.691324733103450856e-02,1.174737507973313937e-03,9.636743455429089972e-03,1.076972128644343718e-01,1.333763358305363814e-02,1.701241891307415238e-02,3.201782449511064721e-02
2.860250331798683092e-03,3.320568651953174910e-03,3.058409853023171324e-02,3.127203523705113924e-02,1.026940686695777989e-03,3.682646111036331094e-03,2.541752608043273270e-02,9.095998683540546317e-03,3.456955635283854439e-02,6.162019436988843898e-03
1.473111834709780153e-02,3.843952994754088609e-02,2.746923128825654731e-02,2.491019355669757060e-02,8.813735208664432580e-04,4.915363831658066916e-03,1.474092281261873416e-01,4.126434578120199981e-02,4.200923552903922109e-02,2.185177566648622768e-02
2.525668470161806373e-02,6.827953623333592181e-02,1.554090325607684377e-02,1.789432770962818414e-02,7.428801542929329383e-04,1.072927294657892612e-02,2.810224837748084847e-01,5.870765688973592078e-02,2.372260422241317598e-02,3.543560585071361957e-02
2.787787132380986979e-02,7.238357063392009128e-02,1.570756757631340192e-02,1.250954924114617076e-02,6.223755837362725252e-04,1.084235387067778757e-02,2.930244659970556720e-01,5.427006613633576781e-02,6.465562523626098429e-03,3.250202625089217146e-02
2.347477225120886760e-02,5.438354512700815241e-02,4.109400950972428440e-02,1.271961573295773626e-02,5.167687256136851547e-04,7.103477903581382862e-03,2.154965294746774840e-01,4.013785559841024503e-02,3.002157267626010678e-02,2.116701294564152583e-02
1.669977528040909182e-02,4.020128728935817852e-02,7.821267423099982630e-02,1.803268993640310194e-02,4.056528851079105736e-04,2.317770511103210349e-03,1.181194835370419222e-01,2.779819945938280870e-02,4.551004231812201539e-02,8.530496214615500977e-03
9.786710084429038961e-03,5.198970699109473764e-02,1.043090302814398684e-01,2.296312932309853283e-02,3.029757763869563307e-04,2.253940118883850530e-03,2.826638359845908000e-02,1.662908115452575372e-02,5.350852023533667068e-02,2.291803070372503640e-03
2.142215587506450004e-03,8.172132653014550774e-02,1.097237010485523079e-01,2.305861468948906118e-02,2.608415925787517390e-04,5.585057198215506551e-03,5.845758168345746575e-02,2.850692892306149698e-03,4.748291018761538473e-02,1.093865749023941424e-02
6.306066820434053088e-03,9.820143744390605334e-02,9.668913067102460901e-02,1.796027692669718151e-02,2.548399766305917504e-04,6.713055204886160879e-03,1.409752479704807493e-01,1.085157032422606055e-02,3.244611790926461847e-02,1.900165589070828068e-02
1.393604787577426216e-02,8.412281316709693813e-02,7.000607742161606140e-02,9.135301044924762012e-03,1.747547232029812801e-04,6.211154671227328908e-03,2.094335769521282753e-01,1.991894241425477829e-02,2.878097000604805389e-02,2.708487439596406199e-02
1.911231251691482974e-02,5.197553352673148913e-02,3.668250976235293281e-02,1.069495127882580561e-03,7.119222153453239619e-05,5.617042895905683016e-03,2.570536463930483961e-01,2.545978237371073621e-02,4.637801316877548929e-02,3.279124707938037980e-02
2.138282996198095920e-02,2.057972636650880205e-02,6.532997094733576475e-03,8.439583332701155322e-03,1.838239158018637647e-04,5.531541904219717393e-03,2.837624993063488921e-01,3.107930489170677990e-02,7.335093861248070946e-02,3.466992829253975200e-02
2.111330001053310021e-02,5.653961009252856176e-03,1.390382139712947537e-02,9.957901064697047971e-03,4.183715579461288157e-04,5.522247422413742966e-03,2.956827100299569411e-01,3.633052020820109335e-02,9.661408241801339170e-02,3.605127373027189330e-02
1.971166539850648103e-02,2.999465865885942231e-02,2.662236268852394283e-02,8.486663350941543379e-03,2.145471672148331708e-04,5.318941930314501423e-03,3.020255132205856285e-01,3.891587607129946141e-02,1.156874071280112187e-01,4.053153144651492484e-02
1.982630810178137235e-02,5.145125149356891830e-02,3.810778153193207507e-02,9.927190651149754574e-03,4.991744356773830747e-04,5.107455203196346362e-03,3.082718621598606878e-01,4.018800447058439029e-02,1.294297541066125323e-01,4.560160468311909299e-02
2.172966982339548728e-02,6.517564894523535102e-02,5.036132224008820629e-02,1.526121688528585089e-02,8.631995105410374385e-04,5.012714983567074720e-03,3.144492270487750929e-01,4.298133589311450842e-02,1.266112192555765847e-01,4.595928968876819565e-02
1.932728284176657776e-02,6.845187623883190742e-02,5.932622111114399521e-02,1.976100760026863745e-02,3.563033046668947199e-04,4.946469871995954823e-03,3.195387069225344989e-01,4.588195318474989903e-02,1.020912122029741659e-01,4.145446877527312474e-02
5.557452259398960696e-03,6.463296349870005508e-02,6.242167378218632656e-02,2.026916966109964385e-02,3.942044559861003277e-04,4.845312484943514221e-03,3.193124113649739582e-01,4.472188105308312622e-02,7.132655700469513194e-02,3.611687610392101677e-02
1.635949937786866995e-02,6.195564361110073720e-02,6.275120685957114031e-02,1.873910471047843251e-02,7.632141513651696536e-04,4.745268369507961957e-03,3.011568637712013774e-01,3.953544151629884845e-02,5.595520898361662498e-02,3.110561291870209480e-02
3.335372194870868390e-02,6.594368928339489067e-02,6.444273322548092764e-02,1.792682206168243197e-02,8.573743789928706636e-04,4.671509570703539886e-03,2.559146729601695647e-01,3.549756595773684298e-02,6.101020635653340435e-02,2.495365963187548553e-02
3.674135882312301593e-02,7.339473189822609545e-02,6.816085782002417881e-02,1.764613392200154937e-02,6.653161426575443039e-04,4.602222911733111314e-03,1.973539653555712314e-01,3.552771907381362809e-02,7.559640593837058109e-02,1.935803645696749023e-02
3.015379657791059792e-02,7.708710168294076459e-02,7.127772169323461082e-02,1.674954073651690328e-02,1.237733906690995913e-05,4.519956892325531495e-03,1.550798430596199429e-01,3.639112536817622895e-02,9.017682763649306765e-02,1.814028044322694988e-02
2.146707858876162334e-02,7.475626016139988450e-02,6.827938958892389165e-02,1.564881614566773771e-02,4.622064709368139046e-04,4.429322817335727171e-03,1.450536218560767587e-01,3.506515188920696774e-02,1.041078498425567211e-01,2.109141160642154234e-02
1.345651960197725462e-02,6.985436935341482467e-02,5.376916734910602153e-02,1.429219222487141533e-02,9.109670956687878816e-05,4.333322212964225810e-03,1.571096031191341058e-01,3.404345590380503800e-02,1.181194244493430079e-01,2.437461192008056471e-02
5.430128961441267089e-03,6.545490830407722782e-02,3.034428628290899987e-02,9.778734499965328550e-03,1.127997083474378609e-03,4.224917753645846159e-03,1.694818388850201363e-01,3.562777217779240085e-02,1.265219093309712661e-01,2.642630693138441761e-02
1.552173917201755743e-03,6.140659154741109210e-02,9.398731438311293956e-03,4.201021711418403883e-05,1.213804486811018114e-03,4.098154570209150416e-03,1.684632351596809519e-01,3.589988402387531835e-02,1.213882358796593286e-01,2.905860475022764913e-02
5.661376948662478516e-03,5.670801055867976531e-02,4.076131904593525285e-04,1.072645438391292214e-02,1.829492880810641437e-04,3.952370336745079059e-03,1.579146676938252281e-01,3.052158765576732172e-02,1.037460283629901420e-01,3.320607487852474116e-02
7.758415846016867082e-03,5.145810070210681680e-02,6.217928566750931946e-04,1.486903286696172888e-02,5.032612362629223851e-04,3.787151019918741889e-03,1.518565345579695469e-01,2.236306444599070464e-02,8.252948090763471967e-02,3.665504579024476267e-02
9.994514930738886485e-03,4.614381077742671367e-02,2.900825953178623809e-03,9.862364846952981906e-03,1.283131051980067891e-04,3.600391498927662734e-03,1.547401697551621103e-01,1.666069558291542393e-02,5.752387194116231200e-02,3.603376680793882181e-02
1.223130405085150717e-02,4.077188064574759074e-02,6.811330930913063637e-03,5.834028875434747047e-04,1.133275907871178620e-03,3.390706968306098339e-03,1.542316091942342315e-01,1.200483587227837642e-02,1.465682781380351143e-02,3.022362227090616416e-02
1.276436838948365182e-02,3.517651580535588463e-02,9.787540258110082741e-03,6.762467110712324161e-03,1.028600403096577775e-03,3.158421454075499221e-03,1.376977053447642485e-01,3.245328760638635859e-03,5.052312423742477687e-02,2.222154012832926878e-02
1.140615968942323109e-02,2.942485929548234805e-02,1.114048200496380731e-02,9.876626883322555187e-03,7.520279458113915557e-05,2.904478327400738299e-03,1.080384968361987746e-01,8.878744801485144791e-03,1.153843576614054234e-01,1.679563564016722105e-02
9.308833500021720941e-03,2.367654894364698559e-02,1.155584802159630164e-02,1.000728111849751717e-02,7.187747818108526426e-04,2.629967718959944512e-03,7.860887968272475823e-02,1.775853400933728732e-02,1.503829278299862460e-01,1.486477734971014021e-02
7.120345202656049206e-03,1.799031426433156389e-02,1.196719070336956479e-02,9.172617553450897188e-03,2.449806893101281850e-04,2.336610518586646097e-03,5.844793480890154991e-02,1.943278391752148448e-02,1.491621279552361179e-01,1.149303833586886453e-02
5.399774361023233424e-03,1.238518715947787945e-02,1.151402837975702524e-02,8.431325976284591295e-03,4.547232624247323114e-04,2.026941825290913719e-03,4.633450253019479742e-02,1.593571088673835859e-02,1.275368428462461401e-01,1.755256465465350468e-03
5.052610566910429105e-03,6.929504629689072111e-03,9.054051914696287923e-03,7.843068250157982785e-03,4.975071762979313373e-04,1.704020600388471895e-03,3.666677248769696640e-02,1.137274700262651261e-02,1.013085184896984070e-01,1.226064204092660280e-02
5.771550294069192032e-03,1.710975770152886773e-03,5.803783127828043148e-03,7.245488665965222654e-03,1.270923287620578967e-04,1.371253768234646266e-03,2.764220164970728269e-02,8.377584777875316663e-03,7.634345771076135601e-02,2.318903581773232997e-02
5.956792235748036360e-03,3.207721107878227368e-03,3.781430265097358683e-03,6.645759285704628573e-03,8.204587410046428292e-05,1.032425284878491249e-03,2.260260581917765757e-02,7.124133970950461900e-03,5.401658624627160565e-02,2.688094491625550586e-02
4.982614514754154893e-03,7.777772691569139266e-03,2.704607018695850788e-03,6.006888442020495884e-03,1.139045340205297136e-04,6.916584892958376222e-04,2.498512798253185035e-02,5.611602889155754489e-03,3.529568236504953410e-02,2.558235317152829716e-02
3.764735011082025011e-03,1.194549930534828490e-02,1.126991801002901958e-03,5.270490994518456374e-03,2.127307160657993521e-04,3.532690582585025366e-04,3.276296423831641380e-02,1.862800960987266285e-03,1.987985905387571958e-02,2.264870696756191015e-02
3.006086885012444233e-03,1.565938610207674719e-02,5.257925117222316154e-04,4.677798152986207408e-03,3.893919167712910426e-04,2.163858356767382404e-05,3.663160201558168794e-02,3.656963305969151111e-03,6.653186905071979337e-03,1.907901498962290276e-02
2.457509046303733499e-03,1.888075737657284037e-02,9.878083925398471569e-04,4.399429911358986381e-03,5.276631967159153055e-04,2.988661161621121096e-04,2.574757167716064041e-02,8.243558674703586192e-03,4.196573524087532370e-03,1.609746422543095051e-02
1.810665035655577813e-03,2.158217405307462713e-02,1.387229821704945212e-03,3.826348997991236775e-03,6.165720808211872178e-04,6.039848570264694412e-04,6.988469713388525961e-04,9.060260208420123709e-03,1.097378572728612521e-02,1.578799552920659433e-02
1.181860792727497866e-03,2.374367978960689393e-02,3.960795017085958110e-03,2.277808864459017913e-03,7.048516827091276657e-04,8.896758764058794369e-04,2.976407671834057495e-02,5.727595516309563935e-03,1.248994618288186420e-02,1.762406757989625622e-02
7.235854848164554329e-04,2.535444389038564103e-02,7.497214462870056828e-03,4.934843252414627566e-04,7.959833535142714573e-04,1.152217357369111819e-03,4.692881983197078055e-02,1.808310270683249291e-03,9.824023379718733323e-03,1.822661792351026530e-02
3.885455095400125198e-04,2.641513016878735062e-02,8.063274155864032233e-03,1.793599297451832150e-05,8.685249061921039614e-04,1.388290721233159490e-03,4.915318661731477023e-02,1.546016565395287980e-03,5.934490988785063106e-03,1.537443098981718104e-02
1.069653368933252925e-04,2.693738700536524311e-02,5.006806829294697947e-03,7.499900707953189010e-04,9.163666346529538353e-04,1.595056452855298477e-03,4.290028722839862863e-02,3.877239260732868228e-03,3.429631225568923174e-03,1.013310517647435932e-02
1.005477448682313155e-04,2.694259729493721917e-02,2.021572032607553502e-03,1.291914484933992828e-03,9.389475892998771058e-04,1.770223357899824166e-03,3.560368185767905785e-02,3.200871802305004215e-03,2.741088028830347429e-03,5.427613968595171486e-03
