2.645453225287675014e-02,3.496454027180504603e-02,1.899515003812703249e-03,3.261837019863538293e-04,7.623949923188372410e-05,5.754520826086484972e-04,1.208550722622125516e-04,3.086651111735153399e-02,2.610409214522587144e-04,1.251564174327000683e-03
5.945457863006076843e-02,3.033837186309264536e-02,2.406119513917255939e-03,3.234280269557796299e-04,5.523495104335164922e-05,6.703147474700729041e-04,2.068058174616635827e-04,4.184776769275876801e-02,2.731701741321404444e-04,1.958343998909509772e-03
7.003072095149839860e-02,1.643921167692238838e-02,2.985207156791907721e-03,3.151497537752649442e-04,4.752936175815474163e-05,7.517209168309887252e-04,7.541723813456793204e-05,4.434599087226068215e-02,2.787455557142162364e-04,2.331571561349364725e-03
5.439932402976085241e-02,8.209911541272045706e-04,3.666427056109960309e-03,3.016484270024467570e-04,6.293551335630369402e-05,8.176918060858426622e-04,9.626348780825697352e-05,3.420086937490360995e-02,2.777464857993297933e-04,2.422283669430324877e-03
1.382893729531426558e-02,1.052363225753733846e-02,4.476385608032344351e-03,2.833592674378792513e-04,7.346849658399398609e-05,8.666132694748077212e-04,1.944303727970717217e-03,1.619880614677265268e-02,2.703169906061024552e-04,2.916254516261768213e-03
3.405944643697635110e-02,1.712660505505710085e-02,5.395431461054967653e-03,2.608415480505215148e-04,7.400965244724468464e-05,8.972762826446289671e-04,3.054826390530103117e-03,1.580826132454657071e-03,2.567616713890378882e-04,4.087021616587652173e-03
5.820100034303537367e-02,1.938560244712077274e-02,6.406429583789862749e-03,2.347635440086761618e-04,7.739313199144149465e-05,9.089076190300507743e-04,4.608740076672105139e-04,1.530131456576971569e-02,2.375377309686246721e-04,5.693669346860317539e-03
3.677916566352876920e-02,1.381821776306994820e-02,7.587317531982360613e-03,2.058844425124070436e-04,8.594903157412021714e-05,9.011899303552711694e-04,3.586641395571800797e-03,2.623658374332620002e-02,2.132432586283285018e-04,7.696524925040927265e-03
1.874669456537476214e-02,9.379613204401342393e-04,9.008425276704085452e-03,1.750336819500693611e-04,9.346421192868359840e-05,8.742706991400572792e-04,5.312263072615027067e-03,3.492893676361071009e-02,1.846020647449241492e-04,9.318613613619339264e-03
6.452372590335167524e-02,1.592608801305989141e-02,1.053129738341038353e-02,1.430882616691522033e-04,9.853602623431706637e-05,8.287598027612712867e-04,6.986425212667752432e-03,3.541780219844322536e-02,1.524454402640725351e-04,8.412407200468785887e-03
6.144076997212206265e-02,1.800425787627616195e-02,1.202201798893811659e-02,1.109486213925251993e-04,1.038136950726729516e-04,7.657157077449417912e-04,1.316876852609171270e-02,1.981938949551068432e-02,1.176912905454881628e-04,4.503175834323853814e-03
1.496844549632290154e-02,4.906022788664572351e-03,1.378584550787616443e-02,7.951373141438483724e-05,1.097438333559835140e-04,6.866205927146726805e-04,2.141984469555312590e-02,8.346722316260128324e-03,8.132115674063707393e-05,1.167270423699529438e-03
3.087759436319518005e-02,1.148538097797158902e-02,1.612255165733552514e-02,4.965605996604001416e-05,1.148764426663275329e-04,5.933449719247324170e-04,2.434239628666812552e-02,3.130737479720274025e-02,4.435568907319279743e-05,2.186837883022678050e-03
3.859722629814469480e-02,1.760109291341790602e-02,1.838633983865021679e-02,2.219709179211919482e-05,1.188003911677586671e-04,4.881026518125774062e-04,1.904623762447334515e-02,3.395598765531274155e-02,7.829173171419843443e-06,6.549569045584032953e-03
5.374907529058631055e-03,9.586771328814148660e-03,1.991088965193886159e-02,2.115938262150146359e-06,1.219958556653167047e-04,3.733970940604713017e-04,8.665050166160537248e-03,1.949860146382011855e-02,2.723626768022703202e-05,1.034952259294275034e-02
5.112921700773653128e-02,8.047603954575250837e-03,2.204149486456724594e-02,2.263146081959877218e-05,1.244668928715617583e-04,2.519604742563210297e-04,2.993717847061919644e-03,2.218426618222721618e-03,5.985616370769896501e-05,1.250709286666333402e-02
1.152499677436000375e-01,2.934076249587739063e-02,2.621262038419282930e-02,3.881254594938523519e-05,1.258947034693833154e-04,1.266869099886193558e-04,1.322114268962402452e-02,9.944210678596656500e-03,8.910825934323192258e-05,1.534180022301841369e-02
1.725115389088298368e-01,4.920604869775119239e-02,2.955286504571150510e-02,5.025290589811417879e-05,1.262762877275188213e-04,5.614814350430260312e-07,1.935069944072335610e-02,1.786609743448911575e-02,1.141555442465081111e-04,1.988298223235875767e-02
2.060785430101799154e-01,6.354966957506190395e-02,2.887387647964536827e-02,5.668947241222951905e-05,1.256554627824625679e-04,1.234132226012268723e-04,2.065458798662647699e-02,2.183460534823147489e-02,1.342671964938735882e-04,2.380386844681136108e-02
2.126132956069730351e-01,7.121404509104631297e-02,3.027663809683012533e-02,5.801118251281707890e-05,1.238305658524638828e-04,2.422912325476420602e-04,2.012074914004349790e-02,1.964190125889804864e-02,1.488369286083655863e-04,2.483906656877399657e-02
2.088403384956085962e-01,7.315128045365493215e-02,4.108765070300161859e-02,5.426370502899398578e-05,1.209200200767337064e-04,3.532561754672156073e-04,2.132233520882976380e-02,1.106338053275499229e-02,1.573982842930219035e-04,2.405259684385314956e-02
2.092573252195794875e-01,6.925381438933324307e-02,4.687393793059928954e-02,4.564994644267506864e-05,1.174983812902463302e-04,4.536912987651455344e-04,2.433591538841010926e-02,3.695505097873129710e-03,1.596365140612528491e-04,2.370758960278474339e-02
2.139697940910384732e-01,6.120516720164206198e-02,1.891260421502617001e-02,3.252628555467678746e-05,1.133856511326677486e-04,5.412448024879239553e-04,2.634119197185682409e-02,2.563609950388588340e-02,1.553967560738204415e-04,2.216931768880464615e-02
2.253238528104445637e-01,5.642074060969690108e-02,4.215096903635541514e-02,1.539459939917380100e-05,1.075567661430007916e-04,6.138888510521409115e-04,2.523191251669620883e-02,5.036909354548568113e-02,1.446883273257817081e-04,1.387866401191827602e-02
2.479849098173270427e-01,5.936395350692733053e-02,9.511940200993929118e-02,5.109744561652658939e-06,1.007239782114793391e-04,6.699707842994526239e-04,2.144018770066893551e-02,6.652510333679372001e-02,1.276849942791069700e-04,3.034425692082693121e-03
2.605239879963910377e-01,5.999555136532206540e-02,1.062199323487159897e-01,2.823364593043299704e-05,9.547971865311936620e-05,7.082552338447210133e-04,1.704873668444437454e-02,6.702372630091742167e-02,1.047212137429564827e-04,2.162990333788711306e-02
2.213310812621412382e-01,4.336992659037634118e-02,8.397910749402852371e-02,5.312539353461414048e-05,9.077247380013773201e-05,7.279560693406936494e-04,1.435375058177923609e-02,5.526357637715028498e-02,7.628449971776697994e-05,3.263960853674328227e-02
1.276221276561223250e-01,1.235849626283089947e-02,5.473828910380563323e-02,7.885667634348743306e-05,8.149858883164896525e-05,7.287573452804552848e-04,1.478366547594289933e-02,3.682851155023830758e-02,4.300411726402341919e-05,3.383644898553941210e-02
4.182128891584651481e-02,1.090359591487107850e-02,2.859703459099064565e-02,1.044469256701171730e-04,7.027984341250350221e-05,7.108226863605517868e-04,1.790515616221313375e-02,1.346588134507319644e-02,5.636249718636224729e-06,2.904863270957481688e-02
2.791650432330736870e-02,9.448378632418576173e-03,2.352880691941232946e-03,1.288893624284074679e-04,6.860602597681514077e-05,6.747928317452650147e-04,2.173592018672309070e-02,1.202911937898921112e-02,3.495402830586493998e-05,2.133128483505242895e-02
7.563368923528955567e-02,1.033938991961842226e-02,2.292475107956210012e-02,1.511780760959194369e-04,7.169792824540197214e-05,6.217713489250660530e-04,2.507839144589608590e-02,3.345021962627767881e-02,7.781325237041722962e-05,1.216131201320264262e-02
1.146428643038692047e-01,2.596221698027751518e-02,4.287136999824135708e-02,1.703354354125949778e-04,5.540933363850289716e-05,5.532988191433447622e-04,2.898839895557589474e-02,4.748730408200249609e-02,1.219219713646024555e-04,4.339176340741677206e-03
9.270961254953609398e-02,1.935715209239802226e-02,6.000429287419888763e-02,1.854391106757183978e-04,2.981802159088221062e-05,4.713160814168403361e-04,3.424751364735135334e-02,5.718932298673033016e-02,1.662191013943771359e-04,1.365674640617793828e-04
1.086110514403262027e-02,8.920942753013000326e-03,7.700423067781758668e-02,1.956479793420650370e-04,4.722838549558401101e-05,3.781173939624396822e-04,3.730206163876188807e-02,6.623381246725558447e-02,2.096278085123148415e-04,2.072043975348383631e-03
1.083169254359547945e-01,4.317323267065473202e-02,8.168475137346858928e-02,2.002262227291939380e-04,8.791051938558285862e-05,2.762946236291554856e-04,3.173845048632963073e-02,7.220536863047816167e-02,2.510810253930614096e-04,5.034986667388424882e-03
2.430327076307171041e-01,6.947995805408012371e-02,5.807812168804407649e-02,1.985649914223899359e-04,3.988632616113426484e-05,1.686737994462180086e-04,1.636477412587452468e-02,6.728755061932550907e-02,2.895455849476231015e-04,7.507341602854850950e-03
3.550104619559629748e-01,8.565082518455892358e-02,1.528340083311144001e-02,1.902010505094405739e-04,5.759797396285370417e-05,5.824555998359236947e-05,1.042250142251389912e-03,4.574523103402695912e-02,3.240470787991386512e-04,5.770746534124801021e-03
3.918317731127166081e-01,9.267610663202723031e-02,1.704717358687375672e-02,1.748318310908850972e-04,3.835012901601036263e-05,5.190881901119500958e-05,1.201550897681664086e-02,1.156288416640253308e-02,3.536957580787562978e-04,3.950943228223505795e-04
3.312066576166612375e-01,8.510347598332998476e-02,2.546760083914992312e-02,1.523264577478751318e-04,2.595614377774533980e-04,1.586940142923055886e-04,1.685939404379916892e-02,2.174764274459803706e-02,3.777071229313722425e-04,6.689592450558848324e-03
2.103741487954861877e-01,5.998060798228782575e-02,2.224196384861257605e-02,1.227325526355782395e-04,4.283626338716919950e-05,2.590779876023075780e-04,2.166269212045510845e-02,4.099161375382767702e-02,3.954145913789964108e-04,8.646808332567876634e-03
1.024575531940969536e-01,3.075281580512775545e-02,1.859843948357075769e-02,8.627861601935830243e-05,7.349355972402056786e-04,3.501681601530146418e-04,2.851543321621616972e-02,4.326471874470171064e-02,4.062861202519255023e-04,4.731485435867519712e-03
6.098367121987947892e-02,1.820465275633812580e-02,1.129570475675452899e-02,4.337162021414028791e-05,1.203998982578058157e-03,4.292845486142678841e-04,3.351893131774127954e-02,3.561295852651506777e-02,4.099492093834304087e-04,3.052649765449825647e-03
8.359224946397056377e-02,2.650555560865475516e-02,5.137023324066920110e-03,5.410195099252820278e-06,7.261709990839460482e-04,4.940280487762806292e-04,3.307743065738956434e-02,2.627978664614575785e-02,4.061978098725536911e-04,9.869745308670916165e-03
1.347107534461333689e-01,4.122910138076418124e-02,2.782834934060308962e-02,5.932861394208523159e-05,6.010181187063639229e-05,5.423421645801262394e-04,2.772136364770477063e-02,1.834814695557859462e-02,3.949699849441664344e-04,1.200632672485365052e-02
1.917855754443544003e-01,5.096015197406369990e-02,4.376176953416573145e-02,1.175004683692268761e-04,2.849345282481311435e-04,5.725666340602994292e-04,2.071876776471304887e-02,1.236995824376214970e-02,3.763518509442184928e-04,1.061829227463699857e-02
2.437840615929953714e-01,5.555614864568802352e-02,3.500000256142572069e-02,1.789172328648779150e-04,7.138058875141751623e-05,5.834815963052164198e-04,1.698538789523793696e-02,1.184060403031111756e-02,3.506326151045588402e-04,8.074205612447626565e-03
2.632704075190949178e-01,5.405946966236135215e-02,2.818005292697463651e-03,2.424689385529458347e-04,1.760823321024007816e-05,5.743411702414917162e-04,2.109224493685004156e-02,2.012909195754804953e-02,3.182926179502835757e-04,2.502167741444413264e-03
2.215581063736278833e-01,4.096155004927085758e-02,4.805272267264946995e-02,3.069692605844993806e-04,8.573820042678816057e-05,5.448955714530018821e-04,3.122364172553319245e-02,3.262836265270299685e-02,2.798684437076961388e-04,8.088478785690527903e-03
1.269099396417052994e-01,1.564313849938357703e-02,7.335074387155487985e-02,3.711805843248580650e-04,1.385496647698022390e-04,4.954011711949739098e-04,3.795851963926942518e-02,3.934853402721850968e-02,2.359462773298145295e-04,1.877616187797966421e-02
2.399785960197035883e-02,1.466802151384225678e-02,7.363334358933258661e-02,4.338438398387928566e-04,1.020098625666409893e-04,4.266181955155838395e-04,3.390950154234445568e-02,3.502737508614006678e-02,1.874102422401082856e-04,2.170013543627492131e-02
4.249404554152638736e-02,4.024559330968297682e-02,6.056682669543591441e-02,4.937136762795074456e-04,8.772456102457360178e-05,3.397960647952246436e-04,2.126834834425420095e-02,2.116429899944676299e-02,1.354135869014037776e-04,1.497047731584092572e-02
5.981110313039214588e-02,5.265263110076396497e-02,4.024447168408009506e-02,5.495865073007181632e-04,1.142338262072942055e-04,2.366466776567363324e-04,6.931205437820909046e-03,2.701979200914075493e-03,8.078940358806291431e-05,2.703815789410917748e-03
5.082193682495703135e-02,4.896373650766355085e-02,1.271984850014952484e-02,6.003175330514812702e-04,1.298138977789602762e-04,1.193062406271015361e-04,5.138013303623461744e-03,1.290749728582727025e-02,2.403135738967034898e-05,1.045658640337786618e-02
4.762265346178599229e-02,3.640639340232760396e-02,1.716851390538813929e-02,6.448508853544013177e-04,1.268521800266186644e-04,9.713471197244600099e-06,1.402898351355162838e-02,2.121950507612745812e-02,3.351940686379372965e-05,2.070574936156903759e-02
5.668522195955094656e-02,2.578654942214680598e-02,4.519809201362836454e-02,6.822694923519987938e-04,1.283233908152583405e-04,1.475832739501949803e-04,1.823883721487004617e-02,2.646210338764389686e-02,8.967711239070296121e-05,2.466760311104711223e-02
5.270146578093359152e-02,1.717395601389356055e-02,7.442423942352970057e-02,7.118110073229160558e-04,1.338057892203917544e-04,2.912227706028055769e-04,1.563507120162700367e-02,3.244317610469104468e-02,1.440232489375956482e-04,2.232204337481390188e-02
1.754077785291910038e-02,2.219996928095688098e-03,1.007288556207582841e-01,7.328322064963934367e-04,1.343570198562895875e-04,4.373729946644437996e-04,7.301318836565590456e-03,3.297291684744053930e-02,1.980458514928517785e-04,1.848301441929311659e-02
2.015008813096361498e-02,1.604564820810808201e-02,1.035337547067956832e-01,7.448340842139460289e-04,1.387944865706284875e-04,5.826737494139776208e-04,1.359298220579871312e-03,2.303097090481125153e-02,2.496405840450187028e-04,1.759723733938631587e-02
1.346121383860766733e-02,2.097956194268156896e-02,7.082704881065163272e-02,7.475865093652246489e-04,1.474227629667269326e-04,7.237437676614587052e-04,5.900476636817950787e-03,1.062797414597773521e-02,2.927417330209004429e-04,1.831126072267581437e-02
3.223502193260081861e-02,7.228027689575396500e-03,2.313432527025025345e-02,7.411124419750807083e-04,1.371483373479762092e-04,8.572617402092695335e-04,7.428528843806033941e-03,5.655418048134130092e-03,3.291228234949383075e-04,1.582142579445986602e-02
6.079105172408277857e-02,8.357984696799025323e-03,8.146287128957072771e-03,7.254414523938802328e-04,1.154649989535714921e-04,9.800462320334040345e-04,9.821958039293001569e-03,7.146935432707700493e-03,3.695522769717797008e-04,7.791447424241489117e-03
4.842271011293483585e-02,1.062764596706905831e-02,1.726574627542151047e-02,7.006421143834420809e-04,1.340070067134023555e-04,1.089132524655990562e-03,1.407681744276636018e-02,1.061861839475926328e-02,4.086730866423547714e-04,3.816512601959328507e-03
3.390700215546008089e-02,5.875193764994159074e-03,2.015146541456394602e-02,6.673390878116669837e-04,1.741745107411750773e-04,1.181844490953350710e-03,1.630588736236300573e-02,1.571075426725947882e-02,4.219206944671190099e-04,1.429444953240289334e-02
4.960866799252340587e-02,7.381873626622644999e-03,2.346917590185745514e-02,6.266321683725485561e-04,1.242755757528644098e-04,1.255859723273783325e-03,1.126259144364208202e-02,1.873648138247192146e-02,4.191218548210454381e-04,1.896576441722873374e-02
7.757137134101875497e-02,1.459737045373103725e-02,2.061914329460278611e-02,5.789500647832182371e-04,2.301985401639674228e-05,1.309266294601379001e-03,2.697289401930215305e-04,9.978692638894120712e-03,4.525007789870432134e-04,1.785548536718708362e-02
9.283282603567775959e-02,1.724656625028300402e-02,1.685220023307387391e-02,5.241399466606315753e-04,1.132757262928396066e-04,1.340609731873660185e-03,5.840583272499075274e-03,1.332476987549964347e-02,5.024212961376534276e-04,1.706452400112226306e-02
9.720332615794496922e-02,1.160515907223571598e-02,3.153717566121279348e-02,4.638519630876713953e-04,3.273695525962291809e-04,1.348929015706229733e-03,1.847670514747458241e-03,3.905810625122008856e-02,4.571692639040269407e-04,2.104198372021896107e-02
9.429775142124817433e-02,4.743291597428110629e-03,6.510711128542008563e-02,4.013338419949874871e-04,1.022791954142900973e-04,1.333780686059863555e-03,1.732059917100861254e-02,5.095670573529272052e-02,3.564111396890055883e-04,2.530987963284603987e-02
7.845598937472397782e-02,5.420780676765399840e-03,8.928796579470711647e-02,3.362479836545656997e-04,6.852773389595498595e-04,1.295250422403217833e-03,2.619186761299847899e-02,4.474577938435592844e-02,4.436045221719487502e-04,2.294305835429965440e-02
5.659648403843370312e-02,1.349270457347863730e-02,8.536907026399474796e-02,2.648832273126878697e-04,1.165235218577852141e-03,1.233951772668411950e-03,2.411454730688416745e-02,3.297682098946169704e-02,6.512870617167570986e-04,1.636255266066247160e-02
4.067056548521046089e-02,1.856464994239869631e-02,6.711383861730407796e-02,1.911333017598448284e-04,6.985648349842525726e-04,1.151012020314998033e-03,2.000768268089871127e-02,3.243776729399564657e-02,4.170870340163859670e-04,1.522663726403278642e-02
1.989087558896706492e-02,1.064553442231862962e-02,5.044113786545614819e-02,1.262335284881139304e-04,7.632414402619127887e-05,1.048045495390981761e-03,2.105246747865184911e-02,4.330789029844286930e-02,3.812057696578214369e-04,2.226050245715793449e-02
2.407984515349114590e-02,8.208310053360659553e-03,2.731686897304491657e-02,6.521144304319403322e-05,2.886158305119130262e-04,9.271149458209590292e-04,2.301858019622918250e-02,4.692443735118164566e-02,8.728854866737719223e-04,2.796442148350291451e-02
7.917161359786611952e-02,2.507092760535934925e-02,9.673757176393286972e-03,1.325854318373471366e-05,6.211061416457741699e-05,7.906818816098168346e-04,1.787581934686813950e-02,3.041376506241244559e-02,4.187355792083599800e-04,2.279234123549822230e-02
1.069066327259448890e-01,2.833182141477111338e-02,3.863491459026439229e-02,9.665319236780106171e-05,3.743787099493454999e-05,6.415470798758536684e-04,4.539167707517656643e-03,2.346215690519813657e-03,3.438822741576717692e-04,1.030463366974378875e-02
8.167017322956776626e-02,1.673735048453522944e-02,3.188554310435999517e-02,1.370591661361704710e-04,5.703299574241455330e-05,4.827826857276260627e-04,1.070935026825308757e-02,2.271200074336656924e-02,5.460675687970370463e-04,3.029710118508009524e-03
1.434501559657848889e-02,2.947308089027987719e-03,1.011204592391649545e-03,1.584204469989201826e-04,9.747088474498048489e-05,3.176575567600461590e-04,1.958028002818996971e-02,3.924578289824421501e-02,3.117376287192994691e-04,6.886172872721649588e-03
5.915758699705825352e-02,2.458374428308076828e-02,2.150497752840300689e-02,2.626896190588457760e-04,4.719597214607370846e-05,1.495576720419224690e-04,1.690701223773204143e-02,4.468936555608118283e-02,2.048271394224853120e-04,1.518746572313742910e-02
1.076684085703979721e-01,4.572211370322432772e-02,1.264274249750740181e-02,4.008530764911953279e-04,2.961663835142539202e-05,1.809644450378586811e-05,6.162753017604201931e-03,3.757861700280838019e-02,2.941756636686573920e-04,1.848822422676715815e-02
1.198244373577373179e-01,6.031567479459359199e-02,3.676159103987279315e-03,3.535599942006065330e-04,5.962157742750224030e-05,1.819332549538405452e-04,5.845805937286705205e-04,2.764215032853488060e-02,3.374790213037026296e-04,1.505275675387219951e-02
9.198312981272588340e-02,5.473204683486598138e-02,3.672938881866927730e-03,2.222593305535607478e-04,6.069957687145329173e-05,3.387126294575986936e-04,5.701384946043767943e-03,2.969381435949500214e-02,2.959663304610027378e-04,9.150714181363242897e-03
2.553752116099048883e-02,2.228253068488697530e-02,4.950234204132238428e-03,4.929565045592592971e-04,3.279209664444476000e-05,4.854051154321428535e-04,1.995779524016358386e-02,4.275126517827426698e-02,2.819640741927182661e-04,4.028115568932860539e-03
4.940333902251543841e-02,2.017511688666626113e-02,3.584039823216914143e-03,9.437257204393067036e-04,5.229508308185147061e-05,6.192660788744143137e-04,2.870771939609879572e-02,5.034965136305807887e-02,3.154224333632985782e-04,1.088115297968875444e-03
8.107150031050162908e-02,4.496977937976628925e-02,3.401970511861399094e-02,2.135203729527535346e-04,1.042108949155084042e-04,7.379028611256410871e-04,2.618693976637867515e-02,4.483904999507851846e-02,3.441203475141031112e-04,1.530513258944329793e-03
5.261538340315781437e-02,4.382882301839825107e-02,5.607232056750475341e-02,2.167550134837889844e-03,6.503076029523480227e-05,8.393332596277920795e-04,1.986107338590432925e-02,3.778046702994357353e-02,3.579114210703714235e-04,3.101970523237451965e-03
5.596316945338103421e-06,3.091508644981821874e-02,3.994416870622475441e-02,4.092925415266874568e-03,2.865993849810455216e-05,9.220338482311994177e-04,1.888367582226460964e-02,4.094285684392628272e-02,3.807240087682699464e-04,1.815605836419352265e-04
4.378290825847474393e-02,1.828146999079625218e-02,6.634843790874391661e-04,3.252568295838519866e-03,7.110615878124465592e-05,9.849768958314296906e-04,2.144904525080027283e-02,4.802713851426189395e-02,4.169919193077522299e-04,8.875525071414723521e-03
7.682457617510625447e-02,6.925398609798106252e-03,2.394222154719915022e-02,5.224183568431569908e-04,2.972055123531273024e-04,1.027654918217637148e-03,1.806880365954390000e-02,4.508242779073019096e-02,4.547520104754711298e-04,1.437968012148694782e-02
8.549615047729937356e-02,2.305221430683650295e-04,1.650114133355570084e-02,1.284948059006066909e-03,8.384761701481205820e-05,1.050092201915106029e-03,6.155419670723058338e-03,3.311442982440448990e-02,4.907532384517563013e-04,1.118993127613063590e-02
3.867616858752069564e-02,2.561779745666397691e-03,3.457656811754310829e-03,1.287163304691499050e-03,6.928064163679251847e-04,1.052842957812392781e-03,5.574904730712555885e-03,2.623918125106483243e-02,5.293413759843279944e-04,5.900594239151403866e-03
4.577847479549773668e-02,1.042383616331216296e-02,5.302288562668289185e-05,8.591607488360227928e-04,1.161976861345160672e-03,1.036976085212577446e-03,9.724286502128623791e-03,2.673990139143678571e-02,5.707777273184335212e-04,6.867622201978429951e-03
9.251474207564086560e-02,9.463796156366860446e-03,8.456503380687419719e-03,9.602374748640218720e-04,6.852293646114105980e-04,1.004046856999929330e-03,8.842385271080298315e-03,2.008102377999462090e-02,6.116374455983916800e-04,1.281018975639121489e-02
6.160419296570592007e-02,6.230928742713711006e-03,2.622217109547233388e-02,1.293659367585929965e-03,9.848700921752585229e-05,9.560561734995036594e-04,6.226981160278797535e-03,3.190644304620335325e-03,6.501823203737146619e-04,1.823426674899997907e-02
2.645659330294624842e-03,2.847664192838754438e-02,2.507339528522471370e-02,1.499891718448529126e-03,3.191190857922565237e-04,8.953983441507907051e-04,1.384045926982414420e-03,3.804965063136005535e-03,6.862960093546495183e-04,2.167136451068132214e-02
4.368140077727859089e-02,4.558056910519649868e-02,1.168947775329798669e-02,1.565484089777749921e-03,9.989796197846286668e-05,8.247986174149997277e-04,1.322046714683458926e-02,9.163693897985835529e-03,7.192929026725494029e-04,2.264745394075859050e-02
6.425709210497471124e-02,5.301684808697865875e-02,5.438847132253823990e-02,1.520442054627431806e-03,3.996429087793122400e-06,7.472419343591278802e-04,1.750624817143571488e-02,1.883724164733286896e-02,7.479220276818080576e-04,1.841170631930933235e-02
9.018840016559566408e-02,5.228013879015862980e-02,6.446099576295430400e-02,1.668603846363274227e-03,9.942978970065388146e-05,6.658946616880128582e-04,6.339594924819980624e-03,5.291861763639729710e-04,7.708121405299757367e-04,8.926449981448815810e-03
9.905979033694947700e-02,4.229645351582835694e-02,4.417783269413440295e-02,2.324295510772575370e-03,1.432927805356381807e-04,5.840212517108441144e-04,1.149209223516532534e-02,3.527195048789110582e-02,7.865731899267414812e-04,6.697303613000944430e-04
4.253772780699857647e-02,1.954790350527593409e-02,2.270234686150492467e-02,2.675778323300720147e-03,9.646156451952456114e-05,5.048977910139214927e-04,2.266085826257762184e-02,6.037120034276554498e-02,7.949431109198039358e-04,5.750764696784337916e-03
6.330189007808795232e-02,9.396726782546839171e-03,1.029282445927746405e-02,1.276271555206242789e-03,7.104556357576135737e-05,4.317244619288460061e-04,2.584935298487206837e-02,6.832131756730677741e-02,7.966857227803528143e-04,5.971090664362549427e-03
1.333377376154198934e-01,2.664513371998249863e-02,5.791172934345226869e-03,1.615740189960852228e-03,8.691442166924113815e-05,3.675392345853199252e-04,2.767107579369106063e-02,7.487094040046385346e-02,7.902560001935011709e-04,2.576156971533702898e-03
1.213371003867345782e-01,2.445854529084807299e-02,2.563819964524109013e-02,3.959783866737965827e-03,9.196571003216234255e-05,3.151351470960069489e-04,2.945807096671488809e-02,8.702263700647278055e-02,7.719670422313396584e-04,3.435502884473064667e-03
7.469221467790118640e-02,1.705696976087186720e-02,2.536568559482225288e-02,4.717126453917187996e-03,7.637854653907928584e-05,2.769829082342266488e-04,2.577284420065620654e-02,9.198701690562677280e-02,7.436038533088457992e-04,1.005761629903540941e-02
5.009724280874677804e-02,1.927171139086274881e-02,7.717219188574661951e-03,4.466133691938768170e-03,6.457964995743428803e-05,2.551602958309620388e-04,1.285054990420778954e-02,7.795029396793133614e-02,7.123140834178774477e-04,1.467446554651543819e-02
3.046262747254769102e-02,2.560052449464313151e-02,4.982258819150098966e-02,3.179399208153329496e-03,6.165087639209987651e-05,2.512908284644971334e-04,5.158088644454981476e-03,5.069216134475076907e-02,6.741610406270993937e-04,1.565306525666640414e-02
2.671987745090801877e-02,2.391350067672499621e-02,6.872381122714797674e-02,2.877008471274188311e-04,5.642859688371717119e-05,2.664942995560896639e-04,1.806612867221107227e-02,2.368810275935301010e-02,6.139299453517539466e-04,1.192418034785126812e-02
9.809947910262188653e-02,1.696462770834302608e-02,6.145343715543735708e-02,3.092071339017073584e-03,4.662099800646112756e-05,3.013490069511716440e-04,1.916341855805249461e-02,7.139559637445980732e-04,5.403434459324476385e-04,2.599810178546125509e-03
1.136767788444745519e-01,1.456725874990536136e-02,4.506342062757088401e-02,4.938786390954508047e-03,3.765996595346839641e-05,3.558644596976401494e-04,1.313024243164001917e-02,2.439055814379671727e-02,4.873867243938927152e-04,1.091414079806585571e-02
5.628520798897890948e-02,1.562856116267208328e-02,2.383607274428327719e-02,5.130796436540000297e-03,3.094157762577234155e-05,4.294683513690108882e-04,1.107684029666026505e-02,5.240771309299714631e-02,4.390644890934224153e-04,2.306623065532721617e-02
1.543020536235486379e-02,1.301993542406184451e-02,9.732926079321949434e-03,5.064070490361712550e-03,2.421156016648647486e-05,5.210130253832218582e-04,1.809917063541557902e-02,6.997313347937129946e-02,3.245685930586250092e-04,2.673764499821723942e-02
4.627747674921064980e-02,6.782130225090974435e-03,4.513985154609797407e-02,5.259141107764612501e-03,1.702494221498006738e-05,6.287949945238690847e-04,2.959689258907255080e-02,6.400849023843109553e-02,1.788251959801126143e-04,1.926853384990685758e-02
3.902900108291285086e-02,7.199333379942606925e-04,5.292281370126772355e-02,5.502049931256681320e-03,1.063070635031904352e-05,7.505766573541026608e-04,3.851118405237597547e-02,4.359751791909110413e-02,1.569615728130358044e-04,5.195719683984686282e-03
2.624979694243195424e-02,4.523826819722665503e-03,2.494712820231003922e-02,6.131722130176485083e-03,5.505435207663030466e-06,8.836230827009607103e-04,4.186852967653720975e-02,3.429350087872899688e-02,1.915977886651162344e-04,7.878227230416999516e-03
2.711845781877619474e-02,6.782878800863381685e-03,7.079970788416474134e-03,6.886767543215031352e-03,1.365196953653765791e-06,1.024775736248900726e-03,4.055900429085972786e-02,4.596245743451856519e-02,4.748145036263787711e-05,1.525968578674607654e-02
3.644685388663800041e-02,1.055266698061228196e-03,1.048804490491868531e-02,5.751120176336763958e-03,1.891988560365032932e-06,1.170533564042350880e-03,3.618333698114153257e-02,5.933828880292296021e-02,4.199335949324319245e-04,1.750627002217777436e-02
3.199173343179603085e-02,1.128029339426935354e-02,1.093889984123848878e-02,1.479530075708153456e-03,4.175559380513582251e-06,1.317090320220023819e-03,3.002671623695470776e-02,5.323214128352055097e-02,1.971850915225117407e-04,1.885725183317430234e-02
5.376386314289318888e-03,2.068940756016841853e-02,3.504452151015639838e-02,3.688567388555655333e-03,5.203245486472699064e-06,1.460385489164400851e-03,2.486689500367735700e-02,3.409651198021099172e-02,3.329589216151017318e-04,2.263868654280590600e-02
6.214511848281936701e-02,2.017329513871197674e-02,5.364872843365987160e-02,6.085706345325325381e-03,4.516071499326964780e-06,1.596274190651771887e-03,2.539685083381775302e-02,2.472891130301841517e-02,7.520019473912411666e-04,2.682528490886379111e-02
9.101591464228092621e-02,1.213166161362628885e-02,6.522786889341418426e-02,4.618244154022324924e-03,2.428075538170571771e-06,1.720690433469865667e-03,3.287533718225492396e-02,2.956861592100550745e-02,4.049487493441502120e-03,2.654154348515208595e-02
5.750136153878879913e-02,4.404202763522266535e-03,5.688615822016750839e-02,1.202250176437814205e-03,4.091811623244359544e-08,1.829568964522687363e-03,3.969120380218421618e-02,2.996128924383257772e-02,6.587167594901958100e-03,2.187412906730257234e-02
1.900951087060166050e-02,2.671182915501199399e-03,2.168587816187407535e-02,1.912377582518414625e-03,3.225144584047382803e-06,1.918781149371801432e-03,3.626329774537800921e-02,1.614601820992016615e-02,5.408181108495072054e-03,1.836579837246718472e-02
8.654307206300736188e-02,5.930702145145646739e-03,1.927172990828077484e-02,4.073263165084285362e-03,9.741434695469439837e-06,1.984585968671534126e-03,2.474836201386432927e-02,4.436261954871663013e-03,2.019387000046177563e-03,1.848828869827713259e-02
1.142044272037375935e-01,9.086752841240691714e-03,3.718789532736829079e-02,5.904055169734648278e-03,1.819619887007786931e-05,2.024056755107337974e-03,1.698204611162290600e-02,1.232963580034393374e-02,1.231820927862397653e-04,1.895543824636104074e-02
1.078710850674066135e-01,1.013175433690099297e-02,2.669148091494061986e-02,7.879966302870232767e-03,2.321175786015123717e-05,2.034392693774047210e-03,1.765877954357980908e-02,3.180329739378741361e-02,4.975583027599958345e-04,1.797107889918875614e-02
8.093183001079456984e-02,1.137509734706304045e-02,8.568671838301280749e-04,9.439578859612439074e-03,2.712939619269732621e-05,2.012232077894772313e-03,1.918170471018798562e-02,4.082219626093872011e-02,1.164952994045764670e-03,1.789763135176474299e-02
3.412695343696021955e-02,1.362049048525542858e-02,3.454012981586872255e-02,9.417910734483152940e-03,4.114779984154646065e-05,1.955320429327875743e-03,1.254043046618348069e-02,3.008313619108042569e-02,1.060026295091967509e-03,1.838115522907137617e-02
2.679571761187548098e-02,1.502300223326954662e-02,5.683708183538681985e-02,7.335368073275038044e-03,6.014860358728793950e-05,1.864204087471103442e-03,5.454146513279945450e-03,4.931137964352272883e-03,8.089295064933092142e-04,1.407321182510614353e-02
7.153977504460831693e-02,1.567828466429864107e-02,4.683652405310399780e-02,3.626390165762586118e-03,5.961540959064506938e-05,1.738858571072217970e-03,3.305086490309887964e-02,2.904768172518889038e-02,8.968775957677966671e-04,2.966942715096503903e-03
6.668999528862841475e-02,1.707864146729419497e-02,1.025276907293175450e-02,1.953813090775863813e-03,4.934993237321225835e-05,1.575089934979959560e-03,6.390167210436741019e-02,6.745522453478421110e-02,1.045709153112198402e-03,9.075008606286931109e-03
1.766582200227388016e-02,1.682748177560232372e-02,1.925325500431806711e-02,1.024435065358328747e-02,8.147303026257137685e-05,1.371704509354823793e-03,8.757508943345262975e-02,1.003376951624074254e-01,1.018398178697128929e-03,1.606909634122558050e-02
2.783899093279329842e-02,8.726950673372034159e-03,2.084009155412236414e-02,1.939288363421827824e-02,1.359111563591074449e-04,1.138399659962697130e-03,9.409459727751730285e-02,1.166181617632870149e-01,9.483991375029849616e-04,1.884846382853019517e-02
2.758768259675562287e-02,9.838692310284139972e-03,2.488663707874287298e-03,2.441435443374136843e-02,1.001989732173271533e-04,8.806308073490571589e-04,8.027982129724497984e-02,1.132596608197912191e-01,9.676932157972196590e-04,2.089284225971969888e-02
1.283600326679238887e-02,3.164438394798251702e-02,2.422811201435711229e-02,2.232681145941414411e-02,1.351771656887198754e-05,5.822930880745978569e-04,5.305650272878329604e-02,9.512886876384954449e-02,1.004013047440981046e-03,2.216540403252763650e-02
5.810032489004617745e-02,4.466365251573019973e-02,5.183571860647693402e-02,1.531352367587488980e-02,1.191176972429600013e-04,2.374731240908142652e-04,2.501340369691531368e-02,7.093831141167653009e-02,9.551360057329699640e-04,2.013781240199702394e-02
9.287961997508033252e-02,4.495340933400545497e-02,6.205158353884820954e-02,7.352172360105960376e-03,3.484166005451202986e-04,1.118915284022030182e-04,4.534301059850741680e-03,5.066359562762349361e-02,8.795234815693035333e-04,1.392989767093608805e-02
1.236330906559415937e-01,3.825413053517785766e-02,4.067080797625630822e-02,2.080686787270376271e-04,1.370113834287941743e-04,4.430318877085357831e-04,7.867339400042293665e-03,3.858636088527681723e-02,9.136713113165917692e-04,6.295516258014373021e-03
1.377464247683760912e-01,2.803626847741005207e-02,7.220836594437163997e-03,6.082509726316283859e-03,6.376416111146033551e-04,8.347587858969693613e-04,1.314109054884049846e-02,2.993389903328423293e-02,9.818426431098493598e-04,2.890168129291671804e-03
1.074036597519051200e-01,1.283923015828803554e-02,3.251673601110529471e-03,1.090470028888950935e-02,1.103335553880655743e-03,1.326737953831410698e-03,9.465526882817355825e-03,2.362841901258107280e-02,8.302529992533395431e-04,7.614316126228214826e-03
3.732362662631669853e-02,3.831971488507675272e-03,1.434152951988022784e-02,1.284037384108664172e-02,6.230126913471919960e-04,1.739823883752010091e-03,1.914273697712067131e-03,3.119991891828282488e-02,5.865252632144490018e-04,1.661039147424086398e-02
3.327824650774102722e-02,1.364768115331294052e-02,3.729007273410507584e-02,1.122996140608841301e-02,1.597888562637713762e-04,1.971785145389664054e-03,1.173578494190602450e-02,5.945592693569209941e-02,8.207880005841273943e-04,2.040281180120074797e-02
7.559824044428845036e-02,1.440818744290662395e-02,5.568525974085704322e-02,7.328849887065101189e-03,3.777761452973857998e-04,2.394281148519689009e-03,1.078300559263505737e-02,9.241928090587404887e-02,1.539323922198696090e-03,1.538194231842964811e-02
8.539014823754803585e-02,1.120471248166174036e-02,7.681498540291244181e-02,3.952175506821751713e-03,1.654059502717405614e-04,3.247504631964987735e-03,2.163243833182112736e-03,1.046825742024565936e-01,1.864201869849753217e-03,9.410189097735581140e-03
6.442791426702239310e-02,8.621465798414475190e-03,9.043807967816339111e-02,3.723055059165356496e-03,8.098209283016258851e-05,3.681486999892365393e-03,2.108430512512574594e-03,8.825868590704805117e-02,1.403006543488075119e-03,1.168439852724764867e-02
2.518303093985848479e-02,9.817655182502906669e-03,6.624711622508916431e-02,6.724958403219995218e-03,1.685027923831475206e-04,2.563680729675697507e-03,1.782070451634051953e-03,5.831257503825153926e-02,8.119085740211461196e-04,2.059003668256712341e-02
6.528515333124291532e-03,1.869382429055948744e-02,1.166351814356336638e-03,9.377028840988200012e-03,1.952018756610145005e-04,2.010725378555804153e-04,6.171803018459170835e-03,3.423740079195090880e-02,4.217540616224950715e-04,2.680302664195469142e-02
4.110879435185598590e-02,3.369439707589998861e-02,7.014388610791705281e-02,7.383570571614313932e-03,1.741735434066080828e-04,2.179520459653822712e-03,1.031382536756654533e-02,1.807634804608806295e-02,6.687856904119614081e-05,2.600946488351291164e-02
1.011889739121325793e-01,4.348085344170701111e-02,9.208120863061559913e-02,1.611963612687014515e-03,1.977298526970656294e-04,4.188571211674540183e-03,2.768941520352605212e-02,2.818928924778727613e-03,6.800743438087050513e-04,2.324404580508686660e-02
1.210103305715384547e-01,3.729144958909109270e-02,6.237597757579917829e-02,1.664518253263480097e-03,1.738703070219421991e-04,5.821726593746349120e-03,6.405249121569873971e-02,2.799695857922909412e-02,3.510262103337322311e-03,2.486967004799374090e-02
8.246162477462337659e-02,1.607795192222676722e-02,2.044166157011938906e-02,5.284640476416828901e-04,8.987534960296749548e-05,6.222712924814056100e-03,1.015440139509827672e-01,3.438685940150838088e-02,7.096584457561031997e-03,3.045753001796528900e-02
3.153535527648748671e-02,1.135185087429526826e-02,4.983787932997900232e-03,2.739487954765167620e-03,1.786520594398148152e-04,4.555031936609266890e-03,1.182176807829561915e-01,9.636240489334549353e-03,7.845569172125612528e-03,3.449867973212689121e-02
2.662937815556708741e-03,3.597476037012603545e-02,1.880076829998261756e-02,9.943854036645980322e-04,3.961979978524293624e-04,1.182869233345743573e-03,1.119069031886354704e-01,2.425921559452603668e-02,4.717818055834959411e-03,3.325393370250577518e-02
1.757392981243623836e-02,4.838646377350374478e-02,3.770395346438247530e-02,8.291749512576161371e-03,1.847416113447623691e-04,2.733617458432389524e-03,9.269619440052211112e-02,4.203058266161668888e-02,8.803004022471909440e-04,2.671758690149550128e-02
3.642163876776113862e-02,4.121644929787175032e-02,4.056207742895331925e-02,1.254995964512754802e-02,5.894165933639639162e-04,5.916622001441876853e-03,6.485255031777194257e-02,4.887909629081711033e-02,5.200977442539311260e-04,1.636973881438886710e-02
2.253936868898149745e-02,1.868242573445336868e-02,2.143488096460705733e-02,1.245632480905593115e-02,1.059517971488464164e-03,7.497126523063283449e-03,2.975458906250854491e-02,6.060897389304446131e-02,7.579586305175259765e-05,5.144273227954286945e-03
3.888127417936922819e-02,2.705712553713313789e-03,1.064315700485194208e-02,1.228932428775781488e-02,5.831862847792581954e-04,7.719868641947505092e-03,3.967624507826061908e-03,7.206374577733548614e-02,1.212347689864354131e-04,2.661462351259885183e-03
1.020643217872774927e-01,8.754672453122513270e-03,2.893492855829806962e-02,1.441126963399612555e-02,2.039900563540083774e-04,7.662152990868632135e-03,2.644816194939181644e-02,6.777057437475421386e-02,7.586471856647293479e-04,5.814335195361925758e-03
1.134973618499033055e-01,2.451774475524656424e-05,7.056548494192110138e-03,1.564902388575824255e-02,4.325357729339719855e-04,7.979796983268198571e-03,3.744053274577949925e-02,4.714421917049065741e-02,1.049430397155320526e-04,8.676294209962930049e-03
7.740180270575769406e-02,1.268499920395843930e-02,4.441669404825045880e-02,1.192103144200914490e-02,2.219782109652878633e-04,8.474526859639902251e-03,4.255538553864245122e-02,2.179661038899473671e-02,2.021302830831564999e-03,1.541569109840888567e-02
2.951375403650724136e-02,2.056662387140419795e-02,8.184917145197009858e-02,4.968886865582759597e-03,1.307059311171668520e-04,8.767462758416066232e-03,4.263850084116504319e-02,2.235061660858397511e-03,3.156798151327581264e-03,2.330974881260630682e-02
1.835299305514218396e-02,2.297503339991759097e-02,7.779475495975901600e-02,2.285362894781544415e-03,2.333359752181204927e-04,8.888859595366510255e-03,3.558793183880213512e-02,2.824628593118846953e-02,1.693170165402051999e-03,2.615908607372214451e-02
6.233402196885865637e-02,2.310443377538215146e-02,4.161060663869625698e-02,8.081372189109708656e-03,2.992214924118659076e-04,9.227196067543670319e-03,2.681995598034630363e-02,5.763377920928994258e-02,8.165991595068789431e-04,2.407481767670442002e-02
7.252862044179082812e-02,2.233190632957029673e-02,4.617102155517935000e-03,1.615467378090783973e-02,2.760813574648756947e-04,9.904171354543432615e-03,2.592112168631802507e-02,8.178307971767438678e-02,2.077627656820069547e-03,2.468965756210463741e-02
3.048597158690847728e-02,1.939143179946928308e-02,3.795255247153852401e-02,1.699537924187293284e-02,2.484541278566821136e-04,1.027155896827152033e-02,3.139467064286122905e-02,9.097953243562308112e-02,1.969540593782353240e-03,3.218136517884323533e-02
2.198968071762378088e-02,1.415257064124498740e-02,3.409139379921400509e-02,1.108874690976217187e-02,2.628813851395477691e-04,9.704451099936478586e-03,3.276548439067136081e-02,9.103454749956740866e-02,1.853048309824224804e-03,4.025259927502163743e-02
2.323316853598194481e-02,1.026336609411068745e-02,8.888488303136352769e-03,7.946695803249730766e-03,3.267058295531040488e-04,8.868501331940418717e-03,2.932267334532893260e-02,9.885178337422964590e-02,2.398206104830738657e-03,4.095827564160280099e-02
2.833304944609111795e-02,1.168426499654010887e-02,5.688237223809380211e-02,1.178796911561095714e-02,3.742071514607107712e-04,8.901744686337436166e-03,3.017069042283278268e-02,1.142811914430882508e-01,3.076615127962034190e-03,3.579233178524533071e-02
7.720127330802674381e-02,1.766525830264883273e-02,7.292032694918001989e-02,1.636384211313860956e-02,3.003197897383711162e-04,9.379890224011238481e-03,3.661133676793535546e-02,1.135236997648004925e-01,3.129113171158693762e-03,3.213625950831584810e-02
9.071332578323432205e-02,2.435075766226952806e-02,4.954718125197433987e-02,1.525661900463612906e-02,2.249052607615200316e-04,8.995477635573227715e-03,4.414268991568768424e-02,8.561260153677054119e-02,2.637907507287184580e-03,3.380047916562019944e-02
9.395090448863974153e-02,2.877189588358471106e-02,3.689261157693164619e-03,9.493826708892899591e-03,4.179657478501375709e-04,7.982485978670196200e-03,5.743323041756065450e-02,5.465803000687659285e-02,2.564428272211614467e-03,4.039425842006133527e-02
1.161326428137158806e-01,2.723721495292008923e-02,3.647377435471058776e-02,3.041569192177587255e-03,6.474617350264185280e-04,7.185299510532444471e-03,7.941056389819527161e-02,4.470972182528378663e-02,3.450761673789749795e-03,4.892664657205021694e-02
1.435885462378015676e-01,1.593969292065896062e-02,4.307737133413353653e-02,2.804750109226960327e-03,2.680948085697072540e-04,5.388702209343160417e-03,9.192951761888977502e-02,4.594261197819549808e-02,4.613221520548623118e-03,5.142397400559807485e-02
1.474149830194566302e-01,9.310444203221865736e-04,1.395312604185464621e-02,8.369627359633454236e-03,4.979232662875313553e-04,1.227944009216982123e-03,7.551948353826277993e-02,4.051068273338203490e-02,5.223639156957580153e-03,4.065427015074459666e-02
1.238035883454226688e-01,1.198417362836431965e-02,1.809427541894500363e-02,1.317668452616350266e-02,5.764870595110741132e-04,3.289220426118391691e-03,4.417118899289112360e-02,3.767632208813957717e-02,5.423163665627348320e-03,2.242432599114910566e-02
8.572910199908984064e-02,1.287924828955754053e-02,2.185641078887648123e-02,1.645700447152175297e-02,9.355572481993101180e-05,5.447939922897834276e-03,3.213464699123977364e-02,5.528985249376523747e-02,5.754618917689768333e-03,1.128028392366198403e-02
4.310109552925123905e-02,1.074874758041449024e-02,4.622914124278735409e-03,1.822607652638598072e-02,4.453783902879561050e-04,6.364654260178037939e-03,4.676691656688744536e-02,8.525296309472941980e-02,6.277822769146406030e-03,1.091324401784805713e-02
4.164499630944640610e-03,1.263059428070088287e-02,5.387757753979497723e-03,1.900614183905821944e-02,1.472274221248117678e-03,8.556367790256936764e-03,5.938028631918148420e-02,1.032906080544806621e-01,6.753856304933247845e-03,9.947252408865351475e-03
2.650799655906228153e-02,1.898712533672532177e-02,1.992530382961508160e-03,1.921399062716063616e-02,1.369317413611388081e-03,1.138417731532976630e-02,4.615989998023140028e-02,1.018573138523855143e-01,7.138625429551356295e-03,8.416392573263888587e-04
5.416734222603124260e-02,2.744364299276242508e-02,4.587344373986938784e-03,1.917381584795596269e-02,2.060034298034735321e-04,1.279572905105692826e-02,1.820732842603615606e-02,9.394039564269143772e-02,7.545777018262395108e-03,1.807077901904856343e-02
8.292062831134852652e-02,3.418914025801438744e-02,2.333007767039016467e-02,1.937471645060789144e-02,1.076156805288884283e-04,1.292859408580428020e-02,2.362968983532444302e-03,8.972841610079092256e-02,8.008457087688960335e-03,3.447319266300500479e-02
1.053198406508718266e-01,3.298634942129010511e-02,4.471910165298671747e-02,2.004518924668423699e-02,1.314452992503445557e-03,1.293369562296486572e-02,6.273511535199300521e-03,8.544989239865566355e-02,8.458523323757596163e-03,4.672634490807717200e-02
1.106710773547283228e-01,1.940875099668208648e-02,5.715869020937866529e-02,2.043793969690854348e-02,1.672692737963575160e-03,1.235230818440343804e-02,1.751812958303936713e-02,7.839881114301076870e-02,8.849748506117980154e-03,5.058995755701708313e-02
9.434902156317204192e-02,1.781281396723424738e-03,6.650405416172611162e-02,1.990190895262432605e-02,4.441298936452744549e-04,9.647995484578500078e-03,3.026327145287026343e-02,7.909644732854664850e-02,9.250508083185587926e-03,4.053492246315761049e-02
5.876421401594792565e-02,1.636836322434840479e-02,7.465578982968312793e-02,1.992352292303214284e-02,7.110769275927382362e-04,4.424824076657874437e-03,5.115366931501783010e-02,9.479757711383128560e-02,9.724766842867115652e-03,2.188939064094464967e-02
1.376532493284110016e-02,1.369452729485699446e-02,6.886122428320098909e-02,2.202701487566960381e-02,7.234703034181203104e-04,1.357253692811804125e-03,7.498943834449678381e-02,1.106575561057790841e-01,9.873870593448217520e-03,1.163889335217456293e-02
2.810382072268846274e-02,3.040564498515874355e-04,4.528179716880473271e-02,2.236953032659525983e-02,3.371502966216564185e-04,4.282324208525150819e-03,7.771019149059563147e-02,1.067315360330598900e-01,8.623321060091941603e-03,1.742763345890244522e-02
6.286382678203411567e-02,1.109865508897394173e-02,1.447690300382225084e-02,1.363786543346580046e-02,3.155392182990264679e-04,2.593211682177519115e-03,4.926785578147292732e-02,8.814223261144904509e-02,5.291681161687581195e-03,2.622545459571406362e-02
9.467677125121644333e-02,1.500288357260246008e-02,2.446348204995961798e-02,4.124223328092607548e-03,4.672945784148603760e-04,1.598472876763175820e-03,1.532558064971342206e-02,7.922143846834148184e-02,1.115059896672600595e-03,2.355225998136654258e-02
1.197431486138445245e-01,1.855101873249165312e-02,7.986121523840494785e-02,2.021021136896292494e-02,4.892946981648325141e-04,4.833538123678962975e-03,4.603861610570674640e-03,8.977298751228482421e-02,1.526090591778998980e-03,1.387087443549267496e-02
1.232252105821205340e-01,2.081591120947161311e-02,1.355787924192322913e-01,2.512134237591378064e-02,4.453702017375201893e-04,6.542040728241853807e-03,8.599928152769801756e-03,1.035611433251572566e-01,1.925609901202567868e-03,1.094237025753240153e-02
1.008331088947682641e-01,1.319571956381832348e-02,1.628392064722716526e-01,2.029392825788339794e-02,3.900347017610189646e-04,8.676780910863575794e-03,2.938158619688265721e-03,1.032433727818973246e-01,1.666686524276030264e-03,1.624816289429459326e-02
6.722000578290565631e-02,2.093683879175843067e-03,1.585925779791209356e-01,1.265894088978477411e-02,3.278843502437539959e-04,1.206336000466676217e-02,3.788650117895996094e-02,9.412345068542579685e-02,1.998793724050066008e-03,2.007370525630336466e-02
3.221462570075030868e-02,1.028897570151455707e-02,1.359253204518262870e-01,5.541527007298078893e-03,4.236519954318990590e-04,1.551423675147922329e-02,7.540672267922284011e-02,9.304116513475249595e-02,2.173188361683614424e-03,1.918147326809384670e-02
8.227369491991076353e-03,4.745373793922053746e-03,9.420560659258608860e-02,1.977648899974675765e-03,6.199774967903408157e-04,1.783809797982690432e-02,9.565548999537021313e-02,1.003861583086778919e-01,7.376220031402199156e-04,1.892534372473274676e-02
4.566000160995676432e-02,4.197395850806398022e-03,3.369239136419468345e-02,1.107199500395040538e-02,3.903327826261029378e-04,1.851568564771125663e-02,9.671491690794802032e-02,1.000878345782012235e-01,2.732734434538944875e-03,1.907908399161292040e-02
5.797435399600044809e-02,5.010691141300236545e-03,2.026551688238861781e-02,1.978408552568667114e-02,3.830305863838177199e-04,1.667821582508427838e-02,8.540414771854577813e-02,8.635299433816370773e-02,7.082453761185622185e-03,1.267579880847042803e-02
5.145152331085382086e-02,8.818505018145454243e-05,3.730700664160473135e-02,2.190243232935253082e-02,8.465847700610236795e-04,1.171335540278549241e-02,6.782860081014287223e-02,6.697968982390321846e-02,9.705833585710397365e-03,1.218557052525292596e-03
6.351891670274097124e-02,1.336487161515619807e-04,1.702362305937733800e-02,1.261058051176451589e-02,3.856094554794277482e-04,5.406060193786986316e-03,5.263743401428824797e-02,3.980513145359808325e-02,7.901267202322993441e-03,3.266356408381257403e-03
1.057667177084812282e-01,1.181621522129236088e-02,8.551270463251383139e-03,2.859697401664044493e-03,3.668838473923598719e-04,1.150319666798191873e-03,5.045037293546856400e-02,3.168792254805005357e-03,1.584691049671054864e-03,4.022566400406171749e-03
1.473748732516397542e-01,3.026838789614945749e-02,3.651393592648656018e-03,1.239958782850610411e-02,5.968851927768642571e-04,7.599641870546639845e-05,6.012350147465099492e-02,5.223536615415794865e-02,5.684194288976694188e-03,1.391780848222735553e-02
1.658972574343632045e-01,4.513507384627491598e-02,3.806589869270732285e-02,1.103826308856345473e-02,4.313066840029880999e-04,1.559797232444325426e-04,6.413476909007788385e-02,9.721144498158888758e-02,9.753370202289604260e-03,1.910643975931073518e-02
1.681970327631285012e-01,4.743958831081163119e-02,8.630356903109243083e-02,4.664643383434579661e-03,3.117979439773630162e-04,4.131193674901934270e-04,4.952594561997587796e-02,1.532550757265109809e-01,9.838310152522612012e-03,2.301531346924262297e-02
1.584743110844613612e-01,3.452851990988323877e-02,1.078413957578017168e-01,1.378622839298088848e-03,2.882238664626954241e-04,1.580322203916737335e-03,2.685858016966103171e-02,2.283946150544004239e-01,7.690938676664695224e-03,2.753777413376767499e-02
1.312226169063959169e-01,1.246180309582337054e-02,1.045465286468233723e-01,8.420204866502556049e-03,3.797939883975123962e-04,3.321042839617064854e-03,1.434937807293057074e-02,2.878103280420303278e-01,2.928703202886316637e-03,2.561046384672713630e-02
9.490493264580185384e-02,8.203554201371058771e-03,1.022661686490265176e-01,1.657692138400533588e-02,6.075300655305372740e-04,6.233096832843978280e-03,8.909164377964269924e-03,2.902388092689494048e-01,5.944984541871155097e-03,1.226602031174407748e-02
6.687191669453398934e-02,2.070919674707440497e-02,1.096939456377551692e-01,1.934364784697742076e-02,4.907612175716313243e-04,9.817223410980832621e-03,7.966885625679010277e-03,2.410300593093491206e-01,1.339403033252932126e-02,7.054718555109924794e-03
4.823875165499932199e-02,2.552530931233236433e-02,1.128483463875970816e-01,1.146922508727833342e-02,3.907692251059596551e-04,1.238907740598853453e-02,3.664331352551050691e-02,1.833699762445000214e-01,7.879974603760841328e-03,2.340290969949926358e-02
2.799905630738333540e-02,2.742090482142800489e-02,1.028599470323576792e-01,2.421488925839684718e-03,1.409652170028916464e-03,1.297171981570122146e-02,5.392110434298078014e-02,1.507250470332760772e-01,1.234053010933090257e-02,3.314707953656637063e-02
6.448240687950738959e-03,3.024856866477792713e-02,8.349275422717995776e-02,1.200475726174730397e-02,1.637730793942598949e-03,1.183720118670762191e-02,4.682883023228121694e-02,1.406168971390254208e-01,3.276368679454763622e-02,3.859068089652309408e-02
6.463429762888592278e-03,3.399064292549792976e-02,6.100008313270703642e-02,1.176942631442416502e-02,1.176715386746371309e-03,9.563922864658815776e-03,3.132934386258371534e-02,1.302958962492390127e-01,3.923700422139952959e-02,4.371582422918063315e-02
1.311875671217417778e-02,3.788471492923445316e-02,4.686558997394797699e-02,4.412784750719468685e-03,6.462132512748242725e-04,6.864039353452610660e-03,2.742319578710922592e-02,1.130121147286322902e-01,3.289477777963881883e-02,4.946483693687214744e-02
2.800775511875747137e-02,4.368697575066182032e-02,5.208163932854131817e-02,3.869935817394867198e-03,1.597267663540697844e-04,4.762358662117748172e-03,3.288641245602143270e-02,1.088051181590335426e-01,2.315974447296442404e-02,5.216438376109873432e-02
5.752724232577546837e-02,5.070145306016211884e-02,6.414502724776685594e-02,9.221143990386508268e-03,2.988613832394021647e-04,3.882373092394795968e-03,3.402986790530145023e-02,1.315376455360320052e-01,1.466202294173550927e-02,4.814891239783269938e-02
9.887528919446336717e-02,5.126443720981294083e-02,5.775325133118879711e-02,1.216151624979883161e-02,4.819253289645379201e-04,4.182692732415823310e-03,3.042024505035782062e-02,1.585472945401461831e-01,6.554002781687656189e-03,3.992150433455268072e-02
1.509703938421767255e-01,3.905052063807428614e-02,3.788629067471190048e-02,1.395742634442118449e-02,4.011449570041509269e-04,5.854947635764395225e-03,3.504722252650218500e-02,1.514554037405378972e-01,1.336512007051792079e-03,3.500251788030141198e-02
2.051780427395206163e-01,2.043621579281332951e-02,3.677320308974785928e-02,1.205054456029035388e-02,3.674974877754014994e-04,8.996023004373417120e-03,5.136996878873206079e-02,1.056447536845186580e-01,6.861493669439134094e-03,3.722891212274357514e-02
2.341825393206160844e-01,9.732069554608369089e-03,5.860976708347842568e-02,2.920790045376691051e-03,3.895052148102528156e-04,1.174703240684218941e-02,6.076046557488731792e-02,6.308326601444819159e-02,8.916081487371052550e-03,4.018559037541197948e-02
2.117093500795627636e-01,1.090037205946649615e-02,6.319579920925021133e-02,1.078769525728620962e-02,2.844734955627941817e-04,1.108849331216280910e-02,4.282535823212754028e-02,6.557513390956970500e-02,9.802616018926169766e-03,3.211025744798777504e-02
1.428689372494081622e-01,1.102999588507837074e-02,1.838298158041285629e-02,2.124882574053167661e-02,2.632279006535652292e-04,6.703793940889173422e-03,3.348319030989877539e-03,1.051517824467866208e-01,1.204554070562706414e-02,9.662773124678931611e-03
6.384597545718234679e-02,1.215760892923434602e-03,5.790340059023604824e-02,2.441912515736452752e-02,5.498998768924900048e-04,1.403856744382466024e-03,3.486726557254563041e-02,1.386664421220110965e-01,1.325650583411566719e-02,1.580385505676835944e-02
1.043460854976246271e-02,1.702060695202697871e-02,1.217624122783391022e-01,2.330735594063006871e-02,5.472571214004689913e-04,3.168828053225150685e-03,6.402356176929531462e-02,1.422232296772808491e-01,8.235941822623859751e-03,2.947565536593274929e-02
7.896133289460868093e-03,1.999273493452888295e-02,1.494769126751259447e-01,2.130396252930785023e-02,4.535548067176559486e-04,7.730574466652977150e-03,9.127974413010768451e-02,1.250753591413802379e-01,2.846261812424349252e-03,2.784053890168529735e-02
4.760170624013288290e-03,1.344429455397434976e-02,1.448795151252876279e-01,1.755852293709067591e-02,1.721960132629758982e-03,1.167116047941869211e-02,1.126271570675094896e-01,9.806660545789992744e-02,1.334084396356137285e-02,1.843582479803299728e-02
1.169650853446503949e-03,1.746809544187260047e-02,1.186124783095665602e-01,1.171138772765839900e-02,1.739350506922920057e-03,1.237327175142630305e-02,1.112911992715668874e-01,5.895025049587465649e-02,1.871110888820971471e-02,8.504840056604390935e-03
1.894816198464489843e-02,3.783066317623179353e-02,8.321271839674634907e-02,7.890962403721448262e-03,4.978681850699108371e-04,9.010943304779171076e-03,8.010076688012056356e-02,6.985736328069832787e-03,2.106881594970687333e-02,7.078925209422779266e-04
6.885858367668425128e-02,5.597678869965246051e-02,5.884366693529372028e-02,9.463833133924889895e-03,4.897679297125425227e-04,3.687701458249105155e-03,3.268166029381665977e-02,4.717834706045209714e-02,2.357924183472163981e-02,9.372826038243067467e-03
1.281130384236507380e-01,5.510334879597011959e-02,5.799952977254239916e-02,1.421974487270930877e-02,4.733202066545269884e-04,1.105479456732753538e-03,3.327121960407873179e-03,8.347967794676784681e-02,2.524654536262172649e-02,1.339747764532019797e-02
1.528708046237756690e-01,4.137801343696381057e-02,6.714327667834460445e-02,1.878898534732029516e-02,1.413980071779706105e-04,3.424623260249541438e-03,2.833565657673643538e-03,8.318563256300220976e-02,2.315367921273554785e-02,5.996142293223826608e-03
1.303754297177127930e-01,3.228822212290637789e-02,6.479831081160764006e-02,2.295480421850283961e-02,1.272661417330234136e-04,1.636284724657188641e-03,3.599522378881682416e-02,5.079811750980972596e-02,1.658106688730430836e-02,1.463100411167722950e-02
9.134311125733270142e-02,3.401761489554001872e-02,5.449351049670257685e-02,2.643553264711393999e-02,2.554098406587603301e-04,3.634072259958063666e-03,8.535694234277615977e-02,1.831273646146597267e-02,7.545433153336738967e-03,3.999343899911537298e-02
6.514046633949754916e-02,3.864861151092076341e-02,5.662616622888597823e-02,2.677687684723079747e-02,2.431256443961551299e-04,8.711526592959682042e-03,1.109504802918276634e-01,1.094823606721533928e-02,9.562357127318928682e-04,5.598647991669599561e-02
5.837610302756066766e-02,3.866555550855931694e-02,6.885892768728782420e-02,2.305922172560088620e-02,1.639048857820746231e-04,1.053641724550529943e-02,1.030435323515650758e-01,2.021925041842188853e-02,6.769827516746317574e-03,5.480460106316133867e-02
7.012918394225840790e-02,3.452937405525111775e-02,6.489092978899010933e-02,1.748267303967893094e-02,1.501785270255260013e-04,9.456738726222451222e-03,7.714324199967391438e-02,2.601959935318544359e-02,9.694550420923710513e-03,4.083278910222985780e-02
8.524894609389899180e-02,2.821354037025278205e-02,4.016518213082521938e-02,1.219764075946544110e-02,1.695169682610575220e-04,6.994155492629317711e-03,4.790250663411279447e-02,2.837885191777061653e-02,1.098119084612698970e-02,2.344331173980016697e-02
6.624337385020376279e-02,1.869893779888936666e-02,2.430907088608429481e-02,7.614286093446250361e-03,1.597243161194388981e-04,3.498989271583993234e-03,1.921577970396975976e-02,3.931625150898353932e-02,1.164381446273975163e-02,8.208611400515109999e-03
1.423082382362602294e-03,6.514671241366117721e-03,3.353889992596435776e-02,3.664356773213479912e-03,1.353464758153237208e-04,5.637175990442475125e-04,1.789952742548738679e-03,5.653240197829970809e-02,1.177166053256578984e-02,1.254416433128382503e-03
6.622344350859399320e-02,3.833332492627279306e-03,4.719622587884964721e-02,4.291325416759530446e-04,1.257764497780182662e-04,3.432363324669346870e-03,4.780179628154437171e-03,6.298838631895579965e-02,1.138678349721017856e-02,7.643104211008319715e-04
6.128300239803143729e-02,8.326199313250447556e-03,4.839375340670606929e-02,2.362602653595753145e-03,1.246254584124967984e-04,3.742739877402614240e-03,5.308276958221218311e-03,4.859137159106350495e-02,1.089644906364754980e-02,1.586165069601071578e-02
2.015065294600921694e-03,7.275401175539686002e-03,4.911251744507283412e-02,5.337359045501565910e-03,1.180869764556321248e-04,2.235492211722748222e-03,1.036282317197769094e-02,2.229040261727953040e-02,1.044182405997325092e-02,3.463349913805997132e-02
4.080139155412074170e-02,4.654935330703556355e-03,5.572235180143846750e-02,8.785518694976452228e-03,1.089888636377166334e-04,7.393012570126203213e-04,4.379468439703387492e-03,1.215036110321825527e-03,9.834151205780072846e-03,4.463518932011662638e-02
1.095639901369920531e-02,5.298597162455077544e-03,4.625472352075400695e-02,1.203938411144376414e-02,1.037966515679851606e-04,1.158270155262947282e-04,4.442889860153602204e-04,9.417554573017943714e-03,9.364638661038105980e-03,4.380721484631989321e-02
4.132641552301250659e-02,1.151259134267147190e-02,4.578093846144926787e-03,1.387419827889018603e-02,1.011952157673631330e-04,1.438070290481930778e-04,3.771891768198277865e-03,2.067656497706721330e-02,9.421099976325501835e-03,3.905097095340515773e-02
5.925137941712014383e-02,1.976615857860630071e-02,4.801109646288334587e-02,1.388264278301677701e-02,9.805817580669389834e-05,8.507832252325420652e-04,8.181732722840744446e-03,4.178362215582941130e-02,9.085574670407790820e-03,3.424041912691926787e-02
5.447381078539447613e-02,2.122328728244396445e-02,7.562541255063655321e-02,1.298070841166873782e-02,9.486757492196771092e-05,2.518113396681408850e-03,2.294696448588958663e-03,6.329793451484228006e-02,6.948564727011249768e-03,2.768989831385757633e-02
6.706960376858500661e-02,1.006417548301013001e-02,6.908640770012706989e-02,1.221319517432766476e-02,9.294290258198109785e-05,4.462906682475655841e-03,1.195945548081183731e-02,6.472422021279922166e-02,3.864929984535022973e-03,1.919194971750754972e-02
8.721563367166305925e-02,7.396242819599612058e-03,5.045508246934095331e-02,1.172201319887506560e-02,9.187758795568941263e-05,5.347902306188843241e-03,2.678114187990387682e-02,3.958432392797350818e-02,2.658060182509231970e-03,1.158058763152898518e-02
7.569418191086059455e-02,1.725797286178074735e-02,4.480741435080958651e-02,1.118007911168281826e-02,9.090636126576595968e-05,4.915284553953257196e-03,3.848982449448567350e-02,8.620718603787396253e-03,4.243692071112991661e-03,6.577150650667129041e-03
4.425169161343517343e-02,1.378982596800754079e-02,5.660720924225296630e-02,1.052512327660379624e-02,9.012021047542621583e-05,4.161174812590965125e-03,4.607741876846466883e-02,1.368227755976515400e-03,6.328112351433684557e-03,4.139457609902226845e-03
4.427333777483418581e-02,4.994108259658467178e-03,6.479884760056676962e-02,9.906620961594225783e-03,8.963841645106396640e-05,3.780512547654381241e-03,4.859869220262444389e-02,7.349383774918884400e-03,6.738136447391003189e-03,3.403176165774176882e-03
7.107447585924059341e-02,5.289150399536263723e-04,3.825622260227981575e-02,9.358626474821982177e-03,8.904304017737091890e-05,3.580744051839872960e-03,4.862316018964354253e-02,5.352230134561082250e-03,5.896675213151465755e-03,1.915656085520350740e-03
5.883592827380045021e-02,2.901424844640470191e-04,2.857112643557722237e-02,8.815099628178486510e-03,8.820725875631282181e-05,3.302497930434296174e-03,5.142515304586463276e-02,2.306468616338844257e-02,5.303505449022362719e-03,2.157681064974145690e-03
6.366550733467304587e-03,5.752801834864546514e-03,9.718721361906196288e-02,8.262140084208063548e-03,8.756773745879505000e-05,3.005648460668133501e-03,5.729657931154127914e-02,6.178010739895485604e-02,5.294300486713674619e-03,7.295426624804451053e-03
5.502922028964284118e-02,1.941682847875907808e-02,1.213714198950190115e-01,7.732823269411640346e-03,8.679843998631112936e-05,2.721093529901774319e-03,6.129729019732309270e-02,9.207620248572936927e-02,5.094260666551142167e-03,1.257457629287100746e-02
5.137817474692681075e-02,3.265887877568510872e-02,9.562428319376424513e-02,7.235892640812605948e-03,8.466124269648574630e-05,2.449965280806933824e-03,6.263773621207778530e-02,1.163539975143750016e-01,4.348156908082685158e-03,2.079073055836516692e-02
4.965374823825950690e-02,3.295977586296252454e-02,5.019668925280865168e-02,6.757290730312085110e-03,8.164838130328458908e-05,2.364271275933548400e-03,6.505657069515019542e-02,1.404592499464900890e-01,3.890603037001619940e-03,3.130459576979967989e-02
8.893114415052882915e-02,2.044206668899486989e-02,1.200803570170967151e-02,6.293565333847126256e-03,8.016058890845506038e-05,2.408618129892994321e-03,6.508579920703236321e-02,1.527524299505585714e-01,4.363499362714349725e-03,3.487723136396956441e-02
1.215347880385802687e-01,8.089957261159613083e-03,1.094612917133491216e-02,5.851573043794254352e-03,7.896237265554672776e-05,2.048496918010098838e-03,5.217757476866856370e-02,1.395807561525713170e-01,4.271176967682963066e-03,2.472284340277817669e-02
9.424814162232021675e-02,2.609063373457776863e-03,2.106014361038881233e-02,5.432857061238959354e-03,7.276387842683130949e-05,1.150161303060983449e-03,2.663295018662224095e-02,1.119023922752044875e-01,1.424095074773968923e-03,9.258289189682127052e-03
3.125153955849160892e-02,3.117554969188412062e-03,2.638683691367250950e-02,5.033630107583342284e-03,6.401433375976235489e-05,5.645787385644897727e-04,4.604685810539228472e-03,9.726229143850174952e-02,3.024239627159747926e-03,2.789813002141012556e-03
3.905439422014543235e-03,1.378031673110785039e-02,3.772892992697991776e-02,4.652133235461493321e-03,6.405563989939853367e-05,9.294203485815831153e-04,3.176308610723677442e-03,1.047670510304643671e-01,4.839726988465963518e-03,4.547610994736503778e-03
9.679035858621683197e-03,2.059378840593460366e-02,5.860106190006545562e-02,4.288784057715403115e-03,6.798405007299935436e-05,1.609859692082880531e-03,4.437171196227681844e-03,1.144362978373310025e-01,2.339978677067725173e-03,5.346015253658714661e-04
3.140339606040839365e-02,1.305556762834238910e-02,8.104989216324552659e-02,3.942790826372312429e-03,5.155163936861352210e-05,1.731250981154547949e-03,8.353760244455945075e-03,1.082574352616027108e-01,1.256179715083704986e-03,1.204507905974784229e-02
1.386458199755143117e-02,7.170280197809456545e-03,9.717986723884884659e-02,3.612109033117485817e-03,2.476084131529211139e-05,1.410107441562628763e-03,1.000306009553629527e-02,9.726524721001918172e-02,2.497730156351327807e-03,1.792391063404833937e-02
3.644412119544029188e-02,2.951941829446506557e-02,1.109739312473856931e-01,3.295095570537933359e-03,3.987057821466960820e-05,1.207323824616647698e-03,4.600049716868750277e-04,1.039402075042355211e-01,1.714200331947184509e-03,5.906368373330536138e-03
7.045642932303802786e-02,4.600247182969394860e-02,1.297722465912506395e-01,2.990611553607259651e-03,7.713789507472397792e-05,1.190176383665948225e-03,1.990856244640811998e-02,1.257308765583273202e-01,1.011173439681108989e-03,1.658216377517471654e-02
6.615982732971499580e-02,5.443313383004796252e-02,1.442311248977659055e-01,2.697314846365154745e-03,2.460297110311137261e-05,1.113541710031958369e-03,4.263746268336520567e-02,1.342350448414829089e-01,9.745392949488163080e-04,3.599798936595421245e-02
5.342360184478870538e-02,5.330960679642211819e-02,1.320126497022416634e-01,2.413686313626504064e-03,7.844432468412302197e-05,9.359963369108450625e-04,5.610426533951391043e-02,1.135333382260086399e-01,9.059731433721734213e-04,4.816425204275159855e-02
6.118496403217699858e-02,4.084140698981215262e-02,8.873420860030095669e-02,2.138434179466964982e-03,1.095761015367873492e-05,7.687570316093846100e-04,5.113034503919621637e-02,8.254330406723778268e-02,5.466674257809266049e-04,5.668581563976108489e-02
7.508852319339816284e-02,2.125564757611850611e-02,3.817646182842145131e-02,1.870513932974011062e-03,2.247446209605154580e-04,6.316100820534627713e-04,3.151168819208485100e-02,6.914210446064562865e-02,2.101073554981784880e-04,6.366993192412953584e-02
6.209431686349596580e-02,5.294246077288827963e-03,3.243990076286248567e-03,1.608973738372826076e-03,1.465039406794463076e-07,4.724949844663326793e-04,1.527293010046642044e-02,7.647268670213434871e-02,2.086990595732133484e-05,6.694818723077312905e-02
1.274272010694509072e-02,3.604093524629185634e-04,1.479379397779521932e-02,1.353056954811873713e-03,7.866882764154978181e-04,2.820318467809680685e-04,1.586192302358190379e-02,8.624614222426621457e-02,1.644707551180152653e-04,6.396275767343459484e-02
5.142145681210349983e-02,7.401483827016771405e-04,2.375482432309116571e-02,1.102353792084825607e-03,1.264987154071257891e-03,8.579098786956306497e-05,2.629514464705092966e-02,8.279447892534513853e-02,4.043832992012275627e-04,5.611610634275121523e-02
9.817537018888491951e-02,2.632594188319571562e-03,2.736324498580203907e-02,8.566372118712437932e-04,7.966671528123930911e-04,1.094674535321280050e-04,3.168914959495544581e-02,6.699141919619761021e-02,6.308631333545534816e-04,4.991850071990237142e-02
1.080538218768208186e-01,5.673866307131768434e-03,2.708857302851624266e-02,6.157144184076030055e-04,1.993637247666721964e-05,3.128943655625641366e-04,3.181644654946719220e-02,5.556185463968444510e-02,8.141116988128085756e-04,5.129290546062949957e-02
8.562268460892956401e-02,1.327870550756422505e-02,2.267891135007693570e-02,3.798151961467855896e-04,1.954753015591561671e-04,5.244216105258529218e-04,3.753848047537032551e-02,6.146365635569769892e-02,9.840313027393297104e-04,5.499350484561413288e-02
5.024404596651126098e-02,2.300701476380616339e-02,1.201015781294454202e-02,1.498668637564826980e-04,2.730427006465849726e-05,7.359056542170796210e-04,4.784076456629201418e-02,6.903520829163414807e-02,1.153424541216522452e-03,4.620413392431926836e-02
1.580412993737353999e-02,2.631127831973553710e-02,3.722738293767637562e-03,7.334942604085591990e-05,1.250685654348278547e-04,9.430145148565913281e-04,4.693935932387734156e-02,5.012877309734570241e-02,1.307032167353390333e-03,2.136576996293522088e-02
1.524965206400365897e-02,1.865915034597338470e-02,2.161986207596942877e-02,2.898172628061706992e-04,2.962566316293063166e-05,1.144953404298992058e-03,2.823508409547262690e-02,9.751502882138050540e-03,1.437399676275215527e-03,1.531882521129306410e-03
3.862656026178632601e-02,6.036225603600037237e-03,4.298235030358765751e-02,4.985540461716932159e-04,1.617153582590634466e-05,1.339018282296833458e-03,6.920592437358246557e-03,1.904857947608637470e-02,1.550485289305153502e-03,5.974793250597697919e-03
4.728944798464679300e-02,1.085011293876042083e-03,6.403833704569843188e-02,6.963349627320810720e-04,2.688014613502574864e-05,1.520784640232601161e-03,1.212441462653904636e-03,2.921162720473655106e-02,1.648967737342775909e-03,1.520569847815057135e-04
5.177694938465052937e-02,2.088729436085008054e-03,6.536859533669696354e-02,8.814522106706400208e-04,4.675774768314529565e-05,1.686787706934663508e-03,2.394241814957246729e-03,4.571752713934967849e-02,1.729445310049432119e-03,2.978303776783909618e-04
7.386186946007948506e-02,1.030915096437963301e-02,3.136051991811566325e-02,1.056640790522454972e-03,2.367991466919374674e-05,1.834591996579615922e-03,1.155384091855821485e-02,7.401450312711611856e-02,1.790240760126718747e-03,6.338806639705222602e-03
1.060932973691093295e-01,1.256528032471949247e-02,2.213282920070910181e-02,1.221245892446112813e-03,9.894388021910467391e-06,1.961656834393470106e-03,2.533770365386668957e-02,8.648874961884710222e-02,1.832826359260736251e-03,4.020804881845696510e-03
1.119874587854998993e-01,4.338927766485678114e-03,5.997228769377654228e-02,1.364901535329093082e-03,1.542103900764698661e-05,2.065401127444535957e-03,2.698682213404674998e-02,6.677430951838042583e-02,1.858200309146799045e-03,9.257058323686595189e-03
8.019859569084282491e-02,5.500348273570600591e-03,6.512947058068306594e-02,1.484227190792593385e-03,1.605466539411305458e-05,2.143835364263183170e-03,1.178734905234769814e-02,3.093992855646504614e-02,1.866180567759423078e-03,2.336378166051339064e-02
4.138095833880190560e-02,8.006698439130082584e-03,4.847906980003601624e-02,1.596897328511155678e-03,6.956361666245280913e-06,2.195625361140801819e-03,1.044648404689971742e-02,1.303540108497724644e-03,1.857088043235919847e-03,3.283567881750432127e-02
2.246851781060534362e-02,9.565069373121848351e-03,2.816083217601081726e-02,1.706483703998269794e-03,4.400598951642906436e-07,2.219867730650570796e-03,3.124187612954973381e-02,2.656377668009922421e-02,1.832089773105558591e-03,3.906249096401480381e-02
1.981170919666166985e-02,2.048550825219173574e-02,1.343168692175261345e-02,1.771619047105184004e-03,3.563541272019121406e-06,2.216110486094746788e-03,4.370292272240560577e-02,4.057054846416453808e-02,1.792408134036107409e-03,3.861799354561201020e-02
2.193854396078452271e-02,3.427275100126271623e-02,4.462345553676057633e-03,1.780395784773704075e-03,7.568590727719826997e-06,2.184492945996990062e-03,3.535363133711728889e-02,2.578867074732728304e-02,1.739130013569701759e-03,2.444164779363001624e-02
2.859217868529831050e-02,3.520422147702564203e-02,1.729658259199981594e-03,1.818269949309815831e-03,1.355598076704814165e-05,2.125752842106950861e-03,1.513489512662014643e-03,2.486831821640068246e-02,1.673531756978734707e-03,2.524152100086184992e-03
4.013929809065137216e-02,2.207086868224713075e-02,7.039139231074534320e-03,1.911030374428958085e-03,1.896538730882498452e-05,2.041156165990414689e-03,3.991267962244463008e-02,8.511466849654905631e-02,1.597139721563427088e-03,3.475063342470557232e-02
4.557518121426319679e-02,9.038829961742154626e-03,1.321297473841069429e-02,1.875737300518886402e-03,2.309973970591537286e-05,1.932468657177571813e-03,6.569644675407841639e-02,1.191738824347020748e-01,1.511577888665593429e-03,6.928292082913925509e-02
3.038827621375190385e-02,6.537494968395876106e-03,2.132257133714041825e-02,1.652388759240589530e-03,2.701256764008049341e-05,1.801945043817141864e-03,7.303168064486777189e-02,1.218287261153305628e-01,1.418501171739469397e-03,1.052448063624823876e-01
8.136482370484180229e-03,1.272999372556880143e-02,2.340041037437857671e-02,1.631626818772593298e-03,3.092313830301109459e-05,1.652281192862080925e-03,7.297058365550602999e-02,1.135234542033289329e-01,1.319548639156731262e-03,1.321161148386361672e-01
5.517818923823782085e-02,1.984502474353406348e-02,3.303933935673208835e-03,1.952804119495165540e-03,3.424036256805007718e-05,1.486541243151353296e-03,6.888790163846775227e-02,1.050648984369048633e-01,1.216321313679208935e-03,1.352618985808946295e-01
8.331889449989020313e-02,2.110772351610118794e-02,4.075063830138189042e-02,1.768294390050675468e-03,3.677579872919984499e-05,1.308087498716187583e-03,5.731840164777896041e-02,8.834877153847374431e-02,1.110519001345184080e-03,1.141558280741039738e-01
7.409994577296424856e-02,1.623472527632774040e-02,8.323520493319984392e-02,7.488821439115135419e-04,3.874925505838304224e-05,1.120510060666048699e-03,4.150933731782370517e-02,5.601061433217415647e-02,1.003931125720730058e-03,8.256693052986645298e-02
4.721936691215618959e-02,1.380873676488069551e-02,9.603806916651999592e-02,1.108925644261467497e-03,4.022195534606039181e-05,9.275457309268049727e-04,3.078357490107417813e-02,1.885576627091980345e-02,8.979888965117716754e-04,5.175698978448912274e-02
4.386814069435285984e-02,2.070711091247914512e-02,7.863841793383412326e-02,5.353782173322715193e-03,4.108702494353823033e-05,7.329902715713169621e-04,2.956667995992781975e-02,4.691784232296223114e-03,7.936656203882113281e-04,2.601229593044599928e-02
6.521056087018571590e-02,2.905897030033897932e-02,5.159145921725256934e-02,1.147970826540578235e-02,4.133477272504947547e-05,5.406119176094438105e-04,3.250301360606578510e-02,3.227254909257895599e-02,6.923744380150037656e-04,1.127612242769261350e-02
6.809470396426098304e-02,2.524379242736004766e-02,2.854300755007046705e-02,1.381358960802524238e-02,4.106061821909967510e-05,3.540673516664905886e-04,2.886347014576352843e-02,8.309858849270256032e-02,5.961361239974035308e-04,1.330306963015125826e-02
3.748606422617638267e-02,1.043744693047143207e-02,6.851093698020448673e-03,9.939638944549954516e-03,4.033934742577819092e-05,1.768194838928955769e-04,1.289727147532836529e-02,1.164729651351379403e-01,5.055854456591396019e-04,2.785694940006920237e-02
9.750529667476403109e-03,1.209537957689776119e-03,1.757600127750469712e-02,3.724144915460269201e-03,3.921573100430691462e-05,1.205941830935490207e-05,7.310160711116960898e-03,1.139768720113907979e-01,4.195001155087690046e-04,4.327167294022524202e-02
7.565523893747038396e-03,2.980678907620122782e-03,3.741873223510033125e-02,1.167741093132113593e-04,3.776122756045348562e-05,1.373642465521011176e-04,1.593008112754151079e-02,8.935023056985724743e-02,3.390080016203408692e-04,5.113040875835408311e-02
7.755903189760928948e-03,1.478973286917316908e-03,4.345095151287838020e-02,2.484027612198548346e-04,3.608074707117435936e-05,2.690072599665133037e-04,8.609102273804925334e-03,6.073950732259011248e-02,2.686737514200221596e-04,4.846532018969304523e-02
8.393229908665058442e-03,3.168724165173662875e-03,4.255811328167309615e-02,1.739321908544907546e-04,3.428204590675800389e-05,3.808818350929285253e-04,1.860173363680787430e-03,3.622402668709467227e-02,2.075219605156297144e-04,3.494847247893242276e-02
2.519222011038069545e-02,5.739473956307525500e-03,4.932918682085494361e-02,5.583682847925316300e-05,3.245865208244878792e-05,4.714977469762236350e-04,4.926425072795042465e-03,2.212509525360181750e-02,1.464782067684816387e-04,1.448420822714853451e-02
3.153426257801714150e-02,4.750033112424412521e-03,5.593668619618547694e-02,4.893853853041545262e-04,3.070162050876539884e-05,5.398911870445734316e-04,6.929010320883129299e-03,2.824030357971603691e-02,8.748576554789845019e-05,4.985226822598512464e-03
4.044551739915257238e-02,1.096889123208029046e-03,3.465132407526574226e-02,6.112227280913459185e-04,2.912494115196087704e-05,5.856407627198583106e-04,1.725193190690002543e-02,5.906906936642733474e-02,4.949466772220643572e-05,1.911102465955791252e-02
4.963791687219078902e-02,2.497625092036946486e-03,1.844941724677832615e-02,6.419559118323584683e-04,2.785385026341208908e-05,6.088704498800172078e-04,3.015274269441071617e-02,9.692478004335604302e-02,2.782901689302402868e-05,3.193040714520898465e-02
2.943014485533040556e-02,6.720958650563614231e-03,6.886637356502928187e-02,8.253783411197501609e-04,2.696361756643286353e-05,6.102394825991063441e-04,3.245488232087347796e-02,1.045148011436475427e-01,1.961397173585918132e-05,4.881625429726565990e-02
2.886989280274662034e-02,1.233763362318515515e-02,8.555734795362997247e-02,1.014358850220106268e-03,2.648492127201144297e-05,5.909194346254480158e-04,2.335767554662348394e-02,6.848194853757154366e-02,8.588650929805503398e-05,6.684703032636679643e-02
9.088283934402771602e-02,1.613098020993298728e-02,7.207375126301236723e-02,1.070191658655932597e-03,2.652615509458930811e-05,5.525591253831343150e-04,1.539094152524635335e-02,3.115447606669736330e-02,8.318966483265643553e-05,7.726786165374666115e-02
1.194756452223887794e-01,1.393191625597733733e-02,4.797403020457755018e-02,1.154283485085040367e-03,2.726277842988765801e-05,4.972383016584524477e-04,1.736924364299085449e-02,4.308466091351102062e-02,2.665750006469931079e-05,7.665897566318445600e-02
1.062397477734452894e-01,4.883145642114603002e-03,2.432980195679753863e-02,1.382130096328588412e-03,2.867017068614425662e-05,4.274112848039735273e-04,2.514793504224262927e-02,9.207468727335123282e-02,1.070007186716656882e-04,6.816711249766296832e-02
5.880649398186189175e-02,8.166386660399005751e-03,2.900867955225894159e-03,1.477482048498281793e-03,3.053206942474362157e-05,3.458420008387655940e-04,2.993668290965146445e-02,1.185581255307122384e-01,2.996765703129164893e-04,5.115749678405333983e-02
8.455585595038093288e-03,2.070298162341786125e-02,1.980945966068730149e-02,1.272280253012274091e-03,3.300698229577973949e-05,2.555320283645328284e-04,2.785150002098706751e-02,9.281390494288695170e-02,1.989132404034261677e-04,2.194090210681098191e-02
6.117790070642843692e-02,2.826248471792502590e-02,4.659894764375108189e-02,1.327136705598081510e-03,3.662307479647710880e-05,1.596434668914211439e-04,1.881258976080743897e-02,4.085150246796101503e-02,1.495737944183646003e-04,1.144106004556001352e-02
5.786587362149105129e-02,2.613827833253330388e-02,6.360181495572556076e-02,1.999013432634340250e-03,4.106690924596655964e-05,6.141853858483033971e-05,4.304529992425068854e-03,3.280270666902783058e-03,1.426594265551043661e-04,3.004303132166734683e-02
1.335029519047344765e-04,1.165090048021340773e-02,4.298937854869398084e-02,2.049866178514091544e-03,4.516196732084980085e-05,3.590209665884123931e-05,9.381181560252842971e-03,2.344308294982982294e-03,1.003836242970836731e-03,2.629530136011103830e-02
5.787123134548850800e-02,9.380489974625691452e-03,1.950077491098053603e-02,1.255176830324988444e-04,4.945580012823902135e-05,1.291603090888057551e-04,1.302228117317777260e-02,1.486581042316557910e-02,1.447993908304844924e-04,1.274605652078005316e-02
6.948239186725267691e-02,2.439102270880954756e-02,8.533911548965918137e-02,2.312296582046219524e-03,5.633586299540373080e-05,2.153587733863205819e-04,4.446131867610643787e-03,3.345926357369252702e-02,3.781909666893120553e-03,3.086126882479842039e-03
4.386865639155243524e-02,2.677566071899508890e-02,1.121461415700065328e-01,2.293754270876109582e-03,6.451082312308759764e-05,2.917346510120403733e-04,7.870161287055910809e-03,3.671040337713465246e-02,7.655650497993654081e-03,3.872493156234601934e-03
9.737907548888063980e-03,2.101424397019825696e-02,9.721225586695658727e-02,1.921451058036015140e-04,6.862361565454933726e-05,3.558269057779919493e-04,1.353299871079182044e-02,2.228987178442216194e-02,7.161014580218567904e-03,1.483072566605358154e-02
2.419790020593612367e-02,1.472566482807445565e-02,6.633379296157662641e-02,2.168450734910093002e-03,7.103272167964573775e-05,4.055356428851600911e-04,9.844121039204727086e-03,1.287632280759563527e-03,2.910806846554310750e-03,2.614210933614674257e-02
5.311226249169447716e-02,1.198034931496566417e-02,3.737877576300218524e-02,2.150542632795026960e-03,8.295236663235907649e-05,4.391720656888847677e-04,2.936259859269768277e-03,1.026303723685536781e-02,5.572160217646387288e-04,2.718845913492791075e-02
6.427140283410701094e-02,1.165875409418860344e-02,1.161417293679352196e-02,1.530157641543418521e-03,9.932885353511439436e-05,4.554978824661695485e-04,1.220723812658874386e-03,5.858370536721181285e-03,1.075471438314485771e-03,1.617945008566069529e-02
5.812496975523746140e-02,7.965037216203554524e-03,1.323793730739016537e-02,1.595492903474406404e-03,9.575722663477092547e-05,4.537532606842149818e-04,6.703724875355330202e-03,3.035860837371130369e-03,4.138092415255398651e-04,3.604964784207527473e-03
4.269680216780717685e-02,2.326352246890860467e-03,3.707751911234146575e-02,1.910504148908631888e-03,8.206405912034520826e-05,4.336727119370734399e-04,1.230137366870697607e-02,4.662607639953262294e-04,3.860894206853830637e-04,3.745397998151163855e-04
1.149479533749481544e-02,1.256359166256208922e-02,5.771724400567855573e-02,1.814683243549970867e-03,1.103040926550418214e-04,3.954885900734266902e-04,9.089120674685164519e-03,1.984553677776263250e-02,7.654027261899442117e-04,9.249768023489778057e-03
3.381240349196851236e-02,1.380650994848223873e-02,6.932913704554612144e-02,1.650601998879413883e-03,1.605365542609000031e-04,3.399221907351278760e-04,3.552778050294013237e-03,4.440982009386894303e-02,8.587257265818544309e-04,2.553554466370079601e-02
6.253411062963384892e-02,8.069345111803257961e-03,6.849246085222071567e-02,1.914579164600160562e-03,1.206405589988765356e-04,2.681627448676916813e-04,1.615282399762613813e-02,6.124844737404280121e-02,7.654356699940560770e-04,3.806251481860131042e-02
5.423686891413586481e-02,5.226322195135864324e-03,6.562120098261302326e-02,2.124281836036835680e-03,2.972483467727425306e-05,1.818348942621391057e-04,1.946250469713942458e-02,6.557827728807026635e-02,8.026658898493039835e-04,3.420289192801490713e-02
2.752599670098852119e-02,8.524525927909708950e-03,7.524569375702121199e-02,1.637934721531189358e-03,1.305006171483603027e-04,8.295551671909328869e-05,1.567656307915371583e-02,6.433887641950294944e-02,9.257213309341340551e-04,1.466275688260054548e-02
5.678135621035222333e-03,1.159516923369375251e-02,8.662244069993139950e-02,1.374429487929556279e-03,3.547179812792168986e-04,2.611897476597153575e-05,1.334506477413682432e-02,6.477073621756682109e-02,9.843355431111721655e-04,3.185052973904990356e-03
1.079928740060294608e-02,9.457357419648851696e-03,6.570849847828728885e-02,2.586619657726909032e-03,1.393136512987098010e-04,1.427535065294899220e-04,1.207019341652178224e-02,5.920989471915227842e-02,9.961300047708423772e-04,8.499081579507065942e-03
2.526461783827068860e-02,5.532303999657515320e-03,3.362514505282731929e-03,3.265955543689939497e-03,6.387687692154227562e-04,2.641018467304219811e-04,4.261088028989769468e-03,3.604638562378337241e-02,1.030203912399885180e-03,1.341644289650231921e-02
3.463015704600316824e-02,6.769132423475001346e-03,6.129006336756573359e-02,7.311340802264470508e-04,1.110057163550495427e-03,3.871790355123535025e-04,7.746702663923721831e-03,3.865348034252509904e-03,1.077765973110508899e-03,3.232310303978245397e-02
4.628918224079071886e-02,1.650984540756966767e-02,8.580156858905998996e-02,9.045800784432931479e-03,6.363558833769665350e-04,5.089369305225674000e-04,1.194541575728798322e-02,1.391926761794136033e-02,1.105093585284285581e-03,5.635835653332840756e-02
7.196612649914686799e-02,3.147989851064865452e-02,7.030792296575164024e-02,1.540621434729319214e-02,1.447523602123696428e-04,6.263409885088743346e-04,4.469670489124537988e-03,5.688036966965863764e-03,1.114786989476458439e-03,6.432108973300676436e-02
9.321245445716974665e-02,4.090156721913833920e-02,4.142746573075863081e-02,1.507988315194156576e-02,3.637537526560916112e-04,7.364463832190618195e-04,8.015928367690678541e-03,2.121256639619639728e-02,1.121750245170340544e-03,5.029765123934660381e-02
6.598363787723145191e-02,3.218985427002390293e-02,1.482369560613212324e-02,9.689351406336445954e-03,1.423491961600462162e-04,8.364715860594751275e-04,2.083185504857178530e-02,5.266500453538671550e-02,1.124241963239287594e-03,2.736844946085809777e-02
1.676743207964285706e-02,5.486741440501726949e-03,7.769911818272372608e-03,3.517023771359972621e-03,4.323935308131612127e-05,9.238676080426382487e-04,3.125462783000002714e-02,7.563755027675136966e-02,1.114789537089441425e-03,8.682483923422211480e-03
9.541806717064045540e-02,2.143929079352803815e-02,2.376781195791788370e-02,8.120564318053307687e-04,1.377321891055853596e-04,9.963812174660139059e-04,3.237685404169560188e-02,8.141493364635273011e-02,1.093893465122063122e-03,5.633282251980408634e-03
1.102457259801176009e-01,3.108764728360376844e-02,3.207791667058402379e-02,2.634067432513768209e-03,1.843041989390161286e-04,1.052110604445924717e-03,2.207173131854699849e-02,7.003753662921671785e-02,1.065093888593317013e-03,2.121174111487301658e-02
7.346280950543133959e-02,2.369565478983490930e-02,4.182971043805788075e-02,2.633543522741614226e-03,1.373807879143044551e-04,1.089552156827863338e-03,1.098454133964591080e-02,4.916982560718258233e-02,1.028496770402839017e-03,3.375783969123156286e-02
3.642407807847729273e-02,9.443220480981817308e-03,6.148195706414499861e-02,2.228088129624191185e-03,1.063018791755649344e-04,1.107637237173431360e-03,9.335637770723836243e-03,2.834005508212378288e-02,9.830020430248724746e-04,3.043747652837424170e-02
1.142611847028452560e-02,7.852318452996519260e-03,7.932518907479541026e-02,2.228939657612229956e-03,1.247728818819730367e-04,1.105758101797941042e-03,1.388848919808142839e-02,1.692395294580787551e-02,9.293531066839029811e-04,1.093974296156909748e-02
2.485936547149070891e-02,2.824655266383866575e-02,7.040226848289338202e-02,2.397034656096010564e-03,1.470807481465708530e-04,1.083782373903273725e-03,1.671681788611356981e-02,2.206801942538846178e-02,8.691156511797225055e-04,5.342618078121443709e-03
6.930020072619533233e-02,4.444767776929468839e-02,2.880922312738692231e-02,2.381370317132687573e-03,1.341232496999086887e-04,1.042055766966416873e-03,1.732027938536797457e-02,4.208121634027122554e-02,8.032164511179723390e-04,2.282634865243183056e-03
8.821495279767271880e-02,4.683709338353821833e-02,2.026984879976130235e-02,2.271642867820755727e-03,9.590485328741054608e-05,9.813930446685855628e-04,1.927415839582352977e-02,6.545944788415190840e-02,7.323776688948188587e-04,1.371207664658986684e-02
7.114600629176334734e-02,3.635515951085007552e-02,4.808192860562332527e-02,2.230262863908363032e-03,9.953990967060075156e-05,9.030574926352578609e-04,2.357365449693392054e-02,8.115071639584763019e-02,6.577757793787569361e-04,2.547550704341085270e-02
4.322373596300439075e-02,2.039682899584235529e-02,4.984671640438742557e-02,2.217594141629477926e-03,1.660919521050411218e-04,8.087294580206521146e-04,2.925946421319430488e-02,8.615368060661791894e-02,5.808118001690991449e-04,2.582893225551090646e-02
2.345759916027425826e-02,3.878435590671028537e-05,3.881829261861806379e-02,2.157289033795460522e-03,1.612390533673983427e-04,7.004647786659524977e-04,3.335901631276259882e-02,8.019338714886020680e-02,5.027624304288294283e-04,1.885160067515284643e-02
8.316923199323766197e-03,2.565070530132406226e-02,2.565823098600451824e-02,2.067285358964712858e-03,1.739071358383509575e-05,5.806441677484209000e-04,2.994049139481997496e-02,6.046539968779174323e-02,4.248437541804516489e-04,8.593426685130889017e-03
5.625356383189095665e-03,4.725244477090784906e-02,1.271042604409723838e-02,1.984170472065516395e-03,1.779826668680146849e-05,4.519148366384180874e-04,1.647376054330108863e-02,2.916052791326764759e-02,3.483345996132555886e-04,3.852056752027078600e-03
1.793383279134979497e-02,5.167502692460571034e-02,2.617322651255978884e-04,1.900904765737539050e-03,3.346745220358430216e-04,3.171258229151416525e-04,1.198926475457907752e-04,1.333220495614703335e-03,2.745071726934307423e-04,1.452938731726823723e-02
3.634276111278710031e-02,3.925359268578543920e-02,1.089652357585314812e-02,1.801452908810963378e-03,3.360513141284251202e-04,1.792586378066022212e-04,8.213615232418721920e-03,3.965802625624161026e-03,2.045280928284932010e-04,1.834506983173309763e-02
6.096560138245667865e-02,2.250840592237212875e-02,2.024546267245186729e-02,1.690344426149421181e-03,6.632125715104256192e-04,4.135495428977487096e-05,5.265576611668677624e-03,1.788484208541007286e-02,1.394511892505071284e-04,1.887129737757398465e-02
6.885118557272357220e-02,9.646423012490119506e-03,2.842756447994032251e-02,1.576788652147863247e-03,1.916147041462266335e-03,9.355687870528573606e-05,2.321327227468897650e-03,4.982188560705558961e-02,8.022813707472229187e-05,2.581709165519376070e-02
4.037367069668954672e-02,7.924822088163968516e-04,4.046476178969316689e-02,1.460605961447645476e-03,1.915250424488726356e-03,2.225346904554513657e-04,6.422672795505965718e-03,6.498325705144215869e-02,2.767959554574853012e-05,3.947300783360901955e-02
9.126034525850050885e-03,9.064065212276900541e-03,6.012208388337834247e-02,1.339460875691092989e-03,6.607217814925574802e-04,3.427929297365705759e-04,6.248989081779866665e-03,4.850748934500451887e-02,1.753859005280484140e-05,4.945024694706358359e-02
3.812396466426431346e-02,7.830436863758035229e-03,7.232330646214754633e-02,1.215496233212416547e-03,3.395450203497497876e-04,4.517689798815911935e-04,7.484686541183668135e-03,1.102933105601727748e-02,5.494517879608141185e-05,5.062399049104567700e-02
1.862602066242002516e-02,6.636628444032038887e-03,4.920217577021776534e-02,1.091974057932486612e-03,3.388410146973700474e-04,5.471837437852628949e-04,1.338549102054274915e-02,2.112360765977280494e-02,8.423429525442231790e-05,4.724495767591448125e-02
3.263961963234446317e-02,2.235373021084289744e-02,9.514693716054820755e-03,9.700848219672637482e-04,2.323812463559467474e-05,6.270950433644039042e-04,2.118717352035314611e-02,3.013810721217366484e-02,1.052826095137367906e-04,4.143047141568104164e-02
7.164449852202960101e-02,2.300348213095747274e-02,6.448774716420356545e-02,8.504575643705371670e-04,2.398612896886494244e-05,6.899425612585838004e-04,2.830722711394912175e-02,1.725469374551055757e-02,1.181565318281123768e-04,3.090035771332320935e-02
7.935770943685734047e-02,1.092940366223551368e-02,8.353331471891624338e-02,7.346256033385488611e-04,1.663995535073096923e-04,7.345832661073196891e-04,3.499568361891915863e-02,6.986897033932036594e-03,1.231074556165211132e-04,1.721696091997046082e-02
7.195518761178845701e-02,3.590920314510651079e-03,7.578791404654290631e-02,6.242495506484681267e-04,1.683997350573303363e-04,7.603165011759589450e-04,3.856697817018929497e-02,3.151302087415217001e-02,1.205563304866617347e-04,4.829926629474274799e-03
5.320638901964735989e-02,5.105922988889755390e-03,6.444741360028818922e-02,5.203861220936887438e-04,1.027817835043917953e-04,7.668981734500682343e-04,3.402522985735550315e-02,4.524339430599356310e-02,1.110830033676461618e-04,6.742424419120302166e-03
5.738401169469449069e-04,1.225006386160571890e-03,5.288814605159947169e-02,4.239039935153129848e-04,1.013813863524938314e-04,7.545437501708886132e-04,2.326257318702636134e-02,4.256308310220723728e-02,9.542392039033695402e-05,2.091136762981432584e-02
7.809883381384127854e-02,1.098460920890040327e-02,3.328180118186895714e-02,3.357931269002021810e-04,1.318216627228608391e-04,7.239200454618393383e-04,1.406777386313241666e-02,3.149864972294849630e-02,7.445099558869391790e-05,3.602034993850467687e-02
1.198842799404260251e-01,1.254200629870031412e-02,7.611395539154383431e-03,2.567402512562399737e-04,1.319535365486156520e-04,6.761260544090293492e-04,8.572766175918265091e-03,2.793983261810111668e-02,4.912185805543325793e-05,4.636141835671290373e-02
8.021897237606218090e-02,5.618793347433196327e-03,1.453323639355394610e-02,1.869670035046639941e-04,1.161053046532467493e-04,6.126633589764076803e-04,2.359489255346568747e-03,3.833022120455310822e-02,2.045833122490806256e-05,4.958220822965465902e-02
1.665122085060947651e-03,2.417574484645516539e-02,2.937447126097109812e-02,1.268551998847611587e-04,1.134975097890010532e-04,5.353968829507647431e-04,6.295895253050634403e-03,5.167129579943338658e-02,1.042174062202529735e-05,4.799638991603462357e-02
5.182683063900100917e-02,2.421808035395262709e-02,3.985278746149329560e-02,7.701528839938674947e-05,1.177417436789694494e-04,4.465070055969464218e-04,1.587071943027970611e-02,5.103846978371878035e-02,4.233719564277831592e-05,4.441576661362973272e-02
4.477566242836949345e-02,1.178054560731126195e-02,4.316999929120997337e-02,3.704722520819905352e-05,1.150587543603829791e-04,3.484342502627313875e-04,2.662213737574301714e-02,3.254869520323705467e-02,7.419608106098067406e-05,4.041700156288634965e-02
1.977405985412862208e-03,7.236740158756391249e-04,2.559876320449167714e-02,5.489096586709592317e-06,1.082706841207530944e-04,2.438179398734588866e-04,3.779333830125310156e-02,9.555297272788034271e-03,1.050161820026436406e-04,3.599958143648664122e-02
5.010962111746985331e-02,1.409751048009943997e-02,1.970543327210319551e-02,1.757164103631265323e-05,1.038814995765227048e-04,1.354303519480519154e-04,4.410097926104637744e-02,4.158707200409153884e-03,1.336865577226705305e-04,2.794993365174577860e-02
8.119324878581951621e-02,2.849780605360305655e-02,7.401099729070580169e-02,3.035126917961899172e-05,1.006846032170312979e-04,2.610800817945110929e-05,4.072428150993590013e-02,8.309231614353150205e-03,1.590022145707335971e-04,1.306750256008397566e-02
6.117197004697096790e-02,3.199579583012306799e-02,1.077325830842771753e-01,3.487900740805423457e-05,9.567245951395304002e-05,8.131820456221357295e-05,2.895616162568474122e-02,7.717203470717407497e-03,1.802550628148222333e-04,3.429902996973975028e-03
2.372615043391878425e-03,1.912153113921493536e-02,1.113548860772957672e-01,3.737306680523923372e-05,8.944209457106922574e-05,1.840923650348869327e-04,1.574926368454828210e-02,1.680796918968813398e-03,1.972502697735241276e-04,9.064141049321985250e-03
3.780060683037039793e-02,3.919357482349720978e-03,9.739445925465908815e-02,3.643125736397331718e-05,8.349242473607478151e-05,2.796006057384716630e-04,9.244173389470606433e-03,7.971330831216818028e-03,2.091119353121565795e-04,1.116535933627554704e-03
2.030247931622580770e-02,1.168652654371570010e-03,7.783539944637055119e-02,2.186057034000426645e-05,7.765821067078422415e-05,3.654343275252301747e-04,1.208859973120979606e-02,1.019849703203204623e-02,2.142749594484573980e-04,1.691306869489231368e-02
4.158325828104737082e-02,8.730383177325733504e-03,5.493544327830133384e-02,2.169580077076134700e-07,7.134199186464254983e-05,4.394480132286705440e-04,1.837530434244036628e-02,3.028782049081109665e-03,2.130826810290618835e-04,2.509375162505392623e-02
1.158647616697718041e-01,1.784906148024918357e-02,2.947060165836024384e-02,4.300386278545468817e-06,6.472819615694483451e-05,4.998102530780105341e-04,2.085844098562152082e-02,2.747052246500264819e-02,2.079073958579590021e-04,2.333663619630130942e-02
1.789995864521151669e-01,2.647123683633364685e-02,4.949573411734133413e-03,8.667919650231175168e-07,5.821844801562697466e-05,5.450467681952825445e-04,1.952605826644389364e-02,5.431884357856603396e-02,1.976285711341620307e-04,1.759818410247294268e-02
2.080612014226792539e-01,3.411671458789507227e-02,1.583523851654854847e-02,3.573757315724978385e-05,5.185336548977136182e-05,5.740744208632283206e-04,1.845548182089299522e-02,7.546047616941295444e-02,1.772407714722759587e-04,1.140743576581733885e-02
1.836715873709385827e-01,3.527116364663618331e-02,3.202812585265207151e-02,9.318611241755742568e-05,4.556705662960816756e-05,5.862254263956697548e-04,1.783738082346848428e-02,8.138976574947930087e-02,1.496318184991772126e-04,3.930326584175175726e-03
1.100896135790421365e-01,2.511074305685730493e-02,4.271237990290794456e-02,5.841584883290410087e-05,3.945813539835177862e-05,5.812612256731427337e-04,1.473670099944158346e-02,7.036874042038089583e-02,1.267100148530998002e-04,4.236168840646439837e-03
2.104421952290767839e-02,7.544019267604327485e-03,4.700727215188130192e-02,3.027996153163244148e-05,3.367112046683286264e-05,5.593757336458395849e-04,8.802498975832981007e-03,5.891304634863871181e-02,1.042493986477011103e-04,9.462638699299431508e-03
3.848457391425217505e-02,5.258653450120621617e-03,4.632448077578094070e-02,6.919254615789797091e-05,2.826549659163458169e-05,5.211879410106154539e-04,2.783370045350357438e-03,6.464325673140076944e-02,5.878327978794384008e-05,9.463244168035558554e-03
4.879871580331913289e-02,3.535913632066974184e-03,4.412667508181625231e-02,2.880500214214357872e-04,2.326728454629817131e-05,4.677241073897401495e-04,7.436023974380311617e-04,8.117714105265547153e-02,1.191344998248220356e-06,5.810397916866747586e-03
3.860724489638168305e-02,8.492344110026438242e-03,4.237234892787707097e-02,6.267459141024697743e-05,1.872889860149684312e-05,4.003900382791237742e-04,6.910633074745614439e-04,8.993475906482206739e-02,1.532554955737147238e-05,1.799856652745497913e-03
4.996346621690587325e-02,1.706275003305503593e-02,4.015448966826171834e-02,7.302847885725384210e-04,1.470397781793743217e-05,3.209341786045154959e-04,2.857974525767107039e-03,8.898144202476204745e-02,9.558314913137273361e-06,4.365942737812290256e-04
7.736104318572595284e-02,1.653268690885795200e-02,3.712163271784598567e-02,1.221129766064380385e-03,1.121767172301281074e-05,2.314024770966011221e-04,7.952197859178502040e-03,8.603098992343385931e-02,9.251551469932239229e-05,8.597206596629893959e-04
7.371395768325267328e-02,1.363101965008748848e-02,3.524779913824438449e-02,7.714933263391083457e-04,8.277090216368701583e-06,1.340861725413256586e-04,1.023546669764191161e-02,7.485006319597463376e-02,2.239137738017825873e-04,4.333465577508663607e-04
2.533970064723099769e-02,1.163925502618330665e-02,3.461243856632459370e-02,1.940793264347165343e-05,5.884801475273867269e-06,3.146382057991075650e-05,6.279230964653631508e-03,4.678065249351569255e-02,1.598056121914692360e-04,7.216133824048463589e-04
1.284340223458072666e-02,2.129676893999160776e-03,3.112735298970795150e-02,1.657506508209437854e-04,4.034000443777466829e-06,7.386098583585054913e-05,1.402554544936239446e-03,1.483400567493544688e-02,3.255249312401802876e-05,3.401067109631113888e-03
2.057286929178285539e-02,2.111028973252366062e-02,2.282154643628971427e-02,9.236750556871413625e-05,2.702466401976983418e-06,1.792246511093744147e-04,6.851331969549812398e-03,4.441664165780682266e-04,2.092469070651684277e-04,7.135059461369427057e-03
1.137740070560107897e-01,4.858584755933399724e-02,1.502253995246052853e-02,2.298799351887297320e-04,1.855517694418192323e-06,2.819697559774019587e-04,9.800572004868477599e-03,4.201778302622981992e-03,1.007378019321827087e-03,9.169514995884713374e-03
1.906139842602526391e-01,6.315825205254829711e-02,1.412306720321126682e-02,1.777830056618303408e-04,1.450050886494280811e-06,3.795107502036058379e-04,1.483526292345975148e-02,9.600296046588964807e-03,1.491119669565809866e-03,7.087116443582630772e-03
1.957627202306777559e-01,5.779663938287535330e-02,1.887125877454357004e-02,1.780032935039195291e-04,1.434755797748649082e-06,4.693975486817446568e-04,1.789856059848745837e-02,1.133119603538750367e-02,1.021929028516756427e-03,2.501920894207259379e-03
1.406428795714397828e-01,3.901263696633976152e-02,2.261098678304821960e-02,2.687268420846317899e-04,1.750110237420133588e-06,5.493754803104500001e-04,5.279384867112881310e-03,2.315503649041217998e-02,2.383341749712325020e-04,5.242905927321501016e-04
6.003228449721737664e-02,1.501170996437835477e-02,2.183887527932695458e-02,3.368486092934927728e-04,2.330447329115450391e-06,6.174401363833448547e-04,2.558709374640965456e-02,5.276404795217782412e-02,9.433108360139562431e-06,3.774708107261318200e-03
3.162303375215038542e-02,1.009189397788203164e-02,1.861302242008991761e-02,3.614675146506868405e-04,3.106379449005123610e-06,6.718857977538740230e-04,5.602953392121243215e-02,8.129225164406013449e-02,2.108770009256356740e-04,8.572554857502134862e-03
1.152593364771275775e-01,2.908245596808614608e-02,1.640206496817982196e-02,3.937020133331765826e-04,4.006422174574040637e-06,7.113462842563827168e-04,6.701775083833755309e-02,8.330518998791684726e-02,2.807486582391097467e-04,1.050985231206324859e-02
1.447815832825148086e-01,3.122189289480759022e-02,1.615614655292996887e-02,4.424613324862416682e-04,4.958541721284495583e-06,7.348272616062969179e-04,5.978268143858003758e-02,6.098509623280097547e-02,1.539673119240167519e-04,1.166160870080186485e-02
9.634159594868367538e-02,1.577244061286149635e-02,1.517521680829437419e-02,4.824759119260916109e-04,5.892108190662091082e-06,7.417292554222033527e-04,4.723766564230984233e-02,3.833416630815079246e-02,7.167495228062636177e-05,1.642717731895430508e-02
1.777106347606360881e-02,3.127146834012063756e-03,9.658640911816280053e-03,5.079152045723634486e-04,6.739853203064684746e-06,7.318608537394482531e-04,3.555700782135458315e-02,2.445446473988489508e-02,6.781991463277541022e-05,2.191111810216849268e-02
1.563648981555221251e-02,1.123227181157395588e-02,1.136666420822763507e-04,5.293186933891816598e-04,7.439533890092393926e-06,7.054418226499605329e-04,2.291866926199119525e-02,5.636266770927805120e-03,3.577251084998000271e-05,2.059272862106212645e-02
9.272891720040341706e-03,7.291149999635639263e-03,7.378936229503746738e-03,5.484826203631881043e-04,7.935423280847341302e-06,6.630961084843341007e-04,8.661442114444752385e-03,2.440439541406112453e-02,3.060818551519547948e-05,1.275360473850786075e-02
3.549835039518818569e-02,1.746330385801883860e-03,7.695433577012308381e-03,5.596164683347665605e-04,8.179708409163152224e-06,6.058349481231835613e-04,4.383152962811011875e-03,4.869429198246085638e-02,8.761553810124416656e-05,7.763441453263832115e-03
1.948797687088726915e-02,9.999712521404800422e-03,2.486037849376709127e-03,5.611381782503820992e-04,8.133687339479079789e-06,5.350305505050048952e-04,1.342850245927854763e-02,4.921732619209798210e-02,1.516781565925478278e-04,1.179365329410470703e-02
2.264590314395443019e-02,1.191023685398400617e-02,2.602760734763435828e-03,5.552936806215349325e-04,7.768679543380527708e-06,4.523810413017859025e-04,1.744797618691041816e-02,3.004088873965463091e-02,2.261992360240191026e-04,2.163419036569808745e-02
6.483247725065136025e-02,1.322831306711999989e-03,4.380986592896855651e-03,5.426407619800420468e-04,7.066661943226384958e-06,3.598675735141788987e-04,1.739032275731954708e-02,1.010875496430051548e-02,2.553137162883698311e-04,3.097369929810148137e-02
1.102837387429837918e-01,1.973657739520689666e-02,3.700479044867460016e-03,5.221658161159447881e-04,6.020642746321683903e-06,2.597046943203702740e-04,1.596813086676265175e-02,2.208234247647336557e-03,2.690323911259819120e-04,3.595099962140460570e-02
1.547815981029740384e-01,3.740002992548822902e-02,2.337194593377639896e-03,4.938684762955695626e-04,4.634749519476434456e-06,1.542852184165006155e-04,1.548394437582270751e-02,6.000550756691101599e-03,4.031210998421912010e-04,3.450248827729142376e-02
1.678773434919823837e-01,3.907110821545509149e-02,1.103388836088369830e-03,4.587331419612244738e-04,2.924018182153589490e-06,4.612098653244717673e-05,1.632752381509970999e-02,1.663477544260398219e-02,5.455445669272889885e-04,2.587885712592326304e-02
1.422445694760520463e-01,2.631585126016888765e-02,6.132505409039495318e-04,4.175074750292682123e-04,9.138971397770517690e-07,6.221901819393490618e-05,1.835634396893212270e-02,3.325664143010164525e-02,1.194565444304997225e-04,1.203075379141971789e-02
1.110610399748469257e-01,1.047354588608542456e-02,8.164014300151491588e-04,3.706846528754260072e-04,1.360513092426192030e-06,1.681716658778372169e-04,2.136889657554994978e-02,5.685687692691584333e-02,1.303791115072176505e-03,2.253986220213119798e-03
8.931911630818697989e-02,8.800753403123703173e-04,5.215449534720739515e-04,3.190541190092161493e-04,3.855467066598239403e-06,2.692422378525753039e-04,2.395274769710172696e-02,8.091749283329158215e-02,3.021896958627943129e-03,1.116886720722847989e-02
4.867374907611742019e-02,9.662395887880469506e-03,5.288755583102415329e-03,2.636912942043740044e-04,6.519804052617318152e-06,3.630650156703239058e-04,2.478668979498985236e-02,8.947970972559154967e-02,3.452614747246250670e-03,1.133682544150334606e-02
1.773323029629755160e-02,1.866581734224418906e-02,1.051421755555507868e-02,2.056705145875365641e-04,9.296365893009736955e-06,4.474604257752416172e-04,2.443176728071379603e-02,7.076581157289746349e-02,1.983334814230258529e-03,4.897136270525756160e-03
5.484735971006774596e-02,2.009282440169586972e-02,1.086413418512866859e-02,1.460342643739259271e-04,1.212356426340855609e-05,5.204873562733208824e-04,2.334477513668425583e-02,3.235312402494787409e-02,2.568698130656212964e-05,2.043613056547414000e-03
1.725550245814223144e-02,2.545650113915622157e-03,6.381087215538965712e-03,8.589286827390616699e-05,1.493705693184858158e-05,5.804893874620315397e-04,2.031377958530156819e-02,2.732756184163499368e-03,9.174116376190768161e-04,5.069644986704161839e-03
5.535177901360712610e-02,2.804237423220036496e-02,2.757492055780698479e-03,2.640430587089736289e-05,1.767148995896673344e-05,6.261338332338637052e-04,1.531027317718600816e-02,1.824726975503917006e-02,6.950034935877640041e-04,4.728402913348428611e-03
8.772805280849629850e-02,4.809888900844671439e-02,3.137636730111490434e-03,3.130915272956218674e-05,2.026226031829086964e-05,6.564426721683934559e-04,1.115880670095434693e-02,2.063492907719359157e-02,4.110737277760506594e-04,4.125525020322508112e-03
6.555692257732660677e-02,4.298396014275996518e-02,4.780663999956885624e-03,8.618873151132454573e-05,2.264725308843160910e-05,6.708146504914718226e-04,1.032527370388536606e-02,2.692353849579700795e-02,4.807689497010285548e-04,4.593465793671906543e-03
2.983191543550142016e-02,2.167110775821172453e-02,4.691805644474606775e-03,1.372356156269985265e-04,2.476850865698468021e-05,6.690380590138990738e-04,1.224423918326793433e-02,3.924811214095950962e-02,5.697837628284825942e-04,4.701202594382488352e-03
1.964168248153963601e-03,7.007096228671622420e-04,3.669071052663810256e-03,1.835311987608432757e-04,2.657377735122327885e-05,6.512939171915931285e-04,1.464312115582484461e-02,4.523410926600962556e-02,4.912303161456842279e-04,3.087174549297031726e-03
3.482232864536255468e-02,1.506757606093367223e-02,3.515112230130894733e-03,2.242696639960719423e-04,2.801792175304604842e-05,6.181495338567203528e-04,1.576472672741998510e-02,4.369845190699245263e-02,3.941797381688544192e-04,2.899677380632215661e-04
9.593168028211852827e-02,3.103241093963677102e-02,4.051279113504373947e-03,2.587762645005273329e-04,2.906413100858870393e-05,5.705426501336844638e-04,1.521729474191286548e-02,4.877581818042980161e-02,3.684776416284465841e-04,3.202846693475681905e-03
1.689617041893720084e-01,4.881726791653524800e-02,4.291406509307553810e-03,2.865157245073343792e-04,2.968491649464698501e-05,5.097565997947612650e-04,1.375516239725333746e-02,6.370370560528122728e-02,3.471720968546487883e-04,8.373307568724277714e-03
2.162715045735367214e-01,5.869020680221407466e-02,4.194308467030958935e-03,3.071027658094141618e-04,2.986286392450895752e-05,4.373871402288631539e-04,1.228938355630382687e-02,7.221808768343467022e-02,2.890419392025326672e-04,1.507197483061646116e-02
2.003999696222627247e-01,4.826964299357233007e-02,4.205924644829470843e-03,3.203124221486750717e-04,2.959112326281946478e-05,3.553018080128199341e-04,1.103468297647700047e-02,6.223025513410895826e-02,2.266038092856353036e-04,2.019654989393083674e-02
1.264248724914855126e-01,1.912376772356158550e-02,4.359578186446568492e-03,3.260841914996127477e-04,2.887362460330510167e-05,2.655928319529493901e-04,9.742153339045690752e-03,3.982464453703443708e-02,1.812563213516904569e-04,2.105416469751105260e-02
