3.976514913822387642e-02,1.795280026936089957e-02,4.764763095339914073e-02,3.337123075198322503e-04,6.620776740899409678e-05,2.032778954161903572e-04,3.588780890886930381e-03,7.898564619800148290e-02,8.957093769172873245e-05,1.703973495852584980e-02
6.924712244051321741e-02,2.431288692444750002e-02,4.302259827256408459e-02,3.198045917400068510e-04,8.374501056024680136e-05,1.394778650777957131e-04,2.094514661328378963e-02,6.343409583118299333e-02,9.118752893650941213e-05,2.222394093142715174e-02
7.673855368107929120e-02,1.916106747758292497e-02,4.182490534121853509e-02,3.001354471647902072e-04,9.965845695918322078e-05,7.162215805979929811e-05,3.747022819847337094e-02,4.947514446410247735e-02,9.242265444355271216e-05,2.869698474047835401e-02
5.004427130188381784e-02,4.617197640141387782e-03,4.536992537298330935e-02,2.763962713371525496e-04,1.135762558375998012e-04,1.440314833251536935e-06,3.808761559541498642e-02,3.320239656886018326e-02,9.343151733113170274e-05,3.349799985349936199e-02
2.363576955546092817e-02,1.435516659801867618e-03,3.631850387617492626e-02,2.467529341431964288e-04,1.251708526706535351e-04,6.926995880292414456e-05,3.109669391778513425e-02,1.271201282697364751e-02,9.437485960848168731e-05,3.142529991621806351e-02
3.218671342642503291e-02,1.690150698731401890e-02,3.345226800003727515e-03,2.113515293595783916e-04,1.341676499768865269e-04,1.386866710228752925e-04,2.677400983489351682e-02,7.110395213717628053e-03,9.541022543274499087e-05,2.505228372812001031e-02
6.523579636906316759e-02,3.208224043569392336e-02,3.717413104151192499e-02,1.721844390377943502e-04,1.403577867573791327e-04,2.050082054575905156e-04,2.615236936491258102e-02,1.854712897179565390e-02,9.668874282317145618e-05,2.167295753110343171e-02
8.467017358388344295e-02,2.882787114688487029e-02,6.072563632984818993e-02,1.304821726895544849e-04,1.436026053015906413e-04,2.664976698002033450e-04,2.620772594245285997e-02,1.747654421213174977e-02,9.835978036157388765e-05,2.283673981651767118e-02
7.590302568308235354e-02,1.215648036975595578e-02,6.361764215180235049e-02,8.671257260546450115e-05,1.438248719867765105e-04,3.215258455836822525e-04,2.650079989867503566e-02,4.679953986992751135e-03,1.005645434551542453e-04,2.454007916161425260e-02
6.155103467079049706e-02,1.548094127435099658e-03,5.843748839539257556e-02,4.176804531896820695e-05,1.410127027323556618e-04,3.686116976652392989e-04,2.627716279001969524e-02,1.736071838460220146e-02,1.034134257759447280e-04,2.624768933192709111e-02
6.165447180938674054e-02,4.958192976292535685e-03,5.220295207669594512e-02,3.055122250323129317e-06,1.352470472054426946e-04,4.064594461539518017e-04,2.189862208468886309e-02,4.406391020485038446e-02,1.069877317889502213e-04,3.203775158873243406e-02
6.365282802502819637e-02,2.494501101127166200e-03,4.163678488405590794e-02,4.664916748098849622e-05,1.266973548210504946e-04,4.339912527845346231e-04,1.153404074469431551e-02,6.499178419170835441e-02,1.113781764197624554e-04,4.236797656881679391e-02
4.427989824091608378e-02,2.514889254162887104e-03,2.542879642898613138e-02,8.812843722795336713e-05,1.155606841870772308e-04,4.503747011572660042e-04,2.142129935608319546e-03,6.998390650638790234e-02,1.166739750624543070e-04,5.108769547228187574e-02
5.592215791714338392e-04,1.134763985593032973e-02,1.231395218341370043e-02,1.265873736569858045e-04,1.020618916640030744e-04,4.550444412254086289e-04,1.604262469338390770e-02,6.218958248787050808e-02,1.228739605753569010e-04,5.315597946400246743e-02
5.745548989413210711e-02,2.828145852809268307e-02,1.086328756068601943e-02,1.611149041147706153e-04,8.657094733202537202e-05,4.477174595674852865e-04,2.907162554304337440e-02,5.334662922947438352e-02,1.299031716096717376e-04,5.105547875070617220e-02
1.048367920069360887e-01,4.314792407282453529e-02,1.269428150922826889e-02,1.909383428715965463e-04,6.958788935913304686e-05,4.284014467555978685e-04,3.927984417385801952e-02,4.520762792645945105e-02,1.378007707809195202e-04,4.900056321920023134e-02
1.188475450266124195e-01,4.395398893333496426e-02,1.683002011361188748e-03,2.154454415778027333e-04,5.146960453944560094e-05,3.973960009255774329e-04,4.268979245027831881e-02,3.236289276361560552e-02,1.466892571790396249e-04,4.345404953591183728e-02
9.277512822343647603e-02,2.960708188444683905e-02,1.410098756948405946e-02,2.341403177723655818e-04,3.242847652620964088e-05,3.552868908637388571e-04,3.714468257236552828e-02,2.028838707710044903e-02,1.563741055333622452e-04,2.735369026712621346e-02
4.657763582371676758e-02,1.112949369798968240e-02,3.788232213740431054e-03,2.466511277083887526e-04,1.308603090636285857e-05,3.029335645877123239e-04,2.590791356472491036e-02,1.712728556239588237e-02,1.664027711362498093e-04,3.880261116647423358e-03
1.965590368927309407e-03,1.147141043476791354e-03,4.001383841633164573e-02,2.527644269785191589e-04,5.542308027884285316e-06,2.414495874491094836e-04,1.564741128889065788e-02,1.344064799806293960e-02,1.769267434620605171e-04,1.381371227751063829e-02
3.497680243220076257e-02,6.604967460456610123e-03,8.356165110428129261e-02,2.524304423291969727e-04,2.326456437247427739e-05,1.721762917302287188e-04,1.091072561525923031e-02,2.409987410152498056e-03,1.886051229758609407e-04,1.846949752546672360e-02
5.634350151214989610e-02,8.881384874289403875e-03,9.509710685115264905e-02,2.457501529314644047e-04,4.074716348782036953e-05,9.665152378652290988e-05,1.144996061088331303e-02,1.715091470231563595e-02,2.007695503176413121e-04,1.438005797618578316e-02
4.678768978823126534e-02,7.612965729512395120e-03,7.857748725878023477e-02,2.329704081440145847e-04,5.695210293172007913e-05,1.657462867094795916e-05,1.323466387457640156e-02,1.145572840603907572e-02,2.115918318262040418e-04,6.152834852777567566e-03
7.515462092106831374e-03,6.583744130245336099e-05,5.358267773064892547e-02,2.144824046257852673e-04,6.903093817060894323e-05,6.623418353792825334e-05,1.054161959077831896e-02,2.355048577780699363e-03,2.220177569694695542e-04,6.347274790089691560e-03
4.015979470253609740e-02,1.370653263927932609e-02,2.802066890308104602e-02,1.908114154259989256e-04,7.782935541923571225e-05,1.498800314409135610e-04,7.740666448193060352e-04,4.900478404681569283e-03,2.355227103079381178e-04,1.921606048365950489e-02
8.168807964067545391e-02,2.923175975146787703e-02,1.807154388866428693e-04,1.626001619087392590e-04,8.828906145566330663e-05,2.324382719627373912e-04,1.117661908761066920e-02,3.166396356183011351e-02,2.497153045435211694e-04,2.256403417896296615e-02
1.150901500334924887e-01,4.151025697112357277e-02,2.937101241523310674e-02,1.305919843825546875e-04,9.773137583596884948e-05,3.119949234220390378e-04,1.843053059003228050e-02,4.841124351339979454e-02,2.566513087039989883e-04,1.178942261957174886e-02
1.267894715739352474e-01,4.462873614279607576e-02,5.098226292415349026e-02,9.561332119045242979e-05,9.471829093209662071e-05,3.866937934759329273e-04,2.122118400932138105e-02,4.537635969038487233e-02,2.607840787861623430e-04,7.934248107910029518e-03
9.235042419377353928e-02,3.474806342016580063e-02,4.637723731103973734e-02,5.855324422823402451e-05,8.406537691937811686e-05,4.547939898507384789e-04,2.378909469112333933e-02,3.967637761567363586e-02,2.787725613897673485e-04,2.950773557357242588e-02
1.698252337725584399e-02,1.657317354794402703e-02,7.811373200284929194e-03,2.034095563505171120e-05,8.994284266210135221e-05,5.147105275460473568e-04,2.567033291503635628e-02,3.741207642453986404e-02,3.011497358670007563e-04,4.779777711212251229e-02
5.028161954884968754e-02,1.236348290724903097e-03,4.121302522852876571e-02,1.807693731425438446e-05,1.025480603314696189e-04,5.650260413531265919e-04,2.405228096012270236e-02,2.831063109766948291e-02,2.917406189353971514e-04,5.729669184259768289e-02
6.442346045896484019e-02,5.269675467168929116e-03,6.366567025230061849e-02,5.575898883093162998e-05,7.009055199517788017e-05,6.045282806568510678e-04,2.029757933221479696e-02,1.537121721806151455e-02,2.695222153896229249e-04,5.387450847642627494e-02
2.848792391715852107e-02,4.964382975712401322e-03,4.868338651730401423e-02,9.179137597711305228e-05,1.247689549505317863e-05,6.322973602269508966e-04,1.668309107488058149e-02,1.232020877057558861e-02,3.120126632979682208e-04,3.874664562988191369e-02
2.413103037492626141e-02,4.438104235471251012e-04,1.557294285321002454e-02,1.253096484449400122e-04,4.152138411504536488e-05,6.477238589194788407e-04,1.099122822354449934e-02,1.436181856616901981e-02,3.804048343997464931e-04,1.991514861266131808e-02
6.998391589587871220e-02,1.101351051191555401e-02,1.749538226137246563e-02,1.555189759931786071e-04,1.186823656238992933e-04,6.504010669867477416e-04,1.444326322597279735e-04,1.541076325667256781e-03,3.074870668504224472e-04,1.087175066662099052e-02
1.040843977710167734e-01,2.237274363038594185e-02,4.834498145143939496e-02,1.817124538790189207e-04,2.652312475708616371e-06,6.401418745566596173e-04,1.392541894578768619e-02,3.195794514076245874e-02,1.733975970317943303e-04,2.105866284974550889e-02
1.246059006360069749e-01,2.717452787713095855e-02,7.473466475980444779e-02,2.032871784187537231e-04,2.385441234080028228e-04,6.172464312093977300e-04,2.481276379101060234e-02,6.971591044980590679e-02,3.506690772472394885e-04,4.361108921075163708e-02
1.247189555363077684e-01,2.220025775083483977e-02,8.136707884549461423e-02,2.197577184107837465e-04,4.370566956287929151e-05,5.824879291100899933e-04,2.562467652331320428e-02,8.775260219881429735e-02,6.576769379826244563e-04,6.123544982427268912e-02
1.000275362748053176e-01,9.938194021912304457e-03,5.419758017138030792e-02,2.307666251772843235e-04,7.119633653488252221e-04,5.365328051279557794e-04,1.361292159428705711e-02,6.980993857012554593e-02,2.322750985037155344e-05,6.561586996276344563e-02
5.891285953255920999e-02,3.019862399827252363e-03,4.062946050344268256e-03,2.360917645409159142e-04,1.164453031098155707e-03,4.799256095480935558e-04,5.204298757314101617e-03,1.915283595782727236e-02,2.235435303073996481e-03,6.103092276706665459e-02
2.022778576197808986e-02,8.070963935427152847e-03,3.717412948626530600e-02,2.356503559270949890e-04,6.735342600540023591e-04,4.142745878685298003e-04,1.865392796799732883e-02,3.757097168639075141e-02,4.440207091483406622e-03,5.202473945106092512e-02
2.978127369094186322e-05,1.853955359151578282e-03,4.894945032831821141e-02,2.294996528932648217e-04,1.333294230268242467e-04,3.422419914078048825e-04,2.005817573145050187e-02,6.609348790184776945e-02,4.442989520171204340e-03,3.992454248800399175e-02
1.179593471530586760e-03,7.840872282065335097e-03,3.838419263577063506e-02,2.178342687418541844e-04,3.809256192705097119e-04,2.649199560995774009e-04,1.447446795042586082e-02,5.522640575241207633e-02,2.243688617969857337e-03,2.831103289332678047e-02
1.353067628150607729e-02,9.535651760457378515e-03,1.951969585284915598e-02,2.009802451399425691e-04,1.675948263972969698e-04,1.816740349766697495e-04,1.059591724272225532e-02,3.271051456549751990e-02,3.667276045328315233e-05,2.144711094620857864e-02
2.076534088933644495e-02,5.802898338973453817e-04,5.738165536248477847e-03,1.793860439326388514e-04,6.605714839381651639e-05,9.562040024936371819e-05,1.109267486087095120e-02,3.812782143516035838e-02,6.394948813386977689e-04,1.895715583461605319e-02
1.136276864203741507e-02,1.283619542333609871e-02,3.427458099522537327e-02,1.536107072761744915e-04,1.963344697429282788e-04,1.396885601911237079e-05,1.405661091048475246e-02,7.692617995174720613e-02,3.283671499914826491e-04,1.707832390357658103e-02
1.660853861576205154e-02,2.505347477752154287e-02,4.816316995716532490e-02,1.243094935256718189e-04,2.954737776093740629e-04,6.380749031424336995e-05,1.859865144736396955e-02,1.179920985763653202e-01,1.477350250984844557e-04,1.253093468367778331e-02
5.948764791333002039e-02,3.455230697196153000e-02,3.402036798337029072e-02,9.221735635931068711e-05,2.120373207985713987e-04,1.471599911785442208e-04,2.342743197481493914e-02,1.353765875963059417e-01,2.793412958710021310e-04,3.387454978363341543e-03
1.079319422950406754e-01,4.024317719390937964e-02,3.943235515697456756e-03,5.813068349810208426e-05,9.715231889276846830e-05,2.293776653087958579e-04,2.316466057149032393e-02,1.259720821008841751e-01,3.507436275588117600e-04,9.585017720271022876e-03
1.402465033375401848e-01,4.002287031509544485e-02,2.019022212881504963e-02,2.288774709579989016e-05,2.134696233471858654e-04,2.845404633918116946e-04,1.335796818218527686e-02,9.126981413737982052e-02,2.818632089282373221e-04,2.064476452677214274e-02
1.336684130728097164e-01,3.486078690623986565e-02,3.104781864355625476e-02,1.265165678255515859e-05,4.406817028704828492e-04,3.211548948671834824e-04,1.082765790155909959e-03,3.939891824039783857e-02,2.399381777681900666e-04,2.201144485216431634e-02
9.250890531293032293e-02,2.990004253648094815e-02,2.985936063098562979e-02,4.762688720601499507e-05,2.058070198061252897e-04,3.901946948790811537e-04,9.301526826150974953e-03,4.076038724141493874e-03,2.637681309235266852e-04,1.103593078164693403e-02
4.680670656804190172e-02,2.758338607169463427e-02,1.446135662678446274e-02,8.119696083993754800e-05,5.897250993130270227e-04,4.708734669153270564e-04,7.389003860454540842e-03,2.047115252462112373e-02,2.757933680482903922e-04,7.255455455120094453e-03
1.484234007296807677e-02,2.492188141456936484e-02,7.453098340193510529e-03,1.125603924239112303e-04,1.070894973035177141e-03,4.504584841405821598e-04,1.569636328615359438e-03,7.567445380859787185e-02,2.569623080766742082e-04,2.440087677391713020e-02
1.155767134303462181e-02,2.185528618481040811e-02,1.312488543543208902e-02,1.409739088642309119e-04,6.103891477892912486e-04,3.677628908908325074e-04,2.666747532494019926e-03,1.172411042877347376e-01,2.433443764164622833e-04,3.358503150062356474e-02
3.697743149995219580e-02,2.337782587535575107e-02,3.726736483880576691e-03,1.657696040809052704e-04,1.514599181362497277e-04,4.655790813999589666e-04,7.338358211909764596e-03,1.171570740632585927e-01,2.442730473440444671e-04,3.219708043819227705e-02
4.229490186498404553e-02,2.780329179542055662e-02,1.572734340365867373e-02,1.863701433158541313e-04,3.505883346820728389e-04,6.759741877419623603e-04,1.507959438147749888e-02,9.703446165626679332e-02,2.429317099201466171e-04,2.243682714192307345e-02
1.022206263837601922e-02,2.447473675792507727e-02,6.821155429786182958e-05,2.023016761604685444e-04,1.117887338271176232e-04,4.363166437432143487e-04,2.282911278297323002e-02,8.511906301071320291e-02,2.346898642912277546e-04,9.430551854410782267e-03
4.447883200271783577e-02,1.029482439799291396e-02,2.770611456064725475e-02,2.132041756256204245e-04,3.689742735071916617e-06,3.756168741798746502e-04,2.675136627901262762e-02,7.823733199961473150e-02,2.273003917677599928e-04,2.652052581811702343e-03
8.559122975185794180e-02,3.354377327424903129e-03,4.221732970428426074e-02,2.188389846558105628e-04,7.227501735524124895e-05,8.888866624810957788e-04,2.737661622454078472e-02,5.736869632877104885e-02,2.229548810503690346e-04,1.197951670183547423e-02
8.848801872561751214e-02,7.648091013790826211e-03,4.626677768530856882e-02,2.190934200644741828e-04,9.851984841164730200e-05,4.638561115446642510e-04,2.578538405489793142e-02,2.135202873660093509e-02,2.179757728133831923e-04,1.731339652444376098e-02
5.788155928562268432e-02,7.563064402418567637e-03,5.207338020582658045e-02,2.139823552719119179e-04,3.669038859132920196e-05,2.627159015315681020e-04,1.985832181614943792e-02,9.834991731139722942e-03,2.112189376527507951e-04,1.940400956536067478e-02
2.313271058513667947e-02,8.252338958520403361e-03,4.712555392619396932e-02,2.036467756939577508e-04,1.174002176017140939e-06,4.228248101907379876e-04,7.766706000494384005e-03,2.117848851468585869e-02,2.043242303296030236e-04,2.363961556083242488e-02
1.237804101513441217e-02,4.406552366820236724e-03,1.400888305205484977e-02,1.883493724151547944e-04,5.089900639636023969e-06,1.415507956426729466e-04,8.276554100601764968e-03,1.841729615410636622e-02,1.977876106328304011e-04,3.376263622199215247e-02
2.282837785132096897e-02,7.719422212587787741e-03,2.945026497165866355e-02,1.684673092031952456e-04,3.972769271775717346e-06,1.603130949519013980e-05,2.325987659607297794e-02,1.263981417188739589e-02,1.907990502783807568e-04,4.340725844008189171e-02
3.177342911798233804e-02,2.107879298300954773e-02,4.605169285919982064e-02,1.444823633635299422e-04,1.403013993348059596e-05,2.001541296613508784e-05,3.196252631643770048e-02,4.657276078028388562e-03,1.830825626503479095e-04,4.336851820061639329e-02
3.680399841961881635e-02,2.826887431003646464e-02,2.804773702063190904e-02,1.169687008787559477e-04,2.444225594176521879e-05,8.977102680575805768e-06,3.139235582466683161e-02,4.558811605521466588e-03,1.749968590150419222e-04,3.538629167869750819e-02
5.132417835149123003e-02,2.907997992380853894e-02,1.532797386489494727e-03,8.657859936594818637e-05,2.214169115144140739e-05,8.587101315092150538e-05,2.420922990750438986e-02,5.460022444769915481e-03,1.666766693357056908e-04,2.758584673371065540e-02
6.206651955057945064e-02,2.351738509400632532e-02,2.598527883746212450e-02,5.402647744089046676e-05,1.826874250303435292e-05,1.509492559750686097e-04,1.831272062171498960e-02,5.330798101686057451e-03,1.579761441889485887e-04,2.074900610181076160e-02
3.725483878813080907e-02,1.054747369183926461e-02,4.048770921969489095e-02,2.007162512813065136e-05,1.522135865105627401e-05,1.659109140504230404e-04,1.902530574370361882e-02,1.645986893890552180e-02,1.488705728426903863e-04,1.200498715450179672e-02
1.720555372421190068e-02,2.780960567396400119e-03,3.351674658548944863e-02,1.449994374984700337e-05,7.802037613872039873e-06,1.808869440012808474e-04,2.328007760222446446e-02,1.768799971284593445e-02,1.394874259656736374e-04,5.995470193620282273e-03
5.152188102613630000e-02,4.932035737519702839e-03,3.236971869541288961e-04,4.889408023989813697e-05,5.058436434041998811e-06,2.021537150936810476e-04,2.575527146493964553e-02,1.585767748466076696e-02,1.299175695605428904e-04,9.278002236523558155e-03
3.514209037412008990e-02,3.056190409182269092e-03,3.611477378204092786e-02,8.232708750603763971e-05,2.069638072729787335e-05,2.056919820316700461e-04,2.801873568572973983e-02,2.902732711921365144e-02,1.201966967500207287e-04,1.868685351277990167e-02
1.779823397210790123e-03,7.474984691274587541e-03,3.991990319817100702e-02,1.140438691942396196e-04,3.821428791060365302e-05,1.911963666726511758e-04,3.486755776738732771e-02,6.429821177457675785e-02,1.103911622265465076e-04,2.439547296313375468e-02
9.185060688161890419e-03,2.921482275230027556e-03,1.302035600506660194e-02,1.433352167418140536e-04,5.837046682085487894e-05,1.672208980372125067e-04,4.312933827502766354e-02,1.039797770632412410e-01,1.006048496032050098e-04,2.104930835750257190e-02
1.328452275156605418e-02,5.604577307392730103e-04,9.704947783381188270e-03,1.695538385429634404e-04,8.101314269235209353e-05,1.249172394270533484e-04,4.314435638423605446e-02,1.221009066157010825e-01,9.093573904004860963e-05,1.199303019026856827e-02
1.613947777815941814e-02,4.122785354311190101e-03,8.335327340652206110e-03,1.921287680466713342e-04,1.051137003321373154e-04,6.431038700259167470e-05,3.298812867414051969e-02,1.147266714825241063e-01,8.146849273580446932e-05,4.483074767112975659e-03
2.408372222517653205e-02,9.076495023414189386e-03,2.257424343356056323e-03,2.105778301897594804e-04,1.299837335154143075e-04,9.166630089497502921e-06,2.240080364242435715e-02,1.004879203710552227e-01,7.229080634625288497e-05,1.599819832599951811e-03
6.314760294172350186e-02,3.684932612384800559e-03,1.315374345466439020e-02,2.245178949567660630e-04,1.552914162065518902e-04,4.700318069750935456e-05,1.928220044104071371e-02,9.086026872461412662e-02,6.349308371506757608e-05,3.309533302245518463e-04
4.846757318017967664e-02,1.098082555811362437e-02,2.559014154268515404e-02,2.336727020559305429e-04,1.805103871095219462e-04,1.544910300959763925e-04,1.993149837228620769e-02,7.927283135155445415e-02,5.515680707363983758e-05,1.067965224387899467e-03
8.171278833429900315e-03,2.526769099962901735e-02,1.131109873600559708e-02,2.378781003321286339e-04,2.049249714278751167e-04,2.930496163184863508e-04,1.640259860659306484e-02,6.281948058496965304e-02,4.735073521389873946e-05,6.225624233203068750e-04
5.033938050288802590e-02,3.258590674067842613e-02,2.284789063180522536e-02,2.370846081409072159e-04,2.279085137407444719e-04,3.491290761610846521e-04,7.979038669730278976e-03,5.313586143625283198e-02,4.013277402079717818e-05,6.237528400402430825e-03
5.242485250159905491e-02,3.378295599652995918e-02,4.383923947091216550e-02,2.313572649691733531e-04,2.489446503124952267e-04,3.594081430710002766e-04,1.763458142630605976e-03,5.911439446182396862e-02,3.354865284886228926e-05,1.121419180351825723e-02
4.266550837613009017e-02,3.220930207931780448e-02,3.898110911130559658e-02,2.208728085789691295e-04,2.675171730517877911e-04,5.644746955947378729e-04,3.127960262711666599e-03,7.565101396029706715e-02,2.762841503274799355e-05,1.475826612828817774e-02
5.479873859726037272e-02,2.874079777022262028e-02,2.279397871144089871e-02,2.059142743638964505e-04,2.831177884065763455e-04,8.941850188515199863e-04,7.030517439348776126e-03,9.176792539044129060e-02,2.238497913259764367e-05,2.218626283183852688e-02
8.428558640000284596e-02,2.362179482874110156e-02,5.646978470568785741e-03,1.868631729927567057e-04,2.953155163190201321e-04,7.831785197809323137e-04,2.564779405941890449e-03,9.677586273706306752e-02,1.781442566568409292e-05,3.252260122702843592e-02
1.027443405577123936e-01,2.032777508671174474e-02,1.432205642720688760e-02,1.641894574118306577e-04,3.037698715295629936e-04,1.060128803974203047e-04,1.129142046917378482e-02,8.342285498548365763e-02,1.389606665940560607e-05,3.419399787848660666e-02
9.949073584409739990e-02,2.330581751850407946e-02,3.064949842244022588e-02,1.384395396472165552e-04,3.082123339105572271e-04,2.697414787311647275e-04,2.162723538903472964e-02,5.609199719121410466e-02,1.059246856461110856e-05,1.999120406037303496e-02
8.841595232677151861e-02,3.142308475383411709e-02,2.721166613144111734e-02,1.102226605019055730e-04,3.084512495871403483e-04,2.921784102086374913e-04,1.934115343456656311e-02,2.749579759068335877e-02,7.850349540226370999e-06,1.480461263351485774e-03
7.710246290099108391e-02,3.667126341254205169e-02,2.684243355425542082e-03,8.019595026157175569e-05,3.043890762311235345e-04,1.151591881967030427e-03,1.192264356396263540e-02,4.054818733898474942e-03,5.602267890822658635e-06,1.556547087022336698e-02
5.428289349884704573e-02,3.216453519885866669e-02,2.300543664408590330e-02,4.904854518314910898e-05,2.960257981866381487e-04,1.436974612964804715e-03,1.058129109344085883e-02,1.200519424296182282e-02,3.768631009172758244e-06,1.795593398831267160e-02
1.665049218879434065e-02,2.014667710388065580e-02,3.232476309061472347e-02,1.748514232226027935e-05,2.834532359013232404e-04,1.269930629423033936e-03,1.414434567086263195e-02,1.253729096533024237e-02,2.259996771909172767e-06,1.648647941616589868e-02
1.306088847795836699e-02,8.323465876541683364e-03,2.506028596624806232e-02,1.379061614390950030e-05,2.668524923870177002e-04,1.212460981586548428e-03,1.433603404721875071e-02,3.099672811394657557e-03,9.798048090047691130e-07,1.926056892400183559e-02
1.000908182682519812e-02,2.664525001991758374e-05,6.299236651415402247e-03,4.409253860608342316e-05,2.464924811418576492e-04,1.331887993940160993e-03,9.561741902914535143e-03,1.394422526160509629e-02,1.725492990187760121e-07,2.525846770815018058e-02
2.038063964478968593e-02,6.689963241234403273e-03,2.375022476861047074e-02,7.276767902605053265e-05,2.227238632682143474e-04,1.384825040046355890e-03,6.104676403381697689e-03,1.526116832468936771e-03,1.298480411436514750e-06,2.719267587550145207e-02
4.510172159940212255e-02,1.139354729046739359e-02,5.907067869066694871e-02,9.921116912938261398e-05,1.959694492354938501e-04,1.331861186079389249e-03,8.885233543411088022e-03,1.982113303925562078e-02,2.496913469296016224e-06,2.142036129726399701e-02
3.651897864161012669e-02,1.128867441802973090e-02,8.003237739588729693e-02,1.228797524705083479e-04,1.667139697229567475e-04,1.285181869739103261e-03,1.520305338417813831e-02,2.050777032128418831e-02,3.860972007333109005e-06,1.222772412959921735e-02
1.567267957825719355e-03,6.763636782252471953e-03,7.132344263465494050e-02,1.433037193580396411e-04,1.354930603151986213e-04,1.265165913175091486e-03,1.895385756336461294e-02,2.615980124063138623e-04,5.474758456784854529e-06,5.965995956877759299e-03
4.024829636899612817e-02,2.154662236346797499e-03,4.130110074483060029e-02,1.600969825297166916e-04,1.028804626438254485e-04,1.220501319481079967e-03,2.002138412940797363e-02,1.156820902111121291e-02,7.410348023765213212e-06,4.296707869425111202e-03
5.624991229365311485e-02,1.338366924293774452e-03,9.618663491990833009e-03,1.729650799204334117e-04,6.947391942520460793e-05,1.142259123450370438e-03,2.387442802326829663e-02,2.426441122714858775e-03,9.725092587811338734e-06,4.792945491652930018e-03
5.319605272355230202e-02,5.414627765309230900e-03,1.441588798434124789e-02,1.817109417183361715e-04,3.588069583573118640e-05,1.056032972737452587e-03,3.063783984955424297e-02,1.774933939818426273e-02,1.245931418181237571e-05,5.207802032487520577e-03
4.815768881151132746e-02,1.242201297090913745e-02,2.624330934597293719e-02,1.862383129107877228e-04,2.703006308781121723e-06,9.686640125396445014e-04,3.365157931909443928e-02,1.246744838115571019e-02,1.563446737973183342e-05,5.431460805360673917e-03
4.119350227817578092e-02,1.692178999465496561e-02,1.808043222135904265e-02,1.865527783766868751e-04,2.947657529588354667e-05,8.709333278121970424e-04,3.152315218700724175e-02,6.783697172453204485e-03,1.925184206347391394e-05,6.576935223681380609e-03
1.310555022457196572e-02,1.238684020789598134e-02,2.008466225683311433e-03,1.827603939520827528e-04,6.010933316610932148e-05,7.618834638104394737e-04,3.079682255653659259e-02,2.783693051879587363e-02,2.329185883708709129e-05,8.379579233017388218e-03
3.824034207444200473e-02,2.395949956323467547e-03,5.716905501435943539e-03,1.750639824754218331e-04,8.869377273097314794e-05,6.483734469228006822e-04,3.332059024265610070e-02,5.871245756180530628e-02,2.771399063309523225e-05,7.724379929520283627e-03
7.469965625122489128e-02,1.959996880716828246e-02,1.723581046889265805e-02,1.637572073374758805e-04,1.147878097499298934e-04,5.349003162583026863e-04,3.150034405940186494e-02,6.046099616067292237e-02,3.245732830337949527e-05,1.669483964016561274e-03
5.401227241600092821e-02,2.857755025859747347e-02,4.001273356123726671e-02,1.492165862754646745e-04,1.380195407707102422e-04,4.223891139925955930e-04,1.960565315570129280e-02,2.686062681852413939e-02,3.744179037448877400e-05,8.214076347843666040e-03
1.413905322940647510e-02,2.678717646403318969e-02,3.836545741881212945e-02,1.318916539105407615e-04,1.580963167975265107e-04,3.100842759093563644e-04,1.598187910231422615e-03,1.258457035094564212e-02,4.256995718269865369e-05,1.699719491313541817e-02
7.266736697078536589e-02,2.058660384994916159e-02,2.315997367114538616e-02,1.122935218873284007e-04,1.748118583106840051e-04,1.985914878521320064e-04,1.457479036405210336e-02,3.161669901757289958e-02,4.772949031428480251e-05,2.179110431107492141e-02
7.879938380353214422e-02,1.462627744097733801e-02,1.419249005052557015e-02,9.098211963314215543e-05,1.880512271110906276e-04,9.496360246329330220e-05,2.458543972091438434e-02,3.052047567847638102e-02,5.279608071444813992e-05,2.322111937080105146e-02
3.792408824081854035e-02,7.436545795388725504e-03,9.632443945305827621e-03,6.855242588623539340e-05,1.977935331412719697e-04,6.024601232438863980e-06,2.845311736648445389e-02,2.657381799322834637e-02,5.763685236876707512e-05,2.200935046564618872e-02
1.980672796880659364e-02,1.313251531400968456e-03,3.622289577315686900e-03,4.562002057840018344e-05,2.041122946949591635e-04,7.712635331308930885e-05,2.784187984155625864e-02,3.068786682038575700e-02,6.211413335322902142e-05,1.844700466319726742e-02
6.509182197786379798e-02,8.706523230526357418e-03,8.931771607394644805e-03,2.280629830478115693e-05,2.071734218107516140e-04,1.653738626596389712e-04,2.439810247734110552e-02,3.570605283319615297e-02,6.608949328812688208e-05,1.478426158643566385e-02
7.407609920326156672e-02,1.536720513534077862e-02,3.606584303382497775e-02,7.236886085544750962e-07,2.072308572701034356e-04,2.362292502179166897e-04,1.962312134973811031e-02,2.864573022689646115e-02,6.942793634129491593e-05,1.247374676516479521e-02
4.148131097055340888e-02,2.411655019088237983e-02,6.694089047223820976e-02,2.003877586558621489e-05,2.046199698038274003e-04,2.623337861795901893e-04,1.464468726191720319e-02,1.002272640105511883e-02,7.200213198648058898e-05,8.385240462999453415e-03
6.946436196552509788e-03,3.083573793971437077e-02,7.209890720981455836e-02,3.892921507746869918e-05,1.997488466167847063e-04,2.887307978448507961e-04,8.521661050301013174e-03,7.854804181579015665e-03,7.369656192162585522e-05,2.266000354317577667e-04
3.870367433463364759e-02,2.771722774436106984e-02,4.505407796404287818e-02,5.544567274850959864e-05,1.930876834007559239e-04,3.740759841115796880e-04,1.944821389946502612e-03,2.148618579498987394e-02,7.441146116804357518e-05,1.026559700025827040e-02
4.990336010142703421e-02,1.756060443307758817e-02,8.897756499805120622e-03,6.914761953245649850e-05,1.851565192766383046e-04,4.236461237224868072e-04,1.697284488704894900e-02,4.197144285256399626e-02,7.406643450351927001e-05,1.757129496830116266e-02
5.628194818955992162e-02,1.317561151823936488e-02,3.290346581808646816e-03,7.966593653550569894e-05,1.765116068464036854e-04,3.105127558791395920e-04,2.908899361383526783e-02,7.375740497077552804e-02,7.260363594773432908e-05,2.219393276556883010e-02
5.659744904714284625e-02,1.801490664733315997e-02,2.455994011221029547e-02,8.671116835645733254e-05,1.677307421909285563e-04,2.357840029718641058e-04,2.845782469990235097e-02,1.005945136942027057e-01,6.999040887677428842e-05,2.553107835843117929e-02
3.502728321734162320e-02,1.937074569071524019e-02,7.393090210386184247e-02,9.007987873135138532e-05,1.593979069785499678e-04,4.795991272399517430e-04,1.258651769340570284e-02,1.020111182953970935e-01,6.622129729949292778e-05,2.774803958130816692e-02
1.116940469909051634e-04,8.351317824440056617e-03,1.064380159786340319e-01,8.965898108855218328e-05,1.520875943811291907e-04,6.197023238398535576e-04,1.172096632485488191e-02,7.366003647746033334e-02,6.131935457865360243e-05,2.928743728297096560e-02
1.457613768028312787e-02,5.180844503033100838e-03,1.021485496167684193e-01,8.542796034205007115e-05,1.463492009261844811e-04,2.662938329444475594e-05,3.206531871164548797e-02,2.856970955564176740e-02,5.533669401889392220e-05,3.031996601213638245e-02
4.072811431593331352e-04,7.653715819613111926e-03,7.244182191536277515e-02,7.745896461623152571e-05,1.426918673078194960e-04,3.568722433636050870e-04,3.592277407538458506e-02,1.092445154719397064e-02,4.835424580176193144e-05,2.898192650531520448e-02
1.545904033627552160e-02,1.479232803775909141e-03,3.468502009687016857e-02,6.591480294644466416e-05,1.415701428354187465e-04,1.448274124768720575e-03,2.172142106528140298e-02,2.729874642516990496e-02,4.048070620346068508e-05,2.281438959363909363e-02
1.178993002813247780e-02,2.085798404216394116e-03,4.405557613805561983e-03,5.104490430707128403e-05,1.433708308357494604e-04,4.957150728421766059e-03,3.936091153766241996e-03,2.320277190362644848e-02,3.185068731072903677e-05,1.151229377565967694e-02
9.859796917681955264e-03,2.480732155008330206e-03,3.617925598767937623e-02,3.317932013283043691e-05,1.484013460928913428e-04,6.747883428924926486e-03,3.241082844244336063e-03,1.251381397849696785e-02,2.262209794554714121e-05,1.387423760036518138e-03
2.635040047710102140e-02,9.093686856795084664e-03,4.589704014823396683e-02,1.272095517802736645e-05,1.568798808392869130e-04,5.296806420016190488e-03,2.325779603416071491e-03,2.741791675220429415e-03,1.297280859727286094e-05,9.245245343383320935e-03
3.924905192135600546e-02,2.315098352856270053e-02,3.176690966706782748e-02,9.863708581659371739e-06,1.689276338710649073e-04,3.294819075043247704e-03,1.877901097287738592e-03,2.493308034229071990e-02,3.096674221985184776e-06,8.150766870199218500e-03
2.411374384421611020e-02,3.217794658117308776e-02,1.036230278665871939e-02,3.405522476244563960e-05,1.845633090999177276e-04,3.065844360708498955e-03,9.532925832039817506e-05,3.810138329959192327e-02,6.800991798390391429e-06,2.782610448895956896e-03
5.348058304128647765e-03,2.558714633754200982e-02,1.885559909228639620e-03,5.929302647098939140e-05,2.037000361551948230e-04,3.166830082802717626e-03,8.200263209468851289e-03,2.398247940802490305e-02,1.650838200733179874e-05,1.407520599787130330e-03
1.867715787064879937e-02,9.024253288368701623e-03,2.741278682757802322e-03,8.498810380020102606e-05,2.261448076537048016e-04,1.804386425251007639e-03,1.952846308119536578e-02,4.811166171292640195e-03,2.581247247906597243e-05,4.674009138441389231e-03
7.715529899796115705e-03,2.250740578668675249e-03,2.723081985529262478e-02,1.105358984638037470e-04,2.516004673255150810e-04,9.638329197075328121e-05,2.841999497826512219e-02,1.658848321181631558e-02,3.450447725456492906e-05,6.239172090340774218e-03
1.024176280879626061e-02,2.709237563044988861e-03,6.087770040792841314e-02,1.353293631718666893e-04,2.796702220657914660e-04,2.570340831814561409e-04,3.591523700923442836e-02,2.549848561160094479e-04,4.238533534576319060e-05,4.242767868150400246e-03
1.210139919372263395e-02,2.142259846901797479e-03,7.524781247279120622e-02,1.587725829480680223e-04,3.098645896747573465e-04,3.533907362960555685e-04,4.193693372351819937e-02,2.915561781826080806e-02,4.927108201292899642e-05,2.718473696020819001e-03
1.074048862675816909e-02,9.098924661992049273e-03,5.262760654400970572e-02,1.802941511457301061e-04,3.416106334107550028e-04,6.664740702286952711e-04,3.912914792669633379e-02,5.549149890916055955e-02,5.499795597203633609e-05,1.247761057970843846e-03
4.223995779234195752e-02,1.790291417541129901e-02,1.120064454398254916e-02,1.993585109239177683e-04,3.742632780711259714e-04,4.164815033732339501e-04,2.413123035518887488e-02,7.131595858875817984e-02,5.942709819735492958e-05,5.739126602423844960e-03
5.480672908256750686e-02,1.900324038205120775e-02,1.461974913182114734e-02,2.154760498040921739e-04,4.071184529321640925e-04,2.060603867315142872e-04,6.599451311066690737e-03,7.088011290998369462e-02,6.244870601151367856e-05,1.737439916221970859e-02
3.318115150513481493e-02,1.314613299102528401e-02,1.008992306099992450e-02,2.282149492343629542e-04,4.394277613798960804e-04,6.140354959403770616e-04,2.849831993595776554e-03,5.226432975091231670e-02,6.398551805297057597e-05,2.445309184019746340e-02
1.627771043834341444e-02,7.439602223121099742e-03,1.187919150120344755e-02,2.372124137861820949e-04,4.704143334761698002e-04,1.517495674371745077e-03,5.961873756708127928e-03,2.457044343090909744e-02,6.399552122322637671e-05,2.180664478176566265e-02
6.839373404867253592e-02,5.716227575371190736e-03,2.841613061227267478e-02,2.421781199262345902e-04,4.992894863900841163e-04,2.053221302837609629e-03,9.033980457791601984e-03,8.559868421235223776e-04,6.247378948483327135e-05,1.402191254260061123e-02
8.976524209956698863e-02,9.264327632387847969e-03,2.806919732926581312e-02,2.428941822231019327e-04,5.252698062884843038e-04,1.686689728013878245e-03,1.059045810126091683e-02,1.699892987313798842e-02,5.945338595361446060e-05,6.840302206507930041e-03
6.608117485356013177e-02,1.860298646702494493e-02,1.850381192218785928e-02,2.392265628411870582e-04,5.475942546621454183e-04,1.008382956324251501e-03,6.833352278467255334e-03,3.864679241972331786e-02,5.500528356852917169e-05,3.757585776568754749e-04
2.040329745340962314e-02,2.903384998372619472e-02,1.294229181496256778e-02,2.311387775877932899e-04,5.655408772453606727e-04,8.519591434221437422e-04,2.316682999500897441e-03,6.709850494598461335e-02,4.923728512424608189e-05,6.781239959936338421e-03
1.636900637656920482e-02,3.269514754805485229e-02,1.474825684917947105e-02,2.186755525167721238e-04,5.784426967607979048e-04,1.203959431573669268e-03,5.438727855825912713e-03,8.562963065597586909e-02,4.229194995400887994e-05,1.232728735438092318e-02
4.580021171888761650e-02,2.901998316945741951e-02,2.216391516655365906e-02,2.019350195636660731e-04,5.857024352884918940e-04,1.482449053070718876e-03,1.617976021287783478e-02,7.159713268126267904e-02,3.434356135546309645e-05,1.251913835831488728e-02
8.191138186604611515e-02,2.443413827432431087e-02,3.662045242116580140e-02,1.810990439960829493e-04,5.868057489926294503e-04,1.364816037077066493e-03,2.566549963655302344e-02,2.519580615353088013e-02,2.559419524212668817e-05,7.321352115635934577e-03
1.040596751062580066e-01,1.993248071027122620e-02,5.290611730125522466e-02,1.564839582077349046e-04,5.813325923159796266e-04,1.151908527948878073e-03,2.935352157399726686e-02,2.476910429933158742e-02,1.626897576025387754e-05,2.449894613348988122e-05
7.686508028580127383e-02,1.003575244449102406e-02,5.322242708470617534e-02,1.284623725470705085e-04,5.689663473829350941e-04,1.466694665789044496e-03,3.588062119715194204e-02,5.060710791706929390e-02,6.610627036182733062e-06,7.763983273657286410e-03
1.125193040832757688e-02,4.522706674407225846e-03,2.902435775808812415e-02,9.733312822988135526e-05,5.495006198672946129e-04,2.314535810311142347e-03,5.579654765240817105e-02,5.332197047475106810e-02,3.126548847734244053e-06,1.607721140848666561e-02
4.273000781974500839e-02,1.458855128402369687e-02,7.239624527105667116e-04,6.346081345123573815e-05,5.228437173596231415e-04,2.751573321413683208e-03,8.161627705957193168e-02,5.366183262028936113e-02,1.268311971396480229e-05,2.300114567998007981e-02
5.962154152917031186e-02,1.449940961091535953e-02,1.246435746171430364e-03,2.752923811550449376e-05,4.890204291474271794e-04,2.204603877315475333e-03,9.046344661637036044e-02,6.487853484288939876e-02,2.180123484324398279e-05,2.447333326160645514e-02
5.215889804917353545e-02,7.165224913581475646e-03,2.791611251677313110e-02,9.780960424950665356e-06,4.481706530792149614e-04,1.433198061281107903e-03,7.231090167895473653e-02,8.281480148835783373e-02,3.023142793579657281e-05,1.894740904852938723e-02
3.049348819703675759e-02,2.590727028796150494e-03,6.039867368974108364e-02,4.837553743679967052e-05,4.005454545775516883e-04,1.248946302746303198e-03,4.328972951180190543e-02,9.615810213934571082e-02,3.773933346344420062e-05,8.714810771396427555e-03
8.894609629551594385e-03,1.141711704319880658e-02,6.434993802064106760e-02,8.810847692499480788e-05,3.465015259078947423e-04,1.277871766506906209e-03,2.314391064235619272e-02,9.810271613515803013e-02,4.411213729956413386e-05,3.100394322645159528e-03
5.461092887035516596e-02,1.384694431829691652e-02,3.653627651992314568e-02,1.275557801793283214e-04,2.864930050116568571e-04,1.023973359421476376e-03,1.472107185714758952e-02,9.023592692876004906e-02,4.916458616067198085e-05,1.411245247909767575e-02
7.254579126950670698e-02,4.358619191807504983e-03,3.683217699466080457e-03,1.653823685185574631e-04,2.210589402848813661e-04,9.895666217232194483e-04,1.514715026303255219e-02,7.954267034719980645e-02,5.274438876533997023e-05,2.129939124997231453e-02
3.524204223010985598e-02,1.370396476468618667e-02,8.482218326909122738e-03,2.030317362457544680e-04,1.508091494038224154e-04,1.560306663865751887e-03,2.738630727367908149e-02,7.055902288521889720e-02,5.473685456925104196e-05,2.130839739150967513e-02
4.805287690371257830e-02,2.951586012278796869e-02,1.137534562405324509e-03,2.419106556149705359e-04,7.641295011593114803e-05,1.895209262625531044e-03,4.681392209594805592e-02,6.033922711087653934e-02,5.506863320128306863e-05,1.491553793496670430e-02
1.314146045286870013e-01,3.802733537753841264e-02,1.815135727008311897e-02,2.776030648838312908e-04,1.414083589373773845e-06,1.195154273517580901e-03,5.516182567278218873e-02,4.357694563551398753e-02,5.371043891763765358e-05,9.422473283841605388e-03
1.649571989657601656e-01,4.192060909508049660e-02,3.111853215998638261e-02,3.057600077907588962e-04,8.193398647667457437e-05,1.006341604628758417e-04,4.238374604507879478e-02,1.954410106161737562e-02,5.067866901192882769e-05,1.212333423713856349e-02
1.319664756279277096e-01,3.912822275432962377e-02,3.482961401635107507e-02,3.346352614247624364e-04,1.644096074970728466e-04,3.533870757007963087e-04,2.013699158529318883e-02,8.063201398046788981e-03,4.603585257298741711e-05,2.139179075768324681e-02
5.519936340734822589e-02,2.302774546481408530e-02,3.196567557527263403e-02,3.728545818607288068e-04,2.481071546055032195e-04,3.176809964009458904e-04,3.574811115535184505e-03,3.185992411568919214e-02,3.988989558890908781e-05,2.886545677310712807e-02
2.536123548387625784e-02,1.275314316006677037e-03,4.078597122396282471e-02,4.023412866391254286e-04,3.323003525070240046e-04,6.201785967279507816e-04,7.442217870716482525e-03,4.443293107109549944e-02,3.239211940813515125e-05,3.075955834193517049e-02
7.472336029537780810e-02,1.587375531610095078e-02,7.773424377473882319e-02,4.037421159304913467e-04,4.163181897297472066e-04,1.262676994703631648e-03,2.073646887192975158e-02,5.112551659466729043e-02,2.373412118999179511e-05,3.132884618299765916e-02
7.423995522642515277e-02,1.091794972717442802e-02,1.161810367610950218e-01,4.149242754144571912e-04,4.995884714337971936e-04,1.424566390649082467e-03,3.582336096139086823e-02,6.686730418083357275e-02,1.414351638391745782e-05,3.394994734336916758e-02
2.691344731501065651e-02,5.177752998933866924e-03,9.699382433274920945e-02,4.782022360521521629e-04,5.815850151262799174e-04,9.396727531255346039e-04,4.478724678439870155e-02,8.708373740433979215e-02,3.878653637841280830e-06,3.529936102945764598e-02
4.387275135157719941e-02,1.984583200747802242e-02,9.000715601298937135e-03,5.138938976205803706e-04,6.617769345364238201e-04,7.943613886785109730e-04,4.397932040095085815e-02,8.392411701719892925e-02,6.777578963995660279e-06,3.103347266123402531e-02
1.053758025179924313e-01,2.898715644317043788e-02,7.958130815616488996e-02,4.295657220949682087e-04,7.397783101486872948e-04,1.643051828814460612e-03,3.747195841556881513e-02,4.852459700166882745e-02,1.752471157461260129e-05,2.202213693374999171e-02
1.312274188542008058e-01,3.196162479440502191e-02,1.023617476951896726e-01,3.956717565089692924e-04,8.154922122949367479e-04,2.786160253366043189e-03,3.110863228567313857e-02,1.124696102089194419e-02,2.805224691350117577e-05,1.253933601687976136e-02
1.105362336618919278e-01,2.547120356378967596e-02,6.788203646030936678e-02,6.262166879824230615e-04,8.888193969867701737e-04,3.345964594992353446e-03,2.730310347383091418e-02,1.308361660703937163e-03,3.804762550386910877e-05,5.469510218521562300e-03
4.963032332385829831e-02,9.058365182832751189e-03,2.358934321723374361e-02,7.325727538495584255e-04,9.593598373157192702e-04,3.478195938511838455e-03,2.428304893470034989e-02,1.078414661736608500e-02,4.720440213059552323e-05,3.372319397396904804e-04
2.488239749323444688e-02,9.549981670761957184e-03,1.273207860816520480e-02,3.897102885939205920e-05,1.027035452848614871e-03,3.739369734830761544e-03,1.949879771385938307e-02,1.756788296481854444e-02,5.523042488244258154e-05,5.042004103575845053e-03
7.159095682927613113e-02,2.028125453439786480e-02,5.376336312871219519e-02,1.503428438984172159e-03,1.092743623464896433e-03,4.164285174957893867e-03,1.467758216592947133e-02,2.099689832062188663e-02,6.185580449602914399e-05,1.096921905689763471e-02
6.577487184020774924e-02,2.050694087201966956e-02,9.818505755939062329e-02,2.276053784675103209e-03,1.157035586712758940e-03,4.527428714813164397e-03,1.455472814303896030e-02,3.142943333264192757e-02,6.684046354882899128e-05,1.538445289527808589e-02
3.026289212906943527e-02,1.666242912152760339e-02,1.143121656139175490e-01,1.488847857804904973e-03,1.218669149958138270e-03,4.837723028092692605e-03,1.953013779175981693e-02,4.303798690927876369e-02,6.998106238864625756e-05,1.769029164929724479e-02
1.305901788461498111e-02,1.544205138026003878e-02,7.216974415172655588e-02,9.783937753154883874e-06,1.277368222583353738e-03,5.164168037918831500e-03,2.590917871082772453e-02,4.379562438843914718e-02,7.111711144005350503e-05,1.945871154910022716e-02
2.777201808742498293e-02,1.487110618856458434e-02,1.492939388045418786e-02,7.813301630026016527e-04,1.336953116848107461e-03,5.429969220070295088e-03,3.443724341618242812e-02,3.971442627365853045e-02,7.013609744772888945e-05,2.056417885105152332e-02
4.336097272609597264e-02,8.500476479410146863e-03,9.115887844883334423e-02,6.984712272700288474e-04,1.399489687079890016e-03,5.673562328945543597e-03,4.924745583411761773e-02,4.422824199726231587e-02,6.697747389272065742e-05,1.906080470752476511e-02
4.089754081446375644e-02,1.742773698236907073e-03,1.077851041879230032e-01,4.861106062534376352e-04,1.458406604910051719e-03,6.092166150270824851e-03,6.615241434124907727e-02,5.463123306044464361e-02,6.163539272232029613e-05,1.491202206417028241e-02
3.946249203575145914e-02,5.584341353581067681e-03,6.865269526964096203e-02,5.388841332307737434e-04,1.510761529456012458e-03,6.530857387787913047e-03,7.253956696078811550e-02,6.111345093764441322e-02,5.416008507462798251e-05,9.933476243675061143e-03
4.693447376152436179e-02,4.048745995622907113e-04,2.274128290001637548e-02,6.653259163990997557e-04,1.572207254351749460e-03,6.510659397958580390e-03,6.409384195803009832e-02,6.721363100783513123e-02,4.465783213510936359e-05,5.077071523154911593e-03
3.490978303951418338e-02,3.138694476557091998e-03,1.482791679425807078e-02,6.837507653829805231e-04,1.651131308899886048e-03,6.153208797710502109e-03,5.254280274118509897e-02,7.992372616272498675e-02,3.328950271411150832e-05,6.175810974034715408e-05
6.308694651465721753e-03,2.611440336907981143e-03,4.660138603790311973e-02,6.393751258007986755e-04,1.715963182672293995e-03,6.145602612619268691e-03,4.904906221535573069e-02,9.102115055062202920e-02,2.026767064404045828e-05,5.952615163447514714e-03
3.499936868483524005e-02,1.065505121961002333e-02,8.502416769753491643e-02,6.361264910596767415e-04,1.749494947477146529e-03,6.268941238287041237e-03,4.819770772181097840e-02,8.852245257629134945e-02,5.852361929739130623e-06,1.318620372940766672e-02
1.341171633858211781e-02,1.058396069364825505e-02,9.891261099891747455e-02,7.340271682653593801e-04,1.820071805583478759e-03,5.360283561810475286e-03,3.909815665472079343e-02,7.586193049842657188e-02,9.654482102158053105e-06,1.906401140555701035e-02
4.361438241723150644e-02,1.113994097592011174e-03,7.891162831047744686e-02,8.461161238044301964e-04,1.967390174020224730e-03,3.505320284019080961e-03,2.537230586030319104e-02,6.389988648313330022e-02,2.591570499151484431e-05,2.022571918059327956e-02
9.904411905439571007e-02,1.412324458186479947e-02,3.642426124466473930e-02,7.711878908380099141e-04,2.047295623966591694e-03,2.728634275174150574e-03,2.269346247765363644e-02,5.798179618778092487e-02,4.256664663494925244e-05,1.855315823265289016e-02
1.350417862354984511e-01,3.073198603987893976e-02,2.476752779624669977e-04,6.276047225756470251e-04,1.971443546706813307e-03,4.516719944784557648e-03,4.086043636764884884e-02,6.417925776861735376e-02,5.922368567446841480e-05,2.050035196165286150e-02
1.459521573989576715e-01,3.824094487625212535e-02,1.701640159250499863e-03,8.928939491295503081e-04,2.047873260901242418e-03,7.750646937465979769e-03,7.421506572637104338e-02,8.764968368560066558e-02,7.549340727686661395e-05,2.830687974035080157e-02
1.249546284091357373e-01,2.537259449072183301e-02,2.393317738358047980e-02,1.335883509884147440e-03,2.484849867865339401e-03,9.854457137647685411e-03,1.031103648454757132e-01,1.127333490541641003e-01,9.098217155445684234e-05,3.565173643858465108e-02
7.883791337649863340e-02,2.649895581344926393e-03,3.934339382057881057e-02,5.951278780148389850e-04,2.595877697150521680e-03,9.307164560962819314e-03,1.045778421415756720e-01,1.088800753086127115e-01,1.053058462342547575e-04,3.357366910096399454e-02
3.546020370282119971e-02,2.501299794798371792e-02,2.739537805484725669e-02,1.798085991834330643e-03,1.620676124537373400e-03,6.639216499291077968e-03,7.427738482001391973e-02,7.213387912992258455e-02,1.180994595133586064e-04,1.988410180880629055e-02
2.150475883799682353e-02,2.809162556506387270e-02,1.214754102514314753e-02,3.734542453365899493e-03,4.206027959706850434e-04,3.631001702703898996e-03,3.765987509320407878e-02,3.744899140880650346e-02,1.290265230238037586e-04,2.975396643278928333e-03
4.437138932009093706e-02,1.550022768704972451e-02,1.376228655562016477e-02,2.905252461001221666e-03,6.633060955203933613e-04,2.131715647885360117e-03,2.564226170707302813e-02,3.325768433348708086e-02,1.377877791934593486e-04,5.060105409641073304e-03
9.614790606189713151e-02,4.193371847635145658e-03,1.870660502061134711e-02,2.005790210207661741e-04,2.105892443134132520e-03,3.299248774029833135e-03,4.185023916957419932e-02,4.871097058759474990e-02,1.441291477815936049e-04,4.898244012990771168e-05
1.515756375045640425e-01,2.412984618997232947e-02,1.093931435455706633e-02,1.559673392272567646e-03,2.889573626476002900e-03,6.872090511922294455e-03,6.626627469697554673e-02,6.314188547728433187e-02,1.478486645868273136e-04,1.206498674885432207e-02
1.629592966643745866e-01,3.384450664741276565e-02,9.057405532394684905e-04,1.519179615707296621e-03,2.780199869881888435e-03,1.067798954371285657e-02,8.254704183273332829e-02,7.833154132336341002e-02,1.488022080841026179e-04,2.438875371766060021e-02
9.420268150868427171e-02,2.444381675738802398e-02,3.673924757389070150e-03,1.064621374237103950e-03,3.261132321909189329e-03,1.188594102406066895e-02,8.666093765330713794e-02,9.864241894654991738e-02,1.469078350787011435e-04,3.517257026520385910e-02
2.801152225465032911e-02,2.236391738004751394e-03,4.234437291924854699e-03,1.093556438138733496e-03,3.815547676124646150e-03,9.549389196379405934e-03,7.790443224837283187e-02,1.052010331150297073e-01,1.421486221222298255e-04,4.294112377909579947e-02
1.253438770175652195e-01,1.444321258560846664e-02,1.893794513764864365e-02,1.276231999246959766e-03,1.625571036085152144e-03,5.171342034644919525e-03,5.600226760555011840e-02,7.346416469150254813e-02,1.345739530661655933e-04,4.094862507657714285e-02
1.429799114760166578e-01,1.368563882711861662e-02,4.452249928663500750e-02,1.382023246277828011e-03,3.588382603594932486e-03,4.787902512273664807e-04,2.168482400956694978e-02,1.638673239608169022e-03,1.242991410541585576e-04,2.229346998800723484e-02
9.627773569468622838e-02,1.673937092439515585e-03,5.082107698523807143e-02,1.476850809590388256e-03,8.030398796945970377e-03,4.123778298939172714e-03,2.342188141299372806e-02,8.878074596658323825e-02,1.115032970711537748e-04,1.025078431705316560e-02
3.385197434819653406e-02,2.181981296412550606e-02,1.316326626352371312e-02,1.271988589136160801e-03,8.969785866315169859e-03,8.422511341346161987e-03,6.875531654207628351e-02,1.664113383016342651e-01,9.642559444120455184e-05,4.428370304957128523e-02
2.688730734261524785e-02,3.847804961080095176e-02,5.009792110571795187e-02,6.329209863261194436e-04,7.891048106632719480e-03,1.128287919998384806e-02,9.444593703762958758e-02,2.015270234950656825e-01,7.936016339408743028e-05,6.802788337143395037e-02
9.877903308511039315e-02,4.655721825614796833e-02,8.941396606209443820e-02,1.874021840154914626e-04,7.009669007172787160e-03,1.214282408426478090e-02,9.638697437631521536e-02,1.848734502344359376e-01,6.064947539521881140e-05,7.743006662277282515e-02
1.608166127528293798e-01,4.331833134396454593e-02,7.904388902900856551e-02,4.696692754376101983e-04,6.276697245728780558e-03,1.252553798023864004e-02,9.933131925360953740e-02,1.437896490881379608e-01,4.067601366915232552e-05,7.443816195215649523e-02
1.454304826195055578e-01,2.873987686470796596e-02,4.390189664173402284e-02,1.196166446078268100e-03,4.951810202284687330e-03,1.372739004337081119e-02,1.213025605508529503e-01,1.203127041299016098e-01,1.985294584117292671e-05,6.300930647722599587e-02
2.566183119599629858e-02,6.723627788774564143e-03,2.197244359955170118e-02,1.807084869018034867e-03,3.079104510505859850e-03,1.384304749743151507e-02,1.403281241477306041e-01,1.224319648927949533e-01,1.385213901006441067e-06,4.845282800640437343e-02
1.263149667987282232e-01,1.517266685312439883e-02,1.908207154080449053e-02,1.702327058662734616e-03,9.855954067273606928e-04,1.057924182415186966e-02,1.278846444456119558e-01,1.202142854187016885e-01,2.259282209629964174e-05,3.808045701573745112e-02
2.122937413257660610e-01,2.908731531930918573e-02,1.931591767837311305e-02,1.513338240476477413e-04,6.817311036852161023e-04,6.444079044244344426e-03,1.010015609804526260e-01,9.929129059087100917e-02,4.332561455809099034e-05,3.756092999522087084e-02
2.068854909153434729e-01,3.170317621400682573e-02,1.989934130185706807e-02,2.785015468406630817e-03,9.057234083982472830e-04,6.725428650611953510e-03,1.025563155633033297e-01,8.126571414971747731e-02,6.315289949990122076e-05,4.409297226925534136e-02
1.496715303538053710e-01,2.637763220795024538e-02,2.671316306104856361e-02,5.747648472471298363e-03,4.750413006020871073e-04,1.229986836702115158e-02,1.366231445801418809e-01,7.513135982755664299e-02,8.166551547975839105e-05,4.695983640990261665e-02
7.907685076738477092e-02,1.926669471952140514e-02,3.012240936952992679e-02,7.374453394888407995e-03,2.257419040231001782e-03,1.834886857360631257e-02,1.608065246466482690e-01,5.259336652981262683e-02,9.848415392106031954e-05,3.893175459410962158e-02
1.616326980477847050e-02,1.391497691809880435e-02,1.694085320996078017e-02,7.448549703561973059e-03,3.296773392406068814e-03,2.036706676313262618e-02,1.441425600596568102e-01,5.786597908637516885e-04,1.132756660047765855e-04,2.573770818140449015e-02
1.590013226399848711e-02,1.154294676169205676e-02,1.419443633154598029e-03,6.438402341477394292e-03,3.776937855629302829e-03,1.875402856500721707e-02,1.037918826707763115e-01,4.629704947792992464e-02,1.257668736550927435e-04,2.107266428738078373e-02
5.970356986598583660e-03,1.206565522550647612e-02,5.783478698418483954e-04,4.651917628340982748e-03,4.335257340490491183e-03,1.701649920206032771e-02,7.665130226316832496e-02,4.228112967713877623e-02,1.357385200306978322e-04,3.065747433580287215e-02
2.087941190806918632e-02,1.097333361567465540e-02,2.793720986649016885e-02,2.277693994610463773e-03,4.399013712892885578e-03,1.681265982767090467e-02,7.304306851737688011e-02,1.402669079631678473e-03,1.430205293013284574e-04,4.387659414838470523e-02
3.137759186689589863e-02,3.369275545946332981e-03,6.197339571879664777e-02,1.011364747568048211e-05,3.059989311192714331e-03,1.632209223268403855e-02,7.355408412622681247e-02,3.397693516394797997e-02,1.475255324243953921e-04,4.670444042369579357e-02
2.763272491163933781e-02,5.211337151962645506e-03,8.796919371367820095e-02,1.239832995200641037e-03,1.718783235927693600e-03,1.392664219808354906e-02,6.454298006064873583e-02,5.238530893817774231e-02,1.492758300129893114e-04,3.940659490000820303e-02
3.258713768888608225e-02,3.638856128958831669e-03,1.041557749034919267e-01,1.256111535257870221e-03,2.974280667819900227e-03,1.109256630425898248e-02,5.497687774155374935e-02,6.516996470386099416e-02,1.483432278501692597e-04,3.140518649246695770e-02
4.607166917829496472e-02,6.681501236965582853e-03,1.060152632939271866e-01,9.062990778944027921e-04,5.926087970586023899e-03,9.492188970530420281e-03,5.281584259627233879e-02,6.146347618493638865e-02,1.447950386406260165e-04,2.299168219659477458e-02
4.541622773818616149e-02,1.250982753931381003e-02,8.732014696123598096e-02,8.494047810115247683e-04,6.226972212793669727e-03,7.630384374806145793e-03,4.599757854357625769e-02,2.362243665991591024e-02,1.388205352221847711e-04,6.562573330256789295e-03
2.349989909782742442e-02,9.208423704477665742e-03,5.590435285190883258e-02,9.529602086877926159e-04,2.333830549660720430e-03,3.408955763262191702e-03,2.151446202329156121e-02,2.267807679295009982e-02,1.308431021916319815e-04,1.567687439210282974e-02
5.198882910409528303e-03,5.789090932885075820e-03,2.523937900264109149e-02,9.353437495641040832e-04,2.088099879972566981e-03,1.520853944180961025e-03,8.679400450956732335e-03,2.582016835260975834e-02,1.212408830424873692e-04,3.001482916485166685e-02
2.164158494284795439e-02,8.080337873110554278e-03,1.814453473185218598e-03,8.454673969826738671e-04,3.537969143037048101e-03,3.168709788683622772e-03,1.683992769560127903e-02,1.930939452625206679e-02,1.100822343520345306e-04,2.908274256266815683e-02
7.277845012896504151e-02,1.128756538782781441e-02,2.063789977607711351e-02,8.142286119135850805e-04,2.797218828928410474e-03,4.658576004662440782e-04,7.050868776088703785e-03,6.182601382567795567e-02,9.769253125089555508e-05,1.991568933189171234e-02
1.211628030096195963e-01,1.168678007613421603e-02,1.584392988389589710e-02,8.208721653644815994e-04,2.272329626954379053e-03,3.533768148629176740e-03,4.295773423048108303e-02,7.090936687939569660e-02,8.520641387480195358e-05,1.221929950921652082e-02
1.257809941871653181e-01,1.210203688060154485e-02,1.256540078802250923e-02,8.040447872392972577e-04,2.472705812263524625e-03,5.656324749052667883e-03,6.508050985811839051e-02,7.549889640027739046e-02,7.334020507917439892e-05,8.829367579090453833e-03
7.931079011982816729e-02,1.266956965417679985e-02,3.560738475263790920e-02,7.726832085237228401e-04,2.611999635258249481e-03,5.301635366896016895e-03,6.716124237318393808e-02,1.057147576476348133e-01,6.114573192435391398e-05,9.666963818934453875e-03
1.447005213834351607e-02,9.083018707133211356e-03,2.919669259213817161e-02,7.554913827938826995e-04,2.444951203190713282e-03,2.939208645803961101e-03,5.753997340635069735e-02,1.379996020251649802e-01,4.856230315610690748e-05,1.578842856548305640e-02
2.109643864361630469e-02,2.871011554788668700e-03,3.414713634358557647e-03,7.484063564400306656e-04,2.237295847419601760e-03,1.251819813431359965e-03,4.109869829063301366e-02,1.276646851764569879e-01,3.910601030637570863e-05,2.737701283772355637e-02
1.850124394419512541e-03,2.199552473270804075e-03,1.743896470923816944e-02,7.376155015630966698e-04,2.136925748155217922e-03,6.200262530849957529e-03,1.626745755040978278e-02,6.674566725362308939e-02,3.445062900394886535e-05,4.316298920118735727e-02
5.787955383232715190e-02,1.135845795360594830e-02,2.677997711003564374e-02,7.244459332483440487e-04,2.211512934072607135e-03,9.674787231130535514e-03,1.548511667738432240e-02,1.007372256796142812e-02,2.850411562950626505e-05,5.998334983982964858e-02
1.224211557867152800e-01,2.660081632256091830e-02,3.413692719158648720e-02,7.149026583298963549e-04,2.339693802915293174e-03,1.053025875204746491e-02,4.394564878350265547e-02,5.836165297723121259e-02,1.878989143914213409e-05,6.956409625387402484e-02
1.638027946205705410e-01,3.994713121373392323e-02,4.584500924880192951e-02,7.078996091118314009e-04,2.039264964468919059e-03,9.855667419995982684e-03,5.659416977542242044e-02,5.774656009436446302e-02,1.935929387115433510e-05,6.325456890470976257e-02
1.721373080229355312e-01,4.397812472809065065e-02,6.125130101211018890e-02,7.000291265184246589e-04,1.212515799359315666e-03,9.191864537160841092e-03,5.336354692762203256e-02,2.604811733470572405e-02,3.679067731880015228e-05,4.528746533155629528e-02
1.521185681383755983e-01,3.722248471580098805e-02,8.012123096570923642e-02,6.911465762146056652e-04,6.910071152506219727e-04,8.932337911297627900e-03,4.978981956140918208e-02,3.235937338482760411e-03,4.195922689179012836e-05,3.204834845460648174e-02
1.157024480435277225e-01,2.499925250726535084e-02,1.018849553236941818e-01,6.822214890930228086e-04,1.099964087702025046e-03,8.839178357435296257e-03,5.712469122630402241e-02,1.877408554693082640e-02,2.053515675538727475e-05,3.175858574556351954e-02
7.057224601596680247e-02,1.189488154721221602e-02,1.208613762104681494e-01,6.727127834158480417e-04,1.818067573058769308e-03,8.685169123275295749e-03,6.491107652765074065e-02,3.403524832280861723e-02,3.457985004723411530e-05,3.440197957468801165e-02
1.210307174639068707e-02,3.740803481252781559e-03,1.320190021988011664e-01,6.615592142001924542e-04,1.981036563536132944e-03,8.098836012035592891e-03,5.456771295770983937e-02,5.837198924491545510e-02,1.162951983995545946e-04,2.874657202568351236e-02
6.553530703207349761e-02,2.414148427802518398e-02,1.403470959985563815e-01,6.484363270589654782e-04,1.703256260381568951e-03,7.039220890702770767e-03,2.706812100108934444e-02,8.436129208290069070e-02,1.335590945613170826e-04,1.949080609358422311e-02
1.431549241482319157e-01,4.282449342115354773e-02,1.535055733920534238e-01,6.333229652497416456e-04,1.544417510106919347e-03,6.326955138180338258e-03,4.986932688844388992e-03,1.003099296559342157e-01,1.318699201961715675e-05,1.717047810531556126e-02
1.757971160538774336e-01,4.678340712271503166e-02,1.633450651903609607e-01,6.159210979321984433e-04,1.575977344517388683e-03,6.543688667709894949e-03,5.731395053984790836e-03,1.008431791585040066e-01,3.683078557623632303e-05,1.791333695840305676e-02
1.412849971648533765e-01,3.167267908798747367e-02,1.493490107357970387e-01,5.958638470467792587e-04,1.556081439321036755e-03,6.983966580956551401e-03,2.411529566976390593e-02,8.320195869334129357e-02,3.787164676412677479e-04,7.472747138067756950e-03
8.023971393555678899e-02,1.012290332159432316e-02,1.081089110497991113e-01,5.729999870356943144e-04,1.443443948349956056e-03,6.832699661114171458e-03,4.615129511634489395e-02,4.133299272986964978e-02,4.069892855919234986e-04,1.491737924472862596e-02
5.893408524401468063e-02,1.018206716908173900e-03,6.450727045321968944e-02,5.473082268610661048e-04,1.349170060166809699e-03,6.432661533136088336e-03,6.753985136365234232e-02,2.450515712250570660e-02,5.651526784320393603e-04,3.103838288919075206e-02
9.499592606052992272e-02,2.282043795916134307e-03,4.253796787045648758e-02,5.187688868968903105e-04,1.293738158251684983e-03,6.268987341370893529e-03,8.858566589591010398e-02,9.140433041724554952e-02,1.791575676210312032e-03,2.701911994966874064e-02
1.467867872166417065e-01,1.279600062831638685e-02,3.797757781891972911e-02,4.874059949473805598e-04,1.225242841554183195e-03,5.855188935593211297e-03,1.023119911043509633e-01,1.258324002586018731e-01,1.764800056673827486e-03,1.076417463511470003e-02
1.777691791702851742e-01,2.564164714045822149e-02,3.181378012271465772e-02,4.533489168391385826e-04,1.133424688344271186e-03,4.828025382075710158e-03,1.020171571081320422e-01,1.220096240036809693e-01,4.854314943493705562e-04,7.892742594033897927e-04
1.962430371044667221e-01,4.113873041368437677e-02,2.073602692458380303e-02,4.168119043024941109e-04,1.042587814926719189e-03,4.012377348983845425e-03,9.327563057189927620e-02,1.089647206090074566e-01,5.378533670924558543e-04,2.562120852003118860e-03
2.104363094980626070e-01,5.500188224597934994e-02,2.059886642031616422e-02,3.780610024811694152e-04,9.581249155029032813e-04,4.155805813772268584e-03,8.483765738151093083e-02,1.055680341793748672e-01,5.577665037374509617e-04,9.535933199348186305e-04
1.857825676469052611e-01,5.664404531630137796e-02,4.038993366575660549e-02,3.374168380613464446e-04,8.691795938957521100e-04,4.641433111584317671e-03,7.463117548065831275e-02,9.151153396308261967e-02,2.600255864778795983e-04,1.310930980020169698e-04
9.437237722155861208e-02,4.150790965190395698e-02,6.309231863584849331e-02,2.952615110388379332e-04,7.737103663946140204e-04,4.547962509508307952e-03,5.770598975657033336e-02,4.545706511997048282e-02,2.754967425955143429e-04,2.638861331837579274e-04
2.512652823875645772e-02,1.645450014593943799e-02,6.144379571637753612e-02,2.520266807657228487e-04,6.775294666903423609e-04,3.987624490470920331e-03,4.013129797199455756e-02,9.350211837036498039e-03,4.290842221402101303e-04,4.868016308878515830e-03
1.052552220473402245e-01,9.001941349892277761e-03,3.075526269858173262e-02,2.081776923244903080e-04,5.825416036351548869e-04,3.547870220864888721e-03,3.287964274621291150e-02,2.788857477567550230e-02,4.384055701903532133e-04,1.610453549528164524e-02
1.197576395558704043e-01,2.727414006457895904e-02,5.877816606613825261e-03,1.642049404874723400e-04,4.870532234575294852e-04,3.303049176254494249e-03,3.918454041338894495e-02,8.239959904949682723e-04,3.760708858580963463e-04,2.442378452065996006e-02
8.642049093233092338e-02,3.163217286808957945e-02,2.643932254545108135e-02,1.206159805997013837e-04,3.912595632615278353e-04,3.000312284645430261e-03,5.486527192475189330e-02,4.787964802454316299e-02,3.737970292875727866e-04,1.770463587452099363e-02
3.577953732216762606e-02,2.301504349802806215e-02,2.990144290795137411e-02,7.792341619507373127e-05,2.970977257274369857e-04,2.599238354324361327e-03,7.109263512554632458e-02,8.486983946077114593e-02,3.991550030584396737e-04,1.426250561731930286e-03
5.970150255436068587e-03,1.306777528740341726e-02,2.533547485696560631e-02,3.663191399949044093e-05,2.056541805769482984e-04,2.218780601263116176e-03,7.368585208480075976e-02,1.060262420481492551e-01,3.900390376705310932e-04,4.568269780843983892e-03
3.572065625655343468e-02,9.680087064425305782e-03,1.877530808207169416e-02,2.772901914755804232e-06,1.172719058403678667e-04,1.882074852552768039e-03,5.328099088993069887e-02,1.165904570126546358e-01,3.609173586478658957e-04,7.949687464834192391e-03
7.633264971972084090e-02,6.759716434938455726e-03,1.731161228669687857e-02,3.983482600690772780e-05,3.273148068564486150e-05,1.536749944244996877e-03,1.992008716167672014e-02,1.202391079791731848e-01,3.412316836953016531e-04,2.507456161886316079e-02
1.320817434475337615e-01,2.981431615425952052e-03,3.059935886001337313e-02,7.413763990776617839e-05,4.701932290372728062e-05,1.174611481559113216e-03,4.007576832511178591e-03,1.193129823419578767e-01,3.248903042527409362e-04,3.020078934755785274e-02
1.575459840573535941e-01,1.376327420746186435e-02,5.824469792944704516e-02,1.053149822398472533e-04,1.214397919468143477e-04,8.235866417368466717e-04,7.234071719927098743e-03,1.175075863452581526e-01,2.984854144887486883e-04,2.354282001011588632e-02
1.088120466742003994e-01,1.395318970544829132e-02,8.420443083435964760e-02,1.330587353760587655e-04,1.898590319000137579e-04,4.915113155784671438e-04,2.295386973776953124e-03,1.181230485835999683e-01,2.652773384194557767e-04,1.542465037886892737e-02
1.044723307674526487e-02,1.669504357954936132e-03,9.095622882542243881e-02,1.571260271043938700e-04,2.512307415810288626e-04,1.691315152669321939e-04,1.038937685157545997e-02,1.174764115195460479e-01,2.322620081732436911e-04,8.665926371238769771e-03
6.775177905866187900e-02,1.359783326270067386e-02,7.603150295679772519e-02,1.773449442049224883e-04,3.053481980568176278e-04,1.436222709459317485e-04,9.274893393643776629e-03,1.020880198286784890e-01,1.987667116347693560e-04,1.342540158395069119e-03
8.944859010923658649e-02,2.145179361988695799e-02,5.246068543982876364e-02,1.936186866573483061e-04,3.530008174510344495e-04,4.388033406668832457e-04,5.283734906796552777e-05,6.178607710684378557e-02,1.623483018698280826e-04,1.346326473626235747e-02
7.361703684725086350e-02,1.806223329527682081e-02,3.397822453955669925e-02,2.059279372364055728e-04,3.934010700857748402e-04,7.128483428245582136e-04,1.161555389386562109e-02,7.453496630444582383e-03,1.241853057780677606e-04,1.951078092619294713e-02
5.010259039542210024e-02,6.301757354671674687e-03,2.129419448708404564e-02,2.143314484852040032e-04,4.240165722385277631e-04,9.662605984488221089e-04,2.120438384095403583e-02,3.399130040568836691e-02,8.636060829663789367e-05,1.626223553272415981e-02
2.521338148203471768e-02,7.190192529401005436e-03,8.204254697427203896e-03,2.189648873906955792e-04,4.460904298227666865e-04,1.197873517228899374e-03,2.971295988568858210e-02,4.560793074397734292e-02,4.928113230167882662e-05,1.207715289145187137e-02
1.189737284041320585e-02,1.749256119951533503e-02,1.694733326797377704e-05,2.200379308576926518e-04,4.650573024997648234e-04,1.404994831283340028e-03,3.758999890113088466e-02,3.416801045017152372e-02,1.289605136193037096e-05,2.087452106696990883e-02
6.391457994239320428e-02,2.629278194203238384e-02,1.049011709871548043e-02,2.178296455025104160e-04,4.787593447780269171e-04,1.586151632890292528e-03,3.988572241878764191e-02,1.593375684086566907e-02,2.210252149797654946e-05,4.962117904286413722e-02
1.019081000799984676e-01,3.552988730666295503e-02,3.801656686851323519e-02,2.126822657430247612e-04,4.762867268736100486e-04,1.741103234874100125e-03,3.220577690796650600e-02,2.607786522254067207e-03,5.485693275960940360e-05,8.861118589264722900e-02
7.490991329463604631e-02,3.554750090030704690e-02,6.335202511902313094e-02,2.049935216326424835e-04,4.630997338067261229e-04,1.869591423554149527e-03,1.875908540912733444e-02,2.357333566854595899e-02,8.493357977512658427e-05,1.160483281003763245e-01
2.987414268963533431e-02,1.360760160499504753e-02,7.469017878915433506e-02,1.952076823817983412e-04,4.641136096015392710e-04,1.971342366470599586e-03,9.655462489552665839e-03,4.358123328750179715e-02,1.120782172967506546e-04,1.170410274124130817e-01
1.466195756998297794e-01,2.171545338516548199e-02,7.477600803211088831e-02,1.838055109574232831e-04,4.700911247471173762e-04,2.046662230541080457e-03,1.101043370758800558e-02,5.142020126562474314e-02,1.359530291871186144e-04,9.606584414832414209e-02
1.920677640525644270e-01,4.315272306449861872e-02,6.574068182201792121e-02,1.712933595606053172e-04,4.296187973606195804e-04,2.096440946372412489e-03,1.973955647486378556e-02,4.092514839190600218e-02,1.562613676094792750e-04,6.761109361118740335e-02
1.591936575338923354e-01,3.811199071270701677e-02,4.671696204325007790e-02,1.581916563283231416e-04,3.633442009654900542e-04,2.121857799628896514e-03,2.809828334460872865e-02,2.020338527287930327e-02,1.728826426996048151e-04,3.952073398513378938e-02
1.063931807016484932e-01,2.022448695539921792e-02,2.147885283284781122e-02,1.450230439432443990e-04,3.841697606064251882e-04,2.124347973595640260e-03,3.199232372475773606e-02,5.970610795240657506e-03,1.858223985359816791e-04,1.180131570048473938e-02
6.830076316863148422e-02,3.394689013906047968e-03,6.247270977059172364e-03,1.323004392112307433e-04,4.537650008132497665e-04,2.105700060718064537e-03,3.196712183821419362e-02,8.455094201256795755e-03,1.951517577237186921e-04,1.167122821473945242e-02
2.966493382665041229e-02,1.365113350305610651e-02,3.537599982207702276e-02,1.205152870418542280e-04,3.301225249068685894e-04,2.068022131740945933e-03,2.728251141467333274e-02,1.945092106985015640e-02,2.010295361067115710e-04,2.125757550229193799e-02
2.153442009792880946e-02,3.147767038086896063e-02,5.510068741737370740e-02,1.101262785305102835e-04,8.223345110797151741e-05,2.013635262842894749e-03,1.666603001346156701e-02,1.941292241563188567e-02,2.037265817776363680e-04,1.529905063222918894e-02
6.554777288134362723e-02,3.937408926794501440e-02,4.645955335711709350e-02,1.015487918735929541e-04,2.740397256035985918e-04,1.945019583155898875e-03,6.032949292863027356e-03,2.329969546802608711e-03,2.036077359070579112e-04,6.549090925564367803e-03
7.649915946599490646e-02,2.869111717783186591e-02,9.092240739504361957e-03,9.514529877113105647e-05,1.029324883509786463e-03,1.864788450060949048e-03,5.789622504400025564e-03,1.544113227640255513e-02,2.011087008090514693e-04,7.886713182455384191e-03
4.652971689077619460e-02,4.320988699006308997e-03,3.044668183368553008e-02,9.121695778348116296e-05,1.478920899793397664e-03,1.775633701938624399e-03,1.711721528879262683e-02,1.899385529532148301e-02,1.967294079242936885e-04,1.847077120024924815e-02
1.010502009313986142e-02,2.121112333595582405e-02,4.967983593840753775e-02,8.999658939740528185e-05,9.850761499325261239e-04,1.680254624665624731e-03,2.923478796700918272e-02,1.218559810554293958e-02,1.910270278262307393e-04,3.014816002571508308e-02
6.112314657593282546e-02,3.847579206420642661e-02,5.262528282459706663e-02,9.164319607869678022e-05,1.865089318948151369e-04,1.581299468340930910e-03,3.295038466727737841e-02,2.423415652883206210e-03,1.845987199739931677e-04,4.055273783179092623e-02
7.872132623280253538e-02,4.572367672185072285e-02,5.092587335959830597e-02,9.623815547140848877e-05,4.666489561033493056e-05,1.481315926935576448e-03,2.919355710254264991e-02,7.897732654254070381e-03,1.780623770629062520e-04,5.228650260990461152e-02
6.684915749779049565e-02,4.620853047961088339e-02,4.234372709674318752e-02,1.037831768763313497e-04,1.626815993518047009e-04,1.382698972465584535e-03,2.260722358606699622e-02,2.826103060210900450e-03,1.720406401688490421e-04,6.260023612917724189e-02
5.037701505309512273e-02,4.180263844864145345e-02,2.144915483544825377e-02,1.142000708731199382e-04,2.514618160801755740e-04,1.287639433545878162e-03,1.537356164877250880e-02,4.091602345010294378e-02,1.671449660442945648e-04,6.192868281125641500e-02
3.670012188339952935e-02,3.117389642220464233e-02,5.864507678342432279e-03,1.273323403894805925e-04,1.514685602889438557e-04,1.198080516747900568e-03,9.717606832826028787e-03,1.091885671654066053e-01,1.639578483556002628e-04,4.485302672922307499e-02
7.922829853106794565e-03,1.451925446021912550e-02,3.331244923073221204e-02,1.429485597099439207e-04,1.054072975954933623e-04,1.115682321247259048e-03,8.385775510549572931e-03,1.484002456380422719e-01,1.630153029756934129e-04,1.744967715709531270e-02
4.463349940462754684e-02,3.853816184959873298e-03,6.338873606138717420e-02,1.607474668032315783e-04,1.522078836023494795e-04,1.041792318332328531e-03,9.901136918577071663e-03,1.329738631228306878e-01,1.647911571681028205e-04,9.039678497944295815e-03
9.377896110260518225e-02,1.840783056659009431e-02,8.981604090227240933e-02,1.803646548349371664e-04,1.794574942047419625e-04,9.774228493339733037e-04,9.653171862881289311e-03,9.991967754587235961e-02,1.696827820756991161e-04,2.693725926175195157e-02
9.783391037653055289e-02,2.454970565500813259e-02,8.958841495577221647e-02,2.013807117380553193e-04,1.668805506743607672e-04,9.232374416615469993e-04,6.746501478848896532e-03,9.383930675406368382e-02,1.779981198208071787e-04,3.271178539711690897e-02
4.871364713023566134e-02,1.925781453398511811e-02,5.375096305331913960e-02,2.233306231137599626e-04,1.661409014890342516e-04,8.795460248587237337e-04,4.621858152201525211e-03,1.133836176913543686e-01,1.899447023583104236e-04,2.550299953269082737e-02
1.316782520987866412e-02,4.502994061359840566e-03,8.816408363185567962e-03,2.457142243105258413e-04,1.866016741540686675e-04,8.463084627062661403e-04,5.659931733848138496e-03,1.332410474252507249e-01,2.056212100417166740e-04,8.818043099933892126e-03
4.033254504328095263e-02,1.059561842759115108e-02,1.432679106749219430e-02,2.680074629642946243e-04,2.033465790410578060e-04,8.231463135613553434e-04,8.866986245674968528e-03,1.433025742792925772e-01,2.250116473803518314e-04,9.489215132162283350e-03
2.755361977507709767e-02,1.617912645245339620e-02,1.624124304793660850e-02,2.896742141523700096e-04,2.107910325605839982e-04,8.093627517526229276e-04,1.119657401030450805e-02,1.428174703538481194e-01,2.479821943509167063e-04,2.160924715771302129e-02
1.021570955132048049e-02,1.131881485714600344e-02,1.491504513140659051e-02,3.101783770717581870e-04,2.196090822300967595e-04,8.039700635690118051e-04,9.955626206995223451e-03,1.253719448970090078e-01,2.742809198185278325e-04,2.493054926753008119e-02
1.666432216260243723e-02,4.564880874484103512e-03,1.444765435944356420e-02,3.289959751292755074e-04,2.316186258391382752e-04,8.057238451240754818e-04,5.922468388205211209e-03,9.257016347408299206e-02,3.035404558392079438e-04,2.310682931614426588e-02
3.437325387907873286e-02,4.130961094584035750e-03,8.962401666162814196e-03,3.456269807227362848e-04,2.409389496813034621e-04,8.131630222105959861e-04,2.737728123627187950e-03,6.186488245594137098e-02,3.352835682035068912e-04,2.058530015334168392e-02
3.176533768207595587e-02,8.987145304983968838e-03,5.306737207000203176e-03,3.596065918171687296e-04,2.457896355484742008e-04,8.246547286911769204e-04,1.391583405655178775e-03,4.303586854631633735e-02,3.689314938229213249e-04,1.626268470155759968e-02
8.138104263190212850e-03,1.131124012671783606e-02,1.851183018002245870e-02,3.705156995256586702e-04,2.481163203283393687e-04,8.384428992072118442e-04,1.288633557174719522e-03,2.408467613748892233e-02,4.038148884014647593e-04,6.275154367788535539e-03
3.036406233580653258e-03,7.902225096071560997e-03,4.572311025709623056e-02,3.779903040675731810e-04,2.480828662956975042e-04,8.526993244895634226e-04,6.718713140498122106e-03,5.206965475385294528e-03,4.391871585991643546e-04,6.830478348308010976e-03
4.281395268712422791e-02,4.575869763689565349e-03,6.452678038000880800e-02,3.817296603819419240e-04,2.441981902482380572e-04,8.655758984256270178e-04,1.104290833976534839e-02,3.423581018753358435e-02,4.742398717998166338e-04,1.379221549979493117e-02
9.457509965325550105e-02,5.548256388577006183e-03,6.166946200546161855e-02,3.815029637149460959e-04,2.359130756804782986e-04,8.752567778944097317e-04,9.455643097922433737e-03,5.080116992839205092e-02,5.081198834717667910e-04,9.338163302607345451e-03
1.028583416630345498e-01,5.320997879742034482e-03,4.738569440879724509e-02,3.771544188439045339e-04,2.236058401952661554e-04,8.800091723625399955e-04,1.065948680715323674e-03,5.825689034441904751e-02,5.399477852716926549e-04,2.598302380334630360e-03
6.405323493999706685e-02,1.572940523459886433e-03,3.665169193072897319e-02,3.686065736423590382e-04,2.073753142501955668e-04,8.782315165373249990e-04,1.135067099723911441e-02,5.757946061905410556e-02,5.688372401059493258e-04,1.460300050584619966e-02
2.754973312879099509e-02,9.271998083736842158e-03,2.914092023856471383e-02,3.558618379794225195e-04,1.870371660196832762e-04,8.684978585933715058e-04,2.382865765299755495e-02,3.713815836003928061e-02,5.939147407061416781e-04,1.995465885329543443e-02
2.492395447635379138e-02,7.777461609627443415e-03,1.234822254083976951e-02,3.390021512475958052e-04,1.626906684242164242e-04,8.495973995755164501e-04,3.255576913796458249e-02,5.868999395200000940e-04,6.143393139607376038e-04,1.426431943943620370e-02
3.528930225078902999e-02,1.790845014399653672e-03,2.005239984073893533e-02,3.181868043132471684e-04,1.347269120421351444e-04,8.205682419356517777e-04,3.439524106821824356e-02,2.543156576378817132e-02,6.293216908333558674e-04,1.978514669820398593e-03
2.276671876361726493e-02,6.217383773731773901e-03,5.369790355141786792e-02,2.936484640488945031e-04,1.035565710261958199e-04,7.807245515667282729e-04,2.846066323161299677e-02,1.200755313541307552e-02,6.381424699938005683e-04,3.842090041753850639e-03
2.037898089317594433e-02,3.984933950149852425e-03,6.266535110276698350e-02,2.656874916711477169e-04,6.958784025053849596e-05,7.296765054543737344e-04,1.846603223735542032e-02,2.945424177054674006e-02,6.401688261965142934e-04,3.553366108380908925e-03
6.841799621835886747e-02,2.083798315979047688e-02,4.046271035958060036e-02,2.346646875394827999e-04,3.334070257659080039e-05,6.673425782886201370e-04,1.096607030876962062e-02,6.589217055617234420e-02,6.348693478171211699e-04,1.721936421642761630e-02
8.667979796122704528e-02,2.599851958741427813e-02,1.121077824257762923e-02,2.009926299887939229e-04,4.548301413103092460e-06,5.939539110555995972e-04,8.272845143754193470e-03,7.469976954031409822e-02,6.218266243393978003e-04,2.931322838226490743e-02
6.761871493306897962e-02,1.164978981652997451e-02,2.149710803173671223e-03,1.651258060939566556e-04,4.340054720379920439e-05,5.100506998068441572e-04,5.917366222386899119e-03,5.883073451268538978e-02,6.007472540005690583e-04,4.028576436388590226e-02
4.090362813103352868e-02,1.200762303909523078e-02,5.140917598220557348e-03,1.275497657053392166e-04,8.254144935458028682e-05,4.164707389585947835e-04,8.480377693628185151e-05,3.561040227316594753e-02,5.714690169019090308e-04,4.928383417764536228e-02
3.651174914354783640e-02,2.931430212537807986e-02,1.125008017600374888e-02,8.876956021903426529e-05,1.212870282639543070e-04,3.143304450219066215e-04,6.981845485696481710e-03,1.816764172936364413e-02,5.339650335965977950e-04,4.644772627405639037e-02
5.026434197178322044e-02,3.129462789990584970e-02,1.244310593125606823e-02,4.929773548976643365e-05,1.589013084176717748e-04,2.049988688345211923e-04,1.211245867805914138e-02,1.071943509709400756e-02,4.883447719668631941e-04,2.510707221167761405e-02
5.654324378361286901e-02,1.850921208280212338e-02,6.512988031174443172e-03,9.642145411854713904e-06,1.946313450632196026e-04,9.006537314748647399e-05,1.545454063935296912e-02,1.520990963397655417e-02,4.348518268589987926e-04,2.878261046907591540e-03
3.613175873276897043e-02,1.082221627743909986e-03,3.451335475292986038e-02,2.970612192766981384e-05,2.278493762055039981e-04,2.869819615332837759e-05,1.598680335047257192e-02,3.215861833103088319e-02,3.738585405829094612e-04,1.600307027213116254e-02
1.297958860909888962e-02,8.396369727850806416e-03,4.096092339071506772e-02,6.828438427488889924e-05,2.580555742751143144e-04,1.493798865998999085e-04,1.008554916989771663e-02,5.599708675597001029e-02,3.058576452088582740e-04,9.324979372893085067e-03
6.926028313608655063e-02,9.197824706776448409e-03,1.844224103338815840e-02,1.056693015772592394e-04,2.846269348701999796e-04,2.699734987687161733e-04,9.895432434794953092e-04,7.640605896715324530e-02,2.314510459948750402e-04,3.210238262672656870e-04
9.410678622342896760e-02,1.290977466393022563e-02,3.159481115855203477e-03,1.414869214923483221e-04,3.068423913149681006e-04,3.884267847371092081e-04,8.624850014694394884e-03,8.424624553684201267e-02,1.513358605242226258e-04,4.120283359402577769e-03
6.719087720402486252e-02,2.494861949255589018e-02,5.083686408248797202e-03,1.754215781238401548e-04,3.244618379041438647e-04,5.026907899133221166e-04,5.923921337371191274e-03,7.682572630311258755e-02,6.628818696309481291e-05,1.480219608645525972e-02
1.008012666530508535e-02,3.592201217627513654e-02,3.414350865046879985e-02,2.072232682285672916e-04,3.377297571265036819e-04,6.107691210270417342e-04,4.859973198411530332e-03,6.207617214823316076e-02,2.285469446960539992e-05,1.755596879833982299e-02
4.009318339063200343e-02,3.676327127086720381e-02,5.071098834565048591e-02,2.367133494086397119e-04,3.461703620123471564e-04,7.107659311327329046e-04,1.533911368763325386e-02,5.465476239114741563e-02,1.152135534955670839e-04,8.527202591573792775e-03
7.039184434870769669e-02,3.234061617430807750e-02,4.046628963917272420e-02,2.637887596797118127e-04,3.485702316243786719e-04,8.009314499814250117e-04,1.872248196886448085e-02,6.194919554064563100e-02,2.098880864074923066e-04,4.535492569818563337e-03
9.317698387360646983e-02,3.268423790313135929e-02,2.452588379655096587e-02,2.884246042855916330e-04,3.455669686936930812e-04,8.797039539715043478e-04,1.517570319178250700e-02,7.685594904475848144e-02,3.059783063046743771e-04,1.331857008800101626e-02
1.162828268571213103e-01,3.673271594302628118e-02,2.833294899518981960e-02,3.106743081646589255e-04,3.397629524330092140e-04,9.457471623378921896e-04,1.100837691393906359e-02,8.649299192705532657e-02,4.026044472771067194e-04,1.509039132989387424e-02
1.290053799864864237e-01,3.399451098053021814e-02,4.410250767233909325e-02,3.306673994961126608e-04,3.301998343962243561e-04,9.979821628807641204e-04,1.198993100724105552e-02,8.388837647632395311e-02,4.989261658844395533e-04,1.345649462348521425e-02
1.221026287889465517e-01,2.257322312202113615e-02,4.136435187687046572e-02,3.486065303772853331e-04,3.119624639751275704e-04,1.035613108388030871e-03,1.862736639286019513e-02,7.365928792889595011e-02,5.941637290903522021e-04,1.456503518866442658e-02
1.077138454918976779e-01,1.539664392363704164e-02,1.322171791530533588e-02,3.647636677121028842e-04,2.879523442496734285e-04,1.058146080492338749e-03,2.846185286756112987e-02,7.047809532834367618e-02,6.876180020197539136e-04,1.771753542714407659e-02
1.033826135576297045e-01,2.128865953225625093e-02,1.290484140097703306e-02,3.794721920032121591e-04,2.700167355417977554e-04,1.065400687136855429e-03,3.851353694706065312e-02,8.362471530174406253e-02,7.786818830971564166e-04,1.362499196888290048e-02
9.945414005614153230e-02,2.803307297450983657e-02,1.732928417909793822e-02,3.931152664345942014e-04,2.538031644295989336e-04,1.057514138902328508e-03,4.352619569774156955e-02,9.845681662277785962e-02,8.668483701276390738e-04,1.470406780062870258e-03
6.420304723748611331e-02,1.654018403911669197e-02,1.236993633492716044e-02,4.061178861980706571e-04,2.156541278701062329e-04,1.034937733756911230e-03,3.819136138661160390e-02,8.687110071298419223e-02,9.517297973159617426e-04,1.744655102978443992e-02
7.162000551549039043e-03,1.169056307480767151e-02,1.205797779424330751e-02,4.189425803084318974e-04,1.661852882165758044e-04,9.984258648149191631e-04,2.517678252466968095e-02,4.196685463552304179e-02,1.033076421354676803e-03,2.398617048697523207e-02
7.094152563686047241e-02,3.437242925936349891e-02,8.688641964652656785e-03,4.320736002127540049e-04,1.582739649896812146e-04,9.490178469251994839e-04,1.517576771683874955e-02,1.248206459894036363e-02,1.110762060837566486e-03,2.312074106294744955e-02
8.252859551041706598e-02,3.563763904458644438e-02,1.002802155423134986e-03,4.459900109268371843e-04,1.727871105340937163e-04,8.880130309663152293e-04,1.541109024561704115e-02,4.904358146355025649e-02,1.184760478973388492e-03,1.936059065764471343e-02
4.238679085594702911e-02,2.119040504258267246e-02,3.128350810119662120e-03,4.611609111739480970e-04,9.835334578203405341e-05,8.169398354404013539e-04,2.348924356618343340e-02,5.651541530317704537e-02,1.255181625555020072e-03,8.947767669401486199e-03
2.147615384052356177e-02,4.808723449195136806e-03,3.198812886441768089e-02,4.780636452837392367e-04,2.518477604400632032e-05,7.375194694908326692e-04,3.324908267371767118e-02,3.733049682569224842e-02,1.322318729288883467e-03,8.371412441944158303e-03
8.077619908998436016e-02,7.614647952884566820e-03,6.085415645992266892e-02,4.971549895079759680e-04,4.563768423994148414e-05,6.516252463971221841e-04,3.872456107278014759e-02,7.052223442280420446e-03,1.386557398384464374e-03,1.751403262837878533e-02
1.032653601920911629e-01,1.615370276723541998e-02,5.991092541635806290e-02,5.187925772760935885e-04,2.431991058255323246e-04,5.612384889965800266e-04,3.287902607605699273e-02,7.463991439571243669e-03,1.448247816063230392e-03,4.854048964105529482e-03
7.119183613658329468e-02,1.999289046921199145e-02,3.142784298648657049e-02,5.432569497700196750e-04,4.808193669793498545e-06,4.684021059838606093e-04,1.310570440968235675e-02,1.006552232973286810e-02,1.507861103437476129e-03,1.931527413701216930e-02
1.736254099401889767e-02,1.933967058278449058e-02,7.072728114122820917e-04,5.708848958054243234e-04,7.922147291009085145e-04,3.751729689032036051e-04,1.113673898002925239e-02,4.803299203621919783e-02,1.566223153788469640e-03,3.123344131412732552e-02
7.730682640081666494e-03,1.789205914726200303e-02,2.068454443445000984e-02,6.019940378630663164e-04,1.277768926071065842e-03,2.835742427882934633e-04,2.574835402639118198e-02,8.325835370134286595e-02,1.624135891061174791e-03,2.317987547844848825e-02
7.576152935703162582e-03,1.803306348099065551e-02,2.591472564557842362e-02,6.365683163215939263e-04,8.133611091408631975e-04,1.955488184158493106e-04,2.697680684642179277e-02,1.044336553408139606e-01,1.681810613061395648e-03,9.759159607613941689e-03
2.494746182381472888e-02,1.694462756460295497e-02,1.495669496926425000e-02,6.743877612232756363e-04,3.717396790189699571e-05,1.129149613020538384e-04,2.142515253478698839e-02,1.100862868844488945e-01,1.739599598860460446e-03,7.762428372495084293e-03
6.411950100962394983e-02,1.128759666944100654e-02,1.411554321384508003e-02,7.156857784970536897e-04,1.809962932905773982e-04,3.732523284176675425e-05,1.500881918261809389e-02,9.972969510196939835e-02,1.799159399923278132e-03,1.957770114023656485e-02
8.568854213609515547e-02,3.762864663209856270e-03,5.244539537355930731e-02,7.608771208112069312e-04,3.587811661443333775e-05,2.977034602675500039e-05,1.063976425190348886e-02,7.967829244411218925e-02,1.861850936808520695e-03,3.491196656212241373e-02
7.099601663874872959e-02,8.607057283462984411e-04,7.871410157766924043e-02,8.091411188403859747e-04,1.248310402408051793e-04,8.715602634480040909e-05,1.190570499422487563e-02,6.509604675887771530e-02,1.926145448731577054e-03,4.381032650968159914e-02
4.069759647990428553e-02,3.967228478630651332e-03,7.722782304602235359e-02,8.589659877549536216e-04,1.798894406175211390e-05,1.338762239741203141e-04,1.942095810653225382e-02,6.554068482362461479e-02,1.990907264637890688e-03,4.755768006360311384e-02
1.543292695587221257e-02,6.725254364072104883e-03,5.269433795878768201e-02,9.111953625593969533e-04,4.140742181840702507e-05,1.692549853893010289e-04,2.660954638542137318e-02,7.496345330418614783e-02,2.060956376799321851e-03,5.388931876626516099e-02
1.655212359825802707e-03,2.697363629166974960e-03,2.206308489511979790e-02,9.679582202038887516e-04,1.370780316415708852e-05,1.929085970127273849e-04,2.640123251790011186e-02,8.108199050752304404e-02,2.140144783289132414e-03,6.124941481848462932e-02
7.949831745804042740e-03,7.511840223338817589e-03,2.212873081765417971e-03,1.026153528601591669e-03,1.044051995676799313e-05,2.047510771580198332e-04,1.977106103630771675e-02,7.938448357197350203e-02,2.219244730108389536e-03,5.799705916531689570e-02
1.269193639593634189e-03,1.827185855421527630e-02,1.844897924341844242e-02,1.079589939638818516e-03,5.085751507769185404e-05,2.049924634940134384e-04,1.334776090611788923e-02,7.395935184838911547e-02,2.290375416119477293e-03,4.143847635841446664e-02
1.792485615506725360e-02,2.549163988033772976e-02,3.159683295587613350e-02,1.132985454262849757e-03,8.216047015355134404e-05,1.941299839069238415e-04,1.153888436960612621e-02,6.819644119981782548e-02,2.373211147670863021e-03,2.594555107057214607e-02
2.426933399330299251e-02,2.930457556017514523e-02,4.480032987508476144e-02,1.197797029470601534e-03,9.377184645920278632e-05,1.729323704688362896e-04,1.339775093470249069e-02,5.830330664456925827e-02,2.484830772000888068e-03,2.466496329000390786e-02
1.379821076964792351e-02,3.111413592766064037e-02,5.481446280948770733e-02,1.262251250686520412e-03,1.093462925246822316e-04,1.424177407625209189e-04,1.444711546900350266e-02,3.604506620153735685e-02,2.582946578812021343e-03,3.190052782078398735e-02
2.193816558208612488e-03,3.039619637739954944e-02,5.881265283632202551e-02,1.299509105482418280e-03,1.331932603910841392e-04,1.038256241135095061e-04,1.134738057486275181e-02,1.021102802823585683e-03,2.628811126399295105e-03,3.190552515671993272e-02
1.087497977397379814e-02,2.664262940374485106e-02,6.156119561985893412e-02,1.331924654595664087e-03,1.533840095345444395e-04,5.858384868409609477e-05,6.600429938646599354e-03,2.885884305238367586e-02,2.710110052688269062e-03,1.950657502303321245e-02
1.439498843202254366e-02,2.251331388518287152e-02,6.590411949067336017e-02,1.415327993370047322e-03,1.668996005676595977e-04,8.271125617268082074e-06,6.400486460387071717e-03,2.941353944904756545e-02,2.909843785192044261e-03,3.535147968260064343e-03
2.458216290015966671e-02,2.136661698183553101e-02,5.964453061121044453e-02,1.501424627021202222e-03,1.785050180200286110e-04,4.542373433130255452e-05,1.305981179274842696e-02,2.698653574141899464e-03,3.040482008365109554e-03,6.734126923481655730e-03
3.816095300818948127e-02,2.392200286338875409e-02,2.684746274435122898e-02,1.467813374206137101e-03,1.889797210987292388e-04,1.007449602551051097e-04,2.290887932036938732e-02,4.574802842446280826e-02,2.917092174691123148e-03,1.024523640447532434e-02
3.040702201630213208e-02,2.940828809476920061e-02,2.651676640239430949e-02,1.412698859746224942e-03,1.955184433679664393e-04,1.559142542331473365e-04,3.047254166136976680e-02,7.646958244419775619e-02,2.932332392065274077e-03,1.147339346729483664e-02
7.458101362119056929e-03,3.516135177222207142e-02,7.249081662251863345e-02,1.598531496429420398e-03,1.972617524372000380e-04,2.091754307912256378e-04,3.116379249960109232e-02,8.479450780693018053e-02,3.488226255310688476e-03,1.518461370931739260e-02
4.427238474758841968e-02,3.603508863306729287e-02,8.991402642587849325e-02,1.820640523687037417e-03,1.951874943581102069e-04,2.588381769321210853e-04,2.332134430908360673e-02,7.071165677413666917e-02,3.751976287998673269e-03,2.148427750868003167e-02
5.395015736411912927e-02,3.146610358040773103e-02,8.099570618355088347e-02,1.510043141048495558e-03,1.895279507058881088e-04,3.033198749026888444e-04,1.139123841159551433e-02,4.477014109816652987e-02,2.834989685952893010e-03,2.471131404812991483e-02
5.673562271045824723e-02,2.842938260578551507e-02,5.800805866342528816e-02,1.094764944442201552e-03,1.797936723149542559e-04,3.411844832886287530e-04,2.886672944122672686e-03,2.636997663909602246e-02,2.509985188599083133e-03,2.181798024284688220e-02
7.975745528886130087e-02,3.019195327318403843e-02,2.934284339147020040e-02,1.853014208411898466e-03,1.659840452570970491e-04,3.711775495039631523e-04,5.290246760920901993e-04,2.497391983710070540e-02,4.846752298829182931e-03,1.800977335922965966e-02
1.139503838485168286e-01,3.168720808010716539e-02,3.865183997261721887e-03,2.825341660523521606e-03,1.485880821556060565e-04,3.922565262512146497e-04,3.944713784862150831e-03,2.836966593289150240e-02,5.816044817795937120e-03,1.690721626034985547e-02
1.434309065962683927e-01,3.169692373565154153e-02,7.240756196784511531e-03,1.138607966784936331e-05,1.280111202191814028e-04,4.036156835265049996e-04,9.598834418449072800e-03,2.010135232686022927e-02,2.308712113500476035e-03,1.275136161435617803e-02
1.734352949571509594e-01,3.571113520946275766e-02,3.492296038855647634e-03,8.202196309476711758e-03,1.045575172266855352e-04,4.047050432298763796e-04,1.225119022755154913e-02,8.507557726969375983e-04,1.889469090869141943e-02,7.866857127303093083e-04
2.023675504072053044e-01,4.233078749891684006e-02,1.587152045767729544e-03,1.672922096506123182e-02,7.868575089828075257e-05,3.952429120312825491e-04,6.351625458353936902e-03,1.347037431759495231e-02,3.265215291520216084e-02,1.400009607245371497e-02
2.092664547986242407e-01,4.178098134420616533e-02,7.228531426683571350e-04,1.870690439216374235e-02,5.100362741770122100e-05,3.752217461551250635e-04,6.313489444055951118e-03,7.663291351317101305e-03,3.492230076029901459e-02,2.588558017521333174e-02
1.850160468212943277e-01,3.084605537004529718e-02,2.793514589200288365e-03,1.335743533325701483e-02,2.213029029009781689e-05,3.449072452922603360e-04,1.796138050964266736e-02,1.990616920735531481e-02,2.790015168133793896e-02,3.574275947644602741e-02
1.415985850239392663e-01,1.678396739871745175e-02,4.858971436452576460e-03,5.816458847547522661e-03,7.323714441547906698e-06,3.048307379281253097e-04,2.195499029848854006e-02,5.453905147591173869e-02,1.779059166947477566e-02,4.334970362988896375e-02
9.203643364752557565e-02,6.517052509264794138e-03,1.822925008088314980e-02,7.238968909840664970e-04,3.671405751100783872e-05,2.557750829754732499e-04,1.768772169867498939e-02,7.598994863831080859e-02,7.875930823116434124e-03,4.265342912995918889e-02
4.870350957877652570e-02,1.800184854374712717e-03,2.593077956342342352e-02,1.203047836095041349e-03,6.537571313734399404e-05,1.987544687904913856e-04,8.879501709254614822e-03,7.409658807140800940e-02,4.392066573301870629e-05,3.028695572439691133e-02
2.400400363722339850e-02,1.853842799207950330e-03,2.268782799166016786e-02,1.473819195099577463e-03,9.266628132604208925e-05,1.349886366808022661e-04,1.280021474606495057e-03,5.213159465483720861e-02,3.796211777654876114e-03,1.130978411624374708e-02
1.053081147302158301e-02,2.607252824706280704e-03,1.132190568177020122e-02,1.372188959142981932e-03,1.179835073340290068e-04,6.587218840064379540e-05,1.124012734668991022e-02,1.765384003335787599e-02,4.023448108233909463e-03,7.313999711201504654e-03
1.436274198332685229e-02,2.525170978238412776e-03,3.530165079841419105e-03,1.318078594827904468e-03,1.407675556378408619e-04,7.060247258533211350e-06,1.879144652620156827e-02,2.332175532003506399e-02,3.258487538991558866e-03,2.385566632862945805e-02
5.305990520227309160e-02,1.626844229331762121e-02,1.879739362710464851e-02,1.298433139463962610e-03,1.605138547175195655e-04,8.217211754032379973e-05,2.162720881959417224e-02,6.379604778289486855e-02,3.168232783112842794e-03,4.006092962489637282e-02
8.556396022817845670e-02,3.500844703007891662e-02,3.175345586029464096e-02,1.262491147068019355e-03,1.767913659772618509e-04,1.577653727799510912e-04,2.040029837541320126e-02,9.573711206628740533e-02,3.389342289242442546e-03,5.564469438235775806e-02
1.012512395350412958e-01,5.102589547015387583e-02,3.946957710034507821e-02,1.218518397750848348e-03,1.892536534243219055e-04,2.321222207045018726e-04,1.819450334133569658e-02,1.167807433975705661e-01,3.305316461864729605e-03,6.702855336116268770e-02
1.041926212095375809e-01,5.454006991789343839e-02,4.095706615584408100e-02,1.184550531964451148e-03,1.976445958577419386e-04,3.035471846499780192e-04,1.685377851714114222e-02,1.329174106646122677e-01,3.071717814943329683e-03,7.118758176387707248e-02
9.765576559619520980e-02,4.169633848160825274e-02,3.835019174239310408e-02,1.157043071238866763e-03,2.018043292919970795e-04,3.704084407594832951e-04,1.593489553626845079e-02,1.499906066249428183e-01,2.972644794580919271e-03,6.967164582836751774e-02
8.606998678553326454e-02,2.363394238831635977e-02,3.474153304265756997e-02,1.128219580336510368e-03,2.016743565791072996e-04,4.311774324881811546e-04,1.475685066912659459e-02,1.625558418972272434e-01,2.940318985017794252e-03,6.713224646674693930e-02
7.739291961083641369e-02,1.650617660335053360e-02,3.154432722102071263e-02,1.099979255331522913e-03,1.972990091208071193e-04,4.844658081626896057e-04,1.350954209794119447e-02,1.547983130365812865e-01,2.842883527233365949e-03,6.502010232496102660e-02
7.129142889836215247e-02,2.062793204740625067e-02,2.851162770951687353e-02,1.076125973588130946e-03,1.888236260225595201e-04,5.290587976344225977e-04,1.250709511239712912e-02,1.178250342867605827e-01,2.712050177766882082e-03,5.946590217682123924e-02
