1.642464511972380886e-02,4.506906827403351495e-02,3.731745835717076298e-02,4.811005122018991245e-05,2.063312251115388338e-03,7.147536931686304836e-03,6.619223446403005306e-03,6.036905219856705113e-02,4.230842387387594508e-03,2.397081159169424380e-02
4.082767443844224561e-03,3.829802852776219291e-02,1.835805427518513028e-02,7.751293133215558730e-05,1.291840695378732072e-03,2.623842958769031977e-03,3.293969241581759522e-02,2.533043604333947915e-02,3.469004353113826905e-02,2.285329569212532844e-02
3.019035499227957359e-03,4.114706665627002047e-02,1.212936415933704368e-02,5.171094208579312670e-04,1.736319454936476785e-03,1.785082976852260441e-03,2.014568388841964097e-02,1.997499429753432643e-02,8.426315888079669025e-02,6.980176663945059090e-02
2.338637843212151499e-02,5.833212533084918688e-02,1.712006118475879746e-02,8.091899040891044510e-04,4.210576797738545089e-03,3.368513065637923111e-03,5.046235656653089152e-03,6.060660872694045159e-02,1.243194008608582563e-01,9.818091787789653968e-02
4.890555220233002570e-02,8.439782641873959379e-02,2.549437711857966554e-02,8.374353294206745841e-05,2.824945388210978268e-03,1.903941659161692383e-04,5.004285696222266280e-03,8.085774656583041842e-02,1.297426108066735140e-01,1.063201625437479036e-01
7.283577827301453145e-02,1.039953879053210906e-01,3.514542086388463410e-02,1.437304397644620715e-03,1.298032331034242731e-03,5.648194611228084250e-03,1.033448378079009945e-02,7.162399534589683481e-02,1.110417801554799966e-01,1.050550117355009139e-01
8.831343095809561505e-02,1.026712657453166394e-01,4.401734431850110041e-02,1.834298305494322162e-03,3.711091748312874902e-03,9.441826929407950292e-03,9.159502832615401893e-03,4.108521735537987857e-02,9.594677644075409739e-02,9.842063490897356992e-02
9.000351320097703389e-02,8.198891510132817750e-02,4.685321569456069035e-02,1.331550589283236712e-03,2.473602133918691333e-03,9.055354659792283142e-03,4.880975342641799553e-03,9.633330944268476623e-03,9.070457853869497156e-02,8.118530611237712025e-02
7.384296354611076529e-02,5.969143518469124943e-02,4.583028880072954198e-02,1.346561371503718438e-03,3.106203183447454799e-04,6.689819271798323926e-03,7.991779273968435682e-03,1.268252314646715548e-02,7.920972152736195648e-02,5.369026027690253916e-02
4.499780741957428581e-02,5.108378357943480635e-02,5.137612214431466068e-02,2.478828406306749291e-03,5.094302459821952855e-04,5.517482954034433687e-03,5.928041445440433016e-03,3.524993419069219480e-02,5.159910650835515533e-02,2.472437791311356964e-02
2.332888947409520602e-02,5.501281150647061718e-02,6.709928353133125245e-02,3.889935272968029004e-03,2.810036966742145235e-03,6.557200161774541687e-03,1.687693268749064501e-02,6.920915327341975454e-02,1.541437853749842886e-02,5.775106163166182291e-04
2.616922998269091000e-02,6.194195048418068422e-02,8.562403843592035491e-02,4.913200770868640134e-03,4.871688992119167956e-03,8.647422221048320368e-03,2.728731473166558577e-02,1.096517820842363988e-01,1.580637574025127792e-02,2.323383071700582322e-02
4.945158129530608654e-02,6.777175371729553255e-02,1.001850689146258772e-01,5.715491050017333652e-03,5.958019101190396502e-03,9.604709121697984492e-03,1.440318808622524302e-02,1.406106353510831464e-01,3.004483524619019560e-02,4.112535851342177806e-02
7.777465416888244831e-02,7.232567589862749780e-02,1.083769796940834557e-01,6.322326378191621757e-03,6.524028898401846265e-03,7.473112444430876286e-03,1.081801764972621996e-02,1.513321083846964621e-01,2.041343319828261074e-02,4.907546111492520902e-02
1.047159650144236787e-01,7.368603756945313332e-02,1.071876004538981908e-01,6.628376283239626257e-03,5.763059509723156976e-03,2.040178353675536904e-03,2.581889935914210080e-02,1.433742354005872466e-01,2.166069617307203252e-03,4.892557009541365076e-02
1.328031358058295031e-01,7.327639569983386558e-02,9.779252332138074766e-02,7.236772104948957333e-03,2.870699812803106064e-03,4.414026317542551862e-03,3.824070950390573431e-02,1.273061108532760610e-01,8.726499393563735829e-03,4.984354799535362784e-02
1.645220674371772052e-01,7.602142360580636804e-02,9.158777544462398668e-02,8.761864906525225830e-03,4.060730560330012232e-04,8.163411999691765758e-03,7.145924680544239738e-02,1.165446968073241829e-01,1.291067443461579520e-02,5.704894647789897355e-02
2.019635409211879284e-01,7.852829779811495992e-02,9.766995823321135417e-02,1.070372785419011763e-02,1.330479288074538262e-03,6.605668177571436157e-03,1.258094422986178185e-01,1.190709461833599353e-01,3.009699449652185332e-02,6.617178526192905863e-02
2.415008488028296818e-01,7.115710220542928455e-02,1.075283859821007937e-01,1.220999792652462286e-02,6.382334241851345949e-04,6.368445583148970440e-04,1.800437286890430311e-01,1.301786229664287087e-01,9.036831225497639168e-04,7.028613924821766612e-02
2.612161800943633150e-01,5.641083239806474192e-02,1.045879046302791715e-01,1.328994286966073309e-02,3.990514133002687550e-03,5.977468662845280070e-03,2.222674849393506402e-01,1.365860999446717738e-01,6.435215778834554867e-02,6.971132241668791252e-02
2.330561898904686680e-01,4.861654182473587604e-02,8.692422397910244680e-02,1.446474604113530751e-02,7.413339590738106562e-03,1.032370107106849941e-02,2.574559158501668055e-01,1.303598445158959396e-01,1.074544715932093664e-01,7.163096722972410457e-02
1.608242700747270493e-01,5.251588602630186120e-02,7.086995784158098277e-02,1.593628656444598390e-02,1.070206576582093984e-02,1.273639219748450187e-02,2.818650284785523819e-01,1.147134694964249274e-01,9.009510935484901784e-02,7.845367966646692170e-02
8.818225756062982035e-02,5.906208694009756205e-02,7.247099961389699696e-02,1.754042611743314439e-02,1.397486916998110645e-02,1.489371926307885008e-02,2.718012892486157961e-01,9.406013198322663027e-02,2.982172604019437540e-02,8.074228336865207911e-02
5.443187354806801326e-02,6.347763915128688816e-02,9.138670993643474572e-02,1.896986176496746890e-02,1.638165214734305444e-02,1.647102091144408281e-02,2.159464514328244267e-01,6.365567315766344769e-02,3.528540814385711100e-02,6.786281758464889069e-02
5.683397774434544719e-02,7.069653294882513594e-02,1.130259937695648198e-01,1.983734491827062255e-02,1.600041701395499283e-02,1.518158170607150810e-02,1.441104039438803330e-01,1.514274652588441794e-02,9.115311613161565518e-02,4.448501519599487586e-02
6.480476754611019796e-02,8.087957325250917651e-02,1.211816540927296848e-01,1.947721455364108054e-02,1.211841428699397989e-02,1.066875531573180901e-02,9.987084927596956430e-02,4.679555160294503191e-02,1.446739152667591288e-01,2.970938724211332621e-02
5.319903620694867857e-02,8.274190593098264268e-02,1.079779928737760603e-01,1.646358817489142201e-02,7.031399114640349106e-03,6.283563311720873762e-03,9.106134587552197623e-02,9.809797038174294936e-02,1.952005342295163037e-01,3.624609048938855910e-02
1.374141648955206491e-02,6.413250551729030025e-02,7.822022966235658847e-02,9.307615619608024596e-03,3.596554215399262733e-03,4.548974245543805674e-03,8.696456226432636161e-02,1.126604971490852009e-01,2.300785715159389400e-01,5.372000249781178072e-02
4.708192056737586090e-02,2.294408470211111578e-02,4.587275388854160363e-02,1.009485544915841469e-03,1.865773260782245448e-03,3.308861325865899983e-03,6.299431926541863846e-02,8.743244926992087274e-02,2.457753642593761834e-01,5.890211670868791827e-02
1.067354060781985914e-01,3.151134373308727560e-02,2.134266496584646608e-02,1.036533115890502649e-02,4.121823710298473404e-04,3.395373113739799838e-05,3.154184110600666974e-02,4.330934324018641951e-02,2.575773594707265191e-01,4.231337273386498454e-02
1.341233510107182891e-01,8.331667112555425636e-02,4.147601479825777961e-03,1.530236241329086325e-02,5.559392217788304124e-04,3.407316200251502523e-03,2.043289571432916479e-02,2.714005226305315002e-04,2.829570414954396540e-01,1.747029394161453766e-02
1.155949378728457488e-01,1.173668579151991992e-01,9.440357542074159780e-03,1.641295595378724700e-02,3.005303426650591126e-05,3.168552723364363027e-03,3.357624721306209925e-02,3.536105983814333276e-02,3.220681763614052784e-01,3.463624506318646948e-03
6.995665143327443880e-02,1.266280186847249523e-01,1.971038360988782226e-02,1.634584369885635699e-02,1.195467952427139730e-03,1.972070883961397165e-04,5.042419420832592453e-02,5.736818676394174477e-02,3.583784102357748247e-01,5.430048942213269898e-03
2.431526152654553755e-02,1.147330599858900624e-01,2.659745043748110854e-02,1.618369230328082012e-02,1.032663799371587440e-03,2.867708961533869082e-03,5.534184190470706199e-02,5.606588743399245484e-02,3.754526155279436228e-01,1.225646480147560106e-02
1.356048866579849695e-02,9.057496677207546587e-02,3.149241897307213794e-02,1.554297940276869010e-02,9.779867209321322676e-04,3.171087843213430887e-03,4.750834423089267400e-02,3.791948423694120607e-02,3.713776284351408274e-01,9.916715159387849698e-03
3.915357346236064684e-02,6.100988045840701618e-02,3.801027814909407193e-02,1.445308979144964423e-02,2.382352510498263361e-03,3.917330339931238657e-03,3.076932777374461608e-02,2.645632282212258962e-02,3.552001216322578370e-01,2.115035442656768364e-03
2.850961213782031434e-02,3.478768492606329477e-02,5.508391004203694319e-02,1.333180170278425170e-02,7.100284901709953992e-04,7.878133872137458443e-03,1.092984049452356589e-02,3.227925071375605665e-02,3.297673183204926639e-01,1.015994888138378564e-02
3.240650983331279378e-02,2.995820878729369557e-02,8.822424158107222691e-02,1.238104208297769945e-02,2.121985973159849857e-03,1.161531741967357194e-02,7.121068144282430984e-03,4.114860333243457180e-02,2.918297816067262906e-01,5.009691495971871356e-03
1.093644841028071912e-01,5.807907906213070209e-02,1.225413584547767054e-01,1.185164227813402874e-02,8.963786124713482443e-04,7.485858291066436326e-03,2.842759166062676715e-02,3.960605065877480235e-02,2.543515810059583937e-01,5.347832018164314083e-03
1.479119045598936699e-01,9.957289912526127995e-02,1.312009317609051373e-01,1.145605211509612836e-02,5.869316158052751732e-03,5.882963851798306103e-03,5.876303089202843111e-02,3.587007914616866661e-02,2.411456793900718654e-01,6.477635382881560475e-03
1.322104237299129570e-01,1.208017731067473483e-01,1.095685763069367546e-01,9.782084220508463837e-03,1.306959646711818371e-02,1.901470600805538549e-02,8.488743291434622251e-02,4.873338296691773208e-02,2.449710650748287144e-01,5.687057769590248869e-03
8.946350859746034223e-02,1.181167478623442318e-01,8.362486408524030801e-02,6.200777348141124634e-03,1.526025510655425188e-02,2.187564601668950948e-02,8.542859541864210315e-02,8.219978966455059044e-02,2.275097169243791850e-01,2.281280010449844922e-02
5.155689813087682011e-02,1.157995149262501383e-01,7.305789417735043811e-02,2.154515055851106368e-03,1.241797323628037256e-02,1.533833472143538226e-02,6.215658567592260986e-02,1.120984016455068566e-01,1.882051946860013036e-01,3.405683488740877951e-02
3.906935973599413858e-02,1.236494120342108982e-01,6.337204888145515913e-02,1.316785691907418300e-03,7.464038525214936742e-03,7.505028180813212019e-03,3.974830510027022729e-02,1.043444323471686558e-01,1.929051743844506783e-01,3.570784284825889027e-02
6.495981748098605957e-02,1.305372519452875635e-01,3.359498126355289077e-02,4.863660841756847070e-03,2.192886690124977792e-03,2.818069346786810508e-03,3.423867470383665929e-02,5.538962964870596667e-02,2.767113631306149513e-01,3.309276811126104362e-02
1.253058535627775139e-01,1.327234439013336709e-01,1.241291152320554009e-03,7.867940499293473236e-03,1.569266547900146410e-03,8.467253445989742422e-04,4.005252257504247904e-02,4.545694009287747084e-04,3.408565384778098895e-01,3.294102323779310448e-02
1.932110024059127684e-01,1.341886725930840074e-01,1.268342020538291808e-02,7.806298228541220380e-03,1.050716166469602142e-03,1.815864015170916106e-03,4.890796555718752991e-02,2.967668004281283009e-02,2.378342299590266440e-01,3.460719669767507722e-02
2.356502185330184018e-01,1.267864321926408799e-01,8.392823409780471311e-02,4.552944358104909182e-03,3.600623278268772452e-03,6.347236219845308648e-03,6.219167885696608861e-02,3.925662954152235595e-02,2.494377305052136035e-02,3.210870799781744001e-02
2.373190471718265027e-01,9.889588628850103091e-02,1.745861080971406742e-01,1.605311164901857251e-03,7.936158783781213991e-03,1.171543479265207618e-02,7.747238196062859739e-02,4.851774548995628489e-02,2.650324332405549210e-01,2.417754011736789055e-02
2.118102078028954172e-01,5.828653103164076199e-02,2.316695250819928442e-01,1.374691147008944665e-03,8.684057802070894311e-03,1.373884243747968900e-02,7.908977224576646536e-02,6.925849175030329707e-02,3.409947845996870730e-01,1.708963471806664372e-02
1.866364633114578342e-01,2.766377105638249609e-02,2.388277919115090742e-01,2.659349787224188702e-03,7.441513422151361037e-03,1.144741142159787749e-02,5.562877737350944984e-02,1.006565070325617928e-01,2.876215591698619845e-01,1.539041510217582440e-02
1.725569793117745498e-01,2.025744720670527230e-02,2.118554541364058019e-01,3.777409380765340934e-03,6.704831707193262789e-03,7.076123125048567990e-03,2.070120750795973602e-02,1.298645747541847806e-01,2.025349680278795139e-01,1.497552641494048764e-02
1.623177059701977898e-01,2.802478952808404311e-02,1.683536628338247465e-01,5.115635751872660807e-03,5.683232374710857696e-03,3.095959565430695878e-03,4.711378734810157606e-03,1.424913292271067500e-01,1.115547723767191940e-01,1.121229668937606325e-02
1.591160089666812383e-01,3.188557262958456595e-02,1.171875268498914630e-01,7.719961349261336876e-03,2.562307663485266073e-03,9.190688306187581175e-04,2.099348412539291803e-02,1.394062566618430310e-01,1.186896736003790684e-03,8.881214635038324132e-03
1.735580478635273816e-01,2.126355456538071495e-02,6.220341068558039171e-02,1.125678941420947370e-02,1.739612918385843691e-03,7.413333740131544843e-04,4.532868249467156968e-02,1.290607654986732356e-01,1.272385814681311622e-01,1.390306411099023233e-02
1.905141653399208823e-01,2.954950803482949903e-03,3.459857308298265599e-03,1.398745869758194482e-02,4.695326521787539058e-03,1.481324308738791269e-03,4.169768628431977375e-02,1.080939138129508870e-01,2.562294198498024644e-01,1.958834909003229902e-02
1.770786741194367298e-01,1.256365685736987071e-02,5.733885430226130786e-02,1.442112403897790295e-02,5.596913578647245806e-03,1.651406824671277458e-03,6.758328143216820426e-03,7.292973646081032935e-02,3.874560512961701675e-01,1.402671146647756738e-02
1.264339731549073975e-01,2.876934532629882649e-02,1.091820326794872426e-01,1.277293005508879468e-02,5.522149189152178797e-03,7.543080510746856884e-04,2.925454911493443472e-02,4.329811646893465260e-02,4.685382862775243629e-01,1.850914804004755946e-03
6.097473520390154361e-02,5.250940293224239802e-02,1.406040331701311485e-01,1.039196882775322676e-02,4.531360167313879667e-03,5.988355568251274921e-05,4.271313555191460359e-02,4.649708776823605755e-02,4.050336918544129028e-01,1.541742801311525059e-02
2.983116444672726658e-03,6.789201053819365894e-02,1.577911484183447677e-01,8.513961047805246318e-03,1.541118610756410465e-03,1.479937556652825576e-03,3.374754254371079010e-02,7.873235813871404254e-02,1.982977986048605756e-01,1.771585189889404721e-02
5.883044782562693586e-02,4.619363489465881656e-02,1.757427873106642835e-01,8.117155346054279880e-03,2.616758785787562033e-03,4.333391905393836965e-03,7.503740961160696235e-03,1.043501414231543106e-01,8.811799178082616729e-03,7.237343361215896852e-03
8.819022137990273347e-02,9.825080914058976003e-03,1.865885111540591668e-01,9.097668900367063619e-03,4.817842047109436275e-03,4.480305641354898408e-03,3.229089320983170863e-02,9.776183448434985768e-02,1.021717359151106536e-01,1.533342125803284842e-02
7.816069012822368656e-02,5.701672194402909732e-02,1.650693055029982537e-01,9.430910337011108938e-03,3.448379628808677985e-03,7.920706145448886890e-04,6.898756112322887435e-02,6.927660194957308004e-02,1.331147646674717966e-01,4.365709963599648247e-02
5.493303308022007281e-02,5.965244612877185215e-02,1.162903694844502622e-01,7.793872171343470961e-03,1.977230232455246635e-04,8.355723416514001037e-03,7.948652975501577234e-02,4.371604024943043232e-02,2.148520592295447285e-01,6.229775827258730164e-02
5.892104775431543373e-02,2.483647425373981463e-02,7.876646940271023190e-02,5.762712382032188566e-03,2.673242036471640964e-03,1.258896782536905040e-02,6.330108164827659423e-02,3.068915901800307877e-02,3.618795715951625969e-01,5.949999639848075478e-02
8.887938536028852643e-02,1.795919286114392235e-02,6.186156221243351017e-02,4.021670505973445192e-03,4.539465030431395591e-03,1.228391706137586803e-02,4.579499989274812832e-02,2.500382986131297058e-02,4.924307467639724711e-01,4.077118123636608304e-02
1.038571875297226166e-01,5.051296755357291557e-02,2.582087255173196733e-02,6.848494993243523345e-04,5.437095650510254466e-03,1.107444768226990318e-02,4.773708950858815414e-02,2.317364301709952737e-02,5.297727155929348175e-01,2.124923998968842112e-02
7.422028955782848658e-02,6.877648051376811233e-02,5.117574208514789197e-02,1.011566128967539627e-02,4.784513326729378582e-03,1.067327568280030704e-02,6.854288530662515366e-02,3.165351381027597943e-02,4.720125467537747976e-01,8.772458335947853209e-03
7.796019790315928538e-03,6.992488671920774057e-02,1.322759450084602939e-01,1.937573980199208679e-02,1.691227378297857024e-03,7.799392015052310570e-03,9.632602841589976705e-02,5.992515112210054784e-02,4.117717396923962769e-01,1.212286872924098809e-03
6.109944219465226339e-02,5.261454097888421111e-02,1.782264620224050244e-01,2.258876937488319206e-02,3.611644390673625186e-03,7.248100479661868977e-04,1.136710336082051714e-01,1.008786972290537376e-01,4.781411242856926647e-01,5.045323591935439028e-03
9.401773198225761574e-02,2.653336973984783687e-02,1.996163891773437560e-01,2.082593881942878047e-02,8.455086693781756549e-03,5.105389215000385658e-03,1.009865361856698562e-01,1.271209873570356419e-01,6.918664551054815037e-01,1.191223822925654464e-02
7.653012876608555892e-02,9.371365699501279373e-03,2.170759541850984520e-01,1.969132375113094580e-02,9.484924567577233956e-03,3.258143454794464045e-03,5.788327543834790451e-02,1.249816472478670754e-01,9.009541392502138368e-01,2.147240499394162741e-02
3.098433293674397737e-02,1.019271382189701480e-02,2.147604894505178996e-01,2.208258323667874889e-02,7.338074517975381322e-03,3.761920646403064516e-03,1.343525999311306202e-02,1.172824025339304771e-01,9.432382547050084387e-01,3.373032861480373956e-02
1.081343681608801753e-02,2.196753940151736570e-02,1.802149990347786945e-01,2.721411509659490621e-02,7.135842440875163513e-03,5.942040516450172553e-03,5.982078840714843276e-03,1.286018877656606163e-01,8.407575609363021618e-01,4.411378252307204123e-02
4.084539542962260794e-02,3.338766749787493160e-02,1.497833519546973857e-01,3.365068619351190699e-02,1.198475882479791040e-02,2.699047889206104573e-03,8.062838340162045356e-03,1.460798042221211901e-01,7.389158771290122996e-01,4.834695435888061721e-02
6.866189919535699293e-02,4.045491397897135744e-02,1.598894489553775167e-01,3.970261140961386936e-02,1.876700353899369775e-02,1.760960387474864997e-02,1.442736230581211782e-02,1.369526898019298999e-01,7.046944353167805541e-01,4.647564533977911749e-02
9.539143690117218854e-02,4.230923142872123482e-02,1.820892105192270238e-01,4.253719786891231591e-02,2.288198290327929374e-02,2.987306176494835402e-02,2.267981881194017918e-02,9.259581724449177098e-02,7.040872814128223967e-01,3.773962069642830541e-02
1.086259747004947041e-01,3.638587462969396918e-02,1.574376230344153305e-01,3.938324708918336525e-02,2.385661406220550979e-02,3.568391817159737717e-02,8.454931619569748535e-03,4.412901885854465800e-02,7.240492172952519567e-01,1.830926808368414996e-02
9.617510508153852278e-02,2.601298548374026201e-02,8.037789482819894527e-02,2.997123077637807095e-02,2.316401836423420679e-02,3.687299258557457521e-02,4.102614982873381555e-02,3.603759044871268635e-02,7.754087676744134683e-01,9.693847474575129422e-03
5.779016214623738240e-02,2.200674902112194353e-02,1.107281832816733175e-02,1.807831667167179510e-02,2.008456810422321048e-02,3.526873997507407738e-02,1.080720265596214619e-01,7.974969668535575318e-02,8.056867839957245758e-01,3.423684394085195482e-02
8.862926171688460461e-03,2.729121214201631063e-02,7.090916701556882092e-03,1.011222109093532287e-02,1.390419928864689361e-02,3.181971218724594097e-02,1.609597935352864440e-01,1.368408774666556305e-01,7.350527494771147419e-01,4.526091312626320806e-02
2.430972644736315025e-02,3.041260602129718452e-02,6.364129859353878649e-02,9.728063882135389376e-03,7.273810406736745324e-03,2.919584964876506539e-02,1.837499347488172341e-01,1.566378122865862421e-01,5.656263861376797930e-01,4.495986126586493103e-02
1.979601691764341920e-02,2.249818912134526894e-02,1.258800876648130673e-01,1.331512089445930844e-02,2.912850787018413795e-03,2.912409070937126143e-02,1.802668914986926274e-01,1.223655343289453967e-01,3.685322256081651204e-01,4.120963882582652504e-02
2.124918136902006344e-02,1.035708544245520293e-02,1.468808272709063723e-01,1.338082613428175430e-02,8.087363977861243558e-04,2.804109943680489422e-02,1.534405665452587830e-01,5.722900050542331640e-02,1.853202282637821385e-01,3.637732973546045634e-02
7.196474022284704564e-02,5.656309151727774431e-03,1.207863884443760721e-01,6.773429447399942696e-03,6.967957469995018915e-03,2.061553115330115593e-02,1.022207811105493996e-01,7.346301482409525047e-04,5.722817067371308020e-03,2.760990845166449645e-02
1.046450826573385451e-01,1.029628308798721283e-02,6.751760977467248515e-02,3.312619853404040731e-03,1.485789193503126923e-02,7.062393494341687519e-03,3.904527971477275705e-02,2.917471061005880856e-02,1.869169572866600793e-01,1.379304934053633518e-02
1.198256847583629991e-01,1.905420828204825237e-02,2.040340583598357436e-03,1.340542047968787745e-02,2.132899732581439861e-02,6.795557559466069639e-03,1.474339859163119326e-02,3.962370808694373053e-02,3.944171251141580514e-01,1.405431403933725832e-03
1.406638856408471971e-01,2.826835082990311956e-02,7.735684831597224032e-02,2.376490282401864593e-02,2.526950319688178737e-02,1.592697146131775987e-02,5.480590481891571553e-02,6.317793225226103759e-02,5.978566119446635518e-01,1.001199121232854497e-02
1.755985746361845568e-01,3.513119026252253807e-02,1.719947565152243341e-01,3.490440962303704986e-02,2.729325245637522976e-02,1.962207783600182845e-02,9.312420227685790086e-02,1.128188659746224842e-01,7.585311734615735046e-01,3.908743563787035399e-03
1.996401592897504851e-01,3.683268557063403004e-02,2.616075499432584106e-01,4.354283193932495521e-02,2.694041589649564042e-02,1.965222401647432823e-02,1.291482116028671023e-01,1.694319568491324812e-01,8.665812980849977309e-01,1.530920337378758288e-02
1.825538460274820640e-01,3.679567363160529680e-02,3.180310120305573363e-01,4.526861520871964389e-02,2.371415734464229000e-02,1.841096703524527922e-02,1.457309392422858341e-01,2.072286448107652224e-01,9.614791060310456938e-01,3.280144484167412527e-02
1.268831076808770997e-01,4.280250995070785519e-02,3.392256708827616762e-01,4.042187769859117291e-02,1.958335171069168490e-02,1.903345387360412880e-02,1.407919122528150380e-01,2.188799536051715400e-01,1.031693698450348862e+00,3.433220086254972631e-02
6.536093420742411508e-02,5.546634759028149647e-02,3.433392852705001164e-01,3.389617751303416332e-02,1.706236289036100126e-02,2.356175357499958739e-02,1.393344897908346813e-01,2.130978924726896206e-01,9.586793703476712558e-01,2.138834210560894289e-02
2.572488547677569820e-02,6.872044535763970063e-02,3.253748263044323741e-01,2.777535201789145536e-02,1.540792471313302305e-02,2.974008006790317821e-02,1.592987757036987972e-01,2.011182871342326872e-01,6.796208235143900156e-01,6.274563338501099041e-03
1.174348277191171463e-02,7.972346949908254432e-02,2.549209319883384284e-01,1.793645834719669388e-02,1.176034422646242070e-02,3.278688580462808810e-02,1.832567795605441752e-01,1.905074763471628629e-01,3.386630273897457410e-01,4.061026546208039434e-03
1.498698411126154692e-02,8.529721326712803864e-02,1.318107600745747066e-01,1.732849047494522485e-03,5.754217138411935398e-03,3.098998028455767981e-02,1.813790065376826854e-01,1.823597266448891419e-01,1.411784596595570263e-01,1.269892160218323920e-02
2.677720377010803579e-02,7.487119426394503452e-02,8.791751166024729114e-03,1.438678025691062477e-02,1.991865468143907102e-04,2.655586076577986024e-02,1.480140270731803986e-01,1.659996104448325516e-01,1.194422660009944182e-01,2.434871234070427881e-02
3.504310461177428254e-02,4.316828634548820071e-02,6.134221024624816887e-02,2.065100089938249478e-02,2.631566645028426184e-03,2.126322631864511342e-02,9.809519481766990068e-02,1.245784318745914027e-01,1.705064352532521255e-01,3.895901298639159460e-02
2.697213913138392719e-02,4.944919141691772775e-03,6.981623985799581544e-02,1.561519180057105785e-02,2.843459064401831528e-03,1.484411673173383940e-02,4.454717364580100536e-02,6.113920132970158960e-02,2.544117428363978917e-01,5.288120882451580185e-02
3.924085068640533261e-03,1.724510090177517468e-02,3.313818618680387795e-02,6.897826640255390503e-03,1.360646065076735311e-03,7.669831098149993559e-03,8.324809846361174576e-04,1.036288992510886117e-02,3.946804820093905986e-01,6.100689060447975903e-02
1.778782942495715780e-02,1.805969748937396452e-02,2.622793923800496863e-02,1.514833555799299314e-03,6.283000727848500177e-04,1.369758718679903349e-03,2.374156283010418755e-02,8.414161147153043085e-04,5.097484924910183901e-01,5.728241247891360105e-02
2.761061043045284769e-02,1.237368951737207422e-02,6.611093034386394951e-02,2.554399082438016649e-04,3.513607370867445016e-04,4.225785750446907872e-03,2.644391307057031640e-02,1.324241595083430409e-02,4.236941080526157033e-01,3.817535967170729988e-02
3.397369315277404267e-02,1.376581663707635017e-02,3.910589462020407775e-02,9.859637038081886691e-04,5.089145277487854523e-03,1.115440194139915957e-02,3.343260946608399287e-02,4.308407086887868637e-03,1.013295342198386184e-01,8.662881960642207155e-03
5.196652058246387096e-02,2.026538469262888914e-02,5.033514944814483638e-02,2.218510928897589850e-03,1.390014182764142195e-02,1.821451401743067952e-02,6.010711984190812707e-02,3.151766566894877164e-02,2.557353351059400426e-01,1.739786157802791083e-02
8.121038362727177329e-02,2.606672352571423254e-02,1.336309312844008723e-01,2.051227704619347763e-03,1.913332027553459741e-02,2.003458899898360665e-02,9.085024245526175657e-02,5.473383748315312214e-02,4.200472899832763951e-01,2.612189709918161934e-02
1.004826783762507864e-01,3.432996805034684712e-02,1.466819358554597719e-01,2.119375134287346599e-03,1.613425983447015766e-02,1.501622629512604570e-02,1.033221791968337022e-01,3.831791201022292925e-02,3.521302960517811997e-01,1.473542462014244131e-02
8.981671323716597377e-02,4.717691348188149392e-02,9.028748057230674695e-02,1.039308488390429733e-02,8.153717674829925877e-03,9.247562229687391472e-03,9.983652088525785118e-02,2.448379008641608789e-03,1.594359790197255600e-01,5.546960587439826035e-03
5.845955145111486617e-02,5.724639912513353190e-02,1.434282349131427506e-02,1.885852561192866150e-02,1.858294392549121599e-03,7.509042355662163409e-03,9.685025408965362848e-02,2.148403024664733221e-02,3.989053801762047768e-02,1.982161408666741759e-02
3.883974847014341758e-02,6.177024373383938061e-02,3.197588065031032462e-02,2.248859661911409291e-02,1.925402481160996566e-04,5.961316460548866762e-03,9.413496180700375859e-02,3.529070177744515063e-02,1.513216942151836830e-01,2.447540455959003672e-02
4.506905713100234356e-02,6.854380792384087706e-02,3.293737450539468981e-02,1.941616711044873156e-02,5.381535721101910179e-04,7.736313637135569868e-04,7.461081854887870179e-02,6.137718592312458449e-02,1.228806651883816853e-01,2.871841568749316370e-02
5.254952016535520409e-02,7.696085530058491275e-02,1.526125362475073272e-02,1.315808944947307983e-02,2.583147183968527525e-03,1.054172968414566515e-02,3.275662324144872073e-02,1.039023522672669064e-01,1.582257522336180666e-02,3.877637885552553260e-02
3.255620189394915071e-02,7.190756455162299055e-02,2.126924737940298973e-02,9.609282285759265449e-03,6.524979767838278398e-03,1.641692092378016846e-02,1.222866389416202640e-02,1.452551227754024510e-01,2.603996060451457817e-02,4.668061164699789656e-02
7.943577615785677934e-03,4.743599822363213370e-02,5.698141561863251381e-02,9.723491046192297288e-03,8.538601097703754639e-03,1.472531646164575853e-02,3.680049644520839297e-02,1.708422122659271070e-01,5.511033820392646776e-02,4.124566371089632977e-02
3.874072275522270903e-02,1.974973741911239394e-02,8.245022679515061348e-02,7.483586586286972500e-03,4.787725718000380992e-03,7.627654151328711919e-03,3.995131568154224044e-02,1.776630795997964640e-01,1.571684706278912158e-01,2.515523502655254984e-02
4.851167857743986234e-02,6.171203084364554510e-03,6.379707538624151963e-02,1.609951615581366787e-03,3.347180872205836582e-03,3.183011502971087436e-04,4.213692585641340416e-02,1.659776335791033619e-01,1.569429213634783438e-01,1.116114230272756414e-02
5.591779263920752807e-02,3.998305871926536789e-03,9.146178757018848249e-03,1.317449879281386294e-02,1.014240730201018334e-02,3.110472086056068498e-03,5.688416032848558901e-02,1.408123026855562510e-01,5.467631986563208091e-02,2.280742292485688980e-03
7.921767125328048331e-02,1.049471894173360093e-03,5.201785120039612714e-02,1.911899098845664877e-02,1.190487870832243091e-02,2.244094322527335865e-03,7.112056028319069245e-02,1.168564129974081073e-01,6.662002038990526287e-02,1.231657778031727130e-02
1.093993560200323401e-01,1.607407388914021407e-02,9.077932674769323418e-02,1.696757305848126812e-02,9.880524068565882043e-03,6.940409309395038050e-04,6.174734417187383029e-02,1.064559915500397774e-01,1.532307286719729045e-01,3.749848698255726920e-02
1.227182020361004822e-01,3.837816121689067300e-02,7.755594214976979650e-02,9.983263879664517476e-03,6.733701159513433634e-03,3.916833760092478314e-03,2.854359123391143199e-02,1.048259520704594577e-01,1.838460786843260364e-01,6.004388177670148818e-02
1.126826758772805498e-01,6.248338978684075951e-02,8.461147697473234142e-04,1.400945530972334254e-03,3.200281424208864349e-03,7.307137804166775712e-03,3.552625288463779566e-03,9.738183536564930243e-02,1.233136345472714834e-01,6.486056810370673109e-02
9.356812046542159478e-02,8.166799506047059398e-02,1.018713891175310055e-01,7.127239707278311930e-03,1.037662430065862873e-03,1.116326377127718761e-02,1.926255781438535736e-02,7.902503301330382479e-02,3.909798764061838544e-02,5.410531497382501526e-02
7.237745242740169227e-02,8.621352653413678901e-02,1.671917481243185843e-01,1.374307340246170607e-02,5.461426712717832796e-03,1.464724260873528222e-02,3.254564326492120907e-02,5.659301299426354459e-02,2.332414123045025434e-01,4.057559379888234230e-02
3.895963117983780588e-02,6.652708471194267170e-02,1.725127845767222001e-01,1.683147822576153488e-02,8.738404064247036473e-03,1.560346313029067726e-02,5.948499099173710364e-02,3.416597692930002650e-02,3.541861778147172846e-01,2.945754099658641142e-02
8.286661133606640361e-03,2.291045189385657738e-02,1.498683166747717121e-01,1.650022655688408030e-02,9.813682480136134631e-03,1.236598754767643041e-02,9.009210127902425591e-02,7.214162771522366485e-03,3.504451251182839067e-01,1.687527427712527672e-02
5.041705394909607590e-02,2.714245027818509848e-02,1.255370957752147687e-01,1.396025124138068271e-02,8.524748392796582114e-03,5.870055793406534807e-03,1.043790459492414113e-01,2.906611113823893283e-02,2.399860440841104503e-01,1.606299393035962551e-03
7.521881662171141236e-02,5.886792591456124074e-02,8.829642766407660992e-02,1.056948898814948426e-02,5.470836698266239723e-03,1.293700211780332045e-03,9.864583155767073230e-02,7.673172408492794083e-02,7.919527926996455802e-02,1.199986170481004942e-02
9.391468086234444623e-02,6.141982789108557661e-02,3.772017365208454182e-02,8.398179990512642801e-03,1.923938225238342988e-03,7.889710546847124306e-03,7.861430305573846589e-02,1.355696271834476163e-01,4.848109067835785352e-02,2.072164711297720674e-02
1.155211709829160605e-01,4.386711252072349881e-02,1.600525656578876896e-02,9.495397751448161547e-03,3.512914822873379906e-04,1.407706080071257151e-02,4.780447030402882463e-02,1.919030314425778649e-01,6.072644142964401387e-02,2.427709023503938496e-02
1.265208945601697665e-01,2.126214147371019783e-02,5.084775018766335419e-02,1.283440552991225829e-02,4.453464325913852407e-04,1.864512124209097288e-02,1.917403196308088698e-02,2.168010504700688956e-01,4.370773372686355407e-02,2.280322583150077437e-02
1.115758986996232410e-01,3.377950031051927746e-03,9.982054672328705136e-02,1.414668168820694578e-02,6.358842984148145323e-04,1.887379663036729480e-02,1.121108270953435904e-02,1.960653959098793697e-01,1.554535768348711544e-01,1.913130140013198990e-02
7.763411389947841301e-02,3.672885324533195321e-03,9.821289968433423445e-02,1.008193262443705593e-02,1.228604761755839074e-03,1.375140813182482505e-02,1.699531029886245520e-02,1.529460457639574833e-01,1.637302169760030401e-01,1.975934656318931171e-02
4.517195132354323572e-02,5.817625203604110881e-03,4.182334784227124264e-02,2.781488595942306825e-04,5.942698406990234430e-04,5.831706268643700036e-03,1.028447188469104080e-02,1.199327503377920628e-01,7.920365826471499615e-02,2.571154905417874156e-02
2.340305272913917323e-02,3.279955660213532825e-02,2.290934696771253568e-02,1.392290336417333248e-02,1.153434898747791957e-03,5.989084840842273400e-04,4.936746826724074284e-03,9.812523813513499005e-02,1.293470207644239599e-04,2.529828069003509095e-02
2.151854241484757457e-03,6.655255872305849973e-02,7.202603040857856465e-02,2.879231337997525952e-02,3.222414583728105617e-03,3.042242872088278885e-03,7.936228543774039718e-03,7.063541334636420921e-02,1.187410162382961272e-02,5.179339224509220928e-03
2.797642786131922590e-02,8.866746327082729306e-02,1.147433692887225715e-01,3.753042841228532850e-02,3.898585866225148886e-03,2.752290692447811014e-03,5.742701482927741602e-02,4.721722685777820366e-02,4.311391250445718859e-02,3.087726542687927248e-02
5.118958266575743959e-02,8.878221201236712046e-02,1.428389757557551321e-01,3.537635997018780121e-02,1.499416888373962444e-03,3.152322990851429488e-03,1.027756513579510533e-01,5.708396587559395885e-02,1.509588437047851561e-01,6.258131903535076035e-02
3.786605618486302977e-02,7.287726658557365511e-02,1.306847204446292543e-01,2.561375953816011353e-02,3.730338337121818018e-03,6.136754932020005784e-03,1.070028398452418233e-01,9.629218787392794521e-02,2.669157160938997464e-01,7.477117754788455140e-02
1.425444771500825568e-02,5.381874433574711236e-02,9.408501333057099625e-02,1.693887608654618890e-02,9.122045753914795677e-03,1.006260285056621677e-02,7.683810189044151806e-02,1.252384153162416636e-01,2.774974007725456437e-01,7.160236357122112816e-02
6.571352838429656007e-02,3.768961760459427213e-02,8.859156414348123842e-02,1.425862248891912598e-02,1.167594766796545627e-02,1.156784187193999301e-02,3.925404873970365915e-02,1.231713333262758336e-01,1.084475189174942816e-01,6.707280117864432289e-02
7.342100195528196427e-02,2.082770563891975235e-02,1.235391245421167267e-01,1.445486516122593962e-02,1.071115020286815718e-02,9.571887473192975532e-03,3.485706722127469674e-03,1.032434162169004882e-01,1.260012319223520194e-01,6.753281309657772902e-02
3.668901956565270156e-02,8.902526115677992374e-04,1.336767424021834683e-01,1.175878932130759724e-02,8.263191820532155701e-03,6.886023170212289372e-03,3.843155291957078140e-02,7.487257607346205213e-02,2.168526614620719661e-01,6.630763085437171855e-02
5.080277919807706793e-03,2.164292071447253968e-02,6.913114554698757130e-02,4.795558667826236264e-03,7.530148219493311076e-03,6.946223705399792898e-03,8.248904796716563514e-02,3.183997393781462515e-02,1.304613924937436942e-01,5.326125242268024002e-02
2.042591512312774346e-02,2.945443405855871499e-02,3.554638709539273411e-02,2.964423960384112398e-03,1.047076375089747366e-02,9.660903181660121172e-03,1.057805855298364073e-01,2.571902199905527764e-02,5.068886240725103964e-02,2.789117944478340660e-02
1.627371441827787230e-02,2.151456791648233280e-02,1.114243692306393640e-01,7.614084212332803379e-03,1.482661759030719228e-02,1.168459380810970769e-02,9.888649350963571449e-02,8.341619712242072382e-02,1.030493584923989209e-01,7.193615463898616995e-04
1.189254693259709367e-02,9.434383874769459305e-03,1.349139491223622922e-01,8.146987075598159309e-03,1.471997386340381103e-02,1.063287417045173655e-02,8.829488316195446829e-02,1.189992260847508726e-01,1.771674391540623283e-01,1.910877546770789470e-02
7.172426728934323467e-03,6.093699155147850460e-03,1.340759034319075893e-01,6.643767961351014495e-03,7.775895939891297286e-03,8.103484119266420732e-03,1.101496579860155450e-01,1.139504841831055215e-01,1.180199880033297039e-01,3.332732129581562897e-02
4.776643553815991886e-04,1.198651214545976181e-02,1.403614254394887628e-01,6.052845479508296191e-03,1.292066380835642128e-04,7.522027730840210973e-03,1.677024983897474342e-01,7.725639805157548390e-02,3.221101559927812968e-02,4.965900856212299846e-02
5.064062206834565351e-03,1.890660095047043410e-02,1.552512633984397816e-01,7.591868840706514701e-03,1.593710933915390470e-03,9.554997821917050882e-03,2.240898387158569427e-01,4.732629119350365704e-02,1.196190112074162620e-01,7.151915456514182368e-02
2.991644784186230088e-02,2.318225400372063774e-02,1.581543729323825476e-01,1.049983630374717349e-02,2.769254385201589015e-03,1.165951740103912497e-02,2.391145372407497693e-01,4.787607870558775736e-02,1.126646313323220877e-01,9.396543584221252188e-02
4.233007937909824547e-02,2.824292170887808887e-02,1.346102798223013375e-01,1.362570329474824780e-02,5.735362776730636332e-03,1.136595251945881659e-02,2.119436282592019050e-01,5.724381844097155281e-02,1.087564182586890082e-01,1.071881106478051598e-01
1.017142346380332969e-02,3.725774678141467039e-02,9.822472223783491885e-02,1.610200261886882492e-02,2.724966510089147677e-03,7.918306897377293957e-03,1.813785711353836649e-01,4.206136521091277669e-02,1.766672799634837476e-01,1.039110369206482781e-01
4.623997635418986007e-02,5.090156013386269024e-02,8.385952224796346111e-02,1.757026799000154654e-02,3.703598544890691815e-03,2.692966376507536716e-03,1.827911226016778468e-01,6.425083945528644799e-03,3.082201253605336699e-01,8.476415534597994683e-02
7.514039188958264448e-02,6.628378291653047594e-02,1.038925450221924035e-01,1.884335955024913842e-02,7.709352379220554309e-03,5.735715791080832522e-04,2.143064954636978992e-01,1.433210638871927969e-02,4.597647557052061962e-01,5.745834473735885600e-02
6.384564683970295196e-02,7.067029059812125757e-02,1.224010084498593220e-01,2.049268837158775211e-02,6.791541634281547321e-03,5.935271485924332232e-04,2.479214017168474005e-01,4.856220732228491016e-03,5.582009943605351632e-01,3.275162935934386454e-02
5.225240432921947342e-02,4.889844274952363096e-02,1.020948006946842818e-01,1.996769947733761236e-02,4.480263241570153591e-03,3.304488943433491442e-03,2.628532017838410284e-01,7.195062380820430210e-03,5.290513780736419980e-01,2.033196956663957389e-02
7.181057703833422512e-02,6.218665404768728908e-03,5.282976213887508043e-02,1.309332426513889515e-02,5.870536717374080261e-03,3.032264700124868897e-03,2.585751928032468672e-01,1.077098786341115777e-02,3.723584957115961269e-01,2.379327852835635623e-02
1.061179588451062195e-01,3.084270250010935979e-02,5.113630043362816895e-04,4.025965790607175269e-05,1.082728330877984028e-02,2.400231333756625810e-04,2.396900280226405555e-01,5.427117184499609392e-02,1.750861092383631523e-01,3.756324121604478344e-02
1.221075646324083636e-01,4.242492489442850623e-02,5.568992218715890924e-02,1.299682896136547874e-02,1.402777978021256707e-02,1.272411274973548039e-03,2.042015485875244285e-01,9.542472146506308928e-02,3.768593405750712139e-02,5.018908203479210961e-02
1.105323360496033303e-01,2.980088819359490160e-02,1.059108437769058775e-01,1.974973123489364921e-02,1.224608757642046096e-02,1.014254109553480243e-03,1.540011248597961124e-01,1.209265350796739635e-01,3.137728988880645557e-03,5.002347028383498373e-02
8.301940427727230731e-02,4.020487144930290531e-03,1.302118715741395483e-01,1.904517422944341370e-02,8.872277687231248933e-03,2.608410548516293392e-03,1.045884615417414509e-01,1.347137889111664211e-01,4.668811119941593257e-03,2.805469143511205021e-02
4.978087487941068590e-02,2.178009777182511944e-02,1.368771454726805670e-01,1.375444232897291702e-02,9.470746886552847132e-03,8.466441458042848339e-03,7.570572459337078508e-02,1.370701531053384603e-01,6.708837271802228774e-02,1.625175284529051245e-02
1.461804327793895034e-02,3.184242922797106412e-02,1.653333121582525878e-01,8.510332705458886413e-03,1.469406332609484236e-02,1.637987330165709479e-02,7.762905963636253237e-02,1.228972161680048913e-01,2.294003697240378503e-01,6.565618518710422680e-02
1.465183630700195826e-02,1.779269836626393153e-02,2.337345417413929927e-01,8.343530064391039419e-03,2.019205105953840798e-02,2.200914390227350081e-02,1.030936706716135548e-01,9.363070122865570222e-02,4.408629234129158858e-01,9.291805283480622513e-02
2.383336345261830372e-02,9.284491504166828696e-03,3.190671339878701773e-01,1.453404741269188546e-02,2.249351714962097987e-02,2.323530857882529291e-02,1.215557716561288942e-01,5.682472249784131096e-02,6.305015684826349442e-01,8.807035955960025586e-02
8.344998767601519846e-03,2.749737216324514219e-02,3.823469809856570589e-01,2.169137894133305045e-02,2.172717984569624144e-02,2.118640078655271985e-02,8.794815036052887336e-02,1.937702769282560744e-02,7.508893389357351733e-01,6.604217036733744939e-02
1.422006113028761662e-02,2.558279612557153027e-02,3.929755955777392562e-01,2.325654378718969295e-02,1.905679760284580831e-02,1.822097919118844528e-02,2.282590454444936162e-02,1.193157793593847826e-02,7.713552485031909267e-01,4.147043920795742689e-02
1.865432804221430971e-02,8.790138997621453620e-03,3.408152971225223982e-01,1.881503121514428029e-02,1.487492843279400283e-02,1.550993652252269199e-02,1.814025632814572075e-01,3.157479653963198019e-02,6.867128220412160866e-01,1.734454251584047202e-02
4.211354607882283191e-03,1.499065651372281233e-02,2.388952467082893771e-01,1.233811156078912057e-02,9.644611809248042691e-03,1.219403060734492589e-02,3.171281722312465079e-01,4.127667785787660776e-02,5.267222531592610224e-01,4.708765622285538376e-03
4.366861015310609384e-02,4.477865321526767334e-02,1.192512583086361433e-01,6.037027148507003935e-03,4.294731673580060201e-03,7.811024531044209220e-03,3.829379095035618796e-01,4.520759945343261199e-02,3.441064673941506280e-01,2.234981600371493612e-02
7.741311473092117590e-02,7.788773545833152512e-02,2.720468910051943023e-02,1.615704194950763574e-04,2.170950522382673626e-04,4.862647178977686294e-03,3.987094215263556896e-01,3.930418388527559537e-02,2.039104706711480641e-01,6.223400229368297037e-02
8.078572553928919930e-02,1.006010697384872171e-01,1.963144859418494703e-03,3.799153547487673678e-03,3.038777467778031038e-03,6.188928068042671982e-03,4.122610190141296482e-01,1.638812575661197438e-02,1.560442708549809321e-01,8.504964284084126636e-02
4.578938263527172758e-02,9.908147723913580951e-02,2.146101146782239052e-02,3.709565050631415464e-03,3.732467867182317003e-03,1.071508209219990994e-02,4.341228180961556049e-01,2.286017253284588699e-02,1.998168743216589549e-01,6.889449438003727999e-02
4.580051387759573496e-03,7.685040723382721706e-02,5.408849906453966350e-02,8.357468715738513437e-04,2.598298422181822241e-03,1.499167343229225284e-02,4.402214308907501650e-01,7.204560041012733618e-02,3.074048188613259236e-01,3.860804147681731052e-02
3.395796099098002258e-02,4.812057799115563445e-02,7.946811815427508308e-02,8.726760061370712404e-03,4.058230973095495586e-04,1.812424577405005385e-02,4.237878511734147202e-01,1.204411812530339770e-01,4.633992654500979635e-01,2.996063675816278832e-02
2.499080066937448344e-02,1.660383309630772755e-02,1.146026557774015159e-01,1.801750434229151820e-02,1.753739212438236526e-03,2.213255271700888954e-02,4.037848771872569187e-01,1.492659619235737201e-01,6.222296611710356196e-01,4.503073876600271336e-02
9.265813199084472346e-03,2.034774310766346642e-02,1.478200164352709289e-01,2.485930169065255629e-02,2.301547066385348315e-03,2.704648786771679178e-02,3.828950770327743114e-01,1.448205539420285848e-01,6.737234253070145673e-01,5.857089675246912597e-02
3.602813039489113217e-02,4.999244686068100851e-02,1.329670370581114702e-01,2.440988626668421160e-02,2.594017523349114156e-05,2.840278928528434596e-02,3.375511906947875063e-01,1.165162486608539993e-01,5.564737324542869956e-01,5.179685803474425032e-02
2.337181951049597042e-02,5.312124064201886875e-02,7.127276904563577264e-02,1.616210889094898961e-02,4.219379956730132282e-03,2.254070872098969114e-02,2.605884055511212272e-01,8.646736556066705881e-02,3.790434961719987284e-01,2.518464101420013479e-02
3.405291290693022999e-02,3.503825901634663453e-02,3.674792665124153312e-02,7.178187047694612084e-03,6.540914213860200485e-03,1.314575944249395285e-02,1.810262730523291286e-01,6.552073563080799967e-02,3.141016547146610050e-01,1.002629175825892581e-02
1.045059117376914010e-01,2.054904712423217400e-02,7.897372423751407300e-02,5.770089619875976017e-03,3.895984246889079398e-03,8.255974929962722406e-03,1.269538289243117013e-01,4.995178318199006845e-02,3.797253028195489710e-01,4.147415719500423953e-02
1.442088742786714894e-01,1.915041691904588103e-02,1.486825823988185136e-01,1.154197019381245949e-02,2.083617552426619488e-03,1.064603246244525889e-02,9.310284066911081458e-02,3.080058757808903230e-02,4.273591668410586797e-01,6.324759691292836106e-02
1.352046412580363843e-01,2.295468915575224478e-02,1.637054173453370565e-01,1.573388192221330736e-02,6.211829743007297490e-03,1.504118917077369548e-02,5.651699251701423204e-02,2.421722658602624978e-03,3.394410977313526145e-01,7.589815313978533207e-02
9.308340337187340219e-02,3.405115725150911765e-02,1.114841752030757555e-01,1.236275363344743403e-02,5.614062290014596932e-03,1.493334813193580510e-02,5.777626347752078118e-03,5.493146907392310735e-02,1.487421653841103641e-01,7.565816804430058884e-02
4.251649672128177126e-02,6.125118332478428351e-02,4.369994996577140217e-02,4.759587731238384099e-03,2.500673023373032808e-03,9.112844262478724672e-03,4.804389392162456557e-02,1.159153387467834473e-01,3.476057131105556031e-02,5.494453096811788284e-02
3.357861095164400844e-03,9.223399767774755065e-02,2.456150628322780784e-03,7.775146794974706430e-04,2.552849142021961404e-04,1.877070394143851885e-03,7.536847434742188767e-02,1.628961005715281463e-01,1.430730691350521611e-01,2.017519542721157161e-02
4.070503393634506556e-02,1.006586563095168696e-01,3.400281263021167483e-02,3.298793720226902808e-03,9.022800859483195209e-04,1.669035734610659115e-03,5.824294694147219564e-02,1.787872652582921940e-01,1.820513335684131317e-01,7.321972123944475719e-03
6.573565503394498966e-02,8.182712504591142799e-02,6.472038191021119158e-02,5.403493656570221466e-03,2.629490057061464013e-03,1.735451980905313189e-03,3.111418415880085053e-02,1.595075995990064832e-01,1.801760512264343195e-01,1.542352945509437197e-02
7.561396504301287624e-02,5.683264670778674643e-02,8.799951959164523108e-02,6.808669474164285793e-03,5.036154654308603110e-03,4.573899084218570679e-03,5.654209136216492571e-02,1.130564909877527224e-01,1.414294549492433051e-01,1.196763969221011949e-02
7.463845387911734186e-02,4.164760620627296073e-02,9.541317542993293932e-02,5.350699496975024061e-03,7.059092500290097862e-03,1.406464911286272462e-02,1.402489724729898413e-01,6.152527195435773810e-02,6.928557394851060647e-02,8.295879007473761987e-03
7.362717701063709042e-02,3.173826927024148148e-02,9.543743026812462338e-02,2.755463952407829348e-03,8.838231595961164311e-03,2.470651397777103020e-02,2.115517734484957668e-01,3.325821602867285592e-02,1.140282340221249191e-02,3.982067155993809608e-03
8.212415117703017464e-02,1.895776051259984857e-02,9.960104958293601596e-02,3.653403876174261128e-03,1.118301606774622578e-02,2.809042336443732385e-02,2.094196160040043275e-01,3.956743489745866149e-02,2.893090272392517814e-02,9.078042473725391956e-03
1.009111438578729064e-01,9.097320278672636068e-03,1.078536189803479262e-01,9.044521171355962216e-03,1.338100988259541442e-02,2.450952891292288924e-02,1.538086124993841286e-01,6.550874780521286078e-02,1.195554881193159613e-01,3.433539591420219084e-02
1.216667454364441930e-01,1.345804065070547138e-02,1.190423843352697575e-01,1.527700888290843724e-02,1.376814745782455225e-02,2.181644713930638857e-02,1.140089764212567219e-01,8.980865599600865168e-02,2.118471449268536366e-01,6.709378718147490650e-02
1.360783923886921543e-01,2.695504639028934585e-02,1.394391902208008405e-01,1.924768561984776041e-02,1.238929904576119290e-02,2.347333904860022386e-02,1.291155061016898142e-01,1.054814677900568765e-01,2.442738092306127873e-01,1.002222564668911325e-01
1.452665184852738600e-01,2.872588900069656531e-02,1.663717216218356110e-01,2.089278886223230880e-02,1.113784850179808279e-02,2.461967951197597745e-02,1.769670386913020921e-01,1.176643810463949558e-01,2.200813873484113170e-01,1.258757201936179793e-01
1.563110199571778047e-01,9.216899266742116861e-03,1.755075798943771526e-01,2.094923596138274433e-02,1.085352449673681642e-02,2.081649199980869711e-02,2.143825880702363573e-01,1.305251671398931779e-01,1.794814595888100939e-01,1.343345567360409165e-01
1.709855552965252601e-01,1.850274783852727881e-02,1.458209291693438880e-01,1.960371342408916140e-02,1.029367080848488276e-02,1.432550426679451115e-02,2.315536028741255192e-01,1.410777828300432413e-01,1.514513944852268756e-01,1.233704909768014307e-01
1.844677747612478436e-01,3.964140358860521879e-02,9.441917917402518901e-02,1.768976551711857678e-02,8.662883359045872589e-03,9.664460564120184310e-03,2.523244234205220815e-01,1.422803447033078594e-01,1.463757190093279426e-01,1.060583635634956695e-01
1.932696421086908534e-01,5.406088080831408793e-02,6.426750803827779857e-02,1.695259412253660031e-02,6.855236617254102660e-03,7.520321561720748858e-03,2.831076943537871315e-01,1.307967076047406030e-01,1.678557532166572719e-01,9.452683723461841048e-02
1.963432236177867773e-01,7.091335284710302556e-02,7.656141510534146544e-02,1.840150915664007930e-02,5.683005542555230431e-03,5.596440972984677471e-03,2.924469798821013322e-01,1.121345987955995882e-01,2.122233911202288936e-01,8.117954980723297853e-02
1.900934047484910128e-01,1.001584443809151737e-01,1.153088896833202592e-01,2.146218810233560884e-02,5.419824727727333424e-03,3.497075589814774808e-03,2.628125257626524047e-01,9.619221568578674442e-02,2.675888911541736137e-01,5.360930630501087313e-02
1.709215426450580444e-01,1.399456703767458787e-01,1.564657607042541920e-01,2.496486409696597325e-02,6.798538866272151038e-03,4.298234538967942928e-03,2.272025814064946025e-01,8.835206123752439855e-02,3.213940521201120171e-01,2.140054175462904190e-02
1.432212279453549675e-01,1.616802500670320997e-01,1.902584574068345857e-01,2.802067612339619040e-02,9.612900651456071990e-03,1.004290298056189842e-02,2.126454998774157112e-01,8.761433092890931473e-02,3.643283110823608006e-01,8.113061773498696921e-03
1.189804060592911106e-01,1.309936948106208143e-01,2.140384707553085186e-01,2.976262979058929420e-02,1.130003810244238800e-02,1.685676460640719854e-02,1.829241268896421579e-01,9.018292497289755183e-02,3.899772025978476830e-01,1.941226078155414494e-02
1.075221300317174555e-01,5.750139135203116009e-02,2.220146866148949294e-01,2.933988046855161985e-02,9.758577287863123145e-03,1.821032465748806742e-02,9.598952851601603997e-02,9.138214697661825592e-02,3.977538428762388278e-01,3.522473617457912848e-02
1.083958359577598535e-01,4.715919447937260908e-03,2.105272576130776951e-01,2.697884042943209451e-02,6.586803358848147827e-03,1.383746936632598845e-02,1.137228907480439949e-02,8.958647566857279310e-02,3.943859992198420206e-01,3.406260584628984650e-02
1.156196248443013691e-01,1.869556768981187750e-02,1.877406597772691699e-01,2.452932298273398717e-02,5.510134883458454695e-03,1.101929428707972350e-02,6.348272704024095214e-02,9.117677293768786106e-02,3.891889238459890765e-01,1.418021602057776415e-02
1.263417469527164383e-01,2.218632054706355661e-03,1.707737737899094610e-01,2.414807705104328461e-02,8.556330200109797668e-03,1.529490937176023607e-02,4.964421637226951178e-02,1.055316581528678022e-01,3.876372220880517916e-01,1.128819775888769555e-02
1.446189445326149792e-01,3.003292413153454965e-02,1.700549594553281973e-01,2.639520846757010403e-02,1.467583454297449394e-02,2.437933828844173270e-02,2.598449091795024257e-02,1.354930958900543714e-01,3.875153509198029367e-01,2.989396042499966807e-02
1.760148748144145792e-01,5.901743289153749822e-02,1.788220343744779395e-01,2.967204479470591724e-02,2.080244987303148455e-02,3.273868242322925531e-02,3.341302829305980299e-02,1.751297041407280930e-01,3.811290309990800207e-01,3.570802818690432812e-02
2.104660507900679711e-01,9.199326618452813298e-02,1.813188070804983842e-01,3.121460126593179549e-02,2.367112251152916208e-02,3.722488770672797292e-02,6.814005941725229110e-02,2.068512949571263693e-01,3.634047785403370368e-01,2.945534974287669985e-02
2.119829359524564860e-01,1.115571624279291518e-01,1.686816506721961206e-01,2.871402015339709693e-02,2.176127487978590444e-02,3.669684526103814126e-02,1.096191742717379652e-01,2.021796435228525035e-01,3.359609978570676225e-01,1.786796731194455548e-02
1.488873397994251169e-01,8.907257023783948791e-02,1.430064553984151943e-01,2.164939419274963112e-02,1.612413575550372680e-02,3.125286992832220639e-02,1.258059171697956391e-01,1.470657574510672028e-01,3.036855100978680388e-01,5.309745292651733839e-03
3.923602112064441400e-02,2.153242809895613424e-02,1.090574109136694531e-01,1.162727345058446604e-02,9.130163809243281928e-03,2.395542287014290964e-02,7.912953508757968046e-02,6.298579439539551961e-02,2.721672128194931872e-01,1.100925255799923598e-02
6.950531377952476331e-02,5.894226182648566043e-02,6.657902833590942371e-02,9.769965020100745100e-04,2.375480953467384599e-03,1.894362747204673264e-02,1.725917437187423492e-02,2.335105808505986980e-02,2.423765535429465989e-01,2.787399322880801389e-02
1.733445767619297972e-01,1.183937641208770986e-01,1.071507581289836072e-02,9.798681529260673539e-03,4.127471079224474815e-03,1.626511604761817983e-02,8.196058499530399499e-02,1.173669218677551584e-01,1.989876543293666589e-01,3.058109229436365220e-02
3.097523666682096000e-01,1.484558736719296945e-01,5.918503343340309614e-02,2.199289131836316621e-02,1.041399548792947514e-02,1.289416039011759794e-02,6.355320624412003072e-02,2.287708139310762057e-01,1.183374067906120264e-01,1.736059199726036617e-02
4.670824493076651818e-01,1.545350898657166794e-01,1.304140146985710569e-01,3.458895131401130973e-02,1.460295530731908764e-02,9.098461228269072443e-03,1.028796346532222586e-02,3.273191529315436776e-01,4.796178096817399483e-03,1.312805060497466460e-02
5.643520155222198076e-01,1.356947538319820956e-01,1.809123644010402765e-01,4.249914256214529229e-02,1.440541457861255203e-02,7.939101363748445050e-03,2.289061187429538430e-02,3.704390538175504344e-01,9.661837252626168104e-02,3.230978258152845950e-02
5.498336586251436620e-01,9.211539933872828212e-02,1.953447594459482295e-01,4.182303586601018863e-02,1.104971439865371288e-02,8.228608922459206346e-03,6.594066109892508798e-02,3.604973486739017630e-01,1.427192663825346819e-01,4.015642422090037744e-02
4.595733210237570865e-01,4.276560761683496914e-02,1.761494941882774667e-01,3.469222791975695719e-02,9.065322833344480885e-03,4.162402412476173819e-03,1.559501538129896003e-01,3.374339060554598091e-01,1.333080695840369034e-01,1.449523343986207358e-02
3.565691576562005083e-01,1.568985678904540396e-02,1.392033259285847535e-01,2.570382813788500698e-02,1.093375361151216821e-02,7.572190873662809976e-03,2.539552749655765163e-01,3.247195567746388178e-01,9.743747151587922595e-02,1.329345561681692656e-01
2.677795893380664483e-01,1.757629294807029272e-02,9.973399103984671721e-02,1.596271427582074756e-02,1.437563307453793189e-02,2.458882510471201849e-02,3.191482807866213856e-01,3.103901071988163229e-01,5.676927237391912739e-02,2.654763908476299172e-01
1.976748148021205687e-01,2.874088484485968348e-02,6.384399837684606727e-02,4.755861316195434535e-03,1.649601709783093256e-02,4.173432552473493179e-02,3.797643508254630595e-01,2.773253465326702139e-01,1.643191119557940033e-02,3.664250211605363239e-01
1.533493356808391939e-01,3.364539282592581698e-02,3.337906860666595837e-02,5.096150680467082666e-03,1.801550395442829897e-02,5.430645999220209963e-02,4.581868369772218452e-01,2.307263782581132627e-01,2.266003353047388660e-02,4.177023175144120581e-01
1.343509486570901579e-01,3.750042697603155756e-02,1.027341642423079508e-02,9.450142477278808406e-03,2.071003067141747103e-02,6.018141808788951552e-02,5.000544830962223575e-01,1.878717569110820718e-01,5.782459642436044850e-02,4.160815718000701047e-01
1.274307848106910612e-01,4.449962225603570909e-02,8.659858673625064895e-03,9.811557916821421130e-03,2.315381818391593766e-02,6.098933461206267059e-02,4.445533508945920809e-01,1.525204783269791531e-01,8.485146357067781253e-02,3.736282988326934951e-01
1.246246384016961861e-01,4.250366493878979246e-02,2.756460861687316105e-02,1.115347001725617779e-02,2.289810261543706246e-02,6.032757277319348438e-02,3.208194759989718148e-01,1.144991951677604147e-01,9.435571895908008433e-02,3.181249529255984476e-01
1.277056891347250478e-01,2.278843831946014351e-02,3.431526329993384722e-02,1.166471119113985863e-02,2.096937770730697426e-02,6.035165928427765197e-02,2.180176645130769142e-01,7.255045226395979985e-02,7.312070207210617789e-02,2.661215424275103492e-01
1.317693958852792502e-01,2.882633098335324589e-03,6.093346729346830679e-03,2.633170686597148275e-03,2.018910634351238353e-02,6.070815342022843619e-02,1.778041143055349160e-01,4.298538650707725561e-02,1.880417670607367406e-02,2.065707121151602599e-01
1.262972962734754956e-01,1.421955234731292830e-02,5.647822476857634888e-02,1.829656497485696379e-02,2.069876160133793386e-02,5.988386345748704376e-02,1.666120098489289325e-01,4.124004621178937319e-02,5.015082289768284241e-02,1.281881222601053971e-01
1.163819313021015045e-01,1.272115395939688899e-03,1.199408760349880004e-01,4.114528318395251766e-02,2.067725414200175665e-02,5.635063486843069208e-02,1.495368368323666264e-01,6.384730364234697531e-02,1.082927344529555636e-01,4.901160284204884171e-02
1.170741453041337782e-01,4.170819018197918782e-02,1.526079950374319705e-01,5.409011991293955629e-02,1.962320172032401902e-02,4.935475032976777143e-02,1.356843410409906692e-01,9.133970946313146877e-02,1.435908555326295966e-01,7.374457708350483365e-04
1.190186155233937670e-01,8.584185395520901873e-02,1.503880264853489079e-01,5.380369659634937074e-02,1.770680815771595584e-02,3.996259192514120540e-02,1.377112282660690745e-01,1.000925104266184307e-01,1.565648383731493842e-01,2.025746182714712254e-02
9.334037541536181759e-02,1.029968576010338588e-01,1.245476313061317231e-01,4.426987162157883238e-02,1.396130407157011172e-02,3.080436099620980153e-02,1.368715559457232001e-01,7.460179498127415820e-02,1.466793583376480581e-01,4.229023891232693011e-02
4.611336324875366099e-02,8.352023017513178493e-02,8.621773906544387411e-02,3.144558316203287240e-02,8.300906648828884973e-03,2.414943734003916279e-02,1.138194185478507564e-01,2.506315409453679227e-02,1.145012223316813627e-01,8.496336114931150874e-02
2.625088998173178909e-02,4.977213438050612920e-02,4.916734725516551385e-02,1.995424401248363858e-02,3.235826803153164441e-03,2.026541314772500879e-02,8.078808463032446929e-02,1.253228714051832747e-02,7.598199448986767135e-02,1.167792097945344609e-01
5.362161654303825020e-02,2.492605887534456166e-02,2.787228322043320411e-02,1.105889738008721326e-02,6.274953319724862252e-04,1.694695021778215918e-02,5.632737497548753053e-02,1.545039910837655434e-02,5.729641009149084169e-02,9.755522968055811706e-02
8.190946474634264174e-02,3.759304029753700576e-03,2.273685422401426626e-02,3.198299993039740649e-03,1.166358126188058418e-03,1.074702630967593053e-02,2.775381592694133037e-02,5.702299546232577482e-03,6.679008173604174259e-02,4.452420940532211130e-02
6.235760037937299050e-02,3.005767376538425253e-02,2.026090289894096758e-02,4.323834243051037120e-03,4.296580033612951328e-03,3.089840279533557707e-04,3.646573786541100481e-02,2.094548068980459088e-02,8.370161353309465979e-02,1.831404001543111490e-02
6.453133276935177701e-03,6.610384928325488407e-02,1.562708474948216672e-02,8.631714067591139683e-03,7.471931265145916740e-03,1.146645412413150288e-02,1.441593463177522905e-01,6.381206143978790379e-02,8.555827397417462010e-02,4.498389037903754994e-02
4.220807505357856981e-02,6.974775223988040340e-02,2.115717072976384949e-02,5.604924309981679058e-03,7.524789290549418336e-03,2.007470028684873661e-02,2.646343821168344324e-01,1.009209150209807865e-01,7.590923440956011403e-02,9.417319130361857804e-02
6.871984196956622271e-02,2.969040890796281057e-02,4.260965129537255813e-02,4.062989553603976386e-03,4.115572555634612606e-03,2.409797645787441558e-02,3.536693872952827444e-01,1.070786948347385859e-01,7.200443346518527188e-02,1.340739382634107690e-01
9.246324944017116076e-02,1.950548274090006112e-02,6.250383985464401382e-02,1.301541760262461475e-02,7.863450108946130456e-04,2.594347225687821182e-02,3.850592832593772719e-01,9.371624049060936490e-02,7.797095557256807086e-02,1.617105998337621253e-01
1.249213913504924611e-01,4.000274841146701787e-02,6.104676642297324207e-02,1.463441134324679552e-02,7.032187866641483476e-04,2.812529162139604244e-02,3.609782751840489023e-01,8.794043824702059420e-02,8.783310985617120981e-02,1.755048014607378248e-01
1.476293212184764392e-01,3.473565304102215617e-02,4.103829536970114711e-02,1.020877424112174095e-02,2.575571398313177170e-03,3.032347152149823116e-02,3.030612687546688222e-01,9.199622419092784442e-02,1.014328797530080761e-01,1.636270531918204985e-01
1.417327196321724048e-01,2.778231996047982738e-02,1.887959425273579017e-02,4.945373347267162378e-03,2.538448516488528602e-03,3.048537166453477165e-02,2.364237754876555575e-01,8.074512973303504815e-02,1.166974311820826726e-01,1.280049622139718679e-01
1.228774624105783697e-01,2.260401470545318064e-02,3.599868256772435771e-03,5.798533715236909008e-04,2.521394294519001137e-04,2.782648981760155182e-02,1.758255392608081558e-01,4.324973581389751631e-02,1.212912493843507078e-01,8.731433878653742375e-02
1.223059736372633655e-01,4.773449861866826960e-03,2.154425239168641232e-03,2.940570466298352784e-03,2.289231183641309703e-03,2.423534444577624472e-02,1.287263052836459254e-01,6.123412780075918743e-03,1.129656267342350195e-01,5.565405273685856968e-02
1.390111599143310783e-01,2.755614414422847408e-02,6.674729169055060654e-03,2.758664915516606617e-03,4.147781733164200048e-04,2.257082034736819856e-02,1.114613250570009040e-01,1.757888546183762266e-03,1.105036186975808243e-01,4.096662605617179542e-02
1.400713135542541177e-01,5.693288735821305097e-02,3.019820471834483433e-02,3.402392986785716250e-03,4.407362845169512239e-03,2.347584097654813184e-02,1.413985742708091520e-01,2.851864838216260079e-02,1.263773199696039129e-01,5.479820312410844246e-02
1.112526631784980652e-01,6.720773887188907780e-02,5.583593915536567975e-02,1.174531777866996869e-02,8.772605794377478020e-03,2.513455113829612605e-02,2.021484155775858382e-01,5.890317177781986130e-02,1.495157704062890502e-01,1.024588457172892764e-01
8.040272132229174529e-02,5.969583778788811051e-02,6.950635394505708109e-02,1.579914091214953270e-02,1.063174676903123374e-02,2.658119084502920740e-02,2.418947965504415765e-01,7.893269712435378727e-02,1.680284621595704853e-01,1.673613439077255016e-01
8.275407880355063750e-02,4.707911213220357383e-02,6.854125014438731955e-02,1.362702435425469302e-02,1.058346295886109303e-02,2.844070836048462683e-02,2.257326404334817072e-01,1.002813724171312815e-01,1.838415474878143385e-01,2.140961251912484875e-01
1.204607910867091097e-01,3.823261207344485352e-02,5.812114022619839504e-02,8.398268784831686151e-03,1.020919501270933089e-02,2.966785457702248233e-02,1.722458949860192490e-01,1.307616940880460821e-01,1.946114485214392176e-01,2.121493509478535600e-01
1.627310887898175407e-01,3.427360923631235512e-02,4.348263256688637141e-02,3.765736393380155703e-03,9.978053224787673467e-03,2.774732721924741755e-02,1.245963902624427355e-01,1.528712036783640149e-01,1.869957601992229546e-01,1.663412012984643307e-01
1.780924085365769016e-01,3.264533925026048139e-02,2.969669352820078490e-02,9.481346154138149598e-04,8.935949798510183645e-03,2.305893483185828333e-02,9.847048505507753624e-02,1.459616302963963608e-01,1.587335056255602950e-01,1.147736076027153357e-01
1.636410887168575634e-01,2.857463084045735666e-02,2.038326835819862654e-02,9.994960736321172219e-04,6.162066101301519154e-03,1.824332046920162931e-02,6.671899566021585737e-02,1.145934386864240623e-01,1.268646189783337874e-01,7.754472875772680518e-02
1.430795154282483717e-01,2.040441860379386615e-02,1.234362531292893493e-02,3.522211039802864915e-03,2.444852053928976698e-03,1.335342256527573962e-02,3.420944739795976630e-03,7.975518129335919248e-02,1.032502349875165093e-01,3.172771835109111649e-02
1.394794609785116601e-01,1.605834174452171192e-02,1.895175951611432694e-03,7.181450546125190890e-03,3.790051262450259018e-04,7.463110599641036708e-03,9.257067364008991772e-02,5.715019300456655044e-02,7.792930652699869842e-02,2.964054306493005275e-02
1.577825701173233286e-01,2.282460655938900115e-02,2.243943132204247182e-02,1.175185082582014783e-02,1.911514243092811080e-03,3.903464454550311172e-03,1.261796451776057426e-01,5.612444966980034700e-02,4.079956664896349644e-02,5.269033661723890316e-02
1.891712531482041826e-01,3.317117368011095191e-02,3.840047323108038146e-02,1.661818286122860797e-02,5.722983439503387740e-03,6.962729873283220010e-03,5.720918849447626658e-02,8.030334380994819110e-02,7.897363342352338444e-03,7.997503976298555445e-03
2.164331408551786740e-01,3.483397003080528076e-02,3.994800681416747073e-02,2.002410359534371673e-02,8.554042143000119974e-03,1.397388992027828736e-02,6.303704940666175760e-02,1.158012958797980940e-01,5.398913386912600892e-03,1.038639857891761609e-01
2.178219721459508096e-01,2.888349951664802989e-02,2.963560016200470285e-02,1.964748208181131550e-02,9.068501052130762893e-03,1.694592185716487301e-02,1.341584597381905997e-01,1.368879304433705257e-01,3.157885061484349415e-02,1.370567742046024107e-01
1.855617979239957971e-01,2.493820088410347510e-02,1.831974713508941269e-02,1.583463994715609419e-02,8.506773725437425868e-03,1.263252461414077731e-02,1.206468253431285526e-01,1.349910003108229228e-01,5.645775585918230005e-02,8.196101247521972444e-02
1.414548925900902809e-01,2.836315227653916221e-02,1.466849847635460363e-02,1.252801674581818792e-02,8.050136382853768924e-03,6.392574889773528987e-03,7.914450693119511049e-02,1.248533477514829765e-01,5.927629250261073901e-02,9.742396840173878775e-03
1.166758288064211196e-01,4.156751971464185680e-02,2.155850940908871083e-02,1.308264128943419785e-02,7.880645206654277382e-03,4.626606451175967367e-03,7.421106465351058612e-02,1.131960791626273610e-01,4.535582775808445072e-02,9.322488621440102805e-03
1.154374713697116778e-01,6.328310214316132387e-02,3.602117538709340844e-02,1.658749422193276854e-02,8.135697530051905907e-03,6.852468094363463672e-03,1.070702088211288455e-01,8.296798504971751587e-02,2.460088359865092444e-02,2.179603426078471906e-02
1.145755063373675997e-01,7.847768176246376626e-02,4.851090263594527024e-02,1.957704613440577196e-02,8.346483174553980672e-03,7.779812081456951092e-03,1.355441303513378604e-01,2.319369345111006731e-02,4.209111541702278275e-03,6.027104858665545406e-02
1.002091071354002244e-01,6.678804192768796055e-02,4.924451865401710537e-02,2.019669587962204249e-02,6.926316575910217155e-03,4.904593369740421066e-03,1.351132318953174316e-01,4.258307174583680910e-02,3.950455177714409793e-02,8.014736922662810126e-02
8.765867430066291710e-02,3.023382763766287867e-02,3.896413344809044471e-02,1.949339643186276394e-02,3.698892175488436782e-03,6.202416301730898172e-04,1.210443181397822809e-01,7.508812668271654112e-02,6.411015893456421810e-02,7.445968508795675067e-02
9.259202147865150390e-02,3.724078309212883187e-03,2.600315734489745331e-02,1.872107301307620111e-02,1.313655858486459816e-03,2.307655587973945609e-03,1.147703823641552517e-01,6.182394228986450024e-02,6.030592879839381804e-02,3.633818521028679693e-02
9.324537765671570000e-02,1.365420752358215487e-02,1.278934284379861126e-02,1.667499712984353566e-02,1.490185268192211702e-03,3.383427298855903181e-03,1.160021900020992980e-01,3.029435909003020538e-02,3.244207062512721729e-02,3.054343296040805053e-02
5.143055889857345991e-02,3.235172270918844351e-03,3.582771728946750403e-03,1.125838690771071779e-02,2.282494792020330759e-03,2.161289623336953500e-03,1.227445055601021906e-01,1.586405259449198690e-02,2.995557142724172145e-03,9.623241262013568220e-02
2.463149246814234916e-02,1.432289262677142669e-02,1.924666284906591945e-02,3.136380714611201621e-03,1.790034526283299518e-03,2.093414252964228596e-03,1.410303640076791265e-01,2.268229356691429943e-02,1.346624672841530146e-02,1.256717036375510910e-01
8.097841554353704674e-02,3.359224211283264039e-02,2.526836496091647635e-02,4.165591606920470216e-03,1.317179056151982939e-03,7.035937492036346483e-03,1.568791603606236318e-01,2.869534366356778915e-02,2.138941750762726746e-02,1.106717921038247038e-01
9.558002928989806080e-02,5.401342661611941570e-02,1.989277138418697397e-02,7.784422502007129485e-03,2.242082993344454711e-03,8.185061923668784239e-03,1.503178917009381499e-01,2.562216488141303219e-02,2.772256278569209392e-02,6.401709938448993387e-02
1.050794516268874212e-01,7.395566739004527657e-02,8.244770605091950727e-03,7.668771175099335646e-03,3.373836311812435963e-03,5.519206177162954037e-03,1.482870380033683988e-01,2.961029467189982278e-02,2.712165159001926965e-02,4.061129182821555765e-03
1.377088836831583951e-01,9.188864632964839629e-02,7.335820771351695899e-03,5.241966667818197256e-03,3.508701636113355487e-03,4.490826769957955746e-03,1.936318828822273241e-01,4.838997481761043301e-02,9.694518504219111835e-03,8.070068230495708317e-02
1.725177129349061422e-01,1.034799212361952048e-01,2.709280547853919890e-02,1.332845939295221500e-03,3.249531310681912869e-03,7.459766650513536754e-03,2.494009158907210255e-01,6.488791930265389030e-02,2.393814394798650380e-02,1.354249464613986043e-01
1.804751210967766029e-01,9.824314562092825720e-02,4.663207121179082509e-02,3.722111940524622329e-03,3.173607123113706893e-03,9.467270549240182700e-03,2.242314862453957391e-01,6.118284327544661755e-02,5.899324232500824383e-02,1.414177889278263878e-01
1.601628733298445240e-01,6.964807430375581643e-02,5.873880753163727292e-02,8.745757179878698578e-03,3.036072140240201299e-03,7.112370509300879051e-03,1.239646909358974314e-01,3.718616268456995111e-02,7.673818018717258604e-02,1.115309217999412295e-01
1.259156431612621363e-01,2.588003419577931258e-02,6.145993980139424079e-02,1.202206731392523736e-02,2.876790707747342232e-03,4.933481579879441317e-03,6.733744220303028438e-02,3.377604881652626970e-03,7.133929234605884684e-02,8.323742290946588296e-02
9.789690589259812670e-02,1.756693911673952793e-02,5.828059733557904021e-02,1.303538257961513874e-02,2.618334474852256847e-03,5.695563620827497758e-03,8.646675438879891651e-02,2.608101767138156640e-02,5.552733352486996510e-02,6.018915002103627371e-02
9.847306510487013886e-02,4.934922517038036610e-02,5.225581687869595288e-02,1.280693965600435136e-02,1.346997734490332005e-03,2.018573485890011888e-03,4.275194659687985010e-02,3.597740025906497746e-02,4.482897146928965099e-02,6.230054493333094488e-03
1.276074690363246666e-01,6.257062409533900582e-02,4.480959252947491062e-02,1.234325612710055614e-02,9.989763572582546075e-04,1.204042481809933056e-02,1.475657602604988072e-01,2.098796929144659471e-02,4.174095942207885906e-02,7.986764439310915786e-02
1.587862640390759195e-01,5.890267132214097034e-02,3.769785792269160496e-02,1.172755554830615110e-02,2.545364309866773346e-03,2.815739770538986872e-02,3.351943774118987807e-01,1.232692440940599821e-02,4.211616502953825780e-02,1.285813145383227496e-01
1.793125286057894452e-01,5.683950351242678112e-02,3.215274398030284336e-02,1.105555021302466467e-02,2.061291089823018632e-03,3.412288395637641525e-02,3.368137011296090111e-01,5.872911320511324529e-02,4.802748174890687782e-02,8.660726634150973935e-02
2.005155919647395313e-01,7.594850744499066775e-02,2.752134956112065392e-02,1.100264443683229322e-02,1.172298438465333489e-03,3.139772531046561288e-02,2.111483975835094506e-01,1.120156114869567954e-01,6.231750598534348956e-02,9.072034597785272325e-03
2.175904549079863415e-01,1.078457536054405752e-01,2.248071032809565578e-02,1.130102061367084521e-02,1.991578770430255975e-03,3.103476829256140296e-02,1.679336128151713292e-01,1.509242061961442172e-01,7.551205928244733578e-02,3.928480741042256023e-03
2.093813052333123315e-01,1.217863809195151858e-01,1.746359282512533959e-02,1.003693978847246954e-02,3.787938578455353738e-03,3.608203470738940988e-02,2.585098558623555309e-01,1.529898680128845556e-01,7.249139432246387571e-02,9.187329981882719210e-02
1.798298934424656659e-01,1.013248613897096695e-01,1.634107254342866480e-02,6.596947025536678381e-03,4.018669138822366683e-03,3.843995885705507598e-02,3.247442073940024487e-01,1.201229346375895235e-01,5.337673498060054728e-02,1.818922305775158843e-01
1.452486429909178034e-01,6.108948507828729224e-02,2.339106483093191663e-02,3.679759254684448339e-03,1.936583706387418361e-03,3.177944804447603577e-02,2.491659990270813363e-01,6.956022255395505338e-02,3.488639798114010621e-02,1.955063484037264931e-01
9.667563797219412558e-02,2.941760322160038785e-02,3.482451854437038780e-02,3.303932148244185466e-03,5.937083882156192396e-04,1.946611735942112287e-02,1.119136838506439580e-01,1.248670090160002716e-02,2.856869600179582497e-02,1.552869266025121153e-01
3.181982671577817529e-02,2.300296447145699572e-02,3.783834214837121512e-02,3.003958511923057045e-03,1.509975580190771067e-03,9.429213966008924419e-03,6.625511221538354922e-02,3.828320212817238472e-02,3.193638110689400039e-02,1.254596747981262528e-01
8.579042836673010652e-03,3.538847066133622016e-02,2.533319799716417936e-02,5.718721981553794367e-06,2.609114248314705763e-04,6.471393981615160447e-03,1.534694440898692058e-01,6.045464572613490351e-02,4.243626760069520859e-02,1.233850524923312403e-01
4.590198597674493425e-03,4.787026272139826427e-02,5.758395272454896671e-03,3.483458654750396736e-03,2.746440736724249914e-03,1.012386341266985866e-02,2.846398004354946387e-01,4.570346018605912775e-02,6.078607119419383864e-02,1.308225123666958978e-01
3.431770919592646435e-02,5.007455726208334679e-02,9.679530201401730788e-03,3.817240500147314145e-03,6.801430891655022189e-03,1.660286687604388411e-02,3.576842399972688380e-01,1.572161804342080138e-02,7.659451896893738898e-02,1.446428981044772244e-01
2.912469999148352071e-02,4.338005331332263348e-02,2.020028675734533707e-02,2.206508847570964188e-03,1.053952260687619595e-02,2.154256827036029123e-02,3.503965859543166639e-01,1.319305296220396953e-03,7.202623977065629457e-02,1.669487141265278696e-01
5.866605798760268428e-03,2.998276002219510405e-02,2.762103531803517323e-02,2.967728788054503804e-03,1.243628355464498902e-02,2.222956566554890739e-02,3.133008903671949952e-01,4.126694685304549415e-05,4.671182913347352028e-02,1.794358841653959924e-01
3.088517522278672045e-02,1.210887515151248123e-02,2.849625325938666409e-02,7.484298785430700852e-03,1.264127773375804502e-02,1.905958280358678592e-02,3.093825142412530149e-01,2.519223019400725939e-03,2.121539839410049866e-02,1.716295172684564052e-01
3.408807321699869330e-02,5.213928317654483065e-03,2.182930233592613942e-02,1.356793066917335970e-02,1.300314707590497984e-02,1.481567622342398749e-02,3.572957308125619957e-01,1.125312919946176715e-02,1.203428363080726732e-02,1.617240626711094476e-01
3.693342824508077243e-02,2.343554941372937364e-02,1.130391621077357113e-02,1.893409432539823120e-02,1.418796288448037624e-02,1.097496040907817820e-02,4.032916123548871967e-01,3.882780163393273476e-02,1.911651671190067389e-02,1.534980077810181864e-01
5.443627545643565241e-02,4.814534585052559351e-02,1.785095790472418422e-03,2.224114707296676041e-02,1.428953570973475785e-02,5.631053946928019083e-03,3.684273310487337638e-01,5.611938273072462208e-02,3.643831268358859593e-02,1.159369758716803506e-01
7.537554166015107693e-02,6.422681770676641477e-02,1.289355045013599807e-02,2.271276265155772189e-02,1.158224769112324234e-02,2.723557595582762943e-03,2.495491710909888416e-01,4.198473399226489156e-02,5.781328005748477550e-02,4.219475268200776480e-02
7.720693714702869803e-02,3.801655925216471110e-02,7.450848090292126573e-03,2.131533758414323049e-02,7.178546778084229918e-03,1.136844660739667369e-02,1.284164133177174705e-01,5.652459272190591549e-03,7.502467655225741883e-02,2.097282255351815353e-02
5.003083601323389529e-02,3.465149284963862930e-02,2.140511634897977050e-02,2.015366718547692212e-02,3.591540052599878283e-03,1.656599962216622618e-02,5.787288301483434899e-02,1.835582127947239794e-02,8.386614730080710345e-02,4.050636436916990601e-02
8.348659974073515885e-03,1.077898471951387327e-01,5.604083437037749721e-02,1.930248787527781215e-02,1.784991082517872621e-03,1.856644930790857934e-02,9.735698199511685913e-03,6.009499828540725355e-03,8.593636352398707767e-02,4.272247987266937497e-02
2.087003032235063699e-02,1.358030660634368947e-01,7.266759612158719961e-02,1.686249753496266851e-02,8.172745099763079231e-04,1.974141252130771559e-02,3.415260700008611316e-02,3.432702278306470206e-02,7.597733123812712430e-02,5.206200021951873369e-02
2.643115170496548524e-02,1.216376042242046512e-01,6.749596495343578029e-02,1.214553146797343192e-02,3.917519839108940267e-04,1.917236257926052678e-02,2.080919320711431542e-02,7.888656370389733608e-02,4.342494215960329002e-02,3.456552344027986196e-02
2.214905848330021507e-02,9.441788912296397718e-02,5.138911401659910366e-02,5.953760411553582661e-03,1.935192930535010016e-03,1.326167366025557404e-02,9.013935305318129809e-02,1.126442142622510328e-01,2.557527237698097727e-03,4.479329721555547206e-02
1.963347838032303977e-02,6.402774612567606327e-02,3.038217137688210140e-02,8.608751009984458129e-04,3.215966861118752483e-03,2.451442510420813112e-03,2.318748161599261115e-01,1.284230914173772053e-01,3.142887475373431355e-02,1.421012329574692645e-01
3.100021903113705894e-03,2.312445708334327429e-02,5.210418570713527299e-03,6.486801306234716777e-03,3.757903007591050556e-03,6.063948570321064241e-03,2.765755648331993388e-01,1.179275878377778336e-01,2.811218728885135631e-02,1.735027828215985057e-01
5.040801022704774481e-02,2.240778083311766727e-02,1.913218384993847429e-02,8.551746220165364065e-03,3.678832310325826603e-03,5.518022833058570074e-03,1.757458989505621128e-01,7.720869403232319406e-02,8.207213495343970364e-03,1.246319971181191755e-01
1.240940979392756854e-01,5.163359449051740241e-02,3.615498844754798380e-02,7.753288160467617166e-03,3.451922503139656304e-03,1.763486992841950454e-03,2.528959297624180230e-02,1.562216424244301793e-02,1.360082579865647297e-02,6.241880938543283019e-02
1.558754714106023731e-01,5.309577738013145087e-02,4.410097623426852825e-02,7.564992687074295445e-03,3.335362655658145534e-03,6.914702420007769884e-03,3.660406556131501343e-02,4.571159754387102425e-02,3.891093368717177259e-02,3.355446861846472784e-02
1.025225216694990310e-01,3.385866673360309054e-02,3.998029053288811724e-02,8.205168026352764252e-03,3.241785465977172712e-03,5.613251470142674449e-03,1.506302489408330170e-02,8.305043727495829697e-02,5.580908634729451340e-02,1.170849874530597440e-02
3.687256166299948505e-03,6.960327627686980177e-03,1.630916511087369264e-02,4.966010229997716054e-03,3.062717379252967095e-03,1.778007933297034776e-03,8.481538194448307033e-02,8.150275944924723071e-02,3.195848255833307755e-02,3.547876177012405929e-02
9.286882966529140526e-02,1.665976268085831227e-02,2.435183095876066253e-02,4.645268531042922450e-03,2.843470184309594348e-03,5.501759815138632375e-05,9.083631480457717011e-02,4.397157751824614519e-02,3.745350447931502375e-02,8.785278988968354963e-02
1.362092921656817279e-01,2.606986873692430928e-02,6.076409252127434185e-02,1.567614695188231794e-02,2.653648248638075177e-03,1.063436497563875370e-04,3.183602186930666045e-02,7.996231544652305373e-03,1.069683298286666362e-01,1.150814709864695640e-01
1.503314616952702854e-01,1.402103318690953344e-02,7.231408180184266399e-02,2.097745399750968603e-02,2.470704686612154935e-03,1.451544641347507578e-03,6.729956711924449386e-02,4.408248559621964768e-02,1.318952364973502989e-01,1.266019517058773469e-01
1.456789523810373133e-01,1.229301848430137782e-02,6.043495135625875925e-02,1.917317757010365137e-02,2.242661737164519491e-03,4.681877397878658059e-03,1.798999813829765537e-01,4.629327669559150232e-02,1.162451810539314873e-01,1.431485236747140899e-01
1.162106158255914179e-01,3.278700711893438313e-02,4.124689103646650423e-02,1.430896016107491633e-02,2.006919911893278140e-03,8.258637128619331427e-03,2.490204424110953607e-01,2.590004959450049535e-02,9.108362046220622177e-02,1.595380158197858000e-01
6.667586574602424321e-02,3.526534708079758634e-02,2.475077575725061207e-02,9.581964821698964185e-03,1.853343618071736287e-03,8.320818823296856695e-03,2.313149019737586742e-01,8.085194628861237798e-03,7.166679159888250661e-02,1.662109952551214798e-01
1.318779458073234510e-02,2.773522672721936630e-02,1.079010221330034373e-02,4.902082811279464061e-03,1.731710955556390111e-03,5.002043084492992751e-03,1.752803207319988676e-01,2.832892644948571161e-03,5.464805084858493506e-02,1.733287695808719275e-01
3.685539546881385492e-02,2.106882060438150864e-02,1.070475421276557895e-03,8.872349755687024102e-06,1.481570745050001491e-03,3.628539662720872173e-03,1.716054679593269350e-01,2.318524538087748249e-02,3.660308675529062167e-02,1.890099517815385100e-01
8.662365871140242923e-02,1.265567385456498745e-02,8.883317368487925886e-03,3.605797646323475637e-03,1.216597195108224533e-03,7.010498722000635050e-03,2.228264995768788614e-01,5.406554312696412040e-02,1.713357893330315698e-02,1.999162007220049442e-01
1.379483123326386562e-01,9.824241779499362243e-04,1.378824692578584261e-02,4.680888958123317900e-03,1.299724694914742868e-03,1.088529888388672755e-02,2.416822421174665558e-01,7.479091861105932604e-02,3.261984742049683309e-03,1.889009546397108497e-01
1.818186354328816534e-01,8.505521200203475804e-04,1.905513042457209968e-02,4.245937959002236972e-03,1.490183103582835410e-03,9.497648713865937745e-03,1.849624024952707113e-01,7.563921115473609680e-02,1.578664135620224188e-02,1.522301801813754629e-01
1.966530252323500094e-01,1.611293158916301746e-02,2.330026936582340821e-02,3.886363703813519067e-03,7.038774692011266244e-04,2.607778365011458824e-03,1.149112097712793462e-01,6.618590389761817849e-02,6.383094066888564747e-03,9.636744231289891272e-02
1.672212321194601892e-01,3.996177771591818972e-02,2.200334180294339498e-02,3.834787251133446595e-03,1.459408473620543538e-03,5.002138313324994146e-03,1.106308877185166045e-01,5.132237788797945621e-02,2.306221171701089076e-02,3.675633717039052811e-02
1.113946196140111478e-01,5.519142620264338300e-02,1.714629574380524893e-02,3.792907314362584884e-03,3.554083450334518356e-03,9.091564489246799219e-03,1.744648997639814680e-01,3.112567268152253291e-02,4.879812394999408914e-02,6.825753399256223944e-03
6.749047105086877774e-02,6.143301090945001153e-02,1.750427275920830514e-02,4.013200927516141769e-03,3.958056756340668642e-03,9.516469449979178541e-03,2.482344611997771289e-01,1.742108346980493147e-02,5.056468319719832627e-02,3.190263797369312371e-02
4.695252478062744705e-02,6.207987773499080292e-02,2.362892711649908911e-02,4.260662983061030279e-03,3.132651044474095165e-03,8.810920252369860983e-03,2.898401513635114890e-01,1.755098841288946915e-02,3.390926299420039813e-02,5.516642165535001752e-02
2.625616690738653489e-02,5.055713848961588402e-02,1.980106497679637312e-02,3.327843864507677718e-03,2.597204737176935473e-03,8.166553658177934036e-03,3.109921330692260732e-01,1.537786820979458562e-02,2.029295141029771252e-02,7.797884421217127215e-02
3.721273102428663410e-03,2.209925255607937331e-02,7.043660663286749508e-03,1.173727204012694602e-03,2.286681995326566436e-03,5.884802885646574916e-03,3.405327754513686189e-01,4.092832104283595021e-04,2.064445847048483954e-02,7.877644148584045380e-02
1.286445260631534186e-02,1.354706643970689239e-02,4.407090972106944560e-02,2.993807910511647003e-05,1.011579993960791141e-03,8.089553532632915399e-04,3.632805874750530406e-01,9.140097247686721632e-03,2.401742275147848368e-02,5.875178722319638475e-02
2.387087138308599879e-02,4.180341579206660330e-02,6.316805261856980880e-02,1.242095035259688967e-03,9.792116581856921600e-04,4.316191519637821092e-03,3.256415928180166341e-01,9.814858849484475040e-03,1.337493947504536998e-02,5.658886087532173648e-02
8.305797580449401918e-02,5.512693810795061405e-02,5.429112278116899476e-02,3.523538380960530153e-03,2.179407169555307687e-03,6.167395576406581315e-03,2.165345226895645514e-01,3.884142734543868936e-02,9.316517226081058242e-03,8.988908524909035302e-02
1.151051104935287700e-01,5.138249593577513818e-02,3.405589837572563228e-02,4.567681093657622107e-03,2.207775037687249083e-03,6.344032366236116403e-03,1.040810324056828384e-01,4.620485202728757262e-02,2.168179927088503128e-02,1.199607655663633421e-01
9.505862412873901379e-02,3.279409060466432352e-02,2.095025171650822388e-02,4.294392376442284637e-03,2.049965547089453548e-03,8.889660300699006243e-03,5.739501260598840748e-02,3.109429406696951476e-02,9.401653786631002790e-03,1.051588684608372182e-01
