5.554277972580836005e-03,5.827794504298264462e-03,1.513960948216344464e-02,1.066550331755975259e-02,9.693820653359479927e-04,7.539309285594243248e-04,1.972238592197053317e-02,2.422975552622826101e-02,2.283983999711201515e-02,3.648563734940527339e-03
3.721447349020543059e-03,6.159811390438697278e-03,1.639240187116198025e-02,1.207812175614559821e-02,1.109462967527990312e-03,7.331529314840017379e-04,2.690110735891091190e-02,1.544258593157393604e-02,2.206873360213135182e-02,7.061650618051065753e-02
4.008431779864342500e-04,6.499420290729814899e-03,1.691146798834290352e-02,1.356372842486457120e-02,1.248779599154793913e-03,3.376301338273866501e-05,2.954168237043243786e-02,1.116803645776292576e-02,2.108223750845321029e-02,1.476407983690865566e-01
5.543798113505959795e-03,6.840500617012705911e-03,1.679650847796272661e-02,1.488736330218761762e-02,1.384078230457520429e-03,7.136827698574676939e-04,3.244924924275847944e-02,5.999964487418236840e-03,1.989153498897663908e-02,2.145848636418812017e-01
1.193687529687798357e-02,7.176446244859276472e-03,1.660234122825186842e-02,1.635895421811743577e-02,1.512095560593429725e-03,7.401257658215333645e-04,3.376824440874743455e-02,3.413248343321189857e-03,1.850989522261966419e-02,3.005528536841070575e-01
1.858963715027883712e-02,7.496146392012654515e-03,1.645082543841995537e-02,1.849454102320267218e-02,1.629635609008266931e-03,4.094825985186767089e-03,3.318894587384982331e-02,1.390523300003881392e-02,1.695351894605619247e-02,3.961068912617011772e-01
2.247638177025922460e-02,7.786615817762600027e-03,1.613520193194442620e-02,2.064693482142091960e-02,1.733645107263781645e-03,5.768284865910757418e-03,3.716812497920562314e-02,1.873243233515416509e-02,1.524108201253485464e-02,4.399138004058327223e-01
2.219691251495378714e-02,8.042065513399686630e-03,1.553190665888348927e-02,2.169099819807786267e-02,1.821285437735677745e-03,3.422954801916807885e-03,4.877365270407878900e-02,1.604746985257338165e-02,1.339045370065549551e-02,4.058713477309681683e-01
1.920111527737655699e-02,8.258997467310177226e-03,1.471482856282312242e-02,2.299171081567184458e-02,1.890000479961211803e-03,5.884298926483606243e-04,6.342088823518821084e-02,1.337391532797309844e-02,1.141799798681704739e-02,3.312095168734516815e-01
1.475490932445940560e-02,8.417225742467742203e-03,1.393494225335649254e-02,2.710193714298602188e-02,1.937578903985228383e-03,2.678393924459487093e-03,7.860673135268717027e-02,1.868324163800428456e-02,9.343891736276224019e-03,2.592894869981623440e-01
9.637786905670778573e-03,8.490411060535392462e-03,1.328897951518413084e-02,3.093150610391094332e-02,1.962206911084999738e-03,2.616255605463693994e-03,9.522077510957255297e-02,2.695938610676126487e-02,7.192041487428375152e-03,2.041848236277619133e-01
6.302088763290249543e-03,8.487442253754974922e-03,1.234573765111346942e-02,2.593944728901417113e-02,1.962509536223920603e-03,2.436546349964024711e-03,1.081580748134338826e-01,2.419649010511286044e-02,4.977010255243307854e-03,1.561745719891562689e-01
6.403582749693262875e-03,8.431599089812004746e-03,1.087617871644084092e-02,1.045172622796445433e-02,1.937584665319988780e-03,2.942773160827787376e-03,1.108657728885551197e-01,8.249475313121201747e-03,2.702184606674668671e-03,9.459328601967929850e-02
7.373496929877754874e-03,8.272200670667652009e-03,9.879292520002575309e-03,4.645157010778153128e-03,1.887030234642973281e-03,3.475978961150414694e-03,1.091316918687534610e-01,5.967534677641928714e-03,3.860625823651156084e-04,2.024790755204753517e-02
6.079164987490666243e-03,7.927349709108058931e-03,1.002145813520135230e-02,9.307744065405239992e-03,1.810952847626897278e-03,3.709415933460294499e-03,1.138756423608013602e-01,8.945423798294924178e-03,1.934603923485948103e-03,2.490583453382908680e-02
3.407513257582672241e-03,7.474395381047074099e-03,8.859646110575889258e-03,7.107397585991680200e-03,1.709954433397830285e-03,3.923132327430352978e-03,1.213508695011303873e-01,9.141744756636394423e-03,4.262165038386065211e-03,1.015969793908084312e-02
1.362016423853912436e-03,7.064364385215150637e-03,2.884850248731925249e-03,8.030131185397436366e-03,1.585120807594959848e-03,4.189131222802914591e-03,1.174279639836030148e-01,1.353489730895340512e-02,6.647387301931817483e-03,2.807182623549000708e-02
4.314464109272757569e-04,6.510638353062531483e-03,6.521626757693332541e-03,1.459301713554403759e-02,1.438019718159742628e-03,4.394818878205137072e-03,1.002508787016096747e-01,1.352696388951454137e-02,9.068076990101387597e-03,2.975147979528209793e-02
1.974775487600542202e-03,5.451859307484735462e-03,1.297362018828437241e-02,2.117450745842867910e-02,1.270658303463607138e-03,4.680126896737469601e-03,8.228960039972053886e-02,3.157191879129645547e-03,1.140652030361825886e-02,6.905929259027734912e-03
9.553879093666783461e-04,4.282929861725640053e-03,1.245291566731272434e-02,2.231971603762859108e-02,1.085384071727703206e-03,5.075488008229666476e-03,6.994628777142282428e-02,5.045555566035525921e-03,1.370847185298556051e-02,2.705879265229257577e-02
3.599909392016686135e-03,4.098907798153510890e-03,7.222202265805463192e-03,1.708954072375568067e-02,8.848384191607996984e-04,5.102912669483805445e-03,5.652129999302185626e-02,2.687199426653256486e-03,1.624110048790399982e-02,5.534351701361142628e-03
8.859866823130472732e-03,4.936804571677872941e-03,1.617233291859041964e-03,9.122221902756973144e-03,6.720027917407282031e-04,4.540330060741303020e-03,3.911637410175014540e-02,1.966595780076428601e-02,1.894512063150521550e-02,5.931961299090155598e-02
1.111669083725199195e-02,5.043648727775871220e-03,2.331152256702885908e-03,5.120498502762280829e-03,4.501097865179148395e-04,4.148680768852042004e-03,2.950717764050680980e-02,2.828271752657756169e-02,2.123771901093548381e-02,6.772595680054292744e-02
9.353758615950185165e-03,2.982501166490954519e-03,4.571461104410869461e-03,9.095077074193521141e-03,2.223323194909977295e-04,4.740365654797257938e-03,3.995223761488815584e-02,2.369251930484373228e-02,2.301744761698743674e-02,3.558169623917218152e-03
5.266990565792157956e-03,4.285416464925348012e-04,5.572980869048043545e-03,1.685743208316108077e-02,8.259865662630577548e-06,5.908619385892174489e-03,6.545249904137685759e-02,1.475270178812263834e-02,2.524586278261668412e-02,9.752177402263777217e-02
1.022633860437871566e-03,3.430810456574778268e-03,5.970539377132333576e-03,2.037558865874040948e-02,2.382724000447903018e-04,6.434015027388901437e-03,8.747901994468534892e-02,6.630681532597617299e-03,2.857365644961143078e-02,1.871781801603010775e-01
2.548989253571633511e-03,5.752786486763179427e-03,6.191571308996246005e-03,1.679866914085046542e-02,4.641208734597175264e-04,5.654986210154359060e-03,9.193626820128561472e-02,3.267867373618472352e-03,3.222854905569128015e-02,2.497931033673488344e-01
6.092713924926898561e-03,8.231796363322867877e-03,6.309162045060547411e-03,9.251715997348674766e-03,6.831842985960807869e-04,3.988993364938357884e-03,8.047283427963369817e-02,1.358234943065416388e-02,3.537618620651934026e-02,2.938411189047189787e-01
1.027504553219136044e-02,1.042737117868787651e-02,6.578043723279673564e-03,1.487231380316411059e-03,8.937758391649641612e-04,2.292367958056755039e-03,6.806576897952906768e-02,1.684647887454671089e-02,3.849719001086920195e-02,3.274927591295494489e-01
1.459562369504601061e-02,1.068843837506602661e-02,7.585830631717568884e-03,4.836198970587120109e-03,1.092892635238843120e-03,1.110132618918625120e-03,7.036639108574624379e-02,1.117640335069667451e-02,4.216893822390092861e-02,3.516433919168710509e-01
1.845366303140077990e-02,9.150614376709723802e-03,9.574279244573380421e-03,1.084249552542615458e-02,1.276413992711232992e-03,7.752341090800314366e-04,8.741632950308247940e-02,3.872633707757697392e-03,4.573062007941900570e-02,3.620307028367747426e-01
2.257079834761720888e-02,8.769261603564258017e-03,1.149863875460004764e-02,1.956614240463537893e-02,1.444081910297712263e-03,1.753882625866174218e-03,9.906537204278760556e-02,1.380728584835669813e-03,4.865830075301409013e-02,3.573444882252491128e-01
2.765790851573824913e-02,1.220899669046975750e-02,1.107182870074790472e-02,3.075314127271360984e-02,1.599348633434285061e-03,3.943485080411994817e-03,8.435007475940257959e-02,3.707920334765964915e-03,5.193883838238795569e-02,3.457170661068685313e-01
3.244019848043678406e-02,1.860699275284269372e-02,7.395923814505383706e-03,3.841190624403716808e-02,1.738844321712471139e-03,5.850091707436991771e-03,4.464763672254591642e-02,8.205363081648693255e-03,5.638699006301873401e-02,3.257759133877348723e-01
3.484675096800848165e-02,2.449202325253094226e-02,3.812761795801225713e-03,3.829275669878442340e-02,1.852500439901167556e-03,5.954530546561941952e-03,1.053952736885315714e-03,1.125005505904370755e-02,6.145255322747643356e-02,2.699766901492938742e-01
3.452608822247614506e-02,2.805789415878900961e-02,5.118646869989129482e-03,3.384169671074186564e-02,1.946081280679738245e-03,5.072232792934962785e-03,3.678564446600564308e-02,8.890276801413986296e-03,6.735308295141606560e-02,1.662132078947320124e-01
3.268671037258467915e-02,3.111458491140546914e-02,1.084981259201624713e-02,2.932511885372686422e-02,2.041505147339011533e-03,5.400382691714234948e-03,5.705140109030219786e-02,1.000915638847353932e-03,7.464462404846179677e-02,6.095523790509561890e-02
2.996522385225111260e-02,3.513135583856364513e-02,1.525842159543973862e-02,2.333179265224300317e-02,2.128691032025731289e-03,6.657333755602166427e-03,6.822415116975326377e-02,9.672217658473529489e-03,7.954839095233723345e-02,5.326701164668181526e-03
2.572970281798472522e-02,3.773228426764803356e-02,1.556570031172426968e-02,1.566601029525585553e-02,2.163530610653320758e-03,5.678011838231643987e-03,8.592356948768481439e-02,2.153560604000955350e-02,7.652298618356563609e-02,1.832254363947321413e-02
1.935770715292957356e-02,3.720611331875911532e-02,1.471579680064614287e-02,1.216141867668493574e-02,2.170564359679885095e-03,9.300925505946229391e-04,1.149653384103614534e-01,3.098756838007491604e-02,6.924282443585308422e-02,5.920365387237911531e-02
1.122769601506038058e-02,3.708138797810710957e-02,1.304930078081502354e-02,1.406779051124799028e-02,2.249976608454103393e-03,5.303178090297643900e-03,1.438259004606847746e-01,3.412805792863375653e-02,6.917654928872341014e-02,1.235148217532617415e-01
2.664421359288906069e-03,3.930786770263957480e-02,4.569579234699171384e-03,1.209695876032667282e-02,2.358331541203646971e-03,1.039226939471639931e-02,1.712779764377857783e-01,3.767065219846661706e-02,7.726267935881762916e-02,1.802202038499056413e-01
3.970894567980683305e-03,3.726147528916189805e-02,1.278502983058247069e-02,7.686925779531145848e-04,2.284801351758009372e-03,1.384568635699731654e-02,2.053194759477893205e-01,5.160791950097767117e-02,7.885646983288975564e-02,1.965819012320478842e-01
5.851901196052240045e-03,2.519948909749491692e-02,2.938890930127145348e-02,1.120310130145369537e-02,2.114691426991792758e-03,1.514902897423253680e-02,2.267348329970027554e-01,6.696308700394527913e-02,6.382007415000900963e-02,1.516560112706859531e-01
2.260017563797091927e-03,1.049893702315061669e-02,3.344840099972026803e-02,1.468493451426041568e-02,2.350639713767507192e-03,1.287041850252762173e-02,2.017743919452308077e-01,6.318323121909344420e-02,3.828245041807505633e-02,6.371129176946722927e-02
4.180734021177174783e-03,6.334685307176682149e-03,2.549501856613904660e-02,1.371120857538768618e-02,3.084919367066176702e-03,7.679317876506998666e-03,1.391436930898507229e-01,3.992244106276934823e-02,1.142928154994222838e-02,1.065946082772520516e-02
1.049994137015188879e-02,1.524064750432667717e-02,1.795715573611476532e-02,1.519888147357805613e-02,3.583410017292541945e-03,2.940908468952686469e-03,8.523531688044364008e-02,1.829133875923075192e-02,1.316972158307017776e-02,5.450192451682054490e-02
1.545943816265701702e-02,2.686279784349527092e-02,2.041007977475204141e-02,1.566050691822779006e-02,3.284089847675630662e-03,9.319576385169831782e-04,6.041405340798397527e-02,1.165550605965050973e-02,3.018216251675901254e-02,1.158049631766288334e-01
1.714347111669373147e-02,2.890976314981002354e-02,2.977027446984549172e-02,9.187605754781235506e-03,2.541027444288156568e-03,1.464766732545702424e-03,5.104752347328073148e-02,1.673919138024832637e-02,3.420935308752275777e-02,1.963833628950252264e-01
1.327779818569832515e-02,1.742898361777095798e-02,3.734409035251721326e-02,1.781594375161625675e-04,2.046853468859225703e-03,4.315707888831741071e-03,6.281328721897436185e-02,2.894245360199441952e-02,3.038227971253642384e-02,2.050287956010614643e-01
6.920000682445330217e-03,3.463409091324688455e-04,4.017389815278534643e-02,5.170127934174729815e-03,2.318046430351904542e-03,9.023936966345432256e-03,1.199283381942761462e-01,4.628767865838608747e-02,2.896037875147000271e-02,1.096829841976088848e-01
5.818979864348709959e-03,1.337027078340583854e-02,4.062641859589052190e-02,7.290727976871613433e-03,3.485460970275500257e-03,1.253887406477200393e-02,2.028663556091469256e-01,6.223754577217220640e-02,3.239782679051862735e-02,3.173623823778862901e-02
1.197803790227931243e-02,1.897612434624748254e-02,4.153653632139232832e-02,1.144641031639169644e-02,4.717625950678361151e-03,1.179461055537472068e-02,2.517097848003840288e-01,6.983301372187626643e-02,3.901553985138405539e-02,7.028709489315179693e-02
1.803292460336414563e-02,2.345360389967915404e-02,4.830132254976410994e-02,1.521563967433091705e-02,4.731416026012453049e-03,8.800141809427206724e-03,2.506233663822249325e-01,6.910630299444112112e-02,5.206961175341780212e-02,1.321095513355147744e-01
1.786831921419217845e-02,2.923748538574773986e-02,6.775667543402470738e-02,1.443985005432581702e-02,3.598434703461059550e-03,8.698655987452065877e-03,2.478302707155397022e-01,6.100630045416353259e-02,7.405622069879815028e-02,7.502566506567025229e-02
1.333321615122327712e-02,3.173817836760924049e-02,9.693400473957324015e-02,1.307766432569270471e-02,2.749562641579269412e-03,1.254334685528627966e-02,2.685023207229497166e-01,4.222297580933793287e-02,9.625098383980904004e-02,6.537603484083036320e-02
6.577614174653500720e-03,3.286043573819769081e-02,1.197717750352490784e-01,1.538909743602841045e-02,2.837478193088284126e-03,1.633142874241285195e-02,2.684556981949853816e-01,1.619979610305917819e-02,1.002347142578690203e-01,1.449414022889132236e-01
4.868507555164887368e-03,4.320927339361096270e-02,1.224345555090659426e-01,1.356377016540072367e-02,3.144236737740437656e-03,1.756306601911996820e-02,2.088735847826004022e-01,9.422706092788724064e-04,7.331968829590815306e-02,1.490815500059026188e-01
2.025871749955772752e-02,6.236763862979634310e-02,1.076933348457826956e-01,3.470104531467789813e-03,3.195858632243796585e-03,1.802129357546974203e-02,1.256017851600337576e-01,1.138294969010762454e-03,2.906364518682345854e-02,2.061714779125730646e-01
3.155681799025632228e-02,7.158920681686321841e-02,9.015906387699045010e-02,3.115962164006668561e-02,3.315889468143833410e-03,1.847761485463855421e-02,7.759329938024761564e-02,1.045257784783176248e-02,6.728587375347811275e-03,3.704763969937150958e-01
3.216679520371291262e-02,5.834120136621281927e-02,8.140445235329536733e-02,5.261863568247888284e-02,3.457624392718628304e-03,1.567582877958356713e-02,6.421124373658680662e-02,8.625659284651752620e-03,3.373037968441080364e-02,5.283353594340848280e-01
2.416687244799453974e-02,3.729590218320165407e-02,8.222951673381552473e-02,6.119339522999315412e-02,3.154732632400955323e-03,8.719557076861950140e-03,4.985354937410278742e-02,2.119706169828100648e-03,9.352955056495372566e-02,5.726714020756468182e-01
1.560864227854820603e-02,3.289310545162620059e-02,8.572024080797994994e-02,6.684295111982715976e-02,2.970352579267914774e-03,4.286627966306411075e-03,4.142941447940470118e-02,3.419414871592075383e-03,1.467275535202621772e-01,5.653696872461735357e-01
1.558310814090257436e-02,4.757542537515641740e-02,8.489070262357502339e-02,7.863616843953803726e-02,4.138221668867381707e-03,8.949363240082676071e-03,7.133055136544159958e-02,1.019117664714003571e-02,1.712088058701240756e-01,6.224967132620324861e-01
3.013929873938404891e-02,6.358322766531268599e-02,7.748281716300348121e-02,9.327885750483239091e-02,6.085303987779486050e-03,1.891693940453934367e-02,1.211275085914798183e-01,2.409569168143234005e-02,1.643778789979361554e-01,7.118010128874470155e-01
5.622766020406584631e-02,7.259073245520974993e-02,6.453866844264574687e-02,1.019821154113112333e-01,6.485871174104965511e-03,2.434853608712040512e-02,1.351114333105577769e-01,2.608843014891982712e-02,1.275440773272622230e-01,6.941844191496147065e-01
8.033390258905129255e-02,8.216964215585863263e-02,4.852597545756429098e-02,9.845244617795523290e-02,4.697297479891091726e-03,2.165745949286404862e-02,9.786971172338813918e-02,1.796156809371062327e-02,7.426461369648144906e-02,5.285838064933919833e-01
8.938567450198295350e-02,9.111902212350615760e-02,3.538982588853811784e-02,8.124011275712456071e-02,2.770257151749147898e-03,1.565552184580305817e-02,3.937423888024923352e-02,3.865795101111978160e-03,3.680353821790045832e-02,3.283489780871450825e-01
8.410148405481332468e-02,8.181708563475889595e-02,3.173156303063311146e-02,5.560083015521569832e-02,2.288612886331369174e-03,1.225165230551761818e-02,1.429720239045514929e-02,1.326609771210655181e-02,3.517686106468034812e-02,2.303108820413126978e-01
7.727377562194935601e-02,4.642527457664351320e-02,3.534789341402067020e-02,3.072080047575138223e-02,2.595669365250821876e-03,1.333113507393735367e-02,4.981501569140421581e-02,2.298164221001894325e-02,4.948321294843827101e-02,2.657146287116665118e-01
7.635765009161840644e-02,4.839834592039208780e-03,3.617245905336585049e-02,1.271183059988709348e-02,2.531980424388948978e-03,1.604545182881474824e-02,5.831426977303950931e-02,1.537665120577217173e-02,4.715826587974508016e-02,3.436437319935844448e-01
7.167005437742059171e-02,1.432287361051361001e-02,2.926773014296669279e-02,4.612715089044821734e-03,1.877443214809658900e-03,1.518031239167731174e-02,4.803185675167988278e-02,1.359274033312597198e-03,2.616457787267378182e-02,3.411732933216971575e-01
4.964736805733973440e-02,5.134643677591770386e-03,1.738742666402148807e-02,1.002992863675943730e-02,1.085792399055638714e-03,8.840290969152536649e-03,3.428939995800488194e-02,1.064572224490828445e-02,7.357690186673277594e-03,2.344577554918674811e-01
1.691830146278920297e-02,9.022997389635196985e-03,1.176361554541032785e-03,2.718567395894911504e-02,8.636449602471107760e-04,1.180335215770514107e-03,1.478257659375449215e-02,1.251072168378654717e-02,2.453753798088223470e-03,1.327322575571217300e-01
2.454533966004504748e-03,3.916531204872404637e-04,2.066767973750415974e-02,4.256839878114833386e-02,1.379429453265376563e-03,3.416777147760864056e-03,6.890557428196832437e-03,1.772964410239618455e-02,1.401974235432162236e-02,1.340912134914853393e-01
1.435375043487777634e-03,3.679529417019998527e-02,4.143509509564469867e-02,4.152590439811132406e-02,1.397348684720822872e-03,6.288095297866197475e-03,5.758101424799108060e-03,2.130606205571887457e-02,3.135493490639781888e-02,1.723907537551098990e-01
1.147929896577325540e-02,7.226911429625181016e-02,4.784981041206175928e-02,2.397696566062878717e-02,2.525876134525725661e-04,1.063242694366540141e-02,6.929067774401763413e-02,7.930142717531812879e-03,4.531695654488058361e-02,9.329366453887413813e-02
1.070456629178376251e-02,7.540652965679937869e-02,3.378285734109838512e-02,2.962050938764768538e-03,2.088230142104136565e-03,1.483787472259708896e-02,1.263912908413702685e-01,1.670529752205106994e-02,4.656786360301835154e-02,1.325103238024236962e-01
4.551760288513506669e-03,4.668696069626299822e-02,8.490115570462333089e-03,9.327472442884655879e-03,1.282378337494644244e-03,1.481893129103214676e-02,1.119126303344313011e-01,2.652387730434197302e-02,3.373670671225142970e-02,3.754477345509006359e-01
4.294377354997302651e-03,1.845874001655146285e-02,8.927071769437199683e-03,1.064064903349635702e-02,1.772061021322383434e-03,1.115327613495372197e-02,5.003256548139562582e-02,1.176752138201653947e-02,1.650330457945722168e-02,5.331556270611284010e-01
5.011837105949480849e-03,1.697433768208739258e-02,4.086101509421086013e-03,8.496408104203607980e-03,3.027293311505803702e-03,9.359560901468605768e-03,2.091660240283502170e-02,5.890198881730480431e-03,1.272700038835711256e-02,6.513064155050148907e-01
5.501676588824139236e-03,3.688249760555892265e-02,2.113867269454427003e-02,1.297777496387235094e-02,1.579898178510732499e-04,1.349035091162408689e-02,5.520933112687364391e-02,2.933698738311804697e-03,2.834803591278640261e-02,8.112669402902715765e-01
2.665248061270629118e-02,6.023143928277775033e-02,5.282397597863322525e-02,2.707285535147127900e-02,4.410761831223248240e-03,2.150171195292935322e-02,1.186620669047836890e-01,1.625190162065667104e-02,4.507951085008914116e-02,9.589197309480324005e-01
4.596352649587882866e-02,8.342993110147256530e-02,8.012116797174137495e-02,4.582479978018401401e-02,7.243521271836648838e-03,2.678098885122968953e-02,1.754288648078390356e-01,3.046514774974145440e-02,4.650188065503348123e-02,9.383784241180421759e-01
5.431258551918199950e-02,1.065142728378495746e-01,1.006489163410420606e-01,6.541465988392208830e-02,7.853204347193434506e-03,2.450641652967623998e-02,2.163459150893932981e-01,3.204102207338586916e-02,4.287861902085920995e-02,7.065406139235208549e-01
5.212617805931721998e-02,1.093056841154840392e-01,1.128088900487738272e-01,8.496687522967087680e-02,7.590181193462606710e-03,1.655629480251979285e-02,2.373485481730794600e-01,3.100726694640859246e-02,4.734641183293745309e-02,4.123605605073508151e-01
4.459305554917597503e-02,6.988446186533493754e-02,1.145793983562128915e-01,9.714359609445538668e-02,7.339384003571713250e-03,8.694095659415122107e-03,2.253097796224454719e-01,3.489490952017075542e-02,4.695629917569205808e-02,2.091301247799246810e-01
3.761005372771712013e-02,6.358939775136299849e-03,1.123139509550127729e-01,8.981621640175450894e-02,7.707041009063701591e-03,4.473199896764547788e-03,1.765206542118198108e-01,4.054907810325279749e-02,2.499751923172599880e-02,9.847375426671993448e-02
3.604055441774717261e-02,3.282111985612915644e-02,1.178644198539046395e-01,6.382152427702525443e-02,9.368752943953829321e-03,4.751491526258339038e-03,1.226257523993193599e-01,4.548588831012621153e-02,5.198942097908713922e-03,3.267924469526328063e-02
4.070378647706486552e-02,2.813008928258966049e-02,1.312153394083114266e-01,3.696802837258747476e-02,1.198763497172368291e-02,9.915243809097199629e-03,1.152268323720110621e-01,5.587865365997512351e-02,1.706480642436685249e-02,3.972640609775526799e-02
4.759454445448120519e-02,8.179188660303598687e-03,1.377050911496138785e-01,2.388171613988246400e-02,1.399017438144845894e-02,1.817190416309097389e-02,1.695279618139881317e-01,7.866976068240810749e-02,9.207655594523789927e-03,1.430515429473638855e-01
5.110547794969832330e-02,7.262917305724961650e-04,1.298422465553640825e-01,2.372183620151541855e-02,1.423188366963667149e-02,2.488504351867322495e-02,2.459511523401294308e-01,1.084719647260248970e-01,1.055496033504463478e-03,2.640213445818596627e-01
4.713922762805531491e-02,1.109045481245413654e-02,1.208486965018359949e-01,3.131198882971533010e-02,1.319829140942241699e-02,2.749974397414868543e-02,3.020960806223400574e-01,1.291150105610474053e-01,1.530945905297934409e-02,3.010249198432165540e-01
3.609242443789130450e-02,3.864729641949550543e-02,1.277476697096558700e-01,4.493372391717094516e-02,1.196941524649670560e-02,2.793079393458084217e-02,3.297481373302514340e-01,1.321146453442761382e-01,5.203220935771559613e-02,2.467579143465151448e-01
2.549341194740857228e-02,5.990949537189763779e-02,1.509576412403057788e-01,5.777676248790870189e-02,1.078678756715702181e-02,2.833158769434890312e-02,3.311592753942241285e-01,1.272704740607360496e-01,1.030670655065072105e-01,1.872358310274997162e-01
2.549689037115311641e-02,4.222375151604275401e-02,1.792927672784525306e-01,5.693336757182029112e-02,9.692704320820821201e-03,2.929097492128776917e-02,3.071559019547144276e-01,1.302053193080573990e-01,1.274693630788690524e-01,2.182993844247066995e-01
3.828985819817355002e-02,1.359140986143758450e-03,2.050962733547545547e-01,3.897821974169628917e-02,9.557704803234085347e-03,3.245914055655008817e-02,2.739449779031225551e-01,1.450823257687521017e-01,1.051817999959434730e-01,3.435047203506267355e-01
5.460788032270176562e-02,1.335145933529644294e-02,2.254471555582670539e-01,1.656255432930012206e-02,1.063641692064228907e-02,3.834368435701968059e-02,2.405025271760491690e-01,1.635256150885933124e-01,6.690905561017426728e-02,4.313514516588348724e-01
6.244868404116096089e-02,1.163026468597295159e-02,2.376273378855608409e-01,4.133320332445159298e-03,1.111328786739552120e-02,4.163462452944018122e-02,1.817987380053396607e-01,1.762875882736107402e-01,5.195158829322072541e-02,3.357492011547539290e-01
5.737036339446196370e-02,4.300808354555052393e-02,2.423556570325435811e-01,4.765089451051737757e-03,9.089740890136732351e-03,3.563385525212874050e-02,8.332063804018186026e-02,1.797385335643948978e-01,6.385686045938455957e-02,7.774045390155161217e-02
4.435603268519855424e-02,6.103631234848658216e-02,2.441062623477651961e-01,1.332313124018185378e-02,5.112667679384260214e-03,2.140530846999549527e-02,1.803494644120112733e-02,1.709604064434100679e-01,8.513710779140970519e-02,1.699381356166672630e-01
3.318204861808813494e-02,8.140867768244995639e-02,2.404301432926030935e-01,2.392925986961312937e-02,1.516338523482440009e-03,7.553537879697834467e-03,7.407103842243878411e-02,1.463539751920713283e-01,1.065476462466951879e-01,2.786107466087379692e-01
3.247897025673844584e-02,1.056286555086711765e-01,2.185321675673445596e-01,3.074989168372744067e-02,1.610447341097850579e-04,1.264807099809117305e-03,6.780437770816005738e-02,1.103908846626093926e-01,1.204339227028254355e-01,2.545488825234503150e-01
4.186503160925943851e-02,1.027201119783563987e-01,1.733423145830074452e-01,2.857855803811657977e-02,1.047168990231719552e-03,2.867482290249582805e-03,2.201397529870127712e-03,7.838461455920248122e-02,1.118170295686183174e-01,1.494440170754070263e-01
4.763598781845314323e-02,6.348416954320405814e-02,1.253353829442938328e-01,1.825015626947259703e-02,2.712764339947711795e-03,9.215448610686526737e-03,1.089567255980122551e-01,6.714496058494658082e-02,8.144194888725492243e-02,1.728411530687076064e-02
3.504779077387965708e-02,2.576608887152962227e-02,1.049652030581017803e-01,8.266029148887439962e-03,4.292904150411416125e-03,1.860828998258493711e-02,2.298531420866442021e-01,8.115709120358977069e-02,5.661521342299082743e-02,2.260823248602194246e-01
6.261323052300775752e-03,2.105868994569882330e-02,1.129051960625480633e-01,6.875733645145656707e-03,6.144646450958384486e-03,2.871993859300123533e-02,3.105465447188341943e-01,9.888605680230914963e-02,5.588375989143370970e-02,4.056138813651073427e-01
2.439920475727507670e-02,3.886225199343616710e-02,1.123130218921308127e-01,1.456703696231573253e-02,7.762055563599008084e-03,3.331052733467614047e-02,3.192669239779681312e-01,8.076154389741617423e-02,6.412318486889163893e-02,4.658645696188842833e-01
4.875246367708983841e-02,6.366280813794322757e-02,7.710866950162946487e-02,2.586911814016880362e-02,7.695345175993146408e-03,2.862313624747264695e-02,2.709263992206806804e-01,1.100100994372132067e-02,6.211906494628767483e-02,3.939075079087078768e-01
6.491829379560883073e-02,9.911088967914037651e-02,2.935196472454475528e-02,3.414160863564634496e-02,6.306399055485347079e-03,2.079749159832927283e-02,2.174214155604455023e-01,7.728511289640600801e-02,5.251711775340068417e-02,2.703494185307416253e-01
6.864795278210261698e-02,1.319005706027061298e-01,2.188175339450044998e-03,3.367422496716340058e-02,5.480916400927684888e-03,1.860979184173986584e-02,1.947867614024406668e-01,1.368789625504142626e-01,3.731277060770007287e-02,1.594400631613931141e-01
5.936950696698688190e-02,1.201925164755912601e-01,1.444128361962493910e-02,2.317395570544694000e-02,5.743951936016883537e-03,2.147862369682830216e-02,1.924773049050632345e-01,1.543453991681994486e-01,4.733417590780377056e-03,4.289741434158472755e-02
4.548403471868191217e-02,4.817194306456352298e-02,5.549454849124317579e-02,8.458443479452161518e-03,6.712999229935428212e-03,2.263846686915078898e-02,1.927920079666749220e-01,1.497777241600331266e-01,4.310119871014880810e-02,1.006300057560080979e-01
3.368918850277630161e-02,4.283381519705965063e-02,1.226175929987770308e-01,2.466145254883124038e-03,9.078962317485120975e-03,2.016411563628764045e-02,2.083572816420916352e-01,1.406788587744322028e-01,8.550146837129332655e-02,2.363626944771978766e-01
2.200998474085490500e-02,9.649487236911463706e-02,1.818286457891153673e-01,5.713633862876450059e-03,1.305824535165426431e-02,1.638463691513246043e-02,2.439570904670314844e-01,1.208590570177216494e-01,1.156937353550303166e-01,3.431147925357879713e-01
7.926416535931563381e-03,9.025925852995426990e-02,2.136359346798593906e-01,1.185692668024792510e-03,1.622260757571648143e-02,1.063646347587097335e-02,2.555060302032031161e-01,7.846375658333584746e-02,1.432620890332560459e-01,4.514709144254079320e-01
4.830164919812460211e-03,4.475425133926048959e-02,2.324451807196999675e-01,7.937830414860598885e-03,1.530620987483442483e-02,1.399787677878459521e-03,1.965074769776432584e-01,2.514451027248994913e-02,1.660474705327668610e-01,5.652400229269404219e-01
1.096847643850191317e-02,8.016479064367762822e-03,2.573777166244833325e-01,1.285621704418309433e-02,9.463296658054610316e-03,7.664726118519231066e-03,8.310643663197392339e-02,1.270059561072661540e-02,1.704151050233418119e-01,6.227733557183384727e-01
1.208879465704939052e-02,1.795066482322227666e-02,2.908289203354496588e-01,4.109378294536405150e-03,8.626333158805938369e-04,1.139026281130248869e-02,2.752670669727459371e-02,3.122062000423182770e-02,1.528660024178788157e-01,5.648812585964605448e-01
1.748321354568603547e-02,6.710125334310122758e-02,3.227863299828319654e-01,1.795787052164339245e-02,6.826638018552874838e-03,1.022050594691035173e-02,1.063701189608136921e-01,4.875301767169688827e-02,1.228337983213993595e-01,3.905064438195902654e-01
3.135579718410019118e-02,1.211032200593107344e-01,3.336641972775884479e-01,4.372218707210676764e-02,1.058672275669786562e-02,8.773743146980263544e-03,1.726147334050947280e-01,6.407521771533583599e-02,9.247647376950822451e-02,1.527842778189446860e-01
3.965114298616839034e-02,1.644717356725390878e-01,3.022899035082469710e-01,6.484273021177620888e-02,1.056463009283535245e-02,1.041929013546273944e-02,2.491773309746032894e-01,5.078627651528803966e-02,6.736348606624148472e-02,5.813028789984418104e-02
2.200674103294366843e-02,1.997234962377002765e-01,2.360428153245826832e-01,7.769812597708020130e-02,1.017131825480919148e-02,1.595753616339269654e-02,3.129821169156021821e-01,3.163608698756892670e-03,3.821901165191931432e-02,1.513039496966705477e-01
1.927155306991394298e-02,2.182120812511160191e-01,1.817475390261986123e-01,7.955392331153837704e-02,1.201206477309532152e-02,2.439338330755883369e-02,3.234048797777615558e-01,4.892501068597780028e-02,6.754023954865305372e-03,1.022523210994883275e-01
5.683268956530167920e-02,2.074915642038193120e-01,1.761111307551205818e-01,7.018030254628682130e-02,1.510593839561403910e-02,3.359375565542853381e-02,3.136715612725893831e-01,8.398331068080057416e-02,4.849335671662065306e-02,1.127280514816507428e-02
6.945464525972980252e-02,1.745808168013733841e-01,1.957934360469803514e-01,5.650430612342434433e-02,1.762250210968038105e-02,4.162150032862420995e-02,3.785539463995283849e-01,1.124304002696513982e-01,4.079113760380016079e-02,6.822795848907781124e-02
6.148386992106412430e-02,1.358890018796214683e-01,1.931822592437545394e-01,4.884683491867799349e-02,1.968863506734185725e-02,4.731225269613379553e-02,5.310761813779611984e-01,1.447609320979079961e-01,2.901791262604789048e-02,2.972274289557943691e-02
5.018742235543849350e-02,9.928925816625529255e-02,1.660190208592238759e-01,5.096160023926724070e-02,2.203017729120359050e-02,5.079608599316368100e-02,6.742734302476656172e-01,1.758223518105112015e-01,1.099222316412257344e-01,3.876660940991247251e-03
4.722746412669429072e-02,7.121084115796576242e-02,1.451160435069368260e-01,5.673809261796182446e-02,2.442124065440550926e-02,5.419767490936387017e-02,7.493824796387580367e-01,2.091749568837549256e-01,1.435214526783911981e-01,1.271204325153167392e-01
5.159283884389021663e-02,5.975270781689285410e-02,1.342262795934761332e-01,5.706980463251176694e-02,2.580927280671661828e-02,5.771113443304069779e-02,7.805126034726334039e-01,2.521743257554813211e-01,1.235830964619076128e-01,3.603968060604183510e-01
5.268928903046905116e-02,6.189034499782943011e-02,1.152156432210919290e-01,4.709623217064274475e-02,2.455567923083480306e-02,5.589432842569193316e-02,7.561239164377870914e-01,2.854306124564927605e-01,8.102243397035040207e-02,5.014948755807936420e-01
4.306509566037775016e-02,6.972191658584382667e-02,9.337489346682038838e-02,2.780301803018925960e-02,2.028901652269460981e-02,4.540222560497988308e-02,6.163919266658677287e-01,2.823549031092042472e-01,4.214379996350200996e-02,4.448755898385924334e-01
2.761392067537002393e-02,8.645908572815530491e-02,8.938364155853845139e-02,5.676239522401924260e-03,1.596529517611710788e-02,3.382482624096758150e-02,3.833775000441737024e-01,2.508906731680884405e-01,1.924014903492887035e-02,3.059783031580495805e-01
1.487582943535286154e-02,1.135074701425722588e-01,9.878448649376941892e-02,1.000358064088206073e-02,1.529351921538807911e-02,3.208239392182809374e-02,1.937114338482296971e-01,2.201454494246787297e-01,1.301409548577187568e-02,2.400555996376287915e-01
5.238497303065896976e-03,1.359652754014069598e-01,9.545345956467156390e-02,1.500807745798107828e-02,1.838286846854849527e-02,4.121953691042484075e-02,1.673052915784779826e-01,2.024429645068722972e-01,7.872174817163530430e-03,2.665740587510878612e-01
5.874364569608952862e-03,1.422068132155872855e-01,7.113492438182958399e-02,1.413073331929399698e-02,2.200429983055066444e-02,5.244002136388325325e-02,2.766442918206236667e-01,1.885768165186174072e-01,1.444002173380096871e-02,3.070119394691154802e-01
1.936029700671036691e-02,1.380350822068101280e-01,4.580850355739439494e-02,1.353585898113793783e-02,2.296049014904947769e-02,5.628288222997482326e-02,3.732959633915288178e-01,1.628996339389676418e-01,4.580623387133428426e-02,2.970194391144470591e-01
3.150248597737130563e-02,1.260521427087346324e-01,3.546442912002935322e-02,1.325648781138290787e-02,2.009440880382219047e-02,5.041810287403070134e-02,3.613129235181840038e-01,1.210109438956073341e-01,5.529003807906539281e-02,2.515292722693883709e-01
3.864821346632762999e-02,9.203770765327351500e-02,3.195694001522354777e-02,1.131974932355006742e-02,1.449961599467630528e-02,4.180540677628478280e-02,3.016159531467507149e-01,8.179623803965861695e-02,3.080359417481023238e-02,2.475001577310197154e-01
4.052773049008153577e-02,2.550109219316248205e-02,2.610660101356896898e-02,9.624022486433337492e-03,8.675735619205206597e-03,3.920605715720919954e-02,2.920682188591802175e-01,6.577495140248154626e-02,4.440218009420078549e-03,3.082140959563039462e-01
3.675556305518957317e-02,5.682782359942195605e-02,2.829377558797363870e-02,1.110674012961619661e-02,4.956916992797070695e-03,4.291262781642351393e-02,3.152207862231509172e-01,6.169616004107492113e-02,2.676969304596263713e-02,3.496993929054776351e-01
2.251986605899683816e-02,1.172630511435747563e-01,4.520321837814462312e-02,1.608889533538244293e-02,3.855382703087693614e-03,4.591262750245741348e-02,2.905500642966867830e-01,4.220745309012416402e-02,3.693940979684455506e-02,3.103240099251929895e-01
2.993590782496275641e-03,1.267097177080174220e-01,5.229806589979051068e-02,2.395676577929710394e-02,3.207881556595175866e-03,4.263822189631183424e-02,2.062172840502385085e-01,4.799332731936379465e-03,4.218374582563969022e-02,2.379029775299663363e-01
2.648699716800013634e-02,8.536807226220428924e-02,1.619072351446034300e-02,3.280531265556140691e-02,1.768930248231830211e-04,3.162200821362053105e-02,1.117385616323175179e-01,3.324165152774463672e-02,4.530078340878446186e-02,1.832476338556605078e-01
3.236721601447965779e-02,1.894079317578348937e-02,5.746191852238784897e-02,3.688155422251149923e-02,6.847426200704793270e-03,1.374165811844027529e-02,3.690133202851950817e-02,6.651979184383435828e-02,5.644459791404862758e-02,1.269140005807175009e-01
2.241906615569044803e-02,3.508436497276263416e-02,1.205044739720253083e-01,3.033822770892834891e-02,1.361216061191515211e-02,6.745270359154400923e-03,1.765002783363135014e-02,9.778856263658258774e-02,8.260884658199335595e-02,4.407234377369324829e-02
1.202359983596589833e-02,4.443345603127015625e-02,1.317673507042594061e-01,1.307582456013624099e-02,1.681352893031563475e-02,2.187528761426881657e-02,4.952198427817499499e-02,1.157536733780711730e-01,1.057007195066149291e-01,5.694507377643463764e-02
1.097735355450925494e-02,4.620154394805242766e-03,9.371488324261963154e-02,9.838638885101825410e-03,1.558477227577509047e-02,2.500959658559252438e-02,5.617175395848680169e-02,1.044771725364182086e-01,1.004287726561275268e-01,1.364666959930342927e-01
1.640921618385700678e-02,5.814692846439255963e-02,4.056516622651756832e-02,3.109077072958561783e-02,1.189475454198325906e-02,1.767911718709524321e-02,5.509920674906579330e-02,7.206342118240077754e-02,6.794159858410252217e-02,1.257244483770892929e-01
1.898716119066175267e-02,1.177916379245970563e-01,9.161123047053050875e-03,4.341084778858336074e-02,8.728737485778022276e-03,1.010729280372268946e-02,8.153760910969654052e-02,5.063476963552100696e-02,2.863154493737130740e-02,2.432499475697926308e-02
1.091006850875625434e-02,1.687580261389831637e-01,1.606245326367230358e-02,4.413177377981035432e-02,8.061530485025275930e-03,1.098027139218797632e-02,1.477851480485983249e-01,5.998078256183528995e-02,8.182393748208251910e-03,2.866022396379442477e-02
6.351914599318367674e-03,2.043923995929500803e-01,4.467846421230934478e-02,3.713276555853633337e-02,9.478981105207057514e-03,1.680001965919583271e-02,2.111272769322850851e-01,8.315903266852620046e-02,4.734299078240217229e-02,6.957675378084139661e-02
1.996622734740918781e-02,1.996652499511938073e-01,6.347389514740327254e-02,2.793495966479315334e-02,1.067619842507031361e-02,1.766389087425423304e-02,2.239747846327669878e-01,9.437203786295696173e-02,8.696960162985092890e-02,2.052801611616340560e-01
1.767420837817857901e-02,1.413427182352705314e-01,6.659003586544388897e-02,1.867072195832740478e-02,9.767218424328157067e-03,1.295342940401687619e-02,2.122936594568742563e-01,9.898969778546777565e-02,1.113307773138975804e-01,2.075778161606534056e-01
2.097214671280748892e-03,6.058828575836974067e-02,7.673501778199696977e-02,8.363183666070169234e-03,6.892037692968455351e-03,1.099515059527872429e-02,2.404383633754165750e-01,1.164714735829631698e-01,1.092888709883898524e-01,1.010499065550938269e-01
1.358210947681345697e-02,9.829914418812289029e-03,9.929958527065615992e-02,2.844432231971685821e-03,3.173618171570395489e-03,1.249145848758596161e-02,2.999498736484318417e-01,1.346307299662848900e-01,9.181674506730581886e-02,4.093822537477133372e-02
2.157188799583511715e-02,1.407885566890162803e-02,1.057359831920273857e-01,1.027303504147855824e-02,8.148260592401057080e-04,7.986949169584308533e-03,3.151214204556893050e-01,1.240107272598720140e-01,8.209895735703853781e-02,7.852495732371989057e-02
2.274836584515392904e-02,5.915494446829844266e-02,8.233348905644358173e-02,9.509349433539041746e-03,4.322093720743673019e-03,4.177603343957307300e-03,2.651067193430869939e-01,9.282805754876465032e-02,9.188972367427050703e-02,1.375692073485873246e-01
1.914379203224408910e-02,1.123660966686579471e-01,6.137155166007824542e-02,5.587359239294082021e-03,5.789043942490156025e-03,1.134479342883192715e-02,2.149998736786178644e-01,7.989190534231399576e-02,1.148640248029593469e-01,1.721966008540901372e-01
1.262219782332059739e-02,1.403891710719560038e-01,7.508825710717276225e-02,8.537211157127296696e-03,4.673401075670829616e-03,4.013062970148164460e-03,2.138322634170856384e-01,9.474282526822988548e-02,1.356880849131022748e-01,2.237974580174365291e-01
5.932124520989122927e-03,1.261618972315530218e-01,1.087321685722498626e-01,1.653273472023061852e-02,2.264977806498816998e-03,1.182475234703357636e-02,2.377740799901456592e-01,1.098346063488607471e-01,1.387559692075113482e-01,3.262796559915518424e-01
7.643494277143712953e-04,8.585354633874511809e-02,1.258946240966986041e-01,1.472417439697626916e-02,2.098883153840056751e-04,2.488409280077497759e-02,2.490462036722970174e-01,1.079172333183621851e-01,1.193998898746125720e-01,4.301362788863039577e-01
8.636884939706631140e-03,5.514716953266208394e-02,1.118676349028173284e-01,3.611341547083266827e-03,2.466666277568354323e-03,3.150265362639154132e-02,2.517517836290896205e-01,9.745713968091300472e-02,9.281170154680878914e-02,4.505977415000076425e-01
1.521350703153335343e-02,4.721600624443806488e-02,7.440161838494384339e-02,2.518653055219752246e-02,4.328857920463893665e-03,3.402342539647709718e-02,2.626189843672207536e-01,8.623002130336540616e-02,7.952525601992274651e-02,3.704333119411164499e-01
1.866626425246434989e-02,4.141900509484215676e-02,3.125504869804534430e-02,3.277631337783389748e-02,5.730712554960285844e-03,3.360929409221454639e-02,2.587231350198572200e-01,6.992176104921857260e-02,7.930301456668367721e-02,2.491696530435786039e-01
2.340394068692874807e-02,2.385922393447993672e-02,4.955416331709346436e-03,2.560619910427542126e-02,6.963375926107511805e-03,3.031900631558561571e-02,2.033578222591940210e-01,4.574071699964018384e-02,7.355356990922240490e-02,1.347110057133069638e-01
3.102384374322212160e-02,1.383290339114217997e-02,4.908889993212785935e-03,1.661039977089270522e-02,8.092945830695518275e-03,2.722503591329050732e-02,1.273934414664907866e-01,2.113723812128443305e-02,5.300404242938418914e-02,4.476740035371870596e-02
3.174539276200200044e-02,2.997797807115532703e-02,1.854772317641596030e-02,1.417280992323634477e-02,8.777045317840001526e-03,2.842087194843801595e-02,1.189235816989622635e-01,5.288154773081674836e-03,2.687163247704706451e-02,3.044834426714218556e-02
1.739997148920646025e-02,5.508947798944571761e-02,3.266980789596952983e-02,1.494075034064962053e-02,8.556445665775276252e-03,3.243280017017799444e-02,1.991532387759022971e-01,3.215856163136750212e-03,6.026094255812242118e-03,1.369614029059424420e-01
4.332123873124986597e-03,6.226279067099830394e-02,4.424501378790549055e-02,1.376422928487588092e-02,6.683690955454632890e-03,3.188872464637187987e-02,2.715699341747368489e-01,1.362509350259522023e-02,8.024310477805449496e-03,2.880864191058365442e-01
2.142615598811871760e-02,5.789102206877547868e-02,4.977648197793989315e-02,1.160816873496164740e-02,2.169573472234760571e-03,2.107408632327234868e-02,2.341712615488732441e-01,3.061710190784017530e-02,1.706810401583014336e-02,3.299026154660626431e-01
3.377139217529045306e-02,7.133375650253714895e-02,5.141142883009457154e-02,1.048190592307711097e-02,5.001470863177270160e-03,2.440131965092248636e-03,1.026630494080175010e-01,5.198669711093306667e-02,1.821384070472762545e-02,2.202974309239787432e-01
4.501560737723165478e-02,1.097021918255142447e-01,6.172447889974293223e-02,8.277020149107309349e-03,1.252799751053818716e-02,1.390542973051068706e-02,1.045796190322460795e-03,7.072813223129335858e-02,5.899643295298183029e-03,9.506533207601991498e-02
4.919232856440652196e-02,1.405797151183875715e-01,7.820858330643214174e-02,3.514026321234501628e-03,1.668019217907134102e-02,1.801608636948353465e-02,2.325594615446017338e-02,7.248521301775144587e-02,1.572400317031723976e-02,1.116139526357073641e-01
3.937584148741827411e-02,1.215297613909605973e-01,7.764646191774916828e-02,5.119511721370855828e-04,1.556458885645121797e-02,9.815020354752946458e-03,1.392641419808230974e-01,4.518259981732622443e-02,2.586404312659892901e-02,2.657833620527088048e-01
2.025108695170867168e-02,4.517169228191544178e-02,5.393132273893359863e-02,1.049484171648452664e-03,1.085100182483432485e-02,1.744690924862446306e-03,2.221735357985409332e-01,3.499249655454757593e-03,6.234625558968825802e-03,4.034386514319916461e-01
5.289171705606145191e-04,4.764884662458996473e-02,3.424666338858960157e-02,1.479055336449210892e-03,5.538621492057815149e-03,1.124373073141135548e-02,2.291278781241838647e-01,5.158232060758101423e-02,2.932632859115056126e-02,3.997503500024839340e-01
1.724065160417602785e-02,1.040811476736824559e-01,4.756903147238916024e-02,7.340036007258332260e-03,1.582559074465539947e-03,2.069589011788626476e-02,2.242181203074076756e-01,8.128263782184164121e-02,4.184290503147264362e-02,2.662042311958222052e-01
3.119567883052447310e-02,1.036512746791717898e-01,9.631665701649842759e-02,1.868270542296220083e-02,2.386191267758774751e-04,2.834838053065353095e-02,2.137691377592068898e-01,8.201007805564967945e-02,1.370742495532420446e-02,8.384784070802230038e-02
3.799252806277837041e-02,6.204748287503898674e-02,1.561599933153390574e-01,3.004953562596964639e-02,1.640214109927755348e-03,2.760410423496413926e-02,1.246453993413231542e-01,5.563722030031208882e-02,2.946919526441730414e-02,7.273970653717262702e-02
4.208765321230299727e-02,5.992028074673454857e-03,1.854352686981909915e-01,3.734074902035335042e-02,3.122991741888418195e-03,2.184813683395290737e-02,7.818709780973508161e-03,3.037520481037699407e-02,5.589947592017494027e-02,1.344808576100261499e-01
5.056952342280261747e-02,4.024277711326443296e-02,1.446564115581432663e-01,4.088866639805544684e-02,1.640529153966527841e-03,2.289643705644001798e-02,4.322789832154588785e-02,3.708309460740553259e-02,6.291034682486572327e-02,8.326191555362519314e-02
5.603562127976561419e-02,6.006696732718313364e-02,3.550204792067018778e-02,4.160348300536303306e-02,1.681603573854503243e-03,2.984801554759069012e-02,1.322555487236043437e-02,6.063463900199658752e-02,5.644783908532531591e-02,2.586645657200314918e-02
4.548595369117500176e-02,5.941049746004545273e-02,7.898241812891335090e-02,3.851421952468212645e-02,3.402128367137134853e-03,2.923912142630923777e-02,1.312095363695697792e-03,5.598353726287270266e-02,2.677408691941196225e-02,9.542244736080707224e-02
2.668238080404587015e-02,5.983498880394925307e-02,1.227806916211548333e-01,3.190130298587782326e-02,3.772802237435963699e-03,1.976323938772431635e-02,1.141732307641450533e-01,2.031641581230148735e-02,2.463055881929592655e-02,2.519276357897739516e-01
2.118716051861015831e-02,5.878609856246711646e-02,8.650752128092338566e-02,2.542930053376611654e-02,6.265162658899132639e-03,1.546555565469137986e-02,1.597776015164739938e-01,1.285598284044208502e-03,6.317114782841465326e-02,3.187393029030098912e-01
3.105008294172382707e-02,2.826119100124857911e-02,3.394233634993138599e-02,2.301942111290389975e-02,1.142399034180876030e-02,2.134711947536229240e-02,6.748247371251836491e-02,1.108563925654994752e-02,6.022471129813863899e-02,2.368856751134336136e-01
3.744235702670533489e-02,2.946043695179463226e-02,1.586440315527229417e-02,2.572527184724040725e-02,1.579744441715037057e-02,2.648389963271660652e-02,3.232158750278375792e-02,2.860834745113658220e-02,3.186534698257149217e-02,1.258512362474150381e-01
3.242352409174712596e-02,7.035402506702065351e-02,1.144003037796890304e-02,3.233411262803137509e-02,1.708758915511445278e-02,2.412524230775457690e-02,4.204999407042052384e-02,3.043372069187982171e-02,1.147428638444796672e-02,7.336902948097596966e-02
2.756955808944716244e-02,7.107799395690599098e-02,1.543275077916250564e-02,4.019809586164179577e-02,1.620974804751629944e-02,1.977984380702872691e-02,2.208270127153653256e-02,2.977596447635423235e-02,4.171361228062374707e-03,3.166954206167238439e-02
2.952815509916328560e-02,5.744048999579717818e-02,4.415444943228752361e-02,4.535671375988026277e-02,1.416345955055679957e-02,1.655709758933334580e-02,2.941237952419185897e-02,3.461957208720875534e-02,5.051380367635523866e-03,5.178189752274106605e-02
2.942112528535485716e-02,6.325399324394843925e-02,3.388013362756412544e-02,4.495801104149463323e-02,1.114417177481560710e-02,9.639436890021656559e-03,2.014742992745860092e-02,2.956850036481871100e-02,1.149482592337042024e-02,1.501494349618315294e-01
2.079451967085885200e-02,1.019811602326698846e-01,5.273819480830509859e-03,3.938230797712686387e-02,8.877155317070417953e-03,9.772293528574021830e-04,3.353755710573980836e-02,6.087795798428512553e-03,1.108918537019096262e-02,2.271318787005907058e-01
1.101134045087895190e-02,1.712819252288162730e-01,3.499177444337299436e-02,3.020645358271641448e-02,9.294927016198053019e-03,7.089119258056386652e-03,8.871049034164230074e-02,2.354292740093934938e-02,6.999054739878873832e-02,2.746114695770833780e-01
9.837615190078276978e-03,2.460587963100319686e-01,5.110095665157533829e-02,1.841881385368841079e-02,1.070815363939090804e-02,5.568332997647635133e-03,1.272171975982517300e-01,4.543960741543142529e-02,1.331618830151651001e-01,2.766969192594309623e-01
1.634029826961251250e-02,2.793410619723207811e-01,7.282995664869565400e-02,6.695216361427732722e-03,9.732575712560063291e-03,2.812343962225807847e-03,1.681994933781535695e-01,5.389430443556502554e-02,1.599257119916805969e-01,2.254373014693575594e-01
1.938736062806539762e-02,2.439871964796478387e-01,9.777152480465131634e-02,3.328281877841149372e-04,6.894870743239397103e-03,3.176329774101411315e-03,1.880404230791166698e-01,4.766952332517165186e-02,1.421587028533713437e-01,1.573964048265800164e-01
8.427853967882197039e-03,1.681806496407686757e-01,1.077119331117399464e-01,2.596320277268614370e-03,5.804260641151073527e-03,3.754958405213320444e-03,1.538519289221659259e-01,3.315213775917965483e-02,1.084173055564794652e-01,1.164822773905890285e-01
1.414837468590154392e-02,1.107728611255099221e-01,9.880228159924785147e-02,9.444527548974101724e-03,7.042798331545970653e-03,2.257806791939724091e-03,1.037661488815997957e-01,2.098861780688230858e-02,9.146859317228674124e-02,1.178916872078729222e-01
3.265119835917529301e-02,1.040688166855728569e-01,7.934711790863276104e-02,1.121835019194254192e-02,7.678224550649567597e-03,2.937840663150802223e-05,8.239236329846263973e-02,1.068749242024996486e-02,9.504110936646430197e-02,1.672655153805074901e-01
3.472227716474358267e-02,1.303322022568237093e-01,5.304173427409730052e-02,2.071280296391809096e-03,6.719336154722645518e-03,3.348172566287703315e-03,5.354247339752706697e-02,5.708008082637230050e-03,9.490355001850550587e-02,2.356996695527863728e-01
2.533051728554072332e-02,1.513524697305926314e-01,2.323966536435696090e-02,1.283234569468234137e-02,5.920391026530585563e-03,8.767455604958385856e-03,2.196321032479169044e-02,2.001774278506161797e-02,7.218043185904263193e-02,2.182091147429793820e-01
1.879928103050123797e-02,1.476227522684818994e-01,3.305979947989811339e-03,2.276071134364437976e-02,5.092049392130706779e-03,1.133939525394166495e-02,9.282748413828506573e-02,1.055802890363128493e-02,3.515926211835487120e-02,3.446605618767391993e-02
2.119475803642214412e-02,1.229846530251912790e-01,3.165922857647851876e-03,2.322461647753466113e-02,1.842620101540215147e-03,4.739173166430503230e-03,9.335628457444959671e-02,2.513484763156976359e-02,2.862061213145834261e-03,2.311735628904663942e-01
2.839068514240175242e-02,8.596239559670582064e-02,8.645780902835169951e-03,1.835529627801064587e-02,3.921964291180151177e-03,9.566408159343580200e-03,3.692087345248162844e-02,6.501406008981455709e-02,1.990060212955380853e-02,4.086583498207797538e-01
3.704982298280561775e-02,4.247802685133710010e-02,3.203929867064803094e-03,1.289267658104713277e-02,9.598068082058309330e-03,2.490918472268177988e-02,3.622629307897287654e-02,9.412741328538029584e-02,3.997604075829674919e-02,4.410678794688006055e-01
4.474296030341039232e-02,2.085845776953493963e-03,2.583168154982060094e-02,7.021554224148885380e-03,1.321185727071991743e-02,3.692837637044556198e-02,1.117376020229225719e-01,1.126267430458198493e-01,5.648110992151335330e-02,3.921461947301461692e-01
4.148028230832462998e-02,4.734612976415563529e-02,2.468323045907662786e-02,2.503363833336137495e-04,1.386717343477808853e-02,4.224298585150360746e-02,1.519714647520004347e-01,1.137593502451420269e-01,5.644033226358843164e-02,3.076570512850068662e-01
1.872424707079257261e-02,9.432263127507767297e-02,1.866797796836399889e-02,6.668683758628222644e-03,1.072465305482853126e-02,3.725523352529055282e-02,1.058754728623525487e-01,8.963164368830689455e-02,3.073550809371087059e-02,1.983810728258030842e-01
1.091876452385669161e-02,1.313542900795103829e-01,8.437285556269646936e-02,8.879789718287720013e-03,4.423845255748018283e-03,2.475656032679013699e-02,6.344990558651507004e-03,5.529872079926317907e-02,1.113453242590558938e-02,1.111685415272272992e-01
2.185746535699507193e-02,1.442557952611553118e-01,1.366860391212701697e-01,7.767777392604126308e-03,2.077018499401840548e-03,1.389473036155968073e-02,5.080746751047935522e-02,3.245218513125182336e-02,4.477626049291896781e-02,9.133156355188754016e-02
8.836756471430928447e-03,1.429224498268615307e-01,1.547591580517283794e-01,6.555483806474332598e-03,6.010385066216385706e-03,9.208300459768488030e-03,3.476407979265304371e-02,1.827722699579820143e-02,4.965587508924639709e-02,1.065193057556880069e-01
5.930952525379004810e-03,1.470706812500624794e-01,1.448132486083376358e-01,2.783664859255244144e-03,7.107353556276454001e-03,7.161485392629831845e-03,1.098329960181070389e-02,1.546316277165893371e-04,2.614539491124692056e-02,9.449480412321145661e-02
4.357026896390730694e-03,1.449653701508641646e-01,1.257510863255873190e-01,9.881704603140372550e-03,6.869223997426517070e-03,4.519119559595759748e-03,5.652631646630652817e-02,1.855829798002179773e-02,5.781812674648119377e-03,5.575792619465348710e-02
7.352050829223334694e-03,1.056779852870657621e-01,1.000116049496158344e-01,2.868887134892872393e-02,6.525539528692806887e-03,2.339777620059025742e-03,9.328343358662617713e-02,2.728186294954207392e-02,2.778135146849739986e-02,5.833175786457447942e-02
1.556497372701354243e-02,3.868171721593534340e-02,5.130456374037118544e-02,4.030162815500965695e-02,5.640924087809338211e-03,2.018456168489039630e-03,1.081429859239465135e-01,2.721412679257380340e-02,3.956554223162300071e-02,1.746451076968389415e-01
1.862729578407345057e-02,2.779792158216606596e-03,2.399465882199174407e-02,3.711670215916901966e-02,2.734548935060462059e-03,3.124890368991479258e-03,1.102975641698372700e-01,1.786146249797128729e-02,4.726886722415216818e-02,3.924470871958798401e-01
2.308364956002363980e-02,3.614590309625707876e-02,1.052418271123903848e-01,2.621506916568079257e-02,1.758127241208010550e-03,3.912941109176126114e-03,1.152022446825363977e-01,2.695912360906214597e-03,4.547587905934142444e-02,5.698376179724369273e-01
3.288832991909314274e-02,9.895672034415040064e-02,1.684789966508964398e-01,1.836641744014079827e-02,4.611142304156840704e-03,2.201505843309439509e-03,9.442443784750437219e-02,2.059744358787108862e-02,2.739217104437245351e-02,5.597869800281546349e-01
4.679034661909241277e-02,1.136454937125627729e-01,1.948613046682844685e-01,1.679465088721945887e-02,4.138191158239913625e-03,1.531834738141947885e-03,3.255615808464896316e-02,2.002801394608384744e-02,3.409394515100487057e-03,3.948689158517053044e-01
5.892536579924795986e-02,6.000902421577378187e-02,1.687380639964924378e-01,1.944098197473438996e-02,2.786162760733264156e-03,4.126034349888197186e-03,8.180770687479726327e-03,9.065046836014223341e-03,9.845705004966644885e-03,2.306266890679286863e-01
5.956652690881970164e-02,1.998757539801000651e-03,9.738365264827605894e-02,2.383802833508684438e-02,2.599973648145413423e-03,5.821171940417162530e-03,1.524175301827644657e-02,2.447980343055143962e-03,1.056214223225032320e-02,1.151748468414682536e-01
3.988252387813066846e-02,1.443819591541308650e-02,2.305151315090515907e-02,2.654313520051458306e-02,2.154682850014685153e-03,9.158525970793335302e-03,4.896275602012913064e-02,1.737936895794491357e-03,6.734889430488681140e-03,1.107329034547992891e-02
4.613403901992507022e-05,1.152059830779718352e-02,6.181969238093707776e-03,2.376620870379700032e-02,1.003170039233488263e-03,9.149458943177014858e-03,5.841609029390786717e-02,1.508770239971186575e-03,2.396860972804395855e-04,1.020139089898707691e-01
4.642404746131635618e-02,3.371114759236441827e-02,2.675122752089134637e-02,1.565394730917825036e-02,1.640868955778503188e-03,2.196373544335866040e-03,9.668999568001737654e-02,1.819115398257554680e-02,1.722946276071943977e-02,2.907127578209386942e-02
7.788997756419076268e-02,4.609866563519125771e-02,9.583466385756707340e-02,7.413733201352886229e-03,3.991903563069543887e-03,1.846174442107781366e-02,1.705143900356458353e-01,4.868200292966724102e-02,5.005908773061319011e-02,1.628766475464454577e-01
8.236654432969296724e-02,6.771252150898346422e-02,1.418872435532895493e-01,4.734811188046147458e-03,4.457488160240344333e-03,2.357313137624688845e-02,1.857154994526337977e-01,5.365272508273768309e-02,8.985311906050064135e-02,2.672795337592134279e-01
6.734634707836045786e-02,8.929832428801220967e-02,1.128251754024078429e-01,8.534584672241815606e-03,3.170410481050540356e-03,1.708294129234475336e-02,9.842075621692419896e-02,2.286040444979740849e-02,1.071443256222740087e-01,2.135003150764914759e-01
4.888829702482491713e-02,7.989085092805477128e-02,1.823696561206964578e-02,1.396428538207573379e-02,5.017127251727652310e-03,1.507677279071824479e-02,1.914765581906003461e-02,1.272508959718458670e-02,7.849971668514788004e-02,1.274288450024888553e-01
3.422098093928918616e-02,3.774008460861474901e-02,7.101404353024233507e-02,1.445199954803244244e-02,1.092671301227818303e-02,2.323408559641497104e-02,1.043231788908461771e-01,3.138733691309874424e-02,2.345375691846263502e-02,8.314544018492389665e-02
2.016594466552734666e-02,8.794266531724413000e-03,9.013682507292877788e-02,7.364890108543308694e-03,1.522350304167645330e-02,2.866631436232695146e-02,1.681300190790745441e-01,4.506640639900230672e-02,1.112559175511575703e-02,8.775216339641636609e-03
2.172903116702527317e-03,4.378200083729830161e-02,3.197202648282783388e-02,3.970580248439395388e-03,1.403194863698422820e-02,2.157271325939676479e-02,2.193833913273719183e-01,6.645983017244996849e-02,7.153611599513613924e-03,1.395191600492955708e-01
1.886699529370881173e-02,6.846156633822315929e-02,5.817435571916984571e-02,1.312597703403176920e-02,1.023922430054464636e-02,8.414009220362431499e-03,2.312842803338669984e-01,8.674985073553945214e-02,1.342330477431104979e-02,2.865140128559613975e-01
3.210014262693206000e-02,7.547603015090374734e-02,1.101636207044634774e-01,1.445550624576562998e-02,8.077230297203346482e-03,5.132093201562926837e-05,1.875818221941559227e-01,9.221849809261024877e-02,3.156849983030756562e-02,3.581596323722976427e-01
2.265985248881853889e-02,5.650246301955062084e-02,7.399144528253751019e-02,6.057549506662606581e-03,7.611166550479650517e-03,1.616379288696279375e-03,9.907431785272168001e-02,8.027435160741887288e-02,4.819436395392708711e-02,3.699444773029851863e-01
8.002022646115186655e-03,2.618121226804763502e-02,2.461272017999683800e-02,7.946470055548989636e-03,6.814633151684976707e-03,1.144833297464434210e-03,8.458725809921704628e-03,5.489886581159859197e-02,5.842533605972403260e-02,3.499805515482740659e-01
3.683795829671098615e-02,7.779823941898258988e-03,9.629533787100021114e-02,1.941051383825113594e-02,6.036378739287557617e-03,5.219592342703546425e-04,9.028739894814678812e-02,2.074063937331751054e-02,4.914058361954843496e-02,2.657177544379793477e-01
4.449171559086107647e-02,9.587510465600928948e-04,8.556641502876828620e-02,2.334194666951788094e-02,7.373162403317012545e-03,1.428347982542580667e-03,9.809220616594770126e-02,1.083468297418577198e-02,2.632023503307398885e-02,9.921536073233455655e-02
3.382828723005028987e-02,1.567852088294055882e-02,3.121643872483455956e-02,2.141518714630532422e-02,1.007001819546821282e-02,2.573009057138040193e-03,2.767826503859566536e-02,1.924994217400129506e-02,8.943630317085520323e-03,6.523838505851982383e-02
1.775955535623668577e-02,5.215516762034726195e-02,1.334032350501272723e-02,1.714626447441251408e-02,1.010889877735909881e-02,1.900560450851301094e-03,6.354866901074338048e-02,4.221003471522205910e-03,5.247100510222191955e-03,1.214548020694949659e-01
5.000625617731231480e-03,8.840651690145817643e-02,6.434134215089874764e-02,1.153279531142482189e-02,6.333034612390157220e-03,1.016838357958991731e-02,1.080969812953575526e-01,3.428500621384596159e-02,3.315162211480778692e-02,7.847804597720636766e-02
4.072670366285341924e-04,9.134649072264172665e-02,1.408879998431292468e-01,5.041855396376046169e-03,3.228204625608152665e-03,1.316929045176676825e-02,9.601914686895270112e-02,3.466760328734427160e-02,6.694695403149630852e-02,2.946279688846997064e-02
1.703750860184263197e-03,5.147141222580094155e-02,1.738646996252954657e-01,2.900163902438712173e-04,4.281166334594844330e-03,7.422705614326622486e-03,7.088965063426708180e-02,6.509662649481983213e-03,7.598544696784792496e-02,9.431093033708837572e-03
4.049329145208949848e-03,2.322721206749158405e-03,1.396043564290207761e-01,3.017906891704187806e-03,6.628278429626730493e-03,5.173560650198155524e-04,5.900403765387667726e-02,1.436122148024164547e-02,5.128415162996234622e-02,2.317234329798379885e-02
2.313086590822867328e-02,3.339353263965832985e-02,6.916742553699829765e-02,4.638653651739908096e-03,6.136392097659342480e-03,5.267925124976566113e-04,3.490245935951459544e-02,1.179445358792403746e-02,1.981217070143002912e-02,7.598904913100404390e-02
3.753482727736831559e-02,3.420566496995502970e-02,8.837358039087664548e-04,8.211116375234356682e-03,3.568417704676998554e-03,1.078745031150202087e-03,3.644401699093260949e-02,7.277048824707252513e-03,6.927070381724015694e-03,9.407721708840728614e-02
2.483500680093137306e-02,1.734312223139618594e-02,4.752416888403548922e-02,1.423775135827136731e-02,1.886196624402098742e-03,1.659021037092783162e-03,1.522775586969942752e-01,1.678266364547002787e-02,6.632261455191322541e-03,5.949771191967632294e-02
7.659154934191024500e-03,1.111142147926920051e-02,4.741928647612980025e-02,1.899661761084989187e-02,1.196336172746246228e-03,8.902461424855390854e-03,2.711141435084354900e-01,2.502812020033852794e-02,3.032232467036682976e-05,3.097286739156666219e-02
3.099967474934607614e-02,4.214160356089964588e-02,9.785128357730280002e-04,1.919662837370311737e-02,2.547811532535840164e-04,1.425390027496478002e-02,3.390155530055645738e-01,1.602499820427039437e-02,1.689759013962221709e-02,5.039878592070054508e-02
3.371805070195635357e-02,5.202460843823607239e-02,4.484694532668230538e-02,1.677983991491936375e-02,2.729247759564290120e-03,1.304627469988385753e-02,3.190137756526916224e-01,7.743507759897954625e-04,3.893149913553668739e-02,8.605246507770776543e-02
2.927371420504651378e-02,3.153765709802395373e-02,5.059982361504605092e-02,1.530425812100079386e-02,5.026700608038269305e-03,6.906486375444317004e-03,2.163157165288159267e-01,1.045653740338353156e-02,6.710484871880999236e-02,1.001131215854931394e-01
2.793268141382606110e-02,2.744007803925953282e-04,3.762132990331119170e-02,1.384246694998447595e-02,6.129199367953380544e-03,1.018407423249981106e-03,8.454050927842450547e-02,1.475671152456185624e-02,9.342637673170735291e-02,1.012978522646909019e-01
2.447498873193885635e-02,3.035052761932132206e-02,4.277467184952198770e-02,9.358943456422848944e-03,5.600390710943297518e-03,8.598654388196479582e-04,6.846402326549917011e-03,1.991094982624626655e-02,8.806323043180389054e-02,1.063044223170824670e-01
1.230892413979400683e-02,7.033667186417646988e-02,5.743178168584461840e-02,2.472283326541782362e-03,3.861866761671490893e-03,3.604453719548842468e-04,3.126439153723219178e-02,2.183003347776805644e-02,3.249606479602109438e-02,1.105425615130665867e-01
6.863643902803865521e-03,1.110690518628580786e-01,5.874143235418836928e-02,4.129475388475438088e-03,2.631064802872977969e-03,4.277925694535307977e-04,2.923572132973168911e-02,1.538488882112862971e-02,4.530401634011186479e-02,1.116123656190934066e-01
2.568288297270328313e-02,1.180357481790284546e-01,6.098661782278132215e-02,1.024381485265648400e-02,3.448003166913506286e-03,6.730856197301561712e-03,5.573220868721261156e-02,3.860329000960034587e-03,9.911778027490064646e-02,1.169980527829648231e-01
3.604318666547911415e-02,8.129316720562611287e-02,8.395048757420246754e-02,1.663624922125045424e-02,5.381425853695546990e-03,1.471770219144931911e-02,1.021973725169453839e-01,9.022041757549746632e-03,1.164670919618350509e-01,1.250639210136939294e-01
3.648742972801634343e-02,3.370694576368406248e-02,1.014992156310390858e-01,2.113507198288760644e-02,6.035238255004455980e-03,1.720537726062535203e-02,9.922314656240882602e-02,2.393343379851943162e-02,1.136014387273542869e-01,1.278354137241579092e-01
3.470751041643153206e-02,3.863699797709651759e-03,6.837521029810338102e-02,1.983424209119002968e-02,5.132527657443027545e-03,1.365957523646513239e-02,1.600222147097001002e-02,3.750864417404820017e-02,9.559491395073770048e-02,1.275682013444801033e-01
3.402803776450311068e-02,1.657343954143583944e-02,2.063889528073718088e-02,1.149357295230166859e-02,4.735383924478846901e-03,1.030095525341618613e-02,8.024212988899148691e-02,4.363725374323693812e-02,5.681418633193056206e-02,1.293973468155465434e-01
2.398285211721992716e-02,4.489757803887727688e-02,1.263076828329727508e-01,8.896975294505669960e-04,5.554237936658549396e-03,9.531059769158327019e-03,1.060067146292029416e-01,4.745520459186251816e-02,1.046917066278405667e-02,1.279330369614326279e-01
1.888369671926812786e-03,7.644341580351510235e-02,2.000917634356847996e-01,1.228955267485478883e-02,6.035097221193127734e-03,7.101805545288360569e-03,6.296042249783941058e-02,5.876410248918650242e-02,1.678442666521100246e-02,1.251122952679200040e-01
2.837077243838227736e-02,9.714999856625070040e-02,2.088588825817075390e-01,1.866356240792363744e-02,5.645225436591764720e-03,1.553929180656688728e-03,1.003529961484173061e-02,6.830487448412847495e-02,1.819097940912734260e-02,1.489631057571387251e-01
3.623104731516379323e-02,9.796209547529588502e-02,1.503824645015774120e-01,1.883230297729436217e-02,5.618577850949560415e-03,2.803000854562075553e-03,1.650130338371131808e-02,5.788574126365589323e-02,9.888759598183610722e-03,2.134356063460627340e-01
2.879978906853894460e-02,6.148101591198414789e-02,5.980805160132583037e-02,1.462394337431768658e-02,5.579744382944794995e-03,5.562595898634972030e-03,8.760416292843756225e-03,3.844325463625734157e-02,2.553635253908697732e-03,2.642557384296128076e-01
2.303310537683982834e-02,2.923694537615137423e-02,1.679444023150845552e-02,8.989030438199175146e-03,3.107440824341327346e-03,1.286007562344870445e-02,2.855315822172517157e-02,4.282621094430131420e-02,7.654346716084075089e-03,2.262657979277571951e-01
2.240775403375814059e-02,1.466196901291963173e-01,5.978122529167318594e-02,3.652994769510540911e-03,1.846112676045017723e-03,2.541248693519143620e-02,5.696358822188970356e-02,7.294019712818272660e-02,2.055639512615009198e-02,1.087832404526614810e-01
1.804599554658194854e-02,2.210732594724109101e-01,7.396564963447119223e-02,1.278816527336014376e-03,5.398316701659438242e-03,3.365762469554572922e-02,2.616585088794799036e-02,9.272254334716086011e-02,2.545424608673159048e-02,1.101801315630964936e-02
1.027148702109272060e-02,2.148953738005895397e-01,6.403263434408987265e-02,5.715324906364276092e-03,4.441244962328353731e-03,3.063333168459040495e-02,4.886096289801328957e-02,8.238254459960331344e-02,1.636266241156397044e-02,1.043940814712582266e-01
8.174904797408712176e-03,1.638540376455947800e-01,3.771239296538717034e-02,7.951976530770397608e-03,4.773474326703586700e-04,2.108838630439434716e-02,8.977583488040830062e-02,6.028729874746050627e-02,1.596676261253867496e-03,1.961447484131988439e-01
1.018641098932100697e-02,1.235974528075701878e-01,2.028291767547390351e-02,5.511737965074439694e-03,2.734838356050719576e-03,1.277447056752542033e-02,5.983561568263852382e-02,4.313635155692897155e-02,2.238240874538864264e-02,2.668721670841486260e-01
3.672561061008896253e-03,1.046183393483612056e-01,3.656059157323889031e-02,1.017966653443339075e-03,3.529302892011561190e-03,6.590844552186072257e-03,1.118031666318084968e-02,2.249746593157709099e-02,4.175758904359021945e-02,2.598383040960222101e-01
1.490064593503354420e-02,8.320798075418527062e-02,7.967974804795893706e-02,6.227250025560522595e-03,3.012832954518787805e-03,1.356323804389470062e-04,5.121002802827423830e-03,8.651720687393471901e-03,5.066667917144339339e-02,1.881170535747967998e-01
3.254915286039334471e-02,4.877815271617164106e-02,1.131104588363544688e-01,5.139001699654232799e-03,2.636905297407591327e-03,6.887121239557014371e-03,3.839248654358578400e-02,3.572132197432641154e-02,4.213098546247587978e-02,1.451015999085627506e-01
3.562328098748242938e-02,1.045781524104302286e-02,1.047503227361644279e-01,5.361265803328195021e-04,2.616814256233812672e-03,1.074723550765205489e-02,7.024812679534979398e-02,4.130983365646002936e-02,2.590908097685864359e-02,1.903134011963698025e-01
2.568332939411658092e-02,2.564820019802390577e-02,5.665314182069386417e-02,4.908784683047746206e-03,2.548500842512625188e-03,1.075367803163451708e-02,7.780228166306146775e-02,2.793413633794734896e-02,2.077473491369650344e-02,2.774047137452683720e-01
1.654711460427335176e-02,5.804888665783380919e-02,1.045651400864630425e-03,5.235948754804536399e-03,2.355761865247656562e-03,8.924418471543009435e-03,6.666461214037212868e-02,1.392448334069551312e-02,2.945313080030911856e-02,3.130992366624352763e-01
1.911867178923480626e-02,8.036654119512795513e-02,3.701453135599965666e-02,2.711909125321458267e-03,2.209634931774295125e-03,8.137326095061556130e-03,5.860029002392977415e-02,1.480939443172899807e-02,3.352349327054039707e-02,2.571116863479036008e-01
2.986909733574233047e-02,9.134112883748829459e-02,6.771623326647741026e-02,1.778576133947417639e-03,2.124742172251273785e-03,9.535645990261763794e-03,7.371773322908525827e-02,3.057167259993203226e-02,1.622273510659914472e-02,1.492488730277503062e-01
3.231267640683707643e-02,1.013527339584367332e-01,1.134169731488334498e-01,7.833064723991560105e-03,2.026642503504790752e-03,1.144857583706923761e-02,1.015329415509010763e-01,4.548718448044292151e-02,1.765923262594753032e-02,5.888250148324471883e-02
1.355694655665423340e-02,1.109671430304682987e-01,1.643732570101008594e-01,1.313483137575728425e-02,1.945252002236819416e-03,1.149158289491099966e-02,1.012270647381978278e-01,4.298297233664651051e-02,4.710660340872398211e-02,2.139898201963486013e-02
1.820899728442000251e-02,9.948246402676035050e-02,1.822474542803807218e-01,1.509240156775960504e-02,1.896700445552068843e-03,9.791951988855358835e-03,5.496194628659654274e-02,2.451767022694618589e-02,5.591883708500601513e-02,1.698781948949052573e-02
4.012081825693647463e-02,5.483000473082074583e-02,1.505564844624738274e-01,1.404583092684733719e-02,1.776465348580446701e-03,8.672822048628644684e-03,7.331346100391275891e-04,7.716168141174910983e-03,4.590007522065144702e-02,8.375797826289081358e-03
4.019826836765544309e-02,7.715987068629033552e-04,9.813400188100399046e-02,1.236084108255831177e-02,1.603692043905791207e-03,9.498839660188494391e-03,1.353326896588830618e-02,4.741228630264642668e-03,3.072076179699526413e-02,1.000197888762462128e-02
2.640434689766678680e-02,3.447662190761408701e-02,6.296969298777167767e-02,1.130424080988625540e-02,1.614287865675458023e-03,1.164368306582723445e-02,1.215114042277409302e-02,1.175308832691795979e-02,2.075032097206313403e-02,1.885654971685424286e-02
1.077147222649989765e-02,3.826686941939463904e-02,5.204685360318100223e-02,1.049026697522394309e-02,1.746410979470416555e-03,1.397799980121509737e-02,4.084243636207952888e-02,1.917792165764839463e-02,1.578217589954050357e-02,1.562314924625725007e-02
2.267726091708544695e-03,2.554595893216085600e-02,5.069082625865217739e-02,9.478932929347623840e-03,1.437538004027918764e-03,1.569518396991083711e-02,5.021512734998023059e-02,2.240905989358559294e-02,1.029055697667811964e-02,1.642034478211355092e-02
1.132114514393533188e-02,7.707641482239567174e-03,5.440254357251166073e-02,8.440944126163403213e-03,5.593096085742066750e-04,1.620236568415628353e-02,5.129401211429699542e-02,2.250836352682430638e-02,2.620649197295123450e-03,2.713293417299097662e-02
1.440146191207069236e-02,1.070715388221837351e-02,6.749558178317988100e-02,7.574556976850705010e-03,2.075496241224532778e-05,1.543611816667550540e-02,6.149884053107070730e-02,2.286165198249305239e-02,3.446929408108177079e-03,4.099316975742901131e-02
1.282017432323760003e-02,2.546200697955797523e-02,7.776641110053790495e-02,6.798827171521272354e-03,3.366350966750285560e-04,1.405289641666169868e-02,7.826912102121044712e-02,2.547010099953308723e-02,5.867179766454326366e-03,5.327545715918016039e-02
1.165087036985696690e-02,3.494910656025845136e-02,6.422474439394136592e-02,6.016498410036814730e-03,9.933335161308274198e-04,1.275684685907290533e-02,8.915842539932680721e-02,2.975289479703651513e-02,7.544114928046636269e-03,6.152309277081394190e-02
1.411320390069339265e-02,4.255947953554599372e-02,3.485482058425126012e-02,5.260052566796982916e-03,1.078665670354740170e-03,1.168404388372259670e-02,9.445468781351873400e-02,3.562705439218638581e-02,1.000775542958107049e-02,6.480251886957959229e-02
1.871750556077984157e-02,4.840976101560246631e-02,2.149892910387450964e-02,4.570765863984434414e-03,7.157580638092626022e-04,1.063914382239414258e-02,9.953379475434660784e-02,4.430146338689684715e-02,1.096366388348846838e-02,6.630763562880084838e-02
2.298318684599275769e-02,4.497746470878141029e-02,2.528951062693898105e-02,3.929028798812250929e-03,4.688528516227341548e-04,9.562584037119450583e-03,9.586191905113673750e-02,5.443136464490347382e-02,1.168933035756866690e-02,6.484536781602850963e-02
2.731945523888568497e-02,2.751489394423093857e-02,7.960508278697505866e-03,3.310250657580235747e-03,4.072862657084489802e-04,8.536365085460942762e-03,7.564953820733839873e-02,6.172910789905267093e-02,1.766457861354268563e-02,5.429343901079058260e-02
3.275870790752907769e-02,3.260994522251630529e-03,4.645345823897061022e-02,2.718299178975166694e-03,2.893730824417350207e-04,7.579797746219045854e-03,5.311803413886485858e-02,6.232885479502919129e-02,2.576831172620900820e-02,4.030729495239308152e-02
3.784053789879740504e-02,1.452634220016557620e-02,1.038092220824650969e-01,2.159860913580281729e-03,7.749178338167653831e-05,6.649165744957356503e-03,4.355797416584705067e-02,5.368920570476464621e-02,2.149998261294964672e-02,3.746749542208886036e-02
4.279652541601063759e-02,1.741002229989143182e-02,1.266532973239139492e-01,1.628592097784836972e-03,1.143490443863089720e-04,5.742363779260268621e-03,3.685407725606058837e-02,3.697326182276259449e-02,4.728599814505096829e-04,4.559101048506086079e-02
5.172241460292413551e-02,5.817133094084476694e-03,1.108577799840228667e-01,1.117042968420846067e-03,2.642264755129159902e-04,4.881728627481013438e-03,1.720937690261457181e-02,2.089259608668177226e-02,2.304313388579034422e-02,5.158215652713371568e-02
6.089583310891081430e-02,1.167485610683656472e-02,7.483638398004877068e-02,6.243245471360554235e-04,4.221626344610378669e-04,4.043083538782450345e-03,1.028597764298147879e-02,1.436060238326124575e-02,2.783723857163060075e-02,5.242816939163738588e-02
5.280100203706161732e-02,2.384212375112973806e-02,4.608038712239563572e-02,1.507036517644550931e-04,5.958327070482917921e-04,3.202580032878753116e-03,3.331951445946731982e-02,1.358896287386499729e-02,2.030907190622330272e-02,5.589554416495007977e-02
1.822672115570560594e-02,2.779727107385103826e-02,5.001128946389946789e-02,3.059852323004123506e-04,7.586185026708671363e-04,2.418302159739232904e-03,5.069887738938876065e-02,7.277922683195017957e-03,1.858987454787366239e-02,6.619899910339899218e-02
2.359264764730802100e-02,3.081058324485439620e-02,8.459201439948736689e-02,7.478036896681353272e-04,9.033041842963408395e-04,1.726003280655078647e-03,6.262014685197642150e-02,5.886444100212778405e-03,2.648027032021207233e-02,8.184931883967465349e-02
4.623067882968762837e-02,3.499984782027250330e-02,1.161995481739660219e-01,1.174968783145664396e-03,1.039047821699321406e-03,9.953089230564666351e-04,6.384354351473832401e-02,1.719453288620564554e-02,3.231589123818188330e-02,9.617725424929285394e-02
4.828560994226159531e-02,2.956850012935505201e-02,1.165819242605843908e-01,1.587010301923119778e-03,1.166283594918837664e-03,1.519259938893446514e-04,5.455991858032130382e-02,2.255140980508802198e-02,2.742147110364671556e-02,9.909062368628143713e-02
4.516714084038220278e-02,8.565860598175299018e-03,9.098600999202596795e-02,1.983611345940229729e-03,1.277910690416584737e-03,5.221280444685597608e-04,4.098216803443992945e-02,2.484651799091875529e-02,1.445607624504776333e-02,9.204221553120563171e-02
4.120385671206295425e-02,1.452119352862905714e-02,6.229546405374037504e-02,2.364108217285243365e-03,1.371131311890055708e-03,8.502870233171433813e-04,2.560470774986008113e-02,2.632069389743619744e-02,2.162480053173380240e-03,8.677041330917406592e-02
3.103604700025227453e-02,2.232186070649763016e-02,4.383680527866063575e-02,2.727141352233341653e-03,1.447102393142170318e-03,1.462174782388823546e-03,1.135255865142269747e-02,2.869187039948245532e-02,2.587235224898815078e-03,7.354233037369682646e-02
1.862878474050433386e-02,1.467966493407668084e-02,3.518127961309720775e-02,3.070953592487230682e-03,1.505442689468748218e-03,3.042809330966249684e-03,7.692586482509986348e-03,3.442901485299088016e-02,5.230193619066747686e-04,2.238914455746918511e-02
1.486257726200813228e-02,4.252836843832865851e-03,3.045629947044518893e-02,3.393641480198041245e-03,1.544372598088698811e-03,4.843839932130040646e-03,1.737104821624546255e-02,4.084656489372297250e-02,1.225421856485234056e-03,6.216252602070775762e-02
2.018445120981880378e-02,1.353740130239068640e-03,2.213266375007972783e-02,3.693116417564666198e-03,1.563320128336023003e-03,5.355070879097185640e-03,2.624344633696779755e-02,4.033143496248146193e-02,2.869476663749643067e-03,1.267337390527604746e-01
2.343486000828446519e-02,5.188248934001494540e-03,5.392805886153932866e-03,3.967095198242942371e-03,1.562907152478405001e-03,4.574415744098835578e-03,2.051372382573207406e-02,3.029339658795745724e-02,1.218780384647525500e-02,1.333623748743854309e-01
1.692954934722682575e-02,1.247130383027487965e-02,1.450783640281592957e-02,4.213234760883202527e-03,1.543736120458659086e-03,4.008038112563769295e-03,5.894469713273847375e-03,1.567546413200116007e-02,2.299869820493113601e-02,1.020212932941775841e-01
4.104647577544961838e-03,2.207557377243239694e-02,2.527859248113859328e-02,4.429259843202240296e-03,1.506375921457932645e-03,4.400769972793852972e-03,2.012870014754343084e-03,6.251546638510323576e-04,3.178697696186128657e-02,7.193843419585205234e-02
8.023700344369973439e-03,2.791860314615161875e-02,2.265405746207287824e-02,4.613024667887048909e-03,1.451911419948951655e-03,5.064541737490678430e-03,2.063662953043048087e-04,1.509149698324640902e-02,3.587672790541308887e-02,5.334744544064296684e-02
1.774187616337206258e-02,2.705947930801802861e-02,1.670493180508875880e-02,4.762575513491878153e-03,1.381926276193962350e-03,5.366415656753563239e-03,1.635087594592545684e-03,3.087689984270305596e-02,3.476194905297620014e-02,3.286423583870757420e-02
2.717209673415709598e-02,2.274703853974170686e-02,1.943791256071395260e-02,4.876239311049085888e-03,1.298203621847904060e-03,5.479789066804528590e-03,5.010774591605506728e-03,4.276087603615676830e-02,3.096778706270686410e-02,5.946021371848220737e-03
3.574889406715182211e-02,1.908803366551125799e-02,3.188717435145180246e-02,4.952704153807603420e-03,1.202678412152917474e-03,5.685742257378140208e-03,1.171955803443468398e-02,4.755517023291959411e-02,2.749012642161697065e-02,1.063581723829572570e-02
4.118931351248857065e-02,1.657238459113044918e-02,4.644731505742806521e-02,4.991076620219391143e-03,1.097516052711614573e-03,5.910809393669788116e-03,5.426593779039762776e-03,4.543822330414170468e-02,2.502297786771357294e-02,1.895193346552278505e-03
4.587873763279667200e-02,1.387919546664830896e-02,5.648442461845843560e-02,4.990929067289423017e-03,9.850674540317746943e-04,6.022934234046141595e-03,1.499349500053308998e-02,3.700236964232384018e-02,2.272969967986084722e-02,3.766576277842359488e-02
5.223489361401806308e-02,1.079559499820538331e-02,6.089262754486528262e-02,4.952341840997171070e-03,8.677579127377895709e-04,6.054764894311184809e-03,3.804735469141765081e-02,2.129418537945331966e-02,2.029524157329260642e-02,6.880214267228670910e-02
4.994912111424081036e-02,7.923101723620240219e-03,6.263810342065516401e-02,4.875932424526316367e-03,7.480291243961861587e-04,6.069200365523537942e-03,5.245559091723859396e-02,5.387689586623142617e-04,1.807237335619462509e-02,7.601512872750502969e-02
2.353123456565150984e-02,5.379371755550825009e-03,6.468615319594597790e-02,4.762867685478388083e-03,6.283107678044749268e-04,6.053149825329563229e-03,5.456918328066670543e-02,2.144796652272057402e-02,1.619586290866068673e-02,6.393693930864316477e-02
2.140769650651475411e-02,2.899954438040943955e-03,6.618569856272041307e-02,4.614861976988347478e-03,5.109679230303853896e-04,5.979136547939608096e-03,4.588809952006508291e-02,3.243498837791536360e-02,1.448571561875534180e-02,4.492882209451766473e-02
5.809460506422066406e-02,4.425295252688574805e-04,6.262193145818160944e-02,4.434162504333308795e-03,3.982367534928806657e-04,5.855791324046432864e-03,2.936279175418209791e-02,3.240995851001560873e-02,1.285683182395428933e-02,2.368619360958663239e-02
7.145889282271399023e-02,1.853218523087306335e-03,5.129690128650203629e-02,4.223520790705908440e-03,2.921746283457480166e-04,5.699605214671160137e-03,9.904204817146596701e-03,3.072117150039099798e-02,1.137037398737445956e-02,3.922268968726915113e-03
7.112260206142906327e-02,3.949296213997275339e-03,3.668112920946117045e-02,3.986150197064776760e-03,1.946206385314336773e-04,5.510904314385700262e-03,3.732697531597280183e-03,3.545748781711896558e-02,1.004334125276750561e-02,3.305298630697560067e-03
6.821061996921272408e-02,5.894613007122486564e-03,2.744016626826392691e-02,3.725671179903038491e-03,1.071579313780362500e-04,5.286730976618076241e-03,4.051183668134315102e-03,4.228565175560737577e-02,8.822742331690813442e-03,8.689646300507166549e-03
6.067391799383156648e-02,7.692484845962637915e-03,2.675395263117620603e-02,3.446045946454555798e-03,3.108176037490282184e-05,5.032185385900345316e-03,5.145065315257804986e-03,4.044565128039331187e-02,7.675014796510720196e-03,2.747088254886198566e-02
4.487279771138211887e-02,9.306431072083171455e-03,2.887019392593785302e-02,3.151503795781408594e-03,3.262602792849966424e-05,4.754454667732375441e-03,1.107085476160821029e-02,2.702337305786035176e-02,6.599792742698808862e-03,3.311666290224930115e-02
2.468014271292221992e-02,1.072274409581858677e-02,2.720332798070446492e-02,2.846458827841249171e-03,8.331854853258499963e-05,4.457340748551373404e-03,6.520235997527823457e-03,9.361231650732855861e-03,5.588774327846036255e-03,2.314231549496177306e-02
