6.994977650229852739e-02,2.684542529372477976e-02,9.296989603209813990e-03,3.878705367616824828e-02,2.241345882616528964e-03,6.690937131236118643e-04,1.352322271501970631e-03,5.162099784391864510e-02,3.314785774133831037e-03,2.895028778980256179e-02
2.259046967140886791e-02,2.144891185573894604e-02,7.991858538819892471e-03,1.789193157088866601e-02,2.154582013664470589e-04,8.315799119183593354e-04,1.427168736153788028e-03,4.848327437749270358e-02,1.893324160414260743e-02,3.082933761173896337e-02
7.572593737911269274e-03,1.170441381572887019e-02,2.658695579011143006e-02,3.095996846997335974e-02,8.917612788106359795e-03,9.793809899785684871e-04,1.458353911589767120e-03,4.321707940991635633e-02,6.104847374002971006e-02,3.441644242632904693e-02
3.431350773848373253e-02,2.545851681271532260e-03,3.498721111363850556e-02,9.038098637514592470e-02,2.023364188625710602e-02,1.109569609333629914e-03,1.445801694635872291e-03,2.940562156352634349e-02,1.168880916308044499e-01,3.894662883826138788e-02
7.140798966479725007e-02,1.721731993714727127e-02,3.162289660026902649e-02,1.259856168153721534e-01,2.640169918446241826e-02,1.217835427945882735e-03,1.409653536061775559e-03,5.473816697700983197e-03,1.556003708221855852e-01,4.169835150545444374e-02
1.017948871359907748e-01,2.662749445073975263e-02,2.280220527133416247e-02,1.225124813922288391e-01,2.343659271729068086e-02,1.304051032963487924e-03,1.343957018390121248e-03,2.211177939457356981e-02,1.552378946021410466e-01,4.200222564560658622e-02
9.724416120713624823e-02,2.686370650454920905e-02,1.313040720082008644e-02,9.498798847016194646e-02,1.437445859936459756e-02,1.372693090765880189e-03,1.201021881325948018e-03,4.372571062752468596e-02,1.245595905099070311e-01,4.301250811712531430e-02
5.735534056596789526e-02,1.814237485694938229e-02,2.663107084992857865e-03,6.260359808312160323e-02,5.217757785771160763e-03,1.421077636779906122e-03,9.902143293152674414e-04,5.193773247688743266e-02,8.348408972170774656e-02,4.549348942841425353e-02
8.352997001492114618e-03,4.599600349957152362e-03,8.408422791831906065e-03,3.011628873324385947e-02,2.095739301863514003e-04,1.438223122760858745e-03,8.141141235937447273e-04,4.552753436130942827e-02,4.133882094262541357e-02,4.331769649971382863e-02
2.981754958496105057e-02,7.926435627116068180e-03,1.614267758597264305e-02,2.690350428514877868e-03,1.842191636255234230e-03,1.429971706619025595e-03,6.583503541841027656e-04,3.107671548780227555e-02,2.882619511157981720e-03,3.237835649032898971e-02
5.957350157775743310e-02,1.403990817786972267e-02,1.540832878239990419e-02,3.112129574158951223e-02,1.765356496587723242e-03,1.422054497645169066e-03,3.058930081334786523e-04,1.647188073718088008e-02,2.373294564863550130e-02,2.040624324222495983e-02
9.270840231664284614e-02,1.162592830541600737e-02,5.778412853750592056e-03,5.165146186611956763e-02,1.758363084212990514e-03,1.406458313871157334e-03,2.203576266431651106e-04,2.513643365647911122e-03,3.684020493280666664e-02,1.897249129311205998e-02
1.286928938016213275e-01,4.557375781785861536e-03,6.571716503974666702e-03,6.837801459529525838e-02,2.209842839659992633e-03,1.333368444271818476e-03,4.045976189981139717e-04,1.362914235110546102e-02,4.675065161390497270e-02,2.918616123038906413e-02
1.438951761187556577e-01,4.838841561709643076e-04,1.422569178138050408e-02,8.789254838698291883e-02,2.787000943213267020e-03,1.225359887893793511e-03,1.755361425464743068e-05,2.970740055994829099e-02,6.288509282347259921e-02,4.373799239691264495e-02
1.083711660563669021e-01,1.159398466982039912e-03,1.474726525198878820e-02,1.101298433001250410e-01,3.231220981807387486e-03,1.197534420541562609e-03,1.872838460295983499e-04,4.125942562058513424e-02,8.445133797962579847e-02,5.796353341867541142e-02
2.310568453783956588e-02,1.783877320910190250e-03,1.002523220999816667e-02,1.274001707402037109e-01,3.501944961199411621e-03,1.213969515113765951e-03,6.413494588436863958e-04,4.836865091710605691e-02,1.087932409859392741e-01,6.890521660148508920e-02
6.924387589151589917e-02,1.230029910848884703e-02,1.886969529288209241e-03,1.339002090707095693e-01,3.918804333039903505e-03,1.035205586432183175e-03,2.117096488815243659e-03,4.965608715088126041e-02,1.374895511350578137e-01,6.795168418876519623e-02
1.244283041321292277e-01,3.304214388273141872e-02,7.969181694700485166e-03,1.322912290868467899e-01,4.913259359211523923e-03,7.328476988179707333e-04,2.874361231959050248e-03,3.701534964770857028e-02,1.656489078849703867e-01,4.738761413004013989e-02
1.400431169616072891e-01,4.892598452449719443e-02,1.547629834857653514e-02,1.243135916554394538e-01,5.855901785114894266e-03,8.734410962611027958e-04,2.174308953978216965e-03,8.997037227987874503e-03,1.755401530798286758e-01,1.540156430708384747e-02
1.486965432810031795e-01,3.535974926687832087e-02,1.597832982076925062e-02,9.971389767100655166e-02,4.758748578399396231e-03,1.583284672775854681e-03,1.017980459536038055e-03,2.047730780668125319e-02,1.520431740692443634e-01,6.452471714386131402e-03
1.740343488712524644e-01,8.330994673791225491e-03,7.917462821089573180e-03,4.703931365336189163e-02,1.369109664591104561e-04,1.995562021110417437e-03,1.341508984964559937e-03,4.067502850087392763e-02,9.623743828387185117e-02,5.105510884315585772e-03
2.044885555648436049e-01,5.210229386783131467e-02,7.613978522058466314e-03,2.647016109058775504e-02,7.252972893903371354e-03,1.474636673167545667e-03,3.596745669447476337e-03,5.823131719528470279e-02,1.706223890219366046e-02,1.163340845274121738e-02
2.155989827004927417e-01,7.026735969902160595e-02,2.818473054572815523e-02,9.754841926237275973e-02,1.484975533294139068e-02,6.610376445684554205e-04,5.406992525674942165e-03,8.044024105203877173e-02,7.408204008907352811e-02,2.720731382520304859e-02
2.109032122892963435e-01,6.500820582906940981e-02,4.783808591062464061e-02,1.467453282421515570e-01,1.974848712904792372e-02,4.263258595606637166e-04,3.728019274311640627e-03,1.011546773287412687e-01,1.518403529549833264e-01,3.392678454165377194e-02
2.199384273915470644e-01,5.056329298835838398e-02,5.764723278202377177e-02,1.666494049977751413e-01,1.985459804225398958e-02,6.486553317350261024e-04,1.443019118913130023e-03,1.127028065180011723e-01,1.822085645750018135e-01,3.325327291836583515e-02
2.513106416171900781e-01,3.556154124415934065e-02,5.311143609764688162e-02,1.580556748434094327e-01,1.474973248069311876e-02,7.655062084706931811e-04,6.617082372554753365e-03,1.143584319250753045e-01,1.545065091978050642e-01,2.377452788137109779e-02
2.736083018757338725e-01,2.653939401228916015e-02,3.878867513628600494e-02,1.295054180755542128e-01,6.313777543643438878e-03,7.087454132325876795e-04,8.453875552236268451e-03,1.047477660247264353e-01,9.471538251226958860e-02,6.356054659113421915e-04
2.548567653121305843e-01,2.985052123965816970e-02,2.304709537317744736e-02,9.508078178419654414e-02,1.444820211944880571e-03,7.206391083536009632e-04,6.859706105415221827e-03,8.294790474826961579e-02,3.940276306871039191e-02,3.108817462278782792e-02
2.007931325513981902e-01,4.316756282637995018e-02,1.067146887972923210e-02,6.337578877391052135e-02,4.856486616340278430e-03,8.391581592753746864e-04,4.285045509212580435e-03,5.768782984771630290e-02,7.138814134518052350e-03,5.496546801950084188e-02
1.439404002503349156e-01,5.595184600935518976e-02,1.685225018320071853e-03,3.208727619359263983e-02,4.531235133178966763e-03,9.504186085776643571e-04,2.803727531727511196e-03,3.975165551299786326e-02,3.709896378827840478e-03,6.095143472382669181e-02
1.062702199170576511e-01,6.033407705705086388e-02,5.518577461448403998e-03,9.742881707377323494e-04,5.017373691936771220e-03,1.032177818643063285e-03,1.939578718178824532e-03,2.611013020337897561e-02,3.617566346244228612e-03,5.562658258540642553e-02
8.173786399978434647e-02,5.572548560962515413e-02,1.126209006700972654e-02,2.642052573205343896e-02,8.748219410561431861e-03,1.133663280193367455e-03,2.153348479483072411e-04,5.489388359736106782e-03,5.086228507281878759e-03,5.118105811637271851e-02
5.949294466213310428e-02,4.657942959582819092e-02,1.372779390731409220e-02,3.182914860652676786e-02,1.315901836878104712e-02,1.261379893610755244e-03,2.896020007812051371e-03,2.151054065093943590e-02,1.993698623642001580e-02,5.165530172854308766e-02
5.520372115212787006e-02,4.067697395844949854e-02,1.126384985687587173e-02,2.120665307988692239e-02,1.564160530666889801e-02,1.387194483189947052e-03,1.869606743717142560e-03,4.084727294585786816e-02,5.396379146904478619e-02,5.422131397462521402e-02
9.281617337037247062e-02,4.388175381845774853e-02,6.061077568799448298e-03,1.436044125632207971e-02,1.725200254290543828e-02,1.502001040231670413e-03,4.760011671354936677e-03,4.358840198253757792e-02,9.699577328191331949e-02,6.074356889373055263e-02
1.544832213558600675e-01,5.216924047510973494e-02,3.745285093079175551e-03,2.102099559776031412e-02,1.861631414609670604e-02,1.612699316290225771e-03,1.277193214225321935e-02,3.498586577161720557e-02,1.179934541660637437e-01,8.088434470803865239e-02
1.874539375467992319e-01,5.425058995497364367e-02,7.812762125065359983e-03,2.644400781477776116e-02,1.632168968458768202e-02,1.717178305591266028e-03,1.675812246283013909e-02,2.473840668397309095e-02,8.609003349380554837e-02,1.174122466615585142e-01
1.707491578946494781e-01,4.502477330072582329e-02,1.593153281097114959e-02,1.295707641226382691e-02,7.632865237834741447e-03,1.805600792296415628e-03,1.564522616740169833e-02,1.824422896943269853e-02,1.006521427355908452e-02,1.527174829131248135e-01
1.355426707109861906e-01,3.095841986047419281e-02,2.300579781630551074e-02,1.427324466857349261e-02,3.700302657300628788e-03,1.872247254219281320e-03,1.108893507904465912e-02,1.875497653610339391e-02,6.027215374769340217e-02,1.613636073286560113e-01
1.113661499706127406e-01,1.988048464381832886e-02,2.607924978842742283e-02,3.656351292777627882e-02,1.033627258404686521e-02,1.915133828962432404e-03,4.617457572695440708e-03,2.845200135677837527e-02,8.857577481059045188e-02,1.368962464245981614e-01
9.485142861960688121e-02,1.145411983736845107e-02,2.482069533391925015e-02,4.669453657353542231e-02,9.284256568297984472e-03,1.930674881458280126e-03,1.341823225633442503e-03,4.247331015242712671e-02,8.477998147364226855e-02,9.764054868675856036e-02
7.761841280941210452e-02,1.707706305012980826e-03,1.961230846156191560e-02,4.927606832121678854e-02,4.630006793256594838e-03,1.914095563098006146e-03,4.109915226738352495e-03,4.909621769869292746e-02,7.016885198702008108e-02,6.408884856657454110e-02
6.134536978739852514e-02,8.071430346454643717e-03,1.198736886464535009e-02,4.770547115679238392e-02,2.202176494552942135e-03,1.861928280957597139e-03,4.654868867633365700e-03,4.351400693603077463e-02,4.641855371789465473e-02,3.688841427207799339e-02
3.799782349889267719e-02,1.435206514940278941e-02,5.590342594936625886e-03,4.551532752107965984e-02,2.663263891164733069e-03,1.771626792967546330e-03,6.632118234419580316e-03,3.613621071579679184e-02,1.716077414662670053e-02,4.207146784103735215e-03
9.679278796825282333e-03,2.098758081133283299e-02,3.348665044904081123e-03,4.723500760924573272e-02,1.492833841369110934e-03,1.640784204354151172e-03,1.004508063930138577e-02,3.769976711965524613e-02,5.070377928204474263e-05,2.986002776337493697e-02
8.037000564402754788e-02,3.354700005034516597e-02,3.559608539795016107e-03,4.738420325872497174e-02,3.865134918836019094e-03,1.468127977473091678e-03,1.026943010630375006e-02,4.100967132507646329e-02,2.597897122850607778e-03,3.939600796588871301e-02
1.481032461947302259e-01,4.117709647410262158e-02,1.254623749234496993e-03,3.502169026437292054e-02,9.616816595676562149e-03,1.253367858460620104e-03,4.834184477737778207e-03,2.949584302475508069e-02,9.481649961235207730e-03,1.027341471051536510e-02
1.919693644636180641e-01,2.153584676802995992e-02,6.395952590308590091e-03,1.431528905901507942e-02,1.038039721008241455e-02,9.951798962337693889e-04,2.734152993745911191e-03,1.282617969809482722e-03,2.087850226301287207e-02,3.472682706723195789e-02
2.229840228864280460e-01,2.607962172271700158e-02,1.755653784974867820e-02,1.462663878010204369e-03,5.877999520937773024e-03,6.925053975765088762e-04,7.093704843266189670e-03,2.759596283723610155e-02,8.538966205053928962e-03,6.018351738778150717e-02
2.661345211882434336e-01,7.039245165449528607e-02,2.698271451549336813e-02,4.981974272303046555e-04,3.739680435301206106e-04,3.489399023172917811e-04,6.222432945260232030e-03,4.406729229038862383e-02,3.688124781293739690e-02,5.684332415549403494e-02
3.119020353099591358e-01,8.306538503883305335e-02,2.818977047131671770e-02,4.185738946296002974e-03,2.436820406465553188e-03,3.039357847591331476e-05,2.010502929013461594e-03,5.147779945534129015e-02,7.953224380631607193e-02,4.263816351239108765e-02
3.141251341386754325e-01,6.770263332266235334e-02,1.837052209993881094e-02,1.502110242837492379e-02,1.244945904343069953e-03,4.483822353516830656e-04,1.862677263921501923e-03,5.949447238191968995e-02,8.271734343141351475e-02,3.301688107026731073e-02
2.572742891252163266e-01,4.592273568098342168e-02,4.076555354950005088e-03,2.477608567289159291e-02,4.243756868632035661e-03,9.092826212083072058e-04,2.430900625885577034e-03,6.820984608698757445e-02,5.693431629693532225e-02,2.417573779698161188e-02
1.881484857066788585e-01,3.075370836191437113e-02,3.068274979133056059e-03,2.786829005389000052e-02,1.289848705179522277e-02,1.398185427503140449e-03,7.495143910489334219e-04,6.872663674954972157e-02,4.197714600137861241e-02,7.203753760194196026e-03
1.480836472905479595e-01,1.988187110857379120e-02,2.481150019726144330e-04,2.653433256349045297e-02,2.084767010796222467e-02,1.897457732168306415e-03,5.606041009528034587e-03,5.825380284232672262e-02,5.587374557559787042e-02,1.184980762401375252e-02
1.207963924759883484e-01,4.752644308410131947e-03,5.629161521982017219e-03,2.032786220338769420e-02,2.359836178243350166e-02,2.437653358911939360e-03,8.918714864427574121e-03,4.664799247683772132e-02,7.758300314224336747e-02,1.827546035407384001e-02
8.426081855263180265e-02,1.609096371225513314e-02,5.547935574782002742e-03,5.383175058541002367e-03,1.970597195789891565e-02,3.017579949496407982e-03,8.204526167625982719e-03,4.301142847079780090e-02,7.569372642606468637e-02,1.221311147839848447e-02
5.660614395134267590e-02,3.188002534870276738e-02,1.394208549372022562e-03,1.587543708141600507e-02,1.112644085279395831e-02,3.295753739202387893e-03,3.589709931325365741e-03,4.272331865187915800e-02,4.478906034108136314e-02,1.092124298800662037e-02
5.211926939111399121e-02,3.426321490237524414e-02,4.235205663809539153e-03,3.153476845705243531e-02,1.612720017349927263e-03,2.573258978928297074e-03,2.508890868741930989e-03,3.457712246278700496e-02,4.209636996992676891e-03,2.734598218915407566e-02
5.216601572188549196e-02,3.326976553614046511e-02,1.338866137553664654e-02,2.680678876868601221e-02,4.032111408182344377e-03,7.146558357394591039e-04,8.133379465567585828e-03,1.481301687683906493e-02,3.334011824887947451e-02,5.889437271750012221e-02
5.281862589766199434e-02,4.443139786890642345e-02,2.505797703136651566e-02,2.760329269314317543e-03,2.437519054651428319e-03,1.040218356020990772e-03,1.281227816362742744e-02,1.059908110882687785e-02,6.790068114354430584e-02,9.285434778696283198e-02
8.201014299117917461e-02,6.316915195168588959e-02,3.046857123096654782e-02,4.311982981065436843e-02,4.232617486219559556e-03,1.174497973696407181e-03,1.590740655175710769e-02,3.186970349672981623e-02,9.249838447293978749e-02,1.107969108910169670e-01
1.429169909123803872e-01,6.848782643667618297e-02,2.358501184229992373e-02,7.495032511630601857e-02,9.701239470044467281e-03,4.008265140567880366e-04,1.673736031304786515e-02,4.278303785181895164e-02,1.004909271040234919e-01,9.761131876834380772e-02
1.947325776251466467e-01,5.055024924534969738e-02,1.043003588002834776e-02,9.316944727399822934e-02,1.124363678504667827e-02,2.785276175642396185e-03,1.649326666778122563e-02,4.733087935550599201e-02,1.043413405734590210e-01,5.960171824102842436e-02
2.087465228784126103e-01,2.004422554785261629e-02,1.859971250625879185e-03,1.021878210098804002e-01,1.204224307307279716e-02,5.410568018559760647e-03,1.688618260508568947e-02,5.444724694670930593e-02,1.114882326087967279e-01,2.413211329983525055e-02
1.924441042261466339e-01,7.475900455795476615e-03,1.850281619601715916e-03,9.864437749651454312e-02,1.309425772319638623e-02,7.687844384254403571e-03,1.716214453469628448e-02,6.135315408524955744e-02,9.679298519433937598e-02,1.218480597236400696e-02
1.476362538179229189e-01,2.311801901861168171e-02,7.276051158176409864e-03,7.558084523730486393e-02,8.592494004621623396e-03,8.515651452795158088e-03,1.586416417922485375e-02,5.394095614118819826e-02,4.130291181586678850e-02,1.992905593504037953e-02
6.252407255901429317e-02,2.408888978194158315e-02,1.442940715266954020e-02,4.140711211908094241e-02,4.548695631700059618e-03,7.520697472166239066e-03,1.415459237568412847e-02,3.070123768272586817e-02,1.529585265618640597e-02,2.944583769120282316e-02
4.249829969743867952e-02,1.510952022305734298e-02,2.143024182717884543e-02,1.909627897951908168e-02,1.812595504870673224e-02,6.082825666961542456e-03,1.318965497140615027e-02,7.678185456288323663e-03,1.148180173832684219e-02,2.648621769902492762e-02
1.154394310000706192e-01,7.364573570691338063e-03,2.703075835865570084e-02,2.160507351889359717e-02,2.187172303784499366e-02,6.143845520541515483e-03,1.067771504322857778e-02,9.170009126259443671e-03,4.602891514419635982e-02,8.249628357629847780e-03
1.272275163945382204e-01,6.456468497008993786e-03,3.030427016568574758e-02,3.608776029252409173e-02,1.666899101403798017e-02,8.121070817417325866e-03,5.080353617536473472e-03,3.094121363997573426e-02,8.073653640665147402e-02,1.435465860871874139e-02
8.743299354273358082e-02,6.796362128201104483e-03,3.110847826739392141e-02,3.899750743737107062e-02,1.053065347831222930e-02,1.057252970824321819e-02,2.247616992337104005e-04,5.620175132179210109e-02,5.411028096471301452e-02,2.255000869735946517e-02
1.868183469429751664e-02,1.962140354350638480e-03,3.011214634990221767e-02,2.388835954390488431e-02,6.601987873477955897e-03,1.201080674452804226e-02,6.859367036799845618e-04,6.530944825230883266e-02,2.412489697867329155e-02,6.385797848515390243e-03
5.119605490037684725e-02,8.603045402688018484e-03,2.809476148376685925e-02,6.760022271821165482e-03,3.217470528465403868e-03,1.230319985250939718e-02,5.653929137444708639e-03,5.135640032148472423e-02,5.351788765941555698e-02,2.671855916876227782e-02
9.296412722988019184e-02,2.330144198249621545e-02,2.429256005456716452e-02,3.137360345880549090e-03,8.951479162045666415e-04,1.195173094960733963e-02,1.118563541896572255e-02,2.745635061924336928e-02,1.044971499040605600e-01,6.194900547363352966e-02
1.003909039200282655e-01,4.054449591973421918e-02,1.663109361643359124e-02,1.037950415294143502e-02,1.601332618000940585e-03,1.089842345749603841e-02,1.502293919901151638e-02,4.222140133740734727e-03,9.282913351519607448e-02,8.658452478010712772e-02
9.888722333043785395e-02,6.089972913152222334e-02,6.026929716206087806e-03,1.868620561993938542e-02,4.077502645479604004e-03,8.736964710611645757e-03,1.656769788890712081e-02,1.471486571860886744e-02,1.698817648239392061e-02,9.299429301940205506e-02
1.165483519546962748e-01,8.781423898020093710e-02,2.369101824672957719e-03,2.625746940286143374e-02,5.107424656949336242e-03,5.765015708963589294e-03,1.555639365188827943e-02,2.405711607886299244e-02,4.816821466783974964e-02,8.576194977422703369e-02
1.506615696193387699e-01,1.155161433907471724e-01,5.976385225141591859e-03,3.294999393949635258e-02,3.880907548970646565e-03,3.197002548966177641e-03,1.235032875250464263e-02,2.314347879143207123e-02,6.804227641189680709e-02,7.685136079418303234e-02
1.674626551896458981e-01,1.235097323579122525e-01,7.729588606971772233e-03,3.513414509295600258e-02,2.525880235003189964e-03,1.973657078667627723e-03,7.368961946270452014e-03,1.835126335648046975e-02,7.115571317235526438e-02,6.352197232756383316e-02
1.398557339330897265e-01,1.024145565980424527e-01,7.661428582953190569e-03,4.044212362191235838e-02,2.638984132754740395e-03,1.824162775038983778e-03,9.336490597614603660e-04,1.069867064519222817e-02,6.634296658877464337e-02,3.200209397465215294e-02
8.130114298238266812e-02,7.513292165730427186e-02,1.045591996584546452e-04,6.809946945464182000e-02,1.894823346556921521e-03,2.195873446563104299e-03,4.807238532240097617e-03,3.023654663859276330e-03,2.539290319747399688e-02,1.057325654693106604e-02
2.428760187968418555e-02,7.007753241754634266e-02,1.516844341653991214e-02,1.165865776286343219e-01,4.091083472539213187e-03,3.049060065193119270e-03,6.718203061218390448e-03,1.645604802740179354e-02,4.749610873457975335e-02,3.887958387612436978e-02
2.753240684553070680e-02,8.568056322724824925e-02,2.501017721642411970e-02,1.497612212013100519e-01,1.391213847818035046e-02,3.401673539310997793e-03,4.959217110584519111e-03,1.664752689243456998e-02,9.837913460473941829e-02,4.563932007133480323e-02
8.830878110646152301e-02,1.012721766006272756e-01,1.968742773067967688e-02,1.369012573759398887e-01,1.726604415280736868e-02,1.210453240292034107e-03,2.336878557580307145e-03,2.797217203686426946e-03,8.811828117333952992e-02,4.080419260600934989e-02
1.395600004956897566e-01,1.051797610970491154e-01,4.290684835711333807e-03,9.045574249569988956e-02,6.246762722388254571e-03,2.855139556911611039e-03,1.313494210720355781e-03,3.793437612707469681e-02,3.156900089374814478e-02,2.074550289235894962e-02
1.507968054623224086e-01,9.460818440744769853e-02,1.070294322680093863e-02,3.862229401038858034e-02,1.191200400259692822e-02,4.485826111998169469e-03,8.061610838674473922e-03,7.275247606703180714e-02,3.699277538474986249e-02,2.426210317634456756e-02
1.459124076130192682e-01,7.148233549140239895e-02,2.308006850016403738e-02,2.321209900956462333e-02,2.199995372486714465e-02,2.003252713931022444e-03,1.445009153581537295e-02,8.357540370328968293e-02,1.060962656079717514e-01,7.755723099665187692e-02
1.706806132481779592e-01,5.323237774658694937e-02,3.437508924595848725e-02,1.171116202414269891e-01,2.027267832009183729e-02,2.482469753414153065e-04,1.263935268742889285e-02,6.228592406049426183e-02,1.781451211716643113e-01,1.033400059163194357e-01
1.962209290814390661e-01,5.903463848437155714e-02,3.956347926391242525e-02,2.267746063861522110e-01,1.723217768374825723e-02,4.342813908686814217e-03,7.107692455951249502e-04,2.796253631426121739e-02,2.374837143482634305e-01,8.586664048942589667e-02
1.522658361908538205e-01,7.376867190525980555e-02,3.316947785996187531e-02,2.976601247579926390e-01,2.073272273254625833e-02,1.264424310229749285e-02,1.493569891255850865e-02,4.353422105244036488e-04,2.519065792661142056e-01,4.522661024974257427e-02
6.633612448589004673e-02,5.823379075104512248e-02,2.193567591594553987e-02,2.953812560943674392e-01,2.648887114554523275e-02,1.946243614873660946e-02,2.839525792069807347e-02,2.134632299785146903e-02,2.072757281851239086e-01,1.684497362400243226e-02
6.303465753488411705e-02,3.692209767107170002e-03,1.874310177459371368e-02,2.340163722480466113e-01,2.727310053347356197e-02,2.195584159861929674e-02,3.877576760880228901e-02,3.915757957683650009e-02,1.275966686279197404e-01,2.084882203438635437e-02
1.918275493877870941e-01,5.895117730445047916e-02,2.404952519049574633e-02,1.495589609022913713e-01,2.261874577225137309e-02,2.128272635591308554e-02,4.551630041888434647e-02,3.722373659866429207e-02,5.414250716492046561e-02,4.643488980503766850e-02
3.436114122422824213e-01,1.080862975304112544e-01,2.505709665457716076e-02,7.233363997325659156e-02,1.665087061561288176e-02,1.962023134891018386e-02,4.645601422229166111e-02,6.124187937974331572e-03,7.667407054244317587e-03,6.142124547036462157e-02
3.787989053152979735e-01,1.471360476294604480e-01,1.549119965232000767e-02,1.917406841469239398e-02,1.245559126588032840e-02,1.851301340469595560e-02,4.225666101078241754e-02,3.354609883829436784e-02,2.235113754102972111e-02,3.758891197716816152e-02
2.787725996920489280e-01,1.670837427957874155e-01,5.511418727575257553e-03,1.000916659878521922e-02,1.071756582726023435e-02,1.773418904697988616e-02,3.694785321121028115e-02,5.406506853784767003e-02,5.091535375780917999e-02,2.457198162636263158e-02
1.417198286003893692e-01,1.441353239085908233e-01,6.818764948850529993e-03,2.448382916943673757e-02,1.080305802162343301e-02,1.495117422278303965e-02,3.290186023599588755e-02,5.471383309126050948e-02,7.546830537326439103e-02,8.852747148528221366e-02
7.057142956990272720e-02,9.023472577197746980e-02,1.637621914266898168e-02,2.627877649258100745e-02,1.204289246707932089e-02,9.587667152654355540e-03,2.980427953474766231e-02,5.376659935206273139e-02,9.234506933650306337e-02,1.131543521038843730e-01
8.792063282614520636e-02,5.861131381226976356e-02,2.242770060224419382e-02,1.328339102068980260e-02,1.367386613602884077e-02,5.871973156203038301e-03,2.763874454347015411e-02,5.823823761834986956e-02,1.124851129711172820e-01,1.030397790912282452e-01
1.396749839091714351e-01,7.356236283982803270e-02,2.019159548665635379e-02,2.927997810701835416e-03,1.301876159546715324e-02,7.422309240228459719e-03,2.622572871050101243e-02,6.062666750144569267e-02,1.316500715769200747e-01,1.035303524426901128e-01
1.627501102786907961e-01,9.173884626748818327e-02,1.215404817884914966e-02,1.115355134914076604e-03,6.511277418177408710e-03,1.089103552755948251e-02,2.396145979961036149e-02,5.434370397032104588e-02,1.079567639727819495e-01,1.347896159410375549e-01
1.439728587943467364e-01,6.784167425749459968e-02,6.487950029922637425e-04,3.391223680645753802e-02,4.775518169603581477e-03,1.064664913384785402e-02,2.055375957347156668e-02,3.367610514560838431e-02,1.547164925849156547e-02,1.695233377539334119e-01
1.132541398660409510e-01,3.150375212845382689e-02,1.437758912179777984e-02,6.794902329090221627e-02,1.382867363061765324e-02,7.425053029475476782e-03,1.836446780039272669e-02,9.902630369297140550e-03,9.377156350307190580e-02,1.873956135150074143e-01
9.150110974426263477e-02,4.694151022379643157e-02,1.600338320220349650e-02,6.090703563310025104e-02,1.593576224610857711e-02,6.281628423071386989e-03,1.854909340544696680e-02,7.143586898276479968e-02,1.341076804086563101e-01,1.996653861899166382e-01
6.327361160623892755e-02,1.065297661312176736e-01,2.072978571415177822e-03,7.321815020639476854e-03,1.497852906961069652e-02,7.878911707266728418e-03,1.797262202857870250e-02,1.211156859961014520e-01,8.825084987982420581e-02,2.050554531368518896e-01
3.312070349927989654e-03,1.303586903574676381e-01,2.711572771813405142e-02,5.372754803108696631e-02,1.630424713654400615e-02,7.851801092606464430e-03,1.215448873114437743e-02,1.277868767362149716e-01,2.071314853383764837e-02,1.754516863385009728e-01
8.464894787538203291e-02,8.189681206126517288e-02,4.210733786294033887e-02,9.513704762587106567e-02,1.705343205422024666e-02,4.327185162357363550e-03,1.105389879936277513e-03,9.001679426619112190e-02,2.552549593457086301e-03,1.035492080768324746e-01
1.670713504909974167e-01,2.005644656183667301e-02,4.812511438314517886e-02,1.293372498796488690e-01,1.076064091149948714e-02,8.956138108269692246e-04,9.427373027970779515e-03,3.269479017475220711e-02,3.195133411190249212e-02,2.201729243675445633e-02
2.124954136354678391e-01,1.534527121175387893e-02,5.544824204842335041e-02,1.641723886099816510e-01,1.294622373983998764e-03,1.083307897932154346e-03,1.395170570647817285e-02,1.970737099119781663e-02,9.987444123793266793e-02,3.622496824152115352e-02
2.102432835528218191e-01,6.817886092193975456e-02,6.318797191349224962e-02,1.766618815555079935e-01,1.082927796602066624e-02,3.566640200063574476e-03,1.326068992751676737e-02,5.532199262299732773e-02,1.642610667335579755e-01,6.486846786508630724e-02
1.616805671791293197e-01,1.311912789832472004e-01,6.197015763315446429e-02,1.490924513551330766e-01,1.318625194036866961e-02,4.575511425788576260e-03,1.229671380317067832e-02,6.993746684750688780e-02,1.857004678077082138e-01,7.107999507957216134e-02
7.873862977426121512e-02,1.665947138857264698e-01,4.774615132715057803e-02,9.216478350421981880e-02,1.114944896618358210e-02,2.645989441931807188e-03,1.322674424324225481e-02,6.580307619333884694e-02,1.421257622256186515e-01,6.660379603201421750e-02
2.004903867781807070e-03,1.608229976822860563e-01,2.308330446571945499e-02,2.354872282924118723e-02,8.311199127229041556e-03,8.282693133292577973e-04,1.380891249213017993e-02,5.246312112743133083e-02,5.173064193503947028e-02,7.028649681718197872e-02
3.264794864278184466e-02,1.171253465733503030e-01,7.688305773083124739e-03,4.104701780427109925e-02,3.956534023459325027e-03,4.510790847456240364e-03,1.232694025546112078e-02,3.976112414248461624e-02,3.552694533855925429e-02,9.151666730860304189e-02
1.542443130945034442e-04,5.460016124164745327e-02,3.776553667018248822e-02,7.804141398922384565e-02,3.039792368983045001e-03,8.777534027094417018e-03,1.080541516961000363e-02,3.335932101137733391e-02,7.650258674549016702e-02,1.120439003919178333e-01
5.660521042845069462e-02,6.882647369379248092e-04,5.666341984724949238e-02,7.573873138513273484e-02,9.679550790688435172e-03,1.416347841374258898e-02,1.218633576854152682e-02,3.431433126160955693e-02,6.965951824594016073e-02,1.052087013026524326e-01
8.462930930103018667e-02,2.753730222015318696e-02,5.580062268609890797e-02,6.070777900628807067e-02,1.256081080490307859e-02,1.915686983788338765e-02,1.655367242189980520e-02,3.263473336439748351e-02,5.578345404726903212e-02,7.123609487513174465e-02
7.606198412006869025e-02,3.817768800601161611e-02,3.794163082906656936e-02,7.060005675595829033e-02,1.269508116693954768e-02,2.098681218936187046e-02,2.193365308291842994e-02,1.397144701962904807e-02,7.578106558789138303e-02,3.886744862534376177e-02
6.885413380685703744e-02,5.774920235287807346e-02,1.789002209391580417e-02,1.052891593490921235e-01,1.278269970946451992e-02,1.909420554315159266e-02,2.738311949461593245e-02,1.393957670240871839e-02,1.240036562388091290e-01,3.421170736818073682e-02
8.616811131813395530e-02,9.700302119960584057e-02,7.479965560429891608e-03,1.324120278291014141e-01,1.324453401986551253e-02,1.654412042734658070e-02,3.307572553929211123e-02,2.410172146715741995e-02,1.573400970217359029e-01,5.779892176083542554e-02
9.786530434402895828e-02,1.268931817383582850e-01,3.212755670146323714e-03,1.329248151981040349e-01,1.378786128173337643e-02,1.666764294810900784e-02,3.832130854167744433e-02,1.009911989138160757e-02,1.514088925686757903e-01,9.109776202544495050e-02
6.870591188510317970e-02,1.116800165179728382e-01,2.933757541527303846e-03,1.156589473919167610e-01,1.553702282581677363e-02,1.908940303845244046e-02,4.164342591888915007e-02,6.578208493885996655e-03,1.285312986053263051e-01,1.155564645563798981e-01
1.481002992547982358e-02,6.290459360928760124e-02,6.456612188100606733e-03,9.632582593153400652e-02,1.939868874032591936e-02,2.064836034215497898e-02,4.224316457562830168e-02,1.325455372628824707e-02,1.291294234553819198e-01,1.205508103693321564e-01
2.425890325828978372e-02,3.240336270241735150e-02,3.962209567501385685e-03,8.664744267605080374e-02,2.423914565231805388e-02,1.960352029092573070e-02,4.053213085006173583e-02,1.896150545596823195e-02,1.729218091988657946e-01,1.025499425847624935e-01
3.524673933990042640e-02,5.489113038820624124e-02,2.725421375280774258e-02,9.358629448738242651e-02,2.784034138504791131e-02,1.708493824367080319e-02,3.784326277687189571e-02,3.222445887820973853e-02,2.425042135839723945e-01,6.719378659512527385e-02
1.738845097261918632e-02,1.219920851120557814e-01,4.814202913566707764e-02,1.049321553044754024e-01,2.870591854953126465e-02,1.484731457801945903e-02,3.502562843682215793e-02,5.160256635932676528e-02,2.837019839803793797e-01,2.783871369756914238e-02
3.758860125810185165e-02,2.017185138438478686e-01,5.550562341926630616e-02,8.849092520305112952e-02,2.657196676659668091e-02,1.352001425356035361e-02,3.113581810080914489e-02,7.251169367189125303e-02,2.364220197930224643e-01,3.070084508195098684e-03
1.140816985207586259e-01,2.596896344543073165e-01,5.412988208948624202e-02,3.347549475922328294e-02,2.253868175206806546e-02,1.312339268527135984e-02,2.533806216123185573e-02,8.525578336399232404e-02,1.028563161773316248e-01,1.991913294824198058e-02
1.624487724759882123e-01,2.760662041729091687e-01,5.423496965129781522e-02,1.825278542149282729e-02,1.942549225366887317e-02,1.384953198912875980e-02,1.907814876462173015e-02,7.363632037480379033e-02,2.540436734545294117e-02,2.743361110296193769e-02
1.530724381067916917e-01,2.605287778696334100e-01,5.626545680975900826e-02,1.542706919810750421e-02,1.988927491220994839e-02,1.541795936497113335e-02,1.360604847611109926e-02,3.014731080178510714e-02,5.727208242883678052e-02,3.882547376347288831e-02
1.102667152557861713e-01,2.376806324440290663e-01,5.418830297816717295e-02,3.224564045918942162e-02,2.295163931654682285e-02,1.606717936189853979e-02,7.784207489535241789e-03,3.017719958875570915e-02,1.196793197494364774e-02,5.873895372706318396e-02
7.499794637354252613e-02,2.137983885301004972e-01,4.939292880248134093e-02,6.478567073412518085e-02,2.472834248039815913e-02,1.386481571586564709e-02,1.351815493087595629e-03,8.165067177024280809e-02,1.959954887229004711e-02,7.516252802051071047e-02
6.035470589430418781e-02,1.761255944030738485e-01,4.867093518750702230e-02,5.449557053784068877e-02,2.293350332810215747e-02,9.492412715430673456e-03,3.469695468437750899e-03,1.132783406461105591e-01,1.071662848301513545e-02,8.143734700782087610e-02
5.249726546762121387e-02,1.218906857262145454e-01,4.785278663527942761e-02,3.049791672101914361e-02,1.750954622733283395e-02,5.626814350030909587e-03,6.011511271169895330e-03,1.312985525545107279e-01,1.010951116105148970e-02,8.588739210977838767e-02
3.540852884423381641e-02,6.823839354376504129e-02,3.249896893958136718e-02,1.193390738614200086e-02,7.935065606617060230e-03,3.075401263510533882e-03,7.708146796442491740e-03,1.367680463805532876e-01,1.741400250425909069e-02,8.547418380373501823e-02
9.683578215865008137e-03,3.476733547960991766e-02,1.080751693847942663e-03,2.537256252396045617e-02,5.237408925076463169e-03,2.145743220090892429e-04,7.474302904306511994e-03,1.194624911752782404e-01,4.044519215305066029e-02,6.090949606159713758e-02
7.047673457047323557e-03,2.713808713625080055e-02,2.674303949443952375e-02,9.330118294349347419e-02,1.731185318043522436e-02,3.263622915656439437e-03,2.908626937224163822e-03,8.129855305364445950e-02,1.735741948781449329e-01,1.184161921333357070e-02
1.949296186983761475e-03,3.796213082673532968e-02,3.374937841735793642e-02,1.540575772863252979e-01,2.297652574622796248e-02,5.009388656147528707e-03,3.250346512660187183e-03,4.528954529164015697e-02,2.726102888685676406e-01,3.548557796678251247e-02
1.682859035030580264e-02,6.418877177842007009e-02,2.458230520035453726e-02,1.618331239564362589e-01,2.173709502403481375e-02,3.215062411226270785e-03,4.609195540629275681e-03,2.820168692670601759e-02,2.416347369988793570e-01,6.167369125163532639e-02
3.855936238191704640e-02,1.153660450622916445e-01,1.365146011560170250e-02,1.102617508216978126e-01,1.605558530694580627e-02,1.223960881749113893e-03,3.203965866264784322e-04,2.149134040168643178e-02,1.167751221980440901e-01,6.546154906713974597e-02
6.755642534821391931e-02,1.782385747895372519e-01,6.442025581293378544e-03,3.580578016223347898e-02,7.270234839003377608e-03,6.103495439289697948e-03,3.024960601182806810e-03,1.018937559301510629e-02,8.259679878851568582e-03,5.024956070244823714e-02
9.541892445987151805e-02,1.776512367632848977e-01,2.326622223550678815e-03,5.765518190707142644e-03,1.744081633981840089e-03,8.631202878298212949e-03,1.544493591601922913e-03,8.022074471541396773e-03,2.741737550348588570e-02,2.992212339296177262e-02
7.524844256397543452e-02,2.762654473066279703e-02,5.699055726012116491e-03,1.692862212719219162e-02,3.334431802871389711e-03,4.416951568603106996e-03,1.726456366808116344e-03,3.020891656934604139e-02,1.942220624533972859e-02,2.806465192784884238e-02
3.031042807463403890e-02,2.548441662895595816e-01,2.279616706782672600e-02,7.527151096312513501e-02,8.321159168920110386e-03,9.790247305644834280e-03,1.235800130030526543e-02,5.093113959064667767e-02,1.511131339413887033e-02,4.196462930530289737e-02
1.774311004632423971e-01,5.322221889764320313e-01,5.049067168130203648e-02,1.091565414582597454e-01,2.744662792477137528e-02,3.010161641818480047e-02,3.078990334701676643e-02,5.048313404692052891e-02,2.416011143042308754e-02,3.538194151281592870e-02
2.650433543193370101e-01,6.701507898247237582e-01,7.599631540564627530e-02,9.444024495816849551e-02,3.977062233752192560e-02,4.629571352411165214e-02,4.466795465666899279e-02,8.352048269075989725e-03,2.971998421857443423e-02,8.280453021258606106e-03
2.434341095914035469e-01,6.470798592766004997e-01,8.767134661708485266e-02,5.750495765365006007e-02,3.737312898596124866e-02,5.139695185014071799e-02,4.719058761454875822e-02,6.019063243355231990e-02,1.882574954285425040e-02,5.927215719154872026e-02
1.636151766285932341e-01,5.286991628882941052e-01,8.202531902513672535e-02,2.546311448072106909e-02,2.591405189460043584e-02,4.755883004495060212e-02,4.303688485786049539e-02,1.061754456923844347e-01,8.621959061972005872e-03,8.565278800883521781e-02
1.067904164640951920e-01,3.787770402898217870e-01,6.187947914773897495e-02,5.316187704266939901e-03,1.563403256352930218e-02,4.115358038920548939e-02,3.906208357716965673e-02,1.010422444085103399e-01,3.510751844078899980e-02,8.647271302191483766e-02
9.651644013926424792e-02,2.255607029688311838e-01,3.403311048198914834e-02,4.291767458678864833e-02,1.056687545101624680e-02,3.526494200958209951e-02,3.656586549903077799e-02,7.008074721130454210e-02,2.951504267152355726e-02,6.777726339352216356e-02
9.546183299622144902e-02,8.354726306176625539e-02,8.709099874379315140e-03,7.356563430823739869e-02,8.964899230626197091e-03,2.864889804149912955e-02,3.358036494863882865e-02,5.478219282517157035e-02,1.493074815397917032e-02,2.609042063596647351e-02
6.220095999949272481e-02,3.661309232729548224e-02,5.783673486528029262e-03,8.229420988220194355e-02,8.669677537630151101e-03,2.016844315884953887e-02,2.909787876847973187e-02,5.729564441025596783e-02,5.399629815895529844e-02,2.700337787853211713e-02
1.026229153169564388e-02,1.363767390131745139e-01,1.039215882869966301e-02,7.802330820063375916e-02,8.295567111359303941e-03,1.180252865740437709e-02,2.335917411920898981e-02,4.500645389295992310e-02,3.803234716460705822e-02,5.811163060484204196e-02
9.673454827429447955e-02,2.134542461442179295e-01,1.344066954925106361e-02,7.648651887310388420e-02,6.823853460245533041e-03,6.338142738346464432e-03,1.662540929133734038e-02,2.268647411896311701e-03,2.407738670615519605e-02,5.024975389881901344e-02
1.588573991263824425e-01,2.356431835009813736e-01,1.965994865288246685e-02,7.714117634713063554e-02,5.028156157651701361e-03,3.915306982479340413e-03,9.557956044473941287e-03,4.505096791155820124e-02,7.755940831993105022e-02,2.380985760873735244e-02
1.667162046177026735e-01,1.669491865019463728e-01,2.367650004734351415e-02,7.687996247834615049e-02,5.146148366596128149e-03,3.005820479971610393e-03,4.789628345653239305e-03,5.739180088299179056e-02,8.590567555537195754e-02,2.900244034750661289e-03
1.181287333126533334e-01,3.108052510475688493e-02,1.746122818368174220e-02,8.624970704842159497e-02,7.559710970090030742e-03,3.097495564097665303e-03,5.771049812188507738e-03,2.281282072109701992e-02,5.564207365272424294e-02,1.604692914747725754e-02
4.174888075482735550e-02,8.847295276247858775e-02,3.138625222027794509e-03,1.101163985722247718e-01,9.817595895300155334e-03,4.134680781318673774e-03,1.184403778350294478e-02,2.912153273898351186e-02,1.224020082011172302e-02,4.270231118259166375e-02
2.499110069704793546e-02,1.307993354081312676e-01,7.549532913801503507e-03,1.287684948175070176e-01,1.019471156662367199e-02,5.225108857638775979e-03,1.701927177187773088e-02,5.247950794423331122e-02,2.190040602080639900e-02,6.170541265602655367e-02
6.522183768913900059e-02,1.083507074053515762e-01,7.615068639072007997e-03,1.203456609044839809e-01,9.535168187335314044e-03,5.624737857693531962e-03,1.670173239918567448e-02,2.770310604697115084e-02,3.201969401441117496e-02,5.145286333571152254e-02
8.600015873111388487e-02,6.233198401974621161e-02,9.635545150534895881e-04,9.237363876165138876e-02,8.014714013520416597e-03,5.147110484108043463e-03,1.264515589267309510e-02,2.116259993746213985e-02,1.649834960309494447e-02,2.266485274753747559e-02
9.520546256246706363e-02,6.828961262234848131e-03,7.706739048511278972e-03,7.089704107692536283e-02,4.260578986470029902e-03,3.250138178751079548e-03,8.626572981441010812e-03,5.425022874962023844e-02,5.545816260303583663e-03,7.506389486892021956e-03
8.959869332784800577e-02,6.156293463893564716e-02,1.956750116038866519e-02,6.350953825592264845e-02,1.165247413858691572e-05,1.725104696252051113e-04,5.322739065680320500e-03,5.574385870897066719e-02,5.682967343041543662e-03,1.504163620155446641e-02
6.890520109503286972e-02,1.327754271452598889e-01,3.398889902293895926e-02,5.444375496988627938e-02,5.075592112663545458e-05,3.701822747619817628e-03,2.187239154627850998e-03,4.048348508204331619e-02,2.332858723693173944e-02,2.920748930957009840e-02
5.092322779800061150e-02,1.858229653081878707e-01,4.311513403444496018e-02,3.544982211232092922e-02,4.345940704305113755e-03,6.139853402671116740e-03,1.249387750931428825e-04,2.745589614462648834e-02,5.922052679694306959e-02,4.464276722788680651e-02
6.252179128269183539e-02,1.994948649442007393e-01,4.085412313021798830e-02,1.892630375744783211e-02,7.363415713674966237e-03,8.239770876187411247e-03,7.179893287452526317e-04,2.021572250387127651e-02,8.316181937496891496e-02,6.606868828194176202e-02
1.063980611931423931e-01,1.518806224040861741e-01,3.152639389726305530e-02,1.477565358969508066e-02,5.907612835343739946e-03,1.103608397822391368e-02,2.595000830877192653e-03,1.427875890784106178e-02,1.005237079501782871e-01,7.873846441102233529e-02
1.442421936279070227e-01,4.260479173966606747e-02,2.317887820606224711e-02,8.721559029664547116e-03,3.511777635709991373e-03,1.379965993242545513e-02,7.004730486215418432e-03,9.993465979735985036e-03,1.094851691450637182e-01,6.141487775639912355e-02
1.371445959384650914e-01,7.764365040934689821e-02,1.659021617675176044e-02,2.762157244445827622e-02,3.472854967320710556e-03,1.508665637550242293e-02,1.216053281840666356e-02,1.142467965818603874e-02,7.601280775376655086e-02,2.412381710089983242e-02
9.567855015951649833e-02,1.409077460042877650e-01,6.549889153795809132e-03,1.016114528249455334e-01,4.353117726173244897e-03,1.477452659122824828e-02,1.545517753644042556e-02,1.888019496391841329e-02,2.399709911233806683e-02,2.795621449726910096e-03
5.803594453684791238e-02,1.352871056154964780e-01,8.860755879942833549e-03,1.767232586849667997e-01,3.895225556228747513e-03,1.395128776693381825e-02,1.657337081085512656e-02,2.624321079741922386e-02,1.508556956527948301e-01,1.138789957426947219e-02
2.876960961369562711e-02,1.079761692330081374e-01,2.436971600315670367e-02,2.012150662545858226e-01,2.049182207395235187e-03,1.338281767782929788e-02,1.683829275196963710e-02,2.593710417070390489e-02,2.256540918037941990e-01,2.060671459477336417e-02
2.187268436640520813e-02,9.395478541048654653e-02,3.204315407164417401e-02,1.645437320720292418e-01,6.022395010691697359e-04,1.291701755679756231e-02,1.714412514742984922e-02,1.983863749777008481e-02,2.118169074936140095e-01,4.509025678283909433e-02
1.009250396418730350e-01,8.236546227797590658e-02,2.865457819668704165e-02,1.066387654019517045e-01,3.469979833204971803e-03,1.226146356238082789e-02,1.750288499821838276e-02,2.154325382443016829e-02,1.482653825222860766e-01,7.817232505308592538e-02
1.713551413927223432e-01,5.485594387804784700e-02,1.862371511218916323e-02,6.763966286462223809e-02,5.612661854964153853e-03,1.167581189340845607e-02,1.762112798974297193e-02,3.912482317782885882e-02,9.355572111521116840e-02,1.001418821627239192e-01
1.967101404366974615e-01,1.549764394583404495e-02,9.166146932090786514e-03,4.990232266554989193e-02,7.357629937763640257e-03,1.144313683794095926e-02,1.766400349585675600e-02,6.186033896523016745e-02,5.966894444116924850e-02,9.394256621737809287e-02
1.810772114746928563e-01,2.383178345674429044e-02,3.444741458202745139e-03,3.569196708413562708e-02,1.030247992328254224e-02,1.100679251120934184e-02,1.848822690321648074e-02,7.373133402521345192e-02,2.366408825143269043e-02,5.915926736667222879e-02
1.481784130778785458e-01,5.239769891097158933e-02,5.477162595459735385e-05,2.072878192939398706e-02,1.419324111812781536e-02,9.590407332072259025e-03,2.020942029060527820e-02,6.951736870888688968e-02,1.326301678145473846e-02,1.402840021101647502e-02
1.041161110605189344e-01,4.954238576602656985e-02,2.944359779652974685e-03,1.447860435160274947e-02,1.691557246364786687e-02,7.749627974534405682e-03,2.103005777764963349e-02,5.066498541975400505e-02,2.084523944922908947e-02,2.133880772323227398e-02
4.731689903103972195e-02,2.767671454638903107e-04,4.332106455440885157e-03,1.938629898374287161e-02,1.822515001262659320e-02,7.098880089617072564e-03,1.941544830563946000e-02,2.356165155102317790e-02,7.347530613810346854e-03,4.045803046567653105e-02
5.743948557673242243e-03,7.220494235928272275e-02,2.135359544812206068e-03,2.847308100995638372e-02,1.922765215475898126e-02,8.057804349315534839e-03,1.701783084712864616e-02,6.887162177882673493e-03,4.126664381903931422e-02,4.510440733660282808e-02
3.549904793498620537e-02,1.119693648801267649e-01,5.079353576408384557e-03,3.850636461527866261e-02,1.794251955425781725e-02,8.904654241515246732e-03,1.682056867976027340e-02,1.601323987021426379e-02,6.076591219622919787e-02,3.578716640356671003e-02
4.285016635140297125e-02,9.363220172506830918e-02,1.681761336103668528e-02,4.793204041791884057e-02,1.094055088879534142e-02,7.661375535483042239e-03,1.823809337933928604e-02,3.536610723899521330e-02,7.104334969433097335e-02,1.685384091178844523e-02
3.608499270846468598e-02,4.255876639757316671e-02,2.931900939425551023e-02,4.426136786403662288e-02,3.915844931393510199e-04,4.512643963130619738e-03,1.710365136757333385e-02,3.251582215237551476e-02,6.753923857856768131e-02,8.864470152033397318e-04
1.415055532757339592e-02,5.106446186994900195e-03,3.638614134596079852e-02,1.312390378588048669e-02,6.176150551107598835e-03,1.870018277692843964e-03,1.145985231823853749e-02,3.646461152568416814e-03,3.429616816716671290e-02,2.123714169212316538e-03
2.142398440524673903e-02,4.027783301405506167e-02,3.393124316925519302e-02,3.475462991998688744e-02,4.870060453948633732e-03,1.682736717990258174e-03,4.358261079985356438e-03,2.142735668087315110e-02,1.296110402282422101e-02,5.001997228682554877e-03
5.525940753484762102e-02,7.033464078596959879e-02,2.408757462654728329e-02,6.147686249744496734e-02,5.159496766577659817e-04,3.106095358413530315e-03,4.365359390868764518e-04,2.501617800525459193e-02,2.973577438354317592e-02,1.247413443313100459e-02
6.868526407911666742e-02,9.559383091753717587e-02,1.343374407737286773e-02,3.866009522848600638e-02,4.720180575539658502e-03,3.897505102233632911e-03,2.807844373441969067e-03,2.694747868580796638e-02,2.137006768992477657e-03,1.625227766056020623e-02
5.282541290218881885e-02,1.102694442495117527e-01,6.813943950661740558e-03,2.048669635572312672e-02,6.873898507989908632e-03,3.521768671321875901e-03,4.991691375054377669e-03,5.230416561045901636e-02,3.645668638720223065e-02,2.096557412257406966e-02
1.296563605633660812e-02,1.108800976088297058e-01,4.066280979247988495e-03,7.349387068229651376e-02,8.739074709822575171e-03,3.130306129812343834e-03,8.180423262009895585e-03,9.230539018183932243e-02,5.349328839828343396e-02,2.985510808840249886e-02
3.137484533288009692e-02,9.417076094229176464e-02,2.655362681786660201e-03,8.862372403905340035e-02,1.074579773602825708e-02,3.143504262881352193e-03,1.174226879456799662e-02,1.149594008302830817e-01,4.461255856159729999e-02,3.601928329248377247e-02
5.508251090443414683e-02,6.139818536931754278e-02,8.644203615280491096e-04,6.866456806588538964e-02,1.179432804429649505e-02,2.891411320742334583e-03,1.425328317002033142e-02,1.050478791573285220e-01,1.654015814508677518e-02,2.947912611152862794e-02
4.548077298124119511e-02,3.077950876520180526e-02,3.532840421206159126e-03,3.955431504399065101e-02,1.133991835132435941e-02,2.157885304770977997e-03,1.421092592419787720e-02,7.431676224356113802e-02,2.082311408303670619e-02,1.002522531954781575e-02
1.398243980993821994e-02,2.768771471195234646e-02,1.494184860754563769e-02,2.136768352982431132e-02,1.016126803374057912e-02,1.423885617444919796e-03,1.090786487942784107e-02,3.808108470566553411e-02,5.054483040499257313e-02,1.447384476823256397e-02
1.207703863479569865e-02,5.163302630734670218e-02,3.386040299725911334e-02,1.376790429639920300e-02,9.251145972513958801e-03,9.156479806555561192e-04,5.580473553785887664e-03,4.204994010559235870e-03,6.348784264849921533e-02,3.766098428390688563e-02
1.193094079869244303e-02,6.823903822769815386e-02,4.862515682861066196e-02,6.822136604618011385e-03,8.597015769721614090e-03,4.367260885489280837e-04,8.187183461519135196e-04,1.636523387865005189e-02,6.932860948122844535e-02,5.369286571440116951e-02
1.179629619552009616e-02,5.022566506424407107e-02,4.339269831027302987e-02,5.055882998538435355e-03,7.484880800881270335e-03,1.183657852250022575e-04,1.945350270777122283e-03,1.074642618074459106e-02,7.959918313253935840e-02,5.433703230300031273e-02
3.798985258427077516e-02,1.557737328105908425e-02,1.925752310228636896e-02,2.325961485646890758e-02,5.835935152031925671e-03,6.531961444219775087e-04,3.663539236673271204e-03,1.779556172731843258e-02,9.221662472466980731e-02,3.888555250881734621e-02
4.820634703205500804e-02,3.245113038805580268e-03,3.775282045769286395e-03,4.485099559608912712e-02,4.195348117839408156e-03,1.110433829801871827e-03,5.783406648152995301e-03,4.499120368378151796e-02,9.671938922061583399e-02,2.082279611979420339e-02
4.161711628632255161e-02,1.799742747335980608e-02,1.172402390423553029e-02,5.437076916940398325e-02,2.097870003312600137e-03,1.528210306885000166e-03,7.947752356530519285e-03,4.680462227139393222e-02,8.147871447178473003e-02,1.317039861035311163e-02
3.004571593637852742e-02,2.794825829881580556e-02,1.101292017898094187e-02,3.218786428030043917e-02,1.682229320804767662e-03,1.928106439726090353e-03,8.570939050711129381e-03,2.377737067796432610e-02,4.062189497677591576e-02,1.263714744630356143e-02
2.138403464167452223e-02,1.615023529666486518e-02,1.213044083299583131e-02,1.573890220897914555e-02,6.144948155944242665e-03,2.287476715399428158e-03,7.289034195013812181e-03,1.259194887093084692e-03,1.291791868622878085e-02,9.752983764950151624e-03
9.297113360872867258e-03,3.323066734814019915e-03,1.236085739883874615e-02,5.186764411397415397e-02,7.714075390801169996e-03,2.591685697498914351e-03,5.766187365480126940e-03,1.096803007493956338e-02,4.970760522240761509e-02,8.603630865466725328e-03
1.691077395432875191e-02,1.189638104210237468e-02,3.631001021872145608e-03,4.760956567208533829e-02,4.823469292655429771e-03,2.847817185775347246e-03,5.634626922793223129e-03,1.100110042817600137e-02,4.989762798467729105e-02,2.098410408189292989e-02
4.946035253995078457e-02,3.358111272923493262e-02,1.105934633437899266e-02,1.728571650834070939e-02,6.275511843699271581e-04,3.060470273604251699e-03,5.861244626541210236e-03,1.465634507163226553e-02,2.249195728015085383e-02,4.290868823381218528e-02
6.219589704162480776e-02,4.491097976453962970e-02,1.912044742620859841e-02,5.683220843648311045e-03,9.885293678382665004e-04,3.225108425468921347e-03,3.482164018457812801e-03,2.140266638159686249e-02,5.381313342898624841e-03,5.413815096416862982e-02
4.527479943739588786e-02,3.871784408442038167e-02,1.450893785533646264e-02,1.391209877569496260e-02,5.503474996337094811e-07,3.339350623065279969e-03,1.735199684669514646e-03,2.288765704227692030e-02,1.725030195178266917e-02,4.556951495634384980e-02
2.383949136118278245e-02,2.795000711172500318e-02,4.713625823720146713e-03,2.582046728951059231e-02,1.150690878742965982e-03,3.406236538071442423e-03,5.334116458372979187e-03,2.243771172215382886e-02,2.122055600212873969e-02,3.300160277480532894e-02
2.862417953001845927e-02,2.579519567337066124e-02,9.591846063327118732e-04,4.982628698520581711e-02,1.428152206145079546e-03,3.428965978257246874e-03,3.693577053862257507e-03,3.447834370001975901e-02,3.028107004967842478e-02,3.560521886999450797e-02
6.313380282259839493e-02,3.295706924362977464e-02,7.457800276759069327e-03,7.478757202705792195e-02,1.548449375517005648e-03,3.409266322889469708e-03,7.540508684432241588e-04,6.549684516288366287e-02,3.951704908888523798e-02,5.073734392040504110e-02
1.057939015503313179e-01,4.380892653946824589e-02,2.008126125699617390e-02,9.229940797466280877e-02,1.965445720670363789e-03,3.349771460760967226e-03,3.273984121063972397e-03,1.028343746088580674e-01,3.862543011711216251e-02,5.947122524294053830e-02
1.285129187185301836e-01,5.538416674759503999e-02,2.959792511431370843e-02,1.023264663335500674e-01,2.364127316685469670e-03,3.254727593838052310e-03,2.986281699049117555e-03,1.237766828692312693e-01,3.456732346931384176e-02,5.119872352034052915e-02
1.140305508011691255e-01,6.575610286349396760e-02,2.783799644129619083e-02,9.934018406131531198e-02,2.534153216870269933e-03,3.128779049484572625e-03,1.638885771184133127e-03,1.153916570979001133e-01,4.146939727756136784e-02,3.344326908576714108e-02
6.965776963790190623e-02,7.088465147984165937e-02,1.635394442641473212e-02,7.946799209137926645e-02,2.626346775456536980e-03,2.976495584438794677e-03,4.675646500111033848e-04,8.412708414677005919e-02,5.896511820370426565e-02,1.934810730794934638e-02
2.265269367280176374e-02,7.032483987960304328e-02,6.475307628882506425e-03,5.799554175342581247e-02,2.741229695021483483e-03,2.802792417523656404e-03,3.318153628559853806e-03,4.524924284015727910e-02,7.736412989315435973e-02,1.430316719202537681e-02
2.943782083560525509e-03,7.160665936543590682e-02,6.882669259853042842e-03,5.397367192690796095e-02,2.807040645628040409e-03,2.613002099291761565e-03,4.698465585985950495e-03,9.720955875750152825e-03,9.381347444931037449e-02,1.642545735056824205e-02
2.380622822428861765e-03,8.143201735254619600e-02,1.486165902120056663e-02,6.156428877823043322e-02,2.790508831943511181e-03,2.412516007320150962e-03,2.716368838671244252e-03,1.478853575108046194e-02,1.102660104579195610e-01,2.255363512032561996e-02
1.140649290309126568e-02,9.463366317208367351e-02,2.264550605400084474e-02,5.852951717113866192e-02,2.749455497347608017e-03,2.206579454805482950e-03,8.745119707471885962e-04,2.095921280808521123e-02,1.226185374880315454e-01,2.991287586974871252e-02
1.952971104166981164e-02,9.716642710731415722e-02,2.776654736427395381e-02,3.849376645292163640e-02,2.691909456897007783e-03,2.000290076522411725e-03,2.742948213687247411e-03,7.423489997457078868e-03,1.216511471788649240e-01,3.698140757866977962e-02
1.293454158641011743e-02,7.751608773639760697e-02,3.257307241176708723e-02,1.728887623369120691e-02,2.563297511915892460e-03,1.798530668100907937e-03,2.201750865129386246e-03,1.982205648882874593e-02,1.037651011772381116e-01,4.548371179770396844e-02
3.343566002126417171e-03,3.367800804605068643e-02,3.605061612357315926e-02,8.901326107479162059e-03,2.403563427134205663e-03,1.605813845974365635e-03,1.411068976078576169e-03,5.259056281477012679e-02,7.562389824849284625e-02,5.701701319280542968e-02
2.476547659438289167e-02,2.308885018924803148e-02,3.289867213965101678e-02,7.988890594317326482e-03,2.328077588151785532e-03,1.426167826857999274e-03,2.056834699106678370e-03,7.916377083683472093e-02,4.633490486177470336e-02,6.601910237715359620e-02
5.227047313771381737e-02,6.924710626951793846e-02,2.230285129016620210e-02,1.855343884337942902e-03,2.257496953787939149e-03,1.263078906609752926e-03,2.889517118485503393e-03,8.376041732984482180e-02,2.027211175474608745e-02,6.090121510376627495e-02
7.645284961753959219e-02,8.452766434406031038e-02,1.083942962529682585e-02,7.366844071580481122e-03,1.972457454950038522e-03,1.119433308534696029e-03,7.995383480224731729e-04,6.022658173421885364e-02,1.525805704634879828e-03,3.431179150408898704e-02
7.941803837665330212e-02,7.085915276126197870e-02,2.971595149896048317e-03,5.981545646053182744e-03,1.656919045704353683e-03,9.974529777619181060e-04,5.305098025537829075e-03,2.240783830719542125e-02,3.425356777101255801e-03,1.071080999094319204e-02
6.130314089648781356e-02,4.801551427792431770e-02,4.513304734160597000e-03,6.396512024146591875e-03,1.841908704599579377e-03,8.986541603149503666e-04,1.232882801475287081e-02,7.991438050939070684e-03,4.337682277113976553e-03,6.452528185978358144e-02
4.319581880074718078e-02,2.995376417349839698e-02,1.449206941892010846e-02,1.229245568790564291e-02,2.413901997436869191e-03,8.238331590418285872e-04,1.599519848634839772e-02,2.162480897144971811e-02,1.160396121427019998e-02,1.163653113763377378e-01
3.988671901360920508e-02,1.679120457955639995e-02,2.359312401697854361e-02,4.838888719100775844e-04,2.575000974247539445e-03,7.730667227271790891e-04,1.542318582580548027e-02,2.929920479000673941e-02,6.380309387714617163e-03,1.558338052412962527e-01
4.852475454901711976e-02,1.159405037814560495e-02,2.875682937813508339e-02,2.114823062997899655e-02,2.253037217917424825e-03,7.457251512844081031e-04,1.320317551598837805e-02,5.214875213267393395e-02,1.042911535328231235e-02,1.742887786896360480e-01
6.083305815842339481e-02,2.736653004503392453e-02,3.250281559168834156e-02,3.998566783039434608e-02,2.212258147434928782e-03,7.405036421833266925e-04,1.136815571886681982e-02,9.771347711904941613e-02,3.077772915618352118e-02,1.689987065932606336e-01
6.990140458573639026e-02,6.608230566981929122e-02,3.780213156045236778e-02,5.049776840045320375e-02,2.454581879474922092e-03,7.554719114932848933e-04,9.127101504152360795e-03,1.448860719026362764e-01,4.808364278387748658e-02,1.456569745118367343e-01
7.126786626020205351e-02,1.048060683971200335e-01,4.321590279188153305e-02,4.999947864787045171e-02,2.219191798885844329e-03,7.881379898590020090e-04,5.272174276329172349e-03,1.630035509678279260e-01,5.565766811203510384e-02,1.146211792603087642e-01
6.876934109019366970e-02,1.174145456911166591e-01,4.534735208705453074e-02,3.856947463643064372e-02,1.580769822034620159e-03,8.355240733946076980e-04,1.146536831485427035e-03,1.444010384974110384e-01,4.815319497053388575e-02,8.426075357482415429e-02
7.050348336248847547e-02,1.019315320812048675e-01,4.231195107778228104e-02,2.504393520400241199e-02,1.339726245449178628e-03,8.942537805122789587e-04,7.839362272947332164e-04,1.077908845168610574e-01,3.338665235208100601e-02,5.831445582974495445e-02
7.248683650050410932e-02,7.632130645386639434e-02,3.384602162797060998e-02,1.877799435538515110e-02,1.613708332429635624e-03,9.606488328591043097e-04,3.651070674657484142e-04,7.521516870520592035e-02,3.135647539084088220e-02,3.771850310060968076e-02
5.837177721830015542e-02,5.570785537818854355e-02,2.110843293676167506e-02,1.540726460241692054e-02,1.875660646346415539e-03,1.030832124290817194e-03,4.643370606102407809e-04,5.625698554095557441e-02,4.918448091380973192e-02,2.252301874982534993e-02
2.290630148130540569e-02,4.203322531426049308e-02,8.730230818911395574e-03,4.635924060975902747e-03,1.941510748773231376e-03,1.100834486767830441e-03,6.115243713703871417e-04,4.791597797038096157e-02,6.835857797211641884e-02,1.221961080859312876e-02
1.381813533402021649e-02,2.958749841035723804e-02,5.218044804443756207e-03,8.746942937981543736e-03,2.029812630169623277e-03,1.166702782688395796e-03,5.588702507796103423e-04,4.000914762921888024e-02,7.221447362956887051e-02,5.517112792490959372e-03
2.518685605114770812e-02,1.339978820812145685e-02,1.556953398891603758e-02,7.214984338080000434e-03,2.226920685718841372e-03,1.224606711289367295e-03,7.783593564240844261e-04,2.450907588899474410e-02,7.245627768474934005e-02,4.085126516613427072e-04
7.255067483635887007e-03,5.118366821008387205e-03,3.219184852992786061e-02,1.302586289247700119e-02,2.425269956588155338e-03,1.270941573963601731e-03,1.058929932637305395e-03,3.148413970708564824e-03,8.738357662559910477e-02,4.958811402868933127e-03
2.069542669126045453e-02,1.489055011643064530e-02,4.034373057791569572e-02,3.302686581916289277e-02,2.575008909039745112e-03,1.302424459056434301e-03,1.173104686787427393e-03,1.762111077768815579e-02,1.077932716784713030e-01,1.100771223943216963e-02
4.157348174534406665e-02,1.268393494466453497e-04,3.504974001253922250e-02,3.655293842460062559e-02,2.717539097584982782e-03,1.316181571287873379e-03,1.210612598734108749e-03,3.503839558309588403e-02,1.100335223186324624e-01,1.654663939275378623e-02
5.255442986485180101e-02,4.271656262774040785e-02,2.461258454765896664e-02,3.077323808217146892e-02,2.868310752237286567e-03,1.309824613952243009e-03,1.274184056707144443e-03,4.609890814833290940e-02,9.164688427596755227e-02,2.017237305176834000e-02
5.368081178443472046e-02,8.932334446445208687e-02,1.592938491156275713e-02,2.984864267866075768e-02,2.999839518896293793e-03,1.281514369576002271e-03,1.319491151206654295e-03,4.366081219728536189e-02,6.921234523273725459e-02,2.181260933037935251e-02
4.173489950904366030e-02,1.088458169974485662e-01,6.600967552445513933e-03,3.100165785470467700e-02,3.096588745690530102e-03,1.230009970341480784e-03,1.295553811293367408e-03,2.831894964889107233e-02,4.968054051834654844e-02,2.282915201111446191e-02
1.964352691725104044e-02,9.485974942480432381e-02,5.745109702913627457e-03,2.275632173489416585e-02,3.163799498994342499e-03,1.154702729407973113e-03,1.221475599108826863e-03,1.542616827098757838e-02,2.692985064279612706e-02,2.463406131545405400e-02
4.834801862634418440e-04,6.646222830719078489e-02,1.648957285355806893e-02,7.261695035018607240e-03,3.202091532456859211e-03,1.055633780085259241e-03,1.121683297461645648e-03,1.775176757010821921e-02,2.824063534033539533e-03,2.708273629724533907e-02
4.800938714500876253e-03,4.115705190452709911e-02,2.099784321681218494e-02,2.721065137736449358e-03,3.203191589233297769e-03,9.334951624915143907e-04,9.892086519566868717e-04,3.070781772193714732e-02,8.130876808752268703e-03,2.825299335769146727e-02
1.937828945475983042e-04,2.114064314062488043e-02,2.104774295763626318e-02,3.576797873675461887e-03,3.161925531161171796e-03,7.896144109682588872e-04,8.155327548097484475e-04,4.519646026633265812e-02,1.832434314631413777e-03,2.629011710677720687e-02
2.891267329014762799e-03,2.052543223191342567e-03,1.948267080806580925e-02,2.699949400307732374e-03,3.078490724639254116e-03,6.259231059870331865e-04,6.080799822343888527e-04,6.102077366321411594e-02,2.207371041411115148e-02,2.184950658411386609e-02
2.755247333628529915e-03,1.807932421963267394e-02,1.453705594560727316e-02,4.521454496454926052e-03,2.952965469255947138e-03,4.449102448749752987e-04,3.763616610216086763e-04,7.617800806579738682e-02,3.562465886634907236e-02,1.851591877193781502e-02
1.333300245442950102e-02,3.659209007547009618e-02,4.746589888281822073e-03,6.772110024829603239e-03,2.784243756035752280e-03,2.495616533507964566e-04,1.234905257891822381e-04,7.900224077868844841e-02,3.498864278250211901e-02,1.991472239477766817e-02
2.508094414517364479e-02,4.523995870594144098e-02,5.542279677067158197e-03,7.008494707328402976e-03,2.572626434289900649e-03,4.328699887501421509e-05,1.475855578367755690e-04,6.212636621917899671e-02,2.294809181230654527e-02,2.507621152829624112e-02
3.477365494680329655e-02,3.686452328882289242e-02,1.075463280901077338e-02,4.186835841380358476e-03,2.320351476683800082e-03,1.701637339755182252e-04,4.302070690568542523e-04,3.047560344481682268e-02,5.603405040716439439e-03,2.708119114582852038e-02
3.358585367092868645e-02,1.744507427377558345e-02,1.048081480568566724e-02,2.215509095921658692e-03,2.030353531232251697e-03,3.867921951837473716e-04,7.170651909897418370e-04,6.662732246761894975e-03,1.113919378736514393e-02,1.940512515544022543e-02
1.514188568819811384e-02,4.375045780120809247e-04,7.793034342772920189e-03,9.489630414228509767e-03,1.705934217916628632e-03,6.024497394254070982e-04,1.002258262426885356e-03,3.626375262713672082e-02,2.428317882702513142e-02,4.550714591672199057e-03
7.948749110536178913e-03,1.295035611591439234e-02,4.078388871750961847e-03,1.202824326370101858e-02,1.351241680657543553e-03,8.129391653163697959e-04,1.280094816583958071e-03,4.248058619844014006e-02,3.697090345531307831e-02,7.368861871602384872e-03
1.165079063297582221e-02,3.042157364758440660e-02,1.740735412642264307e-03,7.300610203929629172e-03,9.713049682466009345e-04,1.014117594430609262e-03,1.544330615776472572e-03,2.522399556650046365e-02,5.327783670347125550e-02,1.006071917731005995e-02
9.079151040387544586e-03,4.597195092040876757e-02,9.420815024795053949e-03,2.789891145536663522e-04,5.716584523211433845e-04,1.201997943528847939e-03,1.788931824672959159e-03,6.081918796643260433e-03,6.628391541827952094e-02,6.877288699081614276e-03
3.246262574338219797e-02,4.248474608014569248e-02,1.551412491572304667e-02,2.837476347755888990e-03,1.581476881880565380e-04,1.372846488852770162e-03,2.008645835419911943e-03,1.670234087562318549e-03,6.023313365542890679e-02,3.899578910884693959e-03
3.992983773364923439e-02,1.646597502696393878e-02,1.857740726549541796e-02,2.809054050090449648e-03,2.630882452599705079e-04,1.523274127821278977e-03,2.198842353261700171e-03,5.052597462721230941e-03,3.135856837072523856e-02,2.069290608621356976e-03
3.837550018633958948e-02,1.746525370190468718e-02,2.371983082144583574e-02,1.117497798878548665e-02,6.857300922344226370e-04,1.650319108262165210e-03,2.355418183497054105e-03,3.622382563179016063e-04,3.000187504493705137e-03,1.206189233110185758e-03
4.273837535777557511e-02,4.260984926358366010e-02,3.448211224904305233e-02,1.471619900158027856e-02,1.103483672013784401e-03,1.751519214201338950e-03,2.475022823889460894e-03,1.956557647170727166e-02,2.364797466811422930e-02,6.019550283850583043e-03
5.180382643402670073e-02,4.949297149097803272e-02,4.208473459945200057e-02,1.307709807561980263e-02,1.510244767804485569e-03,1.824971664539535481e-03,2.555232804252243958e-03,4.996544755924305775e-02,2.797464746612816217e-02,9.106107070067075843e-03
5.553524136876612088e-02,3.967684617768003907e-02,3.403835658745015674e-02,1.125163702726433151e-02,1.900218192819280250e-03,1.869379289862577523e-03,2.594546801727339556e-03,7.313336954717318539e-02,2.330718771139933532e-02,8.684441331070989409e-03
5.601029216903385954e-02,2.962170498113914779e-02,1.371638562522470989e-02,1.007508871062965695e-02,2.268046886767779990e-03,1.884081895422781185e-03,2.592371853799858936e-03,6.708931483394710293e-02,1.335186785989530243e-02,7.305061272305998776e-03
6.558636586989356754e-02,3.807712256070547308e-02,1.244788834768651483e-03,5.317470555929652495e-03,2.608950047306245364e-03,1.869072086456746327e-03,2.549061105084755603e-03,3.103428775471248763e-02,1.587813500487691857e-03,8.203920162044693598e-03
8.776140557761855088e-02,6.185629106909019265e-02,1.876147769090940123e-03,4.026949890494836877e-03,2.918841198544651350e-03,1.824995216314934761e-03,2.465923303780066713e-03,6.443885392238851532e-03,1.854449873710580995e-02,1.077417031628886621e-02
1.099711016373396133e-01,7.716413598001034546e-02,3.343294943053107954e-03,1.378999294106836131e-02,3.194420387303166433e-03,1.753133508866181215e-03,2.345174817125212328e-03,1.782629159413903416e-02,3.269844507195685673e-02,1.235962712279845520e-02
1.141780737994725209e-01,7.129202281152632881e-02,5.254209608230388066e-03,2.133100723511872562e-02,3.433246424553986625e-03,1.655374794694140176e-03,2.189872018963449993e-03,5.883244783011545506e-03,4.276481834544925559e-02,1.323628235001343863e-02
9.188319797662670985e-02,6.012591443576478789e-02,6.722868908787994410e-03,2.760944088445132713e-02,3.633792137945032839e-03,1.534166676224033802e-03,2.003839834893131507e-03,7.413323468680566020e-03,5.205675469093076768e-02,1.617981082909225252e-02
5.241103338933624650e-02,6.603145360894807636e-02,1.294863164342134436e-02,3.231412871528335784e-02,3.795485718189826538e-03,1.392457290948344350e-03,1.791581289964791534e-03,1.134550727124887005e-02,6.178871464323859586e-02,2.119693596074318995e-02
1.546624737121931985e-02,8.499835541965315711e-02,1.955422377083693153e-02,3.233406533721459170e-02,3.918728124009435328e-03,1.233624165771479448e-03,1.558163538433267586e-03,1.382784904295749837e-02,6.505361217763609705e-02,2.449842089230421655e-02
7.354392545882766467e-03,8.591486155790618862e-02,1.859510271774061571e-02,2.535567689314813591e-02,4.004866101602473118e-03,1.061392941359180471e-03,1.309091074589091054e-03,2.024404004081490835e-02,5.318470196614825951e-02,2.370490086682146974e-02
1.737213710050789645e-02,4.845774350505045042e-02,1.037971017683248474e-02,1.214584886159285337e-02,4.056139485982054350e-03,8.797479864171430138e-04,1.050172539704146216e-03,1.773367645772811266e-02,2.837043202255020921e-02,2.080720937762895253e-02
1.538486969386853621e-02,6.407361546299896252e-03,1.603525806489098119e-03,3.570750812223654792e-03,4.075651925289533808e-03,6.928371123210475034e-04,7.873807667218955678e-04,8.345331478754035651e-03,3.703737515665465971e-03,1.844909051008685949e-02
5.742331182266580125e-05,3.893029413806797789e-02,4.426671966122049627e-03,1.602875899733705034e-02,4.067328727554835217e-03,5.048727340271843720e-04,5.267079192452230833e-04,4.844111190488621654e-02,9.176300750608629153e-03,1.583744800691093760e-02
1.752291465013669849e-02,3.563769673010677708e-02,8.414108346313500450e-03,2.019844512048200522e-02,4.035757304154059637e-03,3.200319006274928574e-04,2.740209514169797953e-04,7.516125932217120054e-02,6.860983111157935473e-03,1.003834413393925491e-02
1.647193455844175869e-02,1.385926133599847676e-02,8.484326740540606634e-03,1.524675010483776856e-02,3.985990048772064531e-03,1.423576366302831782e-04,3.492166664749256615e-05,7.371749440330672976e-02,6.838356925012779343e-03,2.314000135847369462e-04
6.763313841658712307e-03,5.165549907288218695e-03,1.270357939037470348e-03,5.325313825526728495e-03,3.923542750922312528e-03,2.433600712614431179e-05,1.853860138126791398e-04,5.134572060816305905e-02,1.939170435307958906e-02,1.304105232087135295e-02
3.396038756318959378e-02,7.949210808039114742e-03,9.482630879460792958e-03,2.891356797249637709e-03,3.854432295942270340e-03,1.765528947911078664e-04,3.822187372169392745e-04,2.176448749238024324e-02,1.316542350387287993e-02,2.428326839185925359e-02
4.815921216669873106e-02,8.947300527812691168e-03,1.313648939868802996e-02,4.504833453095448068e-03,3.784760481475002523e-03,3.111955975584205559e-04,5.515230584731644053e-04,2.096923699177296891e-03,1.684227014924364815e-02,3.018952576956398029e-02
4.491710548262727032e-02,3.043604666584695181e-02,5.055276457877623877e-03,2.341278498743692201e-05,3.720174846161141292e-03,4.256361034051066501e-04,6.899686542691458105e-04,7.450896268283671575e-03,5.304503951216439639e-02,2.992534849434678665e-02
2.517335579472497475e-02,3.442877876666768089e-02,7.150479174299598575e-03,5.757438690153626228e-03,3.666279411445933466e-03,5.177747663465720636e-04,7.950233820391581835e-04,6.119454973351940580e-03,7.334282073190970253e-02,2.563196810797824590e-02
2.498560039538954940e-03,2.200245161907972424e-02,1.486814812385203570e-02,8.260478280855887076e-03,3.629327919307287313e-03,5.860861119442618969e-04,8.650085244372623982e-04,2.088696617828570204e-02,7.352673517035784867e-02,1.989567760410957190e-02
1.854462416853375206e-02,1.642426541418677555e-02,1.831260531831182051e-02,6.638095455075121790e-03,3.614902102466913125e-03,6.296504433123545352e-04,8.991328908066206034e-04,2.354863763139753222e-02,6.340669322047216838e-02,1.429171567146486979e-02
9.905924571019594435e-03,2.862423861309320097e-02,1.988425554416626412e-02,2.107432579226413156e-03,3.625951624220133569e-03,6.481705438227638354e-04,8.975050063337563751e-04,2.210615722122043214e-02,4.955376548233918210e-02,1.008821778350079378e-02
1.584778411558202330e-02,4.501478225103016512e-02,1.754240233257568088e-02,3.640654759625468109e-03,3.665149031024497565e-03,6.419731403726381021e-04,8.611232345973396981e-04,2.680385952677188238e-02,3.270385556658758630e-02,8.199571027120338210e-03
4.354005443231633021e-02,4.913479234939822221e-02,1.198624205553842394e-02,8.453006796150375549e-03,3.738759177769122258e-03,6.119951653788737334e-04,7.918442034664629602e-04,3.020494410397710910e-02,1.541257116737717626e-02,7.790364633329061213e-03
6.481961396546477572e-02,3.496415836799827981e-02,1.041267228725860534e-02,1.068246661970227024e-02,3.851380808238069088e-03,5.597552274002670159e-04,6.923303976503743327e-04,2.182920965520845566e-02,7.276105469650605458e-04,6.518704680017617901e-03
7.471572385620711687e-02,4.468814181315618542e-03,1.521935748918231378e-02,1.011369297025371816e-02,3.997271635513119717e-03,4.873110603632254149e-04,5.659782940674120983e-04,1.031992076257660408e-02,1.380502956945891743e-02,3.093563533327634354e-03
6.862121413768226819e-02,2.737373841544258474e-02,1.853414439997237359e-02,6.656674716347419328e-03,4.171140782266666638e-03,3.972040610103253324e-04,4.168289028411408794e-04,1.487893129851569976e-02,3.103526694843938491e-02,1.182383802954166873e-03
4.682029453478450676e-02,3.541626104028551547e-02,1.487094737639704962e-02,2.351577574436883897e-04,4.386813704793213198e-03,2.923923351702549284e-04,2.494629957371622569e-04,3.822774204190820813e-02,4.423645469121709195e-02,4.067077673918305381e-03
1.630294387266323017e-02,1.381214601305767037e-02,9.382045366094377351e-03,6.694006311829921868e-03,4.654599323305134116e-03,1.761739482688632350e-04,6.888366039659041067e-05,6.060416608730848087e-02,4.205583074944771460e-02,4.967506618324443735e-03
9.082708671056219374e-03,1.053859798862436664e-02,7.892681955311543762e-03,9.924046585277946503e-03,4.940840589679853720e-03,5.210230758878542574e-05,1.196108816072841391e-04,6.289886818827153392e-02,2.476495022305771898e-02,5.103829828048330255e-03
1.384643801125576973e-02,1.456425477230982937e-02,8.389958429002171772e-03,8.324039262551131968e-03,5.215270747675526675e-03,7.610421236029857794e-05,3.105610260748486030e-04,4.651384444740549323e-02,6.345925310661133627e-03,5.580898503738954131e-03
2.927441779882260578e-03,1.191945697258064638e-02,7.073848299523775342e-03,4.431728790040161993e-03,5.538782593302286547e-03,2.046561586713333426e-04,4.984827940955418885e-04,2.585392380027046189e-02,1.541230599849412533e-03,6.354206783318746068e-03
2.401301877814623204e-02,2.740937107478266105e-02,4.924505101598797112e-03,1.665955552209026332e-04,5.964800460898828788e-03,3.297880845683120641e-04,6.780047207851447408e-04,9.502659211872831885e-03,1.079275416569833298e-03,6.999110893374720782e-03
3.687870498562173527e-02,5.587411285455267523e-02,4.448573379856546328e-03,5.857601393601399344e-03,6.349543830751541371e-03,4.478524924515485547e-04,8.440012669381118451e-04,4.376676825947518196e-03,9.620471462509064264e-03,7.527465604182263792e-03
4.647798184909248537e-02,7.050449262780382476e-02,4.852834968746716840e-03,1.147884624336393752e-02,6.558055122269417815e-03,5.554103369368423556e-04,9.917194951454726473e-04,1.861979465731324404e-02,2.173581887118194653e-02,8.159459844166666240e-03
5.699818784997093268e-02,5.978930252324704542e-02,3.031511692010143821e-03,1.428539528309102739e-02,6.875218221975544497e-03,6.493158841672238375e-04,1.116895931709230077e-03,2.924829271416231474e-02,3.562862526614091196e-02,8.801049978880468028e-03
5.904537964583463777e-02,3.477010683873493074e-02,3.091586977340258103e-03,1.374889312452840830e-02,7.576809942486639401e-03,7.267938720530538925e-04,1.215860790368846573e-03,2.840756894916893552e-02,4.866754444101314969e-02,9.180577504585056559e-03
4.418680922265311173e-02,8.360426983881749305e-03,1.371407711771884148e-02,1.205036013061488477e-02,8.039790266091865339e-03,7.855071141802387902e-04,1.285627056099957486e-03,1.477034502010576671e-02,5.914828974878771906e-02,9.429946085839158512e-03
1.838544605184139896e-02,1.533618296727861513e-02,2.783271953448458735e-02,1.084594602966618658e-02,7.636372048317015097e-03,8.236129328477808341e-04,1.323962309198765258e-03,2.452882461460311348e-03,6.676838975644136531e-02,9.959186715596894321e-03
5.018300866856281912e-03,3.713417509374133951e-02,4.180654761742624848e-02,9.912733834854445952e-03,7.684892268947705711e-03,8.398070879137213649e-04,1.329441602421224883e-03,1.320880206166069083e-02,7.178736703000793140e-02,1.042130499937874225e-02
1.698657701188274749e-02,5.748658783690119983e-02,4.756713849115996873e-02,8.630332470504984907e-03,9.609903045446205327e-03,8.333541807850326864e-04,1.301480176098302648e-03,1.591444148104225256e-02,7.310392309841236280e-02,9.630716307236848045e-03
1.549859363536010629e-02,6.943562828402265186e-02,3.769798538467795945e-02,7.019901701360221902e-03,1.016221195262161266e-02,8.041038491851602550e-04,1.240345295649892274e-03,1.387511488058752566e-02,6.499537956287732010e-02,7.377187097171959175e-03
4.474116567889054562e-03,5.872639552115769407e-02,1.563235769472206410e-02,5.451641569049304331e-03,3.169383784562189530e-03,7.524924199305132186e-04,1.147147010606097434e-03,8.732558239202258335e-03,3.988504180090192419e-02,5.297067856374453043e-03
6.763583168347171368e-03,2.150420498992153262e-02,4.514225400451046637e-03,4.191527283774456637e-03,1.163257718015892235e-02,6.795300451627373948e-04,1.023808152289753907e-03,7.043803164317134075e-04,7.237439201507821739e-05,4.549751578676179339e-03
9.492582867375438244e-03,2.539700757741302634e-02,1.383585859844669794e-02,2.948379868067891110e-03,2.706059208839244404e-02,5.867737035103752410e-04,8.730143957494730959e-04,9.542116935818174481e-03,3.912969291370330810e-02,3.712394875872168133e-03
5.391247227847614093e-03,6.293830790077485637e-02,1.952038001348236143e-02,5.612936299470925715e-04,3.779910007132886857e-02,4.762867927777247336e-04,6.981456962685773579e-04,2.016112754643268820e-02,6.310615043740029628e-02,6.978374572230574635e-04
3.882392304207951932e-03,8.725835525646817581e-02,3.275052752952552909e-02,4.081574766276431336e-03,4.454869051747915865e-02,3.505863665724395653e-04,5.031908605272391319e-04,2.719819213751209844e-02,7.381543775351274983e-02,4.350419096664716496e-03
6.612729489861105155e-03,9.984832828346422440e-02,5.052882345986851875e-02,1.008240727146236457e-02,4.777297736610897072e-02,2.125793658854377910e-04,2.926474199395194564e-04,2.792293861141132913e-02,8.134693935486871086e-02,9.842166594253442743e-03
4.473767634632723131e-03,9.638581108920572793e-02,5.904868567386985234e-02,1.414981891170672031e-02,4.503681763423728751e-02,6.548946082369281306e-05,7.140932810421742689e-05,2.611935756839217637e-02,8.768481870541008916e-02,1.493997701614679929e-02
6.162274052301554284e-03,7.629490214469636378e-02,5.215793841652958257e-02,1.356857607964311735e-02,3.584837649216943839e-02,8.722365885528806414e-05,1.553547103154493802e-04,2.732660146435338111e-02,8.649925567073854515e-02,1.875694256094753709e-02
1.606595373913118074e-02,5.088501445790120925e-02,3.663783624326426985e-02,9.547880501499855441e-03,2.320169647216485317e-02,2.419505283416337887e-04,3.823292605686856517e-04,2.872108861065221508e-02,7.495907921270708596e-02,1.886379650062111960e-02
1.665699157207415834e-02,3.181739934999044256e-02,2.071332734063473235e-02,6.101499797767136885e-03,1.024434211145782564e-02,3.950215442066562044e-04,6.041833612007994122e-04,2.308974106686553437e-02,5.688856221635318205e-02,1.363411643219815915e-02
1.005620741168086578e-02,1.879615317704733460e-02,6.766169820873720389e-03,5.482504274875086257e-03,5.964878716736051866e-04,5.427977752478643043e-04,8.157016630373690970e-04,1.244589923901240520e-02,3.570092932922197537e-02,5.687181148680530915e-03
2.174533279965993725e-03,5.527298618843156340e-03,4.432614832789207038e-03,6.430149590122145181e-03,6.879547169588339645e-03,6.817607108816478231e-04,1.011912283264358812e-03,6.412268840920463953e-03,1.171607690188334466e-02,1.945149430928183186e-04
4.309543555855759739e-03,8.503721728928536130e-03,1.116133678857342965e-02,6.952285726145417989e-03,8.164894091773362145e-03,8.085987456734687173e-04,1.188208278754934776e-03,7.056145201924273087e-03,1.256188806062010811e-02,5.884925110546947950e-04
7.076497658258377663e-03,1.960015798619707192e-02,1.513871700994591681e-02,6.758863720071044828e-03,7.193519418981157709e-03,9.202882878553333285e-04,1.340459788225532379e-03,6.907445201041462896e-03,3.088664919016875093e-02,1.068935014328198374e-03
2.661630988809645174e-03,2.845730420701314545e-02,2.108465172059622444e-02,6.491752963464759302e-03,6.632943071010148801e-03,1.014167520408133100e-03,1.465114066709222781e-03,2.520883827004030166e-03,4.134801993815887672e-02,2.290564068572771735e-03
8.153798959926098974e-03,3.864319755996898503e-02,2.771492976992618457e-02,6.286244828781133859e-03,6.341461835580033610e-03,1.088001031784259802e-03,1.559280992409085159e-03,8.899658797189044339e-04,5.108633869178630382e-02,2.667681171481681591e-03
1.837141302931669107e-02,4.834637064785731603e-02,2.618676848654831815e-02,5.873387822595721453e-03,5.368070789053908110e-03,1.140033764625481352e-03,1.620802135653654505e-03,6.802963513835138046e-04,6.438204078222549420e-02,3.063939739515160812e-03
2.183672460338594370e-02,5.150659891256104822e-02,1.303338394785077958e-02,5.205217740967719303e-03,4.398872724482251820e-03,1.169032999105709160e-03,1.648301790127836225e-03,4.760852261662480191e-03,6.830502253154634162e-02,3.666819577823717240e-03
1.963868734782134307e-02,4.730456200211278356e-02,2.059832379218752910e-03,4.421895995475367408e-03,4.447272985461284134e-03,1.174317386425664496e-03,1.641218505084543261e-03,8.154988482556696158e-03,4.295359118448184577e-02,4.106982412579641799e-03
1.703647526932724338e-02,4.220988939010737045e-02,7.339769516343794438e-03,3.579834853787455286e-03,4.971994525683148466e-03,1.155772369931101816e-03,1.599816346422139020e-03,1.096032969543042461e-02,1.040871362598645017e-02,4.227268601063719801e-03
1.638765538343570777e-02,4.220657585010353235e-02,2.185481113732360738e-03,2.665067275861820496e-03,4.936820026072261287e-03,1.113851667565249944e-03,1.525176281358840572e-03,1.382828466741770068e-02,6.306785733175407360e-02,4.128202716912193759e-03
