5.583823330181637802e-04,3.480541032816366481e-02,6.771168082843713595e-04,3.889514167999385402e-03,2.733506337025117146e-03,1.085750971161202616e-01,5.725144970829322555e-02,4.302041966471743806e-02,8.378572576374944403e-02,2.837956298566428337e-02
5.266193162043990164e-04,4.267711599564674718e-02,3.097667901699378487e-03,3.865744756192359983e-03,2.238443310210600379e-03,1.068519323067630283e-01,1.124331266084469157e-02,4.064263572995433643e-02,7.078549125492454575e-02,2.708136676109026281e-02
5.410143422294869716e-04,5.319018067877850919e-02,5.283255469788569747e-03,3.737784720982621767e-03,2.210100511914045223e-04,8.525674687557731335e-02,3.127612316043745788e-02,2.472421869206471376e-02,3.647974258679049370e-02,2.050187794527626520e-02
5.758995341029187354e-04,5.670923649609856121e-02,7.082306171073964908e-03,3.532199812469636029e-03,2.630778259566690473e-03,4.445659631295828529e-02,3.004304234072448232e-02,1.938046296511517982e-02,6.739644286815945490e-04,4.823796594569815244e-03
5.172483802734095413e-04,6.149008342080301837e-02,9.244006382477194805e-03,3.243678709051292779e-03,3.969444765377216390e-03,5.499443224536494992e-03,2.991053641534592925e-02,2.747156893166284239e-02,1.385502546682313915e-02,1.825265033724169511e-02
4.193080501029070300e-04,7.675684867159791869e-02,1.235819696336995857e-02,2.826972079422086174e-03,2.335940084163609567e-03,1.195624857245716419e-02,2.163995699311696899e-02,3.192524148675859874e-02,4.506437497727739522e-04,3.818950333082112014e-02
5.319162661275518610e-04,9.973820346507664136e-02,1.567320681952541483e-02,2.310851773766977191e-03,9.584119891701613041e-04,7.464565058516963239e-03,1.027088865833904879e-02,3.092609437194054553e-02,2.160052078286603741e-02,4.316161413179840645e-02
7.570932839356061704e-04,1.248071000978221851e-01,1.758644211794063716e-02,1.817993715121955529e-03,3.339333281823541385e-03,6.634860604217892102e-03,2.459906920327387114e-02,3.736909790721130997e-02,3.441402350851046482e-02,3.285213112617130921e-02
5.178663145726928371e-04,1.492573802759779300e-01,1.826015867881141536e-02,1.321524158839047520e-03,3.900283818050339323e-03,2.003746927181593654e-02,6.471309004915658247e-02,4.799536554458801868e-02,4.452979478351846987e-02,1.802182855177051138e-02
2.440411512472234485e-04,1.628332501175079328e-01,2.007516307370664499e-02,5.925519530318127271e-04,3.926395199734184979e-03,3.058514518376880681e-02,8.977831418651768813e-02,4.798823434698700624e-02,5.829078305626821110e-02,7.237699106245948887e-03
6.265852168237468151e-04,1.471379261896457735e-01,2.284395360083102400e-02,2.860443573089371588e-04,4.534392770294035091e-03,4.149958088417044638e-02,7.181528449311000428e-02,4.049641423359095355e-02,5.963167821421776899e-02,1.552956066235501543e-03
1.285143209542515756e-04,9.874896963714999143e-02,2.059185905714080306e-02,7.365680202343872444e-04,4.936264575506331929e-03,5.340972184352263397e-02,2.528456148173424678e-02,4.198051515635035924e-02,2.395368936736376811e-02,1.438217951043055821e-03
5.392127670043970209e-04,4.250312562952128503e-02,7.826487678848196433e-03,6.207621695577355452e-04,4.072486275342380134e-03,5.824379808230794459e-02,2.168148775107481274e-02,5.596075642647511256e-02,4.572435555598701462e-02,7.923803148313984454e-03
7.994707884700912341e-04,4.532614499420736451e-03,1.158667957461775345e-02,7.917350576117352691e-04,3.022013674986864188e-03,4.581270412619574406e-02,5.030825629563351331e-02,7.179205798686247308e-02,1.132480516593545178e-01,1.485761161084255336e-02
9.490284492116686033e-04,2.063658155469885389e-02,2.665623701197704365e-02,1.872508472454758634e-03,3.617976616506624575e-03,1.773068285153176285e-02,4.215938404660009992e-02,7.845577061705685806e-02,1.432764999951209317e-01,1.189965031487888632e-02
8.956864347427428118e-04,5.384343833349760494e-02,3.049555440477266788e-02,3.214026493916883557e-03,5.085172503637548115e-03,1.175851547727475681e-02,1.162917447451588919e-02,6.788061903782151296e-02,1.277740402151422983e-01,6.734965820686349266e-05
2.112576425415212919e-05,8.907245981620322273e-02,2.515961312733120195e-02,3.935194962858511170e-03,4.808264708243337703e-03,3.008120368570528502e-02,7.850987991347616046e-02,3.807602652717361619e-02,8.074495432348455237e-02,6.415209267966923666e-03
1.121603353217760909e-03,9.874752802933886575e-02,1.576084150930827724e-02,4.141666483390453110e-03,2.184073487454641239e-03,3.565865273753691944e-02,1.020273308356020037e-01,6.105107014226342568e-05,2.405702696504991717e-02,9.619813033630922328e-04
1.064269010740122616e-03,8.110282109499837577e-02,4.897747936918839425e-03,4.384664735364572109e-03,1.036191240821498702e-03,3.347671773373023241e-02,7.012198768125155190e-02,2.935273545445946097e-02,2.004239390385923608e-02,1.489854237555808536e-02
1.972293456558108773e-04,6.951110036935635728e-02,5.733530237402976321e-03,4.739057537396890521e-03,3.486068068748642348e-03,2.760923560404937582e-02,3.031980999922386996e-02,4.247554209385221574e-02,3.612599361725659514e-02,2.641953355023273983e-02
1.169967763935263194e-03,8.596959543669550896e-02,1.229256076059186652e-02,4.963675310957733379e-03,4.911661146879609495e-03,2.025349988310855970e-02,2.404028194665473739e-02,4.705683273150802065e-02,2.109923899554110027e-02,3.660978803818517452e-02
1.284804305516642001e-03,1.105089839988570993e-01,1.096778231211173807e-02,4.987905207081633034e-03,5.519671235870166580e-03,1.611477880645850042e-02,4.309592342009054000e-02,5.583532377327602575e-02,1.661685009442860281e-02,4.604902163655014147e-02
1.239930662342029295e-03,1.112130022872689777e-01,2.962257037155292556e-03,4.909513713059796003e-03,5.895905091285634329e-03,2.325478455104824926e-02,5.890358131586852924e-02,7.200221137519713377e-02,5.905716955314690292e-02,4.548691109302348962e-02
1.154860823877499601e-03,8.804250507104438572e-02,4.944843163076302443e-03,4.812797953697924187e-03,5.850665954455712067e-03,4.460532434083435555e-02,5.791518418296064813e-02,8.334575481129452568e-02,8.350838090386136781e-02,2.948729917399057349e-02
5.416922725920517720e-04,6.644311087706386565e-02,5.939046990785403282e-03,4.683199778594580170e-03,3.817741977760550839e-03,7.041694920297375537e-02,4.326627996944010929e-02,7.594538042604229156e-02,7.543703851763300383e-02,1.003539710135254240e-02
8.984460237494694965e-05,5.643318201441831911e-02,1.248156767888482233e-03,4.386982665691541161e-03,4.015488685331216690e-04,8.519966731097579349e-02,3.087087444655503554e-02,5.334609828517895141e-02,3.729002313360001847e-02,4.013319516057090725e-03
3.850824606099546073e-04,4.497472930986016332e-02,1.207937942235121076e-02,3.884814777854461720e-03,4.138438071860658408e-03,8.130263685562538756e-02,4.320775284550099071e-02,3.066767257743428787e-02,1.784910005029659297e-02,1.273320466986968200e-02
1.637976752033569938e-03,2.705414996353213905e-02,2.031113924759013131e-02,3.473809505087551222e-03,5.373324916224543786e-03,6.197850780402446719e-02,8.420702013391012652e-02,1.092585422515853812e-02,7.415383159961040638e-02,2.347890236662279057e-02
1.819265705160701780e-03,1.497838372284695553e-02,2.239385704750228301e-02,3.331278671908432989e-03,5.158097268631014511e-03,3.587384753674064536e-02,1.245273391443189326e-01,1.248763669611193880e-02,1.104719325160837817e-01,2.700713589734888773e-02
3.463070283038275873e-05,1.423300465710223769e-02,1.845040936639657375e-02,2.841045108206854009e-03,4.678811382702818822e-03,1.408935408661829251e-02,1.292677717466800269e-01,2.941005218996390128e-02,1.010815969791457186e-01,2.439999648906426843e-02
2.333857114824342688e-03,1.541887400533793057e-02,9.225875685995895206e-03,1.336234448068950378e-03,3.140562354094317624e-03,7.263626789222490769e-03,9.808401849503989300e-02,1.830116721778522401e-02,3.404747719125217342e-02,1.806381695038096480e-02
3.678233943240879003e-03,1.278297144387962291e-02,5.563207177626119243e-03,4.255330208589169359e-04,2.474852113719024365e-04,1.781524187224589606e-02,6.704157363343531129e-02,1.608514674946069645e-02,6.880627822843819741e-02,6.221957767291749417e-03
4.372591141091907579e-03,1.189477796351839228e-02,2.364098060242849492e-02,9.191561862968735102e-04,2.510002311748282897e-03,3.613032933787627132e-02,6.986319236770345553e-02,4.091896873472566920e-02,1.599043663369613122e-01,9.491586573750210309e-03
5.483284609403782373e-03,1.591845811254877924e-02,3.800030745532569781e-02,1.148904214033718120e-04,4.265874514641851932e-03,4.863712811046112111e-02,1.047450673331260795e-01,3.928769904975027566e-02,1.998627312799352296e-01,2.000007081459052871e-02
6.439293848095321848e-03,1.607525888649700280e-02,4.198869056971397951e-02,4.900068821569160621e-04,5.370028044966920593e-03,4.888732898897538842e-02,1.420021627132469766e-01,2.796473143750381057e-02,1.814030155395654487e-01,2.012218509914733694e-02
5.871168391743434960e-03,2.607237982566282773e-03,3.507356473629155008e-02,1.337579674416972553e-04,5.181662422937893982e-03,3.815280808847389821e-02,1.513526296049594322e-01,2.260050437682988023e-02,1.247081155110063150e-01,1.666738987983230544e-02
3.908832802127094018e-03,1.777365039332084312e-02,2.240044885227825827e-02,4.722953517788755777e-04,2.488706874817072767e-03,1.884577194830142771e-02,1.152062130571902820e-01,1.374095166279679786e-02,6.093003361612715080e-02,1.625714030861233339e-02
1.904838576582244683e-03,2.497556777919634000e-02,1.065856690909209627e-02,6.205521333734790538e-04,1.764209969450104701e-03,5.115595992113149137e-03,3.937939445041494652e-02,4.689316629793669269e-03,1.756177266222653383e-02,1.318214510025180267e-02
5.387030553941151529e-04,9.552819603683765023e-03,3.703759621107830143e-03,5.003450978800470794e-04,4.997863143773113165e-03,2.373202222846087020e-02,3.324895483872455232e-02,9.269376720371320932e-03,4.767679465622187002e-03,2.422777581480804569e-03
3.923601553477188103e-04,1.575001782704675557e-02,1.784927906305240879e-04,5.233455901831524960e-04,6.137356593175239024e-03,2.799053213538067394e-02,4.977576243738643380e-02,1.999166249343455048e-02,1.046221296021922383e-02,4.046464892428504843e-03
9.428941428212714131e-04,3.253956223021532007e-02,5.183327274596482431e-03,5.507158248567997410e-04,6.130741716636881229e-03,2.185438284076153190e-02,1.209894976541192255e-02,5.936850444485927691e-02,1.294728929351937272e-02,6.387332747457318168e-03
9.913714903797363892e-04,3.474669146362644595e-02,1.052570608282891833e-02,1.659622757716095083e-04,5.901123943242702133e-03,1.651641201489641858e-02,1.600912717660149531e-02,6.971679527509977436e-02,4.644021665435784513e-04,2.251139451567214442e-02
7.783802757314688646e-04,2.584336260762819248e-02,9.684288105271934496e-03,2.064285419011195003e-04,5.314169168538498793e-03,1.406844045675591758e-02,8.178043794143498649e-03,5.248602736680803987e-02,2.432122247145545452e-02,2.529778623706594939e-02
6.624757838616858897e-04,9.281909073977608407e-03,5.117337855730184210e-04,1.112089368539133372e-03,3.363960268072643985e-03,8.034486508420080747e-03,5.395043389542879264e-02,4.217205272853661452e-02,3.600306038397566022e-02,1.870281962584243590e-02
6.647338232365334471e-04,7.390607366764990332e-03,1.529358190267090731e-02,5.320101132898781213e-03,1.216863962601730633e-03,3.044099411603143693e-03,7.693424652908059658e-02,5.018104009185014175e-02,8.352667939698115579e-03,1.798033862268658134e-02
6.330963312195543721e-04,5.880377455570819784e-03,2.925828299608699418e-02,1.099490877939530813e-02,7.980773517258704652e-03,1.359353088728498804e-02,8.420212845319159645e-02,5.254520057140010802e-02,6.293611136342867896e-02,1.992568854463546910e-02
5.523387129297103668e-04,2.435534208118058860e-02,4.065913536888341590e-02,1.481089483015328272e-02,1.329675685778843562e-02,1.910266372315247776e-02,9.888853543520079170e-02,3.622187247504276425e-02,1.414730186717236549e-01,1.265643647992431217e-02
4.940008285946076135e-04,5.884222579369898648e-02,4.544592535149402646e-02,1.429729090050250659e-02,1.307402167057323573e-02,1.807871275931810170e-02,1.076571989822563830e-01,2.137306002559623969e-02,1.750825502976483816e-01,1.672978275666154712e-03
4.673620939256381839e-04,5.519992923632551646e-02,3.760870325836866007e-02,9.303788872162927284e-03,7.224236216354441506e-03,9.892731067518338237e-03,9.254477260743093625e-02,2.404618361859762674e-02,1.448006677905548101e-01,7.198019871260557569e-04
4.398205572205576190e-04,4.495389114040889388e-03,1.990679635682620144e-02,2.011687715811944291e-03,3.465406494413648345e-04,4.018115498055626310e-03,7.571709186104834399e-02,2.842249126391894337e-02,7.918087139408495900e-02,9.595216661731536048e-04
4.075079682283314813e-04,5.858246155304881742e-02,3.968074811547347806e-03,3.751943704289748688e-03,5.745272832990349493e-03,1.977916439866875958e-02,8.773991197314971735e-02,1.378419795980026855e-02,1.866655327442075241e-02,1.552344473584273653e-02
3.866426468237593511e-04,9.750125257778777255e-02,4.028644666076597151e-03,5.143811703562382702e-03,7.443888493414226211e-03,3.355151967366037935e-02,1.191642994788534998e-01,1.524970018321968393e-02,2.229696905758861425e-02,4.300888036700775685e-02
3.791971809184150775e-04,1.010824218055468987e-01,8.495757999930176468e-03,3.352543528855686170e-03,5.940853485306468902e-03,4.197511913303499792e-02,1.336924458747598132e-01,3.869116458737031222e-02,5.465181794876165788e-02,6.397986357576658512e-02
3.765216101399257746e-04,7.659187143084024429e-02,1.363961200777379090e-02,2.338578350935177630e-03,3.342438216201172076e-03,4.210018971493029172e-02,1.143990576949269478e-01,4.393941187321920988e-02,8.677259547696428155e-02,6.730512542388697450e-02
3.779305372452418463e-04,4.386990209801482771e-02,1.760624102047134501e-02,3.777674868809261042e-03,2.305401547379867886e-03,3.490708191691718754e-02,8.554845702161896492e-02,3.338593895569949566e-02,1.084423930773664724e-01,6.277386600932102767e-02
3.893102653746399852e-04,3.004842817869694468e-02,1.984982169396088195e-02,5.321209959780781248e-03,3.311989631339637679e-03,2.633725135091716241e-02,8.944770017242441307e-02,2.119375700587203953e-02,1.073472402615943261e-01,6.574463848588514570e-02
4.091546560871246849e-04,4.874680884677145415e-02,2.440186810537759918e-02,4.675788362691378833e-03,3.700955847952242406e-03,2.060173569830828569e-02,1.329594479846809285e-01,2.125218804213669863e-02,8.970379943964956748e-02,7.678447505151200780e-02
4.287873637134850292e-04,8.865393022036059667e-02,3.045435180527475763e-02,2.528884679389137302e-03,1.145450118437315191e-03,1.594434460129192863e-02,1.650232593954636673e-01,3.356176675337007448e-02,6.599537618085211943e-02,7.803378924806918249e-02
4.501528589593560580e-04,1.284583200502660560e-01,2.790772190965174968e-02,7.218527478214224486e-05,2.661506415665715070e-03,1.073590839188662098e-02,1.311150912593530282e-01,4.940463515322476157e-02,2.858437316918240739e-02,4.996039870996353549e-02
4.868502277079243368e-04,1.519644381610415484e-01,1.085302886684229133e-02,3.014786770330789810e-03,3.734113850311249205e-03,7.568587667046530743e-03,4.003377365761499190e-02,6.707433658386309505e-02,2.639921108370426109e-02,5.091543463608663202e-03
5.319008165937807401e-04,1.501405136103585725e-01,1.009470279056894765e-02,6.317945868056918171e-03,9.321920920384912847e-04,6.334191520858577923e-03,5.243172216917241918e-02,8.779286238247192842e-02,6.760577751004460956e-02,6.014183650765242417e-02
5.543784275383719035e-04,1.235757391315913944e-01,1.921853627195807893e-02,7.643095728840322220e-03,2.543804648768710833e-03,1.154031130475997435e-03,1.105517155528600165e-01,9.898237297841062932e-02,5.848394750492467986e-02,8.946446509788999468e-02
5.655758629704481580e-04,8.255331521087874713e-02,1.606956868185809018e-02,6.122250151427504304e-03,3.160553911514391284e-03,9.124766439894320055e-03,1.326186866449413637e-01,8.068486459190084281e-02,1.414310910409919374e-02,9.166589638591221556e-02
6.281659925332953257e-04,3.840165648293946549e-02,1.395612213110768510e-02,3.872272238832470681e-03,8.765024594017945241e-04,1.541398483184188047e-02,1.174728389582413574e-01,3.298807415129341447e-02,9.051821974374211349e-03,8.334478577844070535e-02
7.164556326631191154e-04,6.902054257131211637e-04,2.010726475505894562e-02,2.852634052431958674e-03,1.701173389317390226e-03,1.023775254307256535e-02,6.399279035738043853e-02,1.658232620755478032e-02,1.511193461670059732e-02,7.555336985787922122e-02
6.930658711241889300e-04,2.825190255256089522e-02,2.787761011578942030e-02,2.101662206782068699e-03,2.183624925569118639e-03,3.504088396653224843e-03,9.228724970828857191e-03,3.819536362387444817e-02,5.082287117329153253e-02,6.214699007482948206e-02
6.062536232489186853e-04,4.343524443716713368e-02,2.913030107437356367e-02,4.620816410468118075e-05,3.973706754142272311e-04,2.114161255370794121e-02,8.243059303111383018e-02,2.313516103984629771e-02,5.180305477073061937e-02,3.450476637711920314e-02
7.504785502725370159e-04,5.176371718991758242e-02,2.518082271809558847e-02,2.733725474213764828e-03,5.105047514337718827e-03,4.079345912352821263e-02,1.496015545828885962e-01,1.694230504532636544e-02,2.351599574530111383e-02,2.405977760102751689e-03
1.037245941716693782e-03,5.879177182617607855e-02,2.224847680168597769e-02,3.702589389492043272e-03,8.685472750767975203e-03,5.224183857661645475e-02,1.840548139785622150e-01,5.878774139048037473e-02,1.074832990647640873e-02,1.471397107071345869e-02
7.906800662663168548e-04,7.145893469994264724e-02,2.193722993522875461e-02,2.412538191092106210e-03,7.805525003358456532e-03,3.893190074812989676e-02,1.386736885581403844e-01,7.414163402069183506e-02,3.162944530872002780e-02,1.629535082754095601e-02
7.355599350523066293e-05,1.002946214577534745e-01,2.056294111153822088e-02,3.623326805141388954e-04,3.012499107156341172e-03,2.932408431632578701e-03,2.104508883741180655e-02,4.630977895322001270e-02,5.372716420230506940e-02,1.884043297166203973e-02
4.424844929142506900e-04,1.457196958626089112e-01,1.560683377918751884e-02,7.096556163991045094e-04,1.626722534378858371e-03,2.999172960598626980e-02,9.331641071479540583e-02,1.162447348318593546e-02,4.168601541811364775e-02,2.416807026852851176e-02
2.544480257602291283e-04,1.869501749350079844e-01,9.223408688193192317e-03,1.950140509197626149e-05,3.928206457687752340e-03,4.166853463581463718e-02,1.583147126141454808e-01,6.535004241752358223e-02,3.048540487689427661e-03,1.743131278495279810e-02
8.151085788108428315e-04,1.962825583099765681e-01,5.356179452613461442e-03,1.681977189901636815e-03,5.854836937437897688e-03,3.937786562653916578e-02,1.959071101968028472e-01,8.758195204237032017e-02,2.639980833025951101e-02,1.348835271678738151e-03
2.461927481166805874e-04,1.650479917939846330e-01,5.468233599091400915e-03,2.048464121644416169e-03,9.070868968237336821e-03,3.539660366874627234e-02,2.219326435675201548e-01,7.137761864660707722e-02,2.711875012005751998e-02,1.479400618672880793e-03
4.569706651996297648e-04,1.157436699974419003e-01,7.910838565083308169e-03,9.529024309385415161e-04,1.165675972878751562e-02,3.023072886655461117e-02,2.177769239626383968e-01,2.659962857990030155e-02,1.307494763747764702e-02,1.135320637935559665e-02
9.042159806049637001e-05,8.679115694048858409e-02,1.018571987066896160e-02,6.157007741669088055e-03,1.131289823984529472e-02,2.293495165679344805e-02,1.821190711659078365e-01,2.136618201019608101e-02,1.076082825668861487e-02,1.514753040164432130e-02
7.725139521542337753e-04,9.724702449800978754e-02,1.054289335389667695e-02,9.721175547210029327e-03,9.190790157914852099e-03,1.971379011501036074e-02,1.426494900898228613e-01,3.982114832664274823e-02,3.025359630648061238e-02,1.765952354882895960e-03
1.016125316911073223e-03,1.290005524998602271e-01,8.624604595993859424e-03,9.751811108293892069e-03,8.557351039118140518e-03,2.554140313619715497e-02,1.231689543970237860e-01,1.526402357904965527e-02,5.904744310538270757e-02,2.724880025136549450e-02
7.337898199107960404e-04,1.489387720098312995e-01,5.787073041256374402e-03,8.548002917960649191e-03,1.076611537438270684e-02,3.669193529110096469e-02,1.327892457646069613e-01,3.077509381004484013e-02,7.988272189851909622e-02,5.766346998385284139e-02
6.105001604092386664e-04,1.380960921042131972e-01,2.497558340598859863e-03,8.592083186899796346e-03,1.363524152961407936e-02,4.459820574847947472e-02,1.617053651543964299e-01,6.302575318119768566e-02,8.941832892846335312e-02,1.009047174302644123e-01
7.174329887885373203e-04,9.907086033467503439e-02,4.838088535110120214e-03,8.809701579896762197e-03,1.415872150060215606e-02,4.488971585848390566e-02,1.792754832210657068e-01,6.378070613128573874e-02,9.922412789338741490e-02,1.427445220643298596e-01
7.415538781116552680e-04,5.420773639541368732e-02,1.893871946906561243e-02,7.304328043344132659e-03,1.250817439206170986e-02,4.247164352103355994e-02,1.658574512897775521e-01,3.702618185721132105e-02,1.170422335968594463e-01,1.496959837462392140e-01
6.725382135055102319e-04,3.155226107206038355e-02,3.325015377799432625e-02,5.148818921422874083e-03,1.129304431269077987e-02,4.406932731355473615e-02,1.328629631585701854e-01,4.526491303531981342e-03,1.280699764579482924e-01,1.128304827031413604e-01
6.894746210843125936e-04,3.087607935979629070e-02,3.716130808068086183e-02,4.214434313363373853e-03,1.031118201568142524e-02,4.425705472829985498e-02,8.680278921872461306e-02,4.395498821273592649e-02,1.105749904984028587e-01,5.728247156875484331e-02
7.383991796304384967e-04,1.731975546228870649e-02,2.993097609287948685e-02,3.592030335208523228e-03,5.889481570973511756e-03,2.875002078999656929e-02,8.967244225394663953e-03,6.270402166268827793e-02,7.208490476671998437e-02,6.161917142089935566e-03
6.649988457741396125e-04,2.909784848057399634e-02,1.892018276147421074e-02,1.727466785939427455e-03,2.411948755250633864e-03,2.209229561441787212e-03,9.714649925318469270e-02,5.334429678250667689e-02,4.124408999849614454e-02,3.771373600659408409e-02
6.273576889895778920e-04,8.041652312288870286e-02,6.355281859590434373e-03,1.299205783209673440e-04,9.083688888649427834e-03,2.652112096919497994e-02,1.770104076463021592e-01,2.681124139403693457e-02,2.358225460814634966e-02,7.664345156318648489e-02
8.670306062401679547e-04,1.017007274061874911e-01,8.162484161173034353e-03,4.779502782155268864e-04,1.035111768390247454e-02,2.794788960197237132e-02,1.840445099752975877e-01,2.335513182935636256e-04,5.079949624581466677e-03,1.081160398032930958e-01
1.002304398912112413e-03,9.997174566447353250e-02,1.590183495923465015e-02,1.303369702401885755e-03,9.928852860352981730e-03,1.828669533151211155e-02,1.369218896905825822e-01,1.816737389865199018e-02,5.182151611084399520e-03,1.263890227050639692e-01
2.702769744067590142e-04,1.048286202769599385e-01,6.640943902300483308e-03,4.929684706829444950e-03,1.248540305954742684e-02,1.705174160593010690e-02,8.215238083197282104e-02,2.830587471637652577e-02,1.561861648094608514e-02,1.203765941036226000e-01
1.148985911852902367e-03,1.187570277906371263e-01,1.388819798894314235e-02,9.150535228431469492e-03,1.603869290817497295e-02,2.371503879116036717e-02,3.762015627045532662e-02,2.912692613129464619e-02,5.421698816003839988e-02,8.222558496824267094e-02
1.875149426417033194e-03,1.161990415755510958e-01,2.911514033514132210e-02,1.014878730698572443e-02,1.622873586474344806e-02,2.861181615094381472e-02,1.309928813864364230e-02,1.823515303343296867e-02,6.741572421625111056e-02,2.929581717515686301e-02
1.036582737353000574e-03,8.784863661844030669e-02,3.290961691550729762e-02,8.615893623073420451e-03,1.397928306548330314e-02,3.563996556263035465e-02,3.790996388800840777e-02,6.664262778130452657e-04,4.301692074187721954e-02,8.628931151981149295e-06
5.167814055550162301e-04,5.684183571746032060e-02,3.318708467053358563e-02,8.360079103308992732e-03,1.311972794237786268e-02,5.209145472352925965e-02,1.136340947173368754e-01,9.839588106238864734e-03,1.734223925708289205e-02,1.349824473921307916e-02
1.397743033387106350e-03,4.190903437426147377e-02,3.614305047333592202e-02,1.005285536791251759e-02,1.326563252086499639e-02,6.875866556996319823e-02,1.826696445454739914e-01,7.022999030328283543e-03,2.353533653099146999e-02,4.758343804244356823e-02
1.373468642491750859e-03,3.487855010193159633e-02,4.012891817436474440e-02,1.070315548002949424e-02,1.056922620907119886e-02,7.023184922240624517e-02,1.971675555666562996e-01,4.312230659042047727e-03,5.441929023602781051e-02,6.816781324792785257e-02
1.198226027921719125e-03,3.104255175829000180e-02,4.609580138929477572e-02,8.929824683356894777e-03,4.065737589820445780e-03,5.425800839673530079e-02,1.755352483050197643e-01,1.568367314045363697e-02,8.787842582554594717e-02,6.688211035770957880e-02
1.365375302700923190e-03,4.531429139082236712e-02,6.142253991565036625e-02,7.256008391077533627e-03,3.184107491086833348e-03,2.702942960068059619e-02,1.496927706690023840e-01,3.051719180202577472e-02,1.163293102909165738e-01,5.747827332159952118e-02
1.661566597255941273e-03,7.623609748199493275e-02,8.620759504585794042e-02,8.518949560801335544e-03,8.038720885213198816e-03,6.254017516321682194e-03,1.185423655465771414e-01,3.050689936093235743e-02,1.310202407496816879e-01,5.156204206567701481e-02
1.687806137395860559e-03,9.026726021108030795e-02,1.021183902007183064e-01,1.171400815444061799e-02,9.086936200713624859e-03,3.482072958742247343e-02,8.767147369939352897e-02,2.285515481495139015e-02,1.062755598278791180e-01,5.133672413208038160e-02
1.527023739032366736e-03,6.317382354464773364e-02,8.651882961051357568e-02,1.240403984180389087e-02,6.838693334009295771e-03,4.452945905360937429e-02,7.662265635365569927e-02,2.560031974935839116e-02,3.086300336306622982e-02,4.923858374671230553e-02
1.759590276074740221e-03,9.830837962815244455e-03,4.069968892288307327e-02,7.475382968132303525e-03,4.708540248074872051e-03,3.725273667928604565e-02,6.578617514427405333e-02,3.060977257202358512e-02,5.981211057130524783e-02,2.739975261471477852e-02
2.366373426434374965e-03,3.699462084961309405e-02,6.169833991321902605e-03,7.729649962957574902e-04,6.348092606150675284e-03,2.980508769703636013e-02,2.460752239086780313e-02,1.741817126737931279e-02,1.143078546125502193e-01,2.147944233121384938e-02
1.898594053602999402e-03,5.539908047690079995e-02,2.729465522619393958e-02,6.276842140323492768e-03,1.019410993538778093e-02,2.803496265021745981e-02,9.707156564727372275e-03,7.678562536924618369e-03,1.219599150464387022e-01,7.434375818753008458e-02
9.296646879499542411e-04,4.085788195312284321e-02,2.251760421557730263e-02,5.389213184980160866e-03,1.101149748612315765e-02,2.258411950143133368e-02,1.907696634223436660e-02,2.302097515622847021e-02,1.125406730115423304e-01,1.018175120815055928e-01
4.840900680121196752e-03,5.297935468564935260e-03,7.145995953730315681e-03,2.694610347405443449e-04,7.461723784709526491e-03,1.124502097397422906e-02,7.983917389336871173e-02,2.902388654132823792e-02,1.065354484060522383e-01,1.012472304438645082e-01
6.939451585966049246e-03,2.870394646413983522e-02,1.006521119395577604e-02,4.777731830635632664e-03,2.805811642782684787e-03,2.546164488157334933e-03,1.005016569781405911e-01,3.813497435890262494e-02,9.359721411941067382e-02,8.623530673223357701e-02
6.160367331581629267e-03,4.776856073538870984e-02,2.869668364048847189e-02,8.602149839399711104e-03,1.491652319484148333e-03,1.961205293715918927e-03,8.529065774329079586e-02,3.991128183258344647e-02,5.718702659434400648e-02,6.411322065324293051e-02
3.900443850280529978e-03,5.948404843502912154e-02,4.671619886914166186e-02,1.260535163883969197e-02,6.451711079837183470e-03,7.685305409284240094e-03,8.018375953343852280e-02,1.498928189264047903e-02,2.542567533301829698e-04,4.201678027005923549e-02
1.362231960344611765e-03,7.440722555571491204e-02,5.930771853935718624e-02,1.636450890371524830e-02,1.051362335141932565e-02,1.264120608941656822e-02,6.945608777464618022e-02,1.967759124945236623e-02,5.694434109950255452e-02,3.167983096416406019e-02
1.240331190588414524e-03,8.792235558866809408e-02,6.477441152490796827e-02,1.727152196778996077e-02,1.052770688523800048e-02,1.243255808149130483e-02,1.565276836241535907e-02,1.818150050354894187e-02,9.082435626397783457e-02,3.147385892469781871e-02
2.652554237185704347e-03,9.162610748551473783e-02,6.566937702623257267e-02,1.435018277829066928e-02,7.575983898753553027e-03,1.484780127677705515e-02,4.464518956229352603e-02,3.284520890797452963e-02,1.001318309295808895e-01,2.339079635533761192e-02
9.030663733820140041e-04,8.829269006157360045e-02,6.416635164748035747e-02,9.940072674606312969e-03,6.096009744283324532e-03,3.083291431891378373e-02,4.420946805957228637e-02,9.064455544789394581e-02,9.780594883350694768e-02,7.151882312273226188e-04
3.154053255888740730e-03,8.476033019568321447e-02,5.957810420528832085e-02,7.455742650011734987e-03,7.745745588010197885e-03,5.396123726568195778e-02,1.318064009270634648e-02,1.070973385945618167e-01,8.609541056862664299e-02,2.677508678711549087e-02
5.567373725373557687e-03,8.358677465181342525e-02,5.133452557241247050e-02,8.333316490326819412e-03,1.055354487323310712e-02,6.595112636692909702e-02,6.598149655261296986e-02,7.931782765335457230e-02,5.693029816100479701e-02,3.753962886014006184e-02
4.125224393511418147e-03,8.975562212430894526e-02,4.212476988943048006e-02,1.074884045567894506e-02,1.283415585104145419e-02,6.182529901891989366e-02,7.681740822237502486e-02,3.751177554014582111e-02,1.977390175627295049e-02,2.736953652913584611e-02
9.749551592779940115e-04,1.131927672844794813e-01,3.823491283385477973e-02,1.189887449190118671e-02,1.425537608746764960e-02,5.418613018873797565e-02,5.268738203047547419e-02,4.261443447202626668e-03,5.301894299145941229e-03,9.746824768131065117e-05
7.374928483043262720e-04,1.546987286949333129e-01,4.829433137592988035e-02,1.222746978780218235e-02,1.420988213932278255e-02,5.043327418564928777e-02,8.911361849203297547e-03,1.664034617595510843e-02,3.108041830948910650e-02,3.008047093750881515e-02
4.147090449362374870e-04,1.912922205408124354e-01,7.383853493498469811e-02,1.449123318407990330e-02,1.153548442957247691e-02,3.981131158458143388e-02,4.934816688405971319e-02,2.482987417151194878e-02,7.445514684863341337e-02,4.066977562691179160e-02
7.384781569809205446e-04,1.818943922852860329e-01,9.326278080037467277e-02,1.696967536134432603e-02,5.512552234230090609e-03,1.108414429940232301e-02,1.115115257048464453e-01,1.801091024873787555e-02,8.945701785867568590e-02,2.746362785639219067e-02
1.815332889394372182e-03,1.021640585332358464e-01,7.027468949991175218e-02,1.307514539434536695e-02,2.706318523004584177e-03,2.546075705362686389e-02,1.497878649626565306e-01,1.190964996300369547e-04,5.173252193631993484e-02,8.385373906315003734e-03
2.505311694560558890e-03,1.586212125428637307e-02,2.996035766820266764e-03,1.401032389716498194e-03,9.281067586595415086e-03,4.585974147222142416e-02,1.459225420537753892e-01,1.842093774688160698e-02,1.885508608129506797e-02,8.443215093716508954e-03
2.592128596475781060e-03,9.891332469187129328e-02,8.525817187167876454e-02,1.009999948329623823e-02,1.049903609803383951e-02,4.135887660546266886e-02,1.247709132598611714e-01,2.792594394339608863e-02,8.075071904706034032e-02,3.176755059099765910e-02
1.966135375201483963e-03,1.096167584316591892e-01,1.273831663332133934e-01,1.413967139005931593e-02,7.336733587084639380e-03,2.752874085579943772e-02,1.247831930579001297e-01,2.220647866149570715e-02,1.017530570759568043e-01,5.389946269190589584e-02
7.563815714184982195e-04,8.665086475241640107e-02,1.195583548607434266e-01,1.179943025148892308e-02,4.450819660659731739e-03,2.118575853602409562e-02,1.358807220429502360e-01,2.507021159437745027e-03,6.669536245357222948e-02,5.273426946211016986e-02
7.068057814006362734e-04,8.394053293741528254e-02,8.486375780579706596e-02,7.258674664232252216e-03,3.833154176249597457e-03,2.000229294128388208e-02,1.145501542077272394e-01,1.822290724414324728e-02,1.305486055007708951e-02,3.468096039370498207e-02
1.931071846971178872e-03,1.015269158133053767e-01,4.848165800866756359e-02,2.375928364151267541e-03,2.785435967940522606e-03,1.268748696592813738e-02,5.903886268238237034e-02,2.698550796712886543e-02,8.219893340781180002e-02,2.926530073755368583e-02
2.504762994649313654e-03,1.079090228051637901e-01,2.823757557254841927e-02,6.905089704432564035e-04,6.517606560170114728e-04,8.908569984127324634e-04,1.147348855482005318e-02,2.736729050719927808e-02,7.209053067489382127e-02,3.771393129390034071e-02
2.500574129958210191e-03,9.834453780854159055e-02,3.647132483775299833e-02,1.515338497944295143e-03,3.943999281467189082e-03,1.199520702583052600e-02,1.690610716581369272e-02,3.240635937262707073e-02,2.534347986581018258e-02,3.402623572557340187e-02
2.375549452654003059e-03,9.538381749832082479e-02,7.357254748399874589e-02,9.455995006619000512e-03,3.826526291324894996e-03,1.966182593009265650e-02,6.186259703685388633e-02,4.345624505543582011e-02,1.452270286721592807e-01,1.353946219548174575e-02
2.384751310296649544e-03,1.112035133106037826e-01,1.251322394572713381e-01,2.012248322959839589e-02,5.603277499013262610e-04,3.083966465414762076e-02,1.377839970792867630e-01,4.865806002854714679e-02,2.272184487485574556e-01,5.057129040435099331e-03
2.420516323803275586e-03,1.338348776609055157e-01,1.733210071346712178e-01,3.134877531289371327e-02,3.674690854868870125e-03,4.432183633599013489e-02,2.065630965209609426e-01,4.201336389035945085e-02,2.686905061349921797e-01,1.545290959313345112e-02
2.415784885424536454e-03,1.402640238559036967e-01,2.061791820719453550e-01,4.181221147985430403e-02,7.374069930755552081e-03,4.796766829216069644e-02,2.341295533130479667e-01,3.457500088321626558e-02,2.869682355285957387e-01,2.323278912156922366e-02
2.470232280511834837e-03,1.109555055807869423e-01,2.140040841672657679e-01,4.753366824804913099e-02,9.087191648418896373e-03,3.572631989709142142e-02,2.394401575137364846e-01,4.182991108313000028e-02,2.734159203701716501e-01,2.736426077812879540e-02
2.530814635617017073e-03,3.891780126257526895e-02,1.904306994050611324e-01,4.437633971423931428e-02,7.755678906606442921e-03,1.667962822640706860e-02,2.545466188451347422e-01,6.236720851013356076e-02,2.146494208361392764e-01,2.961569945552480071e-02
2.428185777120111556e-03,5.931938970283090473e-02,1.437335280985439501e-01,3.388530666700480254e-02,4.754362824706028987e-03,1.869177394426668488e-03,2.530874606389136305e-01,7.777109521317596141e-02,1.288489974341232025e-01,4.136185992729370098e-02
2.362370498452451544e-03,1.348605087897981059e-01,9.376602687470413089e-02,2.165993133816857680e-02,2.434197398597014693e-03,9.035220597436336570e-03,1.641952495472041307e-01,7.733276641140220120e-02,5.138128013644972791e-02,6.472727139798557794e-02
2.691098005052810441e-03,1.314131296518441794e-01,5.324759583814386854e-02,1.114198096270362440e-02,1.024745675511288482e-03,2.204316687474633038e-02,3.241089291601564198e-02,6.864787318265058724e-02,3.109967044270679076e-03,8.579110684990493008e-02
2.928257130057039439e-03,4.561490348632511738e-02,2.425975333771591275e-02,3.251707334286346382e-03,8.362319332318597339e-05,3.677651987945276812e-02,2.622286016855732704e-01,5.450419013384100175e-02,1.041309104376779079e-02,9.181155181902787843e-02
1.976726523226116777e-03,5.680694159592165893e-02,1.086506742509931421e-02,6.711910655749619287e-04,1.423780415284462341e-04,4.634997473786654776e-02,4.203989480374725196e-01,2.203707466680325522e-02,7.959780306500120056e-03,7.907158810050898823e-02
3.884221135554500931e-06,1.123372689494857718e-01,1.777870663512440275e-02,2.204293234110382520e-04,9.182394920666535386e-04,4.645004853773355286e-02,4.580342545604119131e-01,2.767964077960927138e-02,3.874202554937826448e-02,4.668466525537743467e-02
1.229512299693771198e-03,1.230220612205933789e-01,3.584855483888036570e-02,2.208554154031763632e-03,1.557104637727547546e-03,4.163917822809082292e-02,4.083975556698367648e-01,6.539322949078986424e-02,5.128167030920153385e-02,2.134414151274570404e-03
7.672446402764720747e-04,1.263823426806423289e-01,4.442644221461844456e-02,4.100867051566180373e-03,2.115620257267819809e-03,4.361218060758677295e-02,3.489074280822279661e-01,7.018534891542835275e-02,3.316348504073517167e-02,2.840346985766683055e-02
2.684873542126356557e-04,1.361010880058375894e-01,3.373594667369775313e-02,5.041533658243732910e-03,4.970447626469491967e-03,6.094927614313858100e-02,3.298312970786810294e-01,5.636994324291966924e-02,6.000273869739964488e-03,1.881101477084803214e-02
5.038445207892060674e-04,1.410881971998542705e-01,1.712423841165170574e-02,5.075979400729651279e-03,9.380848016173181508e-03,8.662660151805016973e-02,3.333484471777819480e-01,4.711651475103857678e-02,5.762570049468934003e-03,1.947082302390994168e-02
1.896357193316975428e-04,1.384269848212743292e-01,1.476286846926677838e-02,3.896347702319556770e-03,1.111997151963510858e-02,9.966139009554048078e-02,3.163531784769882949e-01,4.440279975542329310e-02,4.741435149198087312e-02,4.026072554334178544e-02
1.532349870170556395e-03,1.373573610765132513e-01,2.798883756772975809e-02,2.379991992558522056e-03,9.004660260549364470e-03,8.670729048324438137e-02,2.768155941927077923e-01,3.953746159057072024e-02,1.056340611588922340e-01,1.847218599062088948e-02
3.541962467669956642e-03,1.369920343077042635e-01,3.882657441341115512e-02,2.566480407596112567e-03,7.227068612877804617e-03,5.957717309886808449e-02,2.405807212043107324e-01,3.323859551313469718e-02,1.345321820443418914e-01,1.708306419825159073e-02
5.881665155964110880e-03,1.228912595155907533e-01,3.572666344032309621e-02,5.330959986764968912e-03,9.524653824386535711e-03,4.262411238937286601e-02,2.016729295035485370e-01,3.079133992172308765e-02,1.127554103121686108e-01,2.717858369556548637e-02
7.627345986290959279e-03,9.059109496456124733e-02,2.629049511552971827e-02,8.777679876816187401e-03,1.445869838498577316e-02,4.377034876454796719e-02,1.271939198820252748e-01,3.036198570857689613e-02,5.923051482451609923e-02,1.683835817871270554e-02
7.899698317873632067e-03,5.507611914004213044e-02,2.018545636669169530e-02,9.683642964114429902e-03,1.773415305229898709e-02,4.826497823844501378e-02,1.844532385904847083e-02,2.668901604197316743e-02,6.332321473341432153e-05,1.877387057016170063e-02
6.278227886603243886e-03,3.051110742534658346e-02,1.566241154317139089e-02,7.027023049622437532e-03,1.678380867338379739e-02,4.233635472803518041e-02,7.335706703392697037e-02,1.913449478186824912e-02,5.680740260800769270e-02,4.051894920265673716e-02
3.130408699033284704e-03,1.623992298258998546e-02,9.435644425911130992e-03,2.923378378667134889e-03,1.198266688044330279e-02,3.023314993209474597e-02,1.021065490542684279e-01,1.241289213047090841e-02,1.019342727370886326e-01,6.040480969071942985e-02
1.579993285054565369e-04,3.546281606606605311e-03,3.569683340726703073e-03,9.329971017470396928e-04,5.026775728256177404e-03,2.150548270602734707e-02,7.870534062359767213e-02,1.244741295706535029e-02,1.106230488930064898e-01,6.686768974893796125e-02
2.087468201905567228e-03,1.861716007971310829e-02,4.008290567525061958e-03,5.561828235194433805e-03,2.473116509187349432e-03,1.382813184422751820e-02,5.729142373645136621e-02,1.677568606690429953e-02,7.686443740859984219e-02,7.080030145878345171e-02
2.420141261605382975e-03,5.646361150386604300e-02,1.970620434755792835e-02,1.147682134902567805e-02,9.174172415254788424e-03,2.284556026547791829e-04,7.605161814153918454e-02,9.163081117860089747e-03,3.635101106125397663e-02,7.807936371795345942e-02
2.108757149950407292e-03,9.501327612123525168e-02,3.817077723067190120e-02,1.561102757980892437e-02,1.371891108286264760e-02,1.778423576092685171e-02,1.220744442135757446e-01,2.186507550419411819e-02,2.136811571848205860e-02,7.689837142310876339e-02
1.979645956372584354e-03,1.036468099572994822e-01,4.231948843922074543e-02,1.460709636358692616e-02,1.500019604235928485e-02,2.889310427695824038e-02,1.528864811787982170e-01,5.790869021549446133e-02,1.281072177774605567e-02,6.100077731456006458e-02
2.027781118085908441e-03,7.497914421426141174e-02,2.830647648975894576e-02,9.784673786417723285e-03,1.311795592209755688e-02,2.981769046598033157e-02,1.404048825131707368e-01,6.337603267669865426e-02,2.615462040500390536e-02,4.192573620872152435e-02
1.917824800990987778e-03,4.129934225867627762e-02,1.491561511912854569e-02,5.457181990589293936e-03,9.565205757421946578e-03,2.424078369193582300e-02,9.439309898331271764e-02,2.769170575127865089e-02,8.607056585456127062e-02,2.778580961242212502e-02
1.688663814221154445e-03,2.961571662604394958e-02,1.730724626752894180e-02,2.945578378145792368e-03,5.688230125653528230e-03,1.715349113317246946e-02,5.571649610689492771e-02,2.166372782048103102e-02,1.202103520458580876e-01,1.337054287497324925e-02
1.683750383439786133e-03,1.667151303425259967e-02,2.618396703604914527e-02,2.460190761204751478e-04,1.408165883323795470e-03,1.320038445168047504e-02,5.979313717059626249e-02,5.043588992900364942e-02,1.086532070071051237e-01,2.494024073958872947e-03
1.837343919682588511e-03,3.651823138779029809e-02,2.616984353394384913e-02,5.103384601292090643e-03,3.481177525253146762e-03,1.404851151304706974e-02,9.201880027955852692e-02,4.745128566910945117e-02,7.608415428127728031e-02,1.535534652649543294e-02
1.540428158371716068e-03,1.129493197756019501e-01,2.221942021541701076e-02,8.091396482322769229e-03,7.149966409227529254e-03,1.588516252317152821e-02,1.007954623006963452e-01,2.264473919960292153e-02,4.475871437584730966e-02,2.738408072490246953e-02
6.693846035716993206e-04,1.454447212481696505e-01,3.130460563211007879e-02,4.929527498681935543e-03,6.701814088882443454e-03,1.663261285150593669e-02,7.280538107364488420e-02,1.121083853472927203e-02,6.031037003803544662e-03,3.483499677591821164e-02
1.179176929401004983e-04,1.001267134903991302e-01,5.398386276905090680e-02,3.849168065775775919e-03,1.828787068772024221e-03,2.054781435858319197e-02,5.532363484153886291e-02,4.659107395209643315e-02,4.712664633772424561e-02,2.208058161410778736e-02
5.267403174604367785e-04,1.563318195641307667e-02,7.134210716465647084e-02,1.284612500712827877e-02,4.408180135204735686e-03,2.788094985143684673e-02,8.230573427404944131e-02,7.139685822032232343e-02,9.236036139766899689e-02,5.335478847350613556e-03
1.244933957567620183e-03,4.996726018734192615e-02,7.153998119280496892e-02,1.770930104312499684e-02,9.256216388520928373e-03,3.018489302665137292e-02,1.275283264368586578e-01,6.211808861562195805e-02,1.067285004922309127e-01,1.402834913103252930e-02
1.400541198447802617e-03,7.469380409916485941e-02,6.387474067421054780e-02,1.895092450778504412e-02,1.240130741944735389e-02,2.335460535041824354e-02,1.483093432868184125e-01,5.450493971957795329e-03,9.641615965935526611e-02,8.662554726621437759e-03
1.128217234183367295e-03,6.707581222040846780e-02,6.058426211939402228e-02,1.854073000035464866e-02,1.372748280895749046e-02,1.419511037978488099e-02,1.307796624021360654e-01,7.291434690758617776e-02,7.711067557332274003e-02,3.860121392049063044e-02
9.962208331897514854e-04,4.563065881826388476e-02,6.069397576081321521e-02,1.651805038904247472e-02,1.248475745565156593e-02,1.030286875856645072e-02,8.827876475100557285e-02,1.215642185533016284e-01,5.516394127460336888e-02,5.712982514544027307e-02
1.056550449613670147e-03,3.598654402162505817e-02,6.224506466355357592e-02,1.388668493682256207e-02,9.960224787132078428e-03,1.322031018095091992e-02,5.006118977370366263e-02,1.104838881426902369e-01,4.574529933286837491e-02,6.557632293591367234e-02
1.055615324090487502e-03,5.309585193920320079e-02,7.340141500181367185e-02,1.390271239499476195e-02,8.771463539873200141e-03,1.997532383527094932e-02,3.938766445227013385e-02,5.397611146840168572e-02,7.231487302002070905e-02,5.983205964977574010e-02
9.843769875006545128e-04,7.801554155191098294e-02,9.487864472279378125e-02,1.620350325916017353e-02,7.926607791540930467e-03,2.350675883616280826e-02,3.776857415674450547e-02,7.637053719804970386e-03,1.258024293354653433e-01,3.631101664292593623e-02
9.774375272680610807e-04,7.947415874303719041e-02,1.062326799081253770e-01,1.460725259526818309e-02,3.058610903641629641e-03,1.723463858922881162e-02,5.813038145004254670e-04,3.880478140729601982e-02,1.590435726028400776e-01,1.688365404875276365e-02
9.912252001146161593e-04,5.708947082565754561e-02,9.061861299004274339e-02,5.607111141019392904e-03,6.759178660675878823e-03,4.373550340697333547e-03,7.009104178400804575e-02,3.207284520551282464e-02,1.465069407945470414e-01,2.799971615806355965e-02
9.220639567651520065e-04,4.113823249381279301e-02,6.249568709106183284e-02,5.123273514665094633e-03,1.643217711439352510e-02,4.426599858885238784e-03,1.131742862477077838e-01,1.138190640550919980e-02,1.207486561787346202e-01,6.178364221256613803e-02
8.909577339597103381e-04,5.358750504299467088e-02,4.934550554028846459e-02,9.614411692903749793e-03,2.068142785465048802e-02,3.707598322842715986e-03,9.446816298024718339e-02,5.829399529047912983e-03,1.249564492443135943e-01,8.694792353825293862e-02
1.035425971555131892e-03,8.411634430170263077e-02,5.514418744708082798e-02,7.735836137924057866e-03,1.965750869466488179e-02,3.779751470943976989e-03,5.348001209175730353e-02,1.851349206561291733e-02,1.550288417390770224e-01,8.877636237306317513e-02
1.089770309614430987e-03,1.060653604711899456e-01,6.339157064422668020e-02,5.408030069843807255e-03,1.705764053740121272e-02,1.394819539515736867e-02,3.619757486827471227e-02,3.069208042121453900e-02,1.784496037506068944e-01,7.386017588809640211e-02
7.520440620357798315e-04,1.114461610690738874e-01,6.771948878308738096e-02,4.995642831825801607e-03,1.412835437514613213e-02,2.482344971392962812e-02,3.053590556954488555e-02,3.309058163385972945e-02,1.922335368746235229e-01,4.442862747763206416e-02
3.574506543985355106e-04,1.186361743150686349e-01,7.727216723830668266e-02,2.948136227428530941e-03,8.258079033007173150e-03,3.641679190323909160e-02,3.429377349287495574e-04,3.491765976780658587e-02,2.236168483195888623e-01,5.245623046106050874e-03
1.581126080773769644e-04,1.374999285041398067e-01,9.616372713996640398e-02,3.567374862341343190e-03,1.693944961437838809e-03,4.934714691007666826e-02,5.571753517434323982e-02,4.051118958091201594e-02,2.729139746641703335e-01,6.558423756571002405e-02
8.021080017551032769e-04,1.462246218348937643e-01,1.160928336977247871e-01,1.233914057858302368e-02,1.179746398731256266e-02,6.079026083091639693e-02,9.882811486530458656e-02,3.798186892485128086e-02,2.930823153738102982e-01,1.073820524143333649e-01
3.382088417773045867e-03,1.232627778802160706e-01,1.270876261708921706e-01,1.896548614936124227e-02,1.742598360925120757e-02,6.585809606346557099e-02,1.088460429543745278e-01,1.871941851233476992e-02,2.440249284979909838e-01,1.112186300697679264e-01
6.163802775118801085e-03,8.208948306751238932e-02,1.225893188093975239e-01,2.082339636697107949e-02,1.859955468719828864e-02,6.528157093305757275e-02,1.042703235868551598e-01,8.409441972910013108e-03,1.423344647562807541e-01,8.844807715163401085e-02
6.614955815306380188e-03,4.836398411352792887e-02,9.963774700617537838e-02,1.788803294404242572e-02,1.799402656735973535e-02,6.254387493807489484e-02,1.028495353169869009e-01,2.929904878648943375e-02,4.011212485088450075e-02,6.460770654374242694e-02
4.295032170970315005e-03,2.564359929070022387e-02,6.692921040424000545e-02,1.265281610725834012e-02,1.654985138613120424e-02,5.397633441147258598e-02,8.747084007073728518e-02,3.605440794502126622e-02,2.324498840680163866e-02,5.396663116279228761e-02
1.238780009025149207e-03,1.195300975102824362e-02,4.563705038312177581e-02,9.608160158804061185e-03,1.445796310355092727e-02,3.609198743660103209e-02,4.918547264595969637e-02,2.118682745695022254e-02,3.536170268311999293e-02,5.805883702384596196e-02
5.903597345560694437e-04,2.099008375631070122e-02,4.984247029772062576e-02,1.196585914751260513e-02,1.359971171079041308e-02,2.028408674579519969e-02,3.368938810558761571e-02,2.122580287717119180e-02,2.938448298664714242e-03,7.711147524186820479e-02
9.759606830014649556e-04,5.464609881961313143e-02,7.237813998528251636e-02,1.865254198353187218e-02,1.551514452549709530e-02,2.350199659994876844e-02,8.716842383766090774e-02,7.779765537232889716e-02,5.505749764522732681e-02,1.119859962763366523e-01
7.970675672066000923e-04,8.403486158076041435e-02,9.776340857183253574e-02,2.635340994754705596e-02,1.898554401020329310e-02,4.576702565224453900e-02,1.800324624482251834e-01,1.149647666625869674e-01,1.224524428268817799e-01,1.552860865677500035e-01
7.056089224911198804e-04,8.874610453678433153e-02,1.197244020691349692e-01,3.312099744964366183e-02,2.182166302995090096e-02,6.960837119130819373e-02,2.438664931659305091e-01,1.113185524810113153e-01,1.959157248182514521e-01,1.847762168673511840e-01
7.262125124700188460e-04,8.855718791144359670e-02,1.377311509854090010e-01,3.785045689083488957e-02,2.333896400348082698e-02,7.981803573606027769e-02,2.590585034541890153e-01,8.173382621631779255e-02,2.616888761449875367e-01,1.770038755192215596e-01
6.988438289593758507e-04,1.086756037196806024e-01,1.453137446379069997e-01,3.842180910843642078e-02,2.369831056306027917e-02,7.483562932327031403e-02,2.483618720660870083e-01,5.554924900725577430e-02,2.751016450037350736e-01,1.347298472680621972e-01
6.283376884293487633e-04,1.365559631872653445e-01,1.345795498753872832e-01,3.361984070592539953e-02,2.220242212414933608e-02,6.097990511527794089e-02,2.156404124860356597e-01,4.020849729822496832e-02,2.007447070071798068e-01,8.796129119094658888e-02
5.806936269074840055e-04,1.449785272045255036e-01,1.124117971591900439e-01,2.637124521104616121e-02,1.837249471909926934e-02,4.566828695071790262e-02,1.586545059822512815e-01,2.485246897861493817e-02,7.241815949437341304e-02,6.060448923765632268e-02
5.358325525214314685e-04,1.444849485369506803e-01,1.000988457486415989e-01,2.235352351388734948e-02,1.468823556904113453e-02,3.819079558517276402e-02,1.174369298663440753e-01,1.261313659589272454e-02,2.444006014390513737e-02,5.063829425029918452e-02
4.718978087670220884e-04,1.698831258815593770e-01,1.050775530063069035e-01,2.360691772755851500e-02,1.495154340955924359e-02,4.549344469650325878e-02,1.378348997578159596e-01,2.262848516823686568e-02,4.615091599708101566e-02,4.689665992626024238e-02
4.399240137465303471e-04,2.076232187854517852e-01,9.713841443105754314e-02,2.426515130392329495e-02,1.807657559544907991e-02,5.980852172914146586e-02,1.958236164083328457e-01,5.563310385041030093e-02,4.683743525259309592e-02,4.790038558092531151e-02
4.361310809393463463e-04,1.861004726624971573e-01,3.090982901347577236e-02,1.545473500702219082e-02,1.714696478311825839e-02,5.986059228911329994e-02,2.146160541711388536e-01,8.015605960798259655e-02,1.184347224370900231e-01,5.385205737131772835e-02
3.504047290702067279e-04,6.848116827188384381e-02,1.020644690808785171e-01,4.973578074369726723e-03,7.402137868114909425e-03,3.196767648320656546e-02,1.528957811599956085e-01,6.257825470841035798e-02,2.797347254394347837e-01,5.069469346042858315e-02
2.156199066572828712e-04,8.850222008726960077e-02,2.573695412783534864e-01,3.017506100435948801e-02,8.046065204825179201e-03,1.636190287352604772e-02,3.899995392305500436e-02,6.417072843627061665e-05,4.531435961253337807e-01,2.140346408943596263e-02
2.746781459091801798e-04,2.078944453353373523e-01,3.774955374624106019e-01,5.157758077287050158e-02,2.245459697987115671e-02,6.539635948277709721e-02,7.134765978044706192e-02,7.775405103891512570e-02,5.569440124539467574e-01,2.527040745666181074e-02
4.632837980033813001e-04,2.860264031452601219e-01,4.348742850251867131e-01,6.532472150806518940e-02,3.213236482944883954e-02,9.825407227394668264e-02,1.406032448340223395e-01,1.285429809386777755e-01,5.883320647227995304e-01,5.957322575814802401e-02
2.192643999688238419e-04,3.666719922251334141e-01,4.347663050733875378e-01,7.149060248201935530e-02,3.736713383538639577e-02,1.103525414016799239e-01,1.633847798251815697e-01,1.270241021643310764e-01,5.955127349318066754e-01,7.172698746056788144e-02
5.813784700548863069e-04,4.508860919860190886e-01,3.911626745890561252e-01,7.005514610456367586e-02,3.957475159135506737e-02,1.124182602985017154e-01,1.596519229574877297e-01,8.412959070536983608e-02,5.926154078127831015e-01,8.396024517849809410e-02
1.068959163309196429e-03,4.898009560504993365e-01,3.141219251789523770e-01,6.085526214953999175e-02,3.980290701150613480e-02,1.197601242663825505e-01,1.530278462286214780e-01,4.074622007274004976e-02,5.431176992616564281e-01,1.120324164785463927e-01
6.046650633757484411e-04,4.627365995998014014e-01,2.241844688069623837e-01,4.821074263794351139e-02,3.935065906875909181e-02,1.347382257383868687e-01,1.532700499871766930e-01,3.699115283585839575e-02,4.337117368038814202e-01,1.412418388279180759e-01
1.739581643153816038e-04,4.068669615481292356e-01,1.610441460946461234e-01,4.067689418065692508e-02,3.938113129183223871e-02,1.466595068582420835e-01,1.653261929666901553e-01,7.967530866832331360e-02,3.203802476220231066e-01,1.546450327191184471e-01
3.976265242120294069e-04,3.565481180392363614e-01,1.504818803345561729e-01,4.136441783881607270e-02,3.881377079247291806e-02,1.469850573277687034e-01,2.003595124800717775e-01,1.337706317689699442e-01,2.659746022930110643e-01,1.605815668604237967e-01
1.880198217003157439e-04,3.017692205769890723e-01,1.679303786436849577e-01,4.306050439350306985e-02,3.541390343653184197e-02,1.355669976998762905e-01,2.614139751553136715e-01,1.538406184784698871e-01,2.581475423281467396e-01,1.748957988720604428e-01
1.062504342654524360e-04,2.238937600207546730e-01,1.660375047962455164e-01,3.894906325830643085e-02,3.066208981766149755e-02,1.176421228346592879e-01,3.349588111995456252e-01,1.327572388585326890e-01,2.281087914837965913e-01,1.954838275107346757e-01
2.226026820727472347e-04,1.326344131403925097e-01,1.380003108253736177e-01,3.310067901869241658e-02,2.938665692984921557e-02,1.029183514239688374e-01,4.088466052537941264e-01,1.076961122104968249e-01,1.473544286459450570e-01,2.103142228670964731e-01
2.978424903189189153e-04,5.671212341562725107e-02,1.236172821368364261e-01,3.398728086453645103e-02,3.266459874864385132e-02,1.000624325691123889e-01,4.780677980724933329e-01,1.084645284523227948e-01,7.952054427439445017e-02,2.156490801748496000e-01
2.869871728381648908e-04,2.707757086432978355e-02,1.497272722115238763e-01,4.229023470732638096e-02,3.618823633661243100e-02,1.072906948267214750e-01,5.271144519501937964e-01,1.192161245623380716e-01,1.118240503705740518e-01,2.160495505528647886e-01
2.923747758077373639e-04,6.042196722188505204e-02,1.890938858764107389e-01,5.006466428816207931e-02,3.639996298904222410e-02,1.149692175742146882e-01,5.280393562789529316e-01,1.082007233845362626e-01,2.335605493538908117e-01,2.151156630943345527e-01
3.439775559614286719e-04,1.288511197233591921e-01,1.889673501648526932e-01,4.876050955115594082e-02,3.267367531519110163e-02,1.158989203493992898e-01,4.621498850057219054e-01,7.653821123348113209e-02,3.272029305412436639e-01,2.081372178587269361e-01
4.085245714041596185e-04,1.677734064137587910e-01,1.354505859567538828e-01,3.734951007187235078e-02,2.499777133593458073e-02,1.068862690473596361e-01,3.423842531084484997e-01,5.355106834604400623e-02,3.097171407787743247e-01,1.844609457697944932e-01
4.526051953529347505e-04,1.451704211536442302e-01,7.910299789356939337e-02,2.529087137477079722e-02,1.525093017952908019e-02,8.642659436857919042e-02,2.201642064199617610e-01,5.360154736685693311e-02,2.298157565548068770e-01,1.452062690675476886e-01
4.570761552766757939e-04,9.734701891417416042e-02,7.988747114928196336e-02,2.392595468144600654e-02,7.803390292884416699e-03,5.790522064783176076e-02,1.540080884967038322e-01,6.126101097162123255e-02,1.780488005233405169e-01,1.113475366914391113e-01
4.734154648531633202e-04,7.330599937677756417e-02,1.304997984008489931e-01,3.218496905771012911e-02,4.602266522209401411e-03,3.028136591343520007e-02,1.509173379867721765e-01,5.833184670458951143e-02,1.567944377904575137e-01,9.978071377635089334e-02
5.818761448895494112e-04,7.452236986945154351e-02,1.643765604304979477e-01,3.697443478380474380e-02,3.188135893820953377e-03,1.099956518678674167e-02,1.552708400982186765e-01,4.567262055176135593e-02,1.014616556255768243e-01,9.957469878140741415e-02
6.805250312998483136e-04,6.722495531233005361e-02,1.386721934290607305e-01,2.979148197144829494e-02,1.065580435584074885e-03,6.286903803982384076e-04,1.111907540362237767e-01,3.204503355323619351e-02,1.328013849930387291e-02,8.560390252168649516e-02
5.736868606457104156e-04,2.601934684885163704e-02,7.204854543208152884e-02,1.521090119328803725e-02,2.108231871847305195e-03,5.832812784060878442e-03,1.561649335858624615e-02,1.561008709395951544e-02,1.519526267574942691e-01,4.835694087811555353e-02
4.695257136710791982e-04,4.817684443006470252e-02,1.163876397647478633e-03,1.160203761005613836e-03,6.434869190731712721e-03,1.587807315024832369e-02,9.616423163059055479e-02,1.278205328071466487e-02,2.781759446887951959e-01,3.136841382875687340e-04
8.120385333503348782e-04,1.338537426793598994e-01,6.007329459026548163e-02,1.092915614411115940e-02,1.195319728098937634e-02,3.469302741837113763e-02,1.879294808799768512e-01,5.489177649942891118e-02,3.855793902027255249e-01,4.098342137176933658e-02
1.146368961238383201e-03,2.027373318206407704e-01,1.126228711175033675e-01,2.330740541314529207e-02,1.739393180164407540e-02,5.828421502427648393e-02,2.381646389338016867e-01,1.014753593405526705e-01,4.778111536801963322e-01,6.875578191052170163e-02
1.783793001724799925e-04,2.385842482277376331e-01,1.551353511879830782e-01,3.562912569851434119e-02,2.113513807415554752e-02,7.509542113875447567e-02,2.457624708508330258e-01,1.374210868958495035e-01,5.528535856699398066e-01,8.737902204996060573e-02
2.026619874104755928e-03,2.491491769597638795e-01,1.866580097700499541e-01,4.562009267333502066e-02,2.331022177507559995e-02,7.983108454637703744e-02,2.309214822327583239e-01,1.478809156865593943e-01,6.127383847137299888e-01,1.011167643407661909e-01
3.249405041752798182e-03,2.559778479057372436e-01,2.128854322155442902e-01,5.327540817445564764e-02,2.630823406529548408e-02,8.172707620598612666e-02,2.212416437204567654e-01,1.311111133348042135e-01,6.676290446455249716e-01,1.092979021659391675e-01
2.007105341687962126e-03,2.711709067211837132e-01,2.389234971829263532e-01,6.051197039693161084e-02,3.226638572779388925e-02,9.358842162956312882e-02,2.359968513429013814e-01,1.065129269517863797e-01,7.091561417808216472e-01,1.145840441198365117e-01
2.185622347466872027e-04,2.888786658066452850e-01,2.575473887303498799e-01,6.656738808818632447e-02,3.939393066825339074e-02,1.155566887321383684e-01,2.763159243422488309e-01,9.476704188215841207e-02,6.895720776068330338e-01,1.237950947468150764e-01
1.207070778358147007e-03,2.974339903111482553e-01,2.542839912470520325e-01,6.749559173987160210e-02,4.311032293775426266e-02,1.352978298066615515e-01,3.161789079805618075e-01,9.383418809502329372e-02,5.688840075154103504e-01,1.355271850220491625e-01
8.923704917044603200e-04,2.905355806345560343e-01,2.291914168557282749e-01,6.237647432371737355e-02,4.216717372262844543e-02,1.424590768566428578e-01,3.173613059128313485e-01,9.190562645455724322e-02,3.907520918729530668e-01,1.408459932151465976e-01
5.717749842893727090e-04,2.692586655933334461e-01,2.037945893679534992e-01,5.629242050046479734e-02,3.997888032754236265e-02,1.360954203623694347e-01,2.739564425638105205e-01,9.091722958595692405e-02,2.632365821440337261e-01,1.389602044774458922e-01
7.018079613511948693e-04,2.448642962231564191e-01,1.983618785138727691e-01,5.413986659957886749e-02,3.892228674065155436e-02,1.189501240502803120e-01,2.252159489622141963e-01,9.766085639944241392e-02,2.482936567620764590e-01,1.381378196302362749e-01
8.322262010857118131e-04,2.366637310390782845e-01,2.121791636635852185e-01,5.552585977694083491e-02,3.826958764821532244e-02,9.461772858424365162e-02,2.081352047431317409e-01,1.105028657559647548e-01,3.146864157075847102e-01,1.431191888912388410e-01
7.516524505351072742e-04,2.566623071318868132e-01,2.330488462004149663e-01,5.842086597947997867e-02,3.798741391144341145e-02,7.159037160727221849e-02,2.204523205385224005e-01,1.283446789652168130e-01,4.053928734428296488e-01,1.548161635447730666e-01
6.690891948607423324e-04,3.003257557554713797e-01,2.540317271596714277e-01,6.273181316654943829e-02,3.910830636615229838e-02,5.976281158377320241e-02,2.433547003731469094e-01,1.475185475558171144e-01,4.988353134135846134e-01,1.746465050591642365e-01
6.934991758783940786e-04,3.555200671515579836e-01,2.732213872391044407e-01,6.770348606387237289e-02,4.090782544691583256e-02,6.139092237758899534e-02,2.709768924497847897e-01,1.474219699876111733e-01,5.907684156940826714e-01,1.953451275333399906e-01
7.161163644246982488e-04,4.065132115309363359e-01,2.873837216739990597e-01,7.111326591142491660e-02,4.240121315539285840e-02,7.253340026660140549e-02,3.003425981027347258e-01,1.127766118650679744e-01,6.572901070035829241e-01,1.995085206244242293e-01
6.693222826507780809e-04,4.267234327324901377e-01,2.923560112769973962e-01,7.292055901000142615e-02,4.464909505044179633e-02,8.994165646307587803e-02,3.195583539840999299e-01,6.663331565500682507e-02,6.564057935711724578e-01,1.820340848191730754e-01
6.321106249322010033e-04,3.910984809873871981e-01,2.835034365361808750e-01,7.457556691595497445e-02,4.771684836914655281e-02,1.091459621250123191e-01,3.247351729447688351e-01,4.768626270299307357e-02,5.555221368148783867e-01,1.594194879919471897e-01
6.731198093006382412e-04,3.077485215517072881e-01,2.552995327754978838e-01,7.419766222390142274e-02,4.857989789583766482e-02,1.226888583873768646e-01,3.272311728972510658e-01,6.334458536879931934e-02,3.611110702687146401e-01,1.434683931155294745e-01
6.976563239384895882e-04,2.226719670122551675e-01,2.096958376609545094e-01,6.827205251903420424e-02,4.555858146650792334e-02,1.290762755970796816e-01,3.295547699996974056e-01,9.219300572261131255e-02,1.367533446848838152e-01,1.244819791907471745e-01
5.955892056416180929e-04,1.828276271958084731e-01,1.652624329815698678e-01,5.870100410074922948e-02,4.137254085574703505e-02,1.347410505838207984e-01,3.136910968762817720e-01,1.176776758746239659e-01,2.093363105516148071e-02,9.438057505311096829e-02
5.364220358519472195e-04,1.946589059039949832e-01,1.454268756140308372e-01,5.245235771004242570e-02,3.861402225358961937e-02,1.376306941120657712e-01,2.666896367462521789e-01,1.361023417145292014e-01,5.848270279012617728e-02,6.749988022320499437e-02
7.555317443192927649e-04,2.165851887704877410e-01,1.519074453033906202e-01,5.231357172454553783e-02,3.508954302477632070e-02,1.214957721588519474e-01,2.030541531330355975e-01,1.450751342587620896e-01,1.771526451462240859e-02,6.210323779289439461e-02
8.917301625615948026e-04,2.011723216503074341e-01,1.593907845149802049e-01,5.175852069660346472e-02,2.661682898470046910e-02,8.077314751929985659e-02,1.517398793573162541e-01,1.408901414405511199e-01,1.915247608610932961e-02,7.281955974892447003e-02
1.286464868425656928e-04,1.555929001161734659e-01,1.424820009116888053e-01,4.192427051467898652e-02,1.284142493336386942e-02,3.754844573043444877e-02,1.299810268797491342e-01,1.195992219373197829e-01,2.294290469118996645e-02,7.771947889034151735e-02
1.670534801563359735e-03,1.352279376038891534e-01,9.932233095593434591e-02,2.241032872379100996e-02,2.217029312788740790e-03,1.427058204962044011e-02,1.308356831887948490e-01,7.613130206654546150e-02,1.263279147048399983e-02,6.890955674252298435e-02
3.665465430575297768e-03,1.494939531230812246e-01,4.376686640117921634e-02,1.912695118476197449e-03,1.474081650342768529e-02,1.259538513445566596e-03,1.243044028869782491e-01,1.221012140274951516e-02,1.492727893925575172e-02,5.796897166499252740e-02
5.109315992607025778e-03,1.136347953297146135e-01,1.438050749023048538e-02,1.212177010288590338e-02,2.384635722959755136e-02,2.638335229798868808e-02,7.215143343853581970e-02,5.488084676392900041e-02,8.604226233884278152e-02,4.801958127108561791e-02
5.775300279096152144e-03,4.687920854462943043e-02,7.134312201615075621e-02,2.098927002530489444e-02,3.006028854676681683e-02,6.889324511400556073e-02,4.388606055858988719e-02,1.031770241029278945e-01,1.992291770368853077e-01,2.208986641806760451e-02
5.215900139686935506e-03,2.721008717530032928e-01,1.202398443281175039e-01,3.075765748098154700e-02,3.410828591504966312e-02,1.022730268613021992e-01,2.057248542260284863e-01,1.254865907207116660e-01,3.253883106537520664e-01,3.014526168773983689e-02
2.982802073484193232e-03,4.195253382144125132e-01,1.545404414457993425e-01,4.423409966473682703e-02,3.788440861756724870e-02,1.124589139435678425e-01,3.725913769905934148e-01,1.292539839205049668e-01,4.399373360455157145e-01,9.246101878943539798e-02
6.384425701642751653e-05,4.303040133569661641e-01,1.789544079664868725e-01,5.892714776395042292e-02,4.370849781873255291e-02,1.072309733525902559e-01,5.023889022618086564e-01,1.241249401727389789e-01,5.243734090866383202e-01,1.391997604973884695e-01
1.311435511043640683e-03,3.809035237820662112e-01,2.050984275179708882e-01,7.101704230672670204e-02,5.087980222835505884e-02,9.768525337906169836e-02,5.636048871636256674e-01,1.208690725674244348e-01,5.673528598391959221e-01,1.596800629441739450e-01
2.794053515115127537e-04,3.739773969677641086e-01,2.373044716569948920e-01,7.986930936338848541e-02,5.527454993354023738e-02,8.760912276760557393e-02,5.507349183120953118e-01,1.315467510065730650e-01,5.914546677691591148e-01,1.631946564191495419e-01
1.305981837707147252e-03,4.362878652984882866e-01,2.712725927738826592e-01,8.872221115470604880e-02,5.501495679536047567e-02,8.117488015480713026e-02,4.938481601556484191e-01,1.577799244807804591e-01,6.457925199331495669e-01,1.695547091036336551e-01
1.258109819359699974e-03,5.308204669850768997e-01,3.039102240626890272e-01,9.970547744318762617e-02,5.418125141599539757e-02,8.524049372000497282e-02,4.369336645884551729e-01,1.869965097158374223e-01,7.422022745458733972e-01,1.897370695712994881e-01
1.673914646133200634e-04,6.169563038597160043e-01,3.385250424929677759e-01,1.089362326743851250e-01,5.700038949833088897e-02,1.000481021030691364e-01,4.056898490931763468e-01,2.059117615021816838e-01,8.340753677430254864e-01,2.101510227819945453e-01
1.172527200275079538e-03,6.733622558631078281e-01,3.808803896641635434e-01,1.111965381928609470e-01,6.094245136979842964e-02,1.171002741409913617e-01,4.012715776357989594e-01,2.111747928018249676e-01,8.929227687167299310e-01,2.072581255148908397e-01
1.121402228791911057e-03,6.911889944991745915e-01,4.276801056206021023e-01,1.090596723998363271e-01,6.079385340267959292e-02,1.321674661393665573e-01,4.181613659809832462e-01,2.088210249584218914e-01,9.537621992963001283e-01,1.784035248794051953e-01
8.270602019678611767e-04,6.721257082460511123e-01,4.587032756198479166e-01,1.102973562243886180e-01,5.751664525727673283e-02,1.551253974556650039e-01,4.628592028836330807e-01,2.078714995897358031e-01,1.032149016206337144e+00,1.428636460048880175e-01
8.586390185985066491e-04,6.279926086821967512e-01,4.501012486447632521e-01,1.153968097402893189e-01,5.674146000762300690e-02,1.952704742528432458e-01,5.412197336856487961e-01,2.085425107839947167e-01,1.058047228890289793e+00,1.150955911895869405e-01
9.977663389796724309e-04,5.713137626952434767e-01,3.977994698613692148e-01,1.150450884791102968e-01,5.865831081611537490e-02,2.361272858440996159e-01,6.142493672989494113e-01,1.987484614895668467e-01,9.591991052798806150e-01,9.161155317357003169e-02
1.016406806485107726e-03,5.057859692544286467e-01,3.195080251858176679e-01,1.021983044073721675e-01,5.601527634372454462e-02,2.428561818700247787e-01,6.015730783565874651e-01,1.726574692800673938e-01,7.587973650826741467e-01,6.081048014482392378e-02
9.735139891901478312e-04,4.277482366183741336e-01,2.356292386417720708e-01,8.060903777890558730e-02,4.435605281982682446e-02,2.037043754666833240e-01,4.682632116680258139e-01,1.434584400840558938e-01,5.360761773851139278e-01,1.768469966995839249e-02
9.196911865229885023e-04,3.358051124405569410e-01,1.572842973081835238e-01,5.878816146691127204e-02,2.882509333364169021e-02,1.466931373935616290e-01,2.796302212859594349e-01,1.234339969897384065e-01,3.365105604515303828e-01,2.624205688733293601e-02
9.010238140550296936e-04,2.352342105541438411e-01,8.962481947906072999e-02,4.057985623107153439e-02,1.749720988265316551e-02,1.047008464881399314e-01,1.322365265045675753e-01,1.043789632518750538e-01,1.624109061444004576e-01,4.890833507746003561e-02
1.017993411705424983e-03,1.329182404708911802e-01,3.525613345121868247e-02,2.472974260270735872e-02,1.173736957632432430e-02,8.055547718639605170e-02,5.382909701950137210e-02,7.094377434166984631e-02,1.159444939681286701e-02,4.375509581322916536e-02
1.106776731419410569e-03,3.551614519633679995e-02,8.122172233824675319e-03,9.715892289654748382e-03,6.647100942288052677e-03,5.722742750502450571e-02,2.346324021202071675e-03,2.116465310101877523e-02,1.144926519978954754e-01,3.152258364201397656e-02
8.116894550713576453e-04,4.341412822858076170e-02,4.558204885737410922e-02,4.168999079709048011e-03,1.089679814505378590e-03,2.732938117091906344e-02,5.742865210000658999e-02,3.064683481343679836e-02,2.190750325869600112e-01,3.037915701474954572e-02
2.664045393687704917e-04,8.380939275757737228e-02,7.513477094827640534e-02,1.496460820421959513e-02,9.207374355496521917e-03,9.967106862619704716e-04,1.155136422277085184e-01,6.002168501663002198e-02,2.957664229204840511e-01,2.850225777380632416e-02
8.018552568133469006e-05,7.960573684913960224e-02,8.560162813955762839e-02,1.954963329886841295e-02,1.350565471528217265e-02,1.955470586822743995e-02,1.527814323058199752e-01,4.869977720104719243e-02,3.185438351836298310e-01,8.637976701452373951e-03
4.515632936030008929e-04,5.688189817021925554e-02,7.153336550289439433e-02,1.662402066068838224e-02,1.317720303531887821e-02,2.968288688815009027e-02,1.773477470294774760e-01,1.002070569174986700e-02,2.732828607103410246e-01,1.761916883672245623e-02
1.256769222731024841e-03,5.525638930672073512e-02,4.568610119871678588e-02,1.010010104427757661e-02,1.142932339675395426e-02,3.769998294121316290e-02,2.049466151898144128e-01,1.320367345082514889e-02,1.938696911555259639e-01,2.860244781115404977e-02
1.739257862657062450e-03,8.724712795958466938e-02,2.860240391782685465e-02,6.865156822781009853e-03,1.171656314874846422e-02,4.679954002015791759e-02,2.230219139828784058e-01,7.390713952822156388e-03,1.414137791765862073e-01,2.991636224087375687e-02
9.767545199268331743e-04,1.311031792462936940e-01,2.929917860029241511e-02,1.041285184744846284e-02,1.447903361111115006e-02,5.340296400406335103e-02,1.999872588902588955e-01,5.280699725971598618e-02,1.461807488971139102e-01,4.321270633095374708e-02
1.622917595648455452e-04,1.669730997717443488e-01,4.243179097230352637e-02,1.838620968735242209e-02,1.733145709305110305e-02,4.983117989991527746e-02,1.303608032070496248e-01,8.143847855282937420e-02,1.886208747696424826e-01,6.908352118542547549e-02
2.397820881716652703e-04,2.015415596782410279e-01,5.997192781366918191e-02,2.631562169615922486e-02,1.787087942131464907e-02,3.322358344660175655e-02,5.626335689412850782e-02,7.956944130505651247e-02,2.369529311340660693e-01,8.675249211144844819e-02
3.008596160658563159e-04,2.476098326041752673e-01,7.839675709318033592e-02,3.203653868754345602e-02,1.619879476986935130e-02,1.271024905569567015e-02,3.506603716535417609e-02,7.149725891435523839e-02,2.820081281835978837e-01,8.258125890885049947e-02
1.063258672164558283e-04,2.941731168506684369e-01,9.551713523128566030e-02,3.603996840849716526e-02,1.400608745174228460e-02,2.102707742762810993e-03,8.494507276224565195e-02,8.091406214885135673e-02,3.261372245871662079e-01,6.018707072907958366e-02
6.862388701256753269e-04,3.127077015139371752e-01,1.068898748799262527e-01,3.893639323102007777e-02,1.162851214066181436e-02,4.421914033740040155e-03,1.654291549804569605e-01,1.011924156455479978e-01,3.543053499031236786e-01,2.964269738586818720e-02
1.013624338316543695e-03,2.896538742445004533e-01,1.092422467007625464e-01,4.022586184384727842e-02,8.480259095496543373e-03,1.254708149915243452e-02,2.137141526362160704e-01,1.108935857148346527e-01,3.389084115231626448e-01,9.423276224566770956e-04
7.768785457159004719e-04,2.394447028223704310e-01,1.051754528896549495e-01,3.962383524043043559e-02,5.945957226905606262e-03,2.517210190357653879e-02,2.018747756738098753e-01,1.032243696951046508e-01,2.763320076811479065e-01,1.650654413207591070e-02
6.220720944957446605e-04,1.859606753537399182e-01,1.009442024613068922e-01,3.815528279543953238e-02,6.308648418997998657e-03,4.702682072666984625e-02,1.610033916751776595e-01,9.210209132928488807e-02,2.012206772411724298e-01,1.886296096797392824e-02
7.217503142520171559e-04,1.460846298770485940e-01,1.004019282164196891e-01,3.709746141606375808e-02,9.178110604194409522e-03,7.117058223878537648e-02,1.450747782857629842e-01,9.783144926739280323e-02,1.547358531662642034e-01,1.279110409374762530e-02
7.957906680837713515e-04,1.338671360569183844e-01,1.031903082209471856e-01,3.646782479652987269e-02,1.213440121905479986e-02,7.993905103376922061e-02,1.671560638140757171e-01,1.253832299733921574e-01,1.490601688761071242e-01,1.011699486296718103e-02
7.555376854816896670e-04,1.600599870249526935e-01,1.074362205730788888e-01,3.534048988767578281e-02,1.402425449242424363e-02,6.910378875562815659e-02,1.862249891709793492e-01,1.489459387457319484e-01,1.690528588894454343e-01,1.602259835700451177e-02
7.300217713207007462e-04,2.101649813840520964e-01,1.116056089207709823e-01,3.352208750955060906e-02,1.522001203106745047e-02,5.427940839734688577e-02,1.702321501905734169e-01,1.308318934648595999e-01,1.961368723246710855e-01,2.608374930908547232e-02
7.629118296208191059e-04,2.353836296602191402e-01,1.136574949525047395e-01,3.202274254931927050e-02,1.599329124899627821e-02,4.927333723834144419e-02,1.478478017283328949e-01,6.962142139328314494e-02,2.201042987090262304e-01,3.623006551784087315e-02
7.938685448376646588e-04,1.944854023570312673e-01,1.106637243922269365e-01,3.149089799813798579e-02,1.660612868895361069e-02,5.407211653557074393e-02,1.662085638494973927e-01,1.170060084205560083e-02,2.354839056393834840e-01,4.866325644092769909e-02
8.001816318297430000e-04,1.080670856262418572e-01,1.013041110970782088e-01,3.118592884244322794e-02,1.787850920722115766e-02,6.569681014271572250e-02,2.147002490645064932e-01,4.224486340321458033e-03,2.398341908464716454e-01,6.306925328088398841e-02
8.100996865850716711e-04,4.359887344081535276e-02,8.847702951478318700e-02,3.020343995185349392e-02,2.009200048070147737e-02,8.321666602067911978e-02,2.326204925764817633e-01,6.415977503184793970e-03,2.367654697474242120e-01,7.065077782259195083e-02
8.368517903303849051e-04,4.091997971432622533e-02,7.795080853377769903e-02,2.872028142680145904e-02,2.206778350602828578e-02,9.980747625363922682e-02,1.919287404858030510e-01,7.757237532631447788e-03,2.331875847385503631e-01,6.584990327621488559e-02
8.656374637674330323e-04,8.118316240890449675e-02,7.391667664439237340e-02,2.731452343454848081e-02,2.275830750436584615e-02,1.073157820254337785e-01,1.348409866477140173e-01,9.767874490943517785e-04,2.319472845242219750e-01,5.730121634604717906e-02
8.838606263085478686e-04,1.313941626307221222e-01,7.579960452395076431e-02,2.596304204743274044e-02,2.316398015752613865e-02,1.117004387415081457e-01,1.179003253029569098e-01,1.262960080711434362e-02,2.307739793383117854e-01,5.778645966239848858e-02
9.003395174243608448e-04,1.825199130801200831e-01,7.891914374668837495e-02,2.437635084804450070e-02,2.473983008602517047e-02,1.254490691380083789e-01,1.453518178218029255e-01,4.130443230464407589e-02,2.273506375610024055e-01,6.772516815521149869e-02
9.328230085191484364e-04,2.315954493249200163e-01,7.838430635160024973e-02,2.267278376901577311e-02,2.609686895340234541e-02,1.381395503550306436e-01,1.732151921724586208e-01,5.727845599533303023e-02,2.214064193414340131e-01,7.620626857139391197e-02
9.716915259803735180e-04,2.576895361560390119e-01,7.296296572910970779e-02,2.107140041061215593e-02,2.372174786719814105e-02,1.154877790526144254e-01,1.640831727101233206e-01,5.160840788145449470e-02,2.126311595387395115e-01,7.581973484398493723e-02
