2.291236038268294338e-04,2.630691121327199261e-02,1.359053303900515167e-02,4.326671062210369484e-02,2.227193812013768866e-03,1.047968938520436183e-02,2.410445964996898310e-02,4.322126060245472592e-03,5.892191139988656179e-02,5.258862254717652090e-02
1.905846701470738369e-04,7.330503368451935994e-03,6.480246991711601998e-03,2.655233487269809123e-02,1.889010253739378678e-03,8.801237393268320636e-03,3.394228995949161165e-02,2.306917003180334116e-02,5.213702619644365599e-02,4.311766730655449548e-02
1.414376551119110701e-04,3.874527354926557421e-02,1.737116573617782968e-04,3.040375116036207227e-03,7.925714181559805971e-05,5.691303214170028921e-03,3.818623749952324009e-02,4.077913626413975923e-02,3.999963586688941308e-02,2.204027809612654765e-02
2.209994092834629317e-04,5.309669839676048331e-02,2.949540765524416921e-03,2.239503210103382935e-02,1.311578480691766866e-03,1.458695229668259107e-03,2.772592304202722499e-02,5.526888230151390247e-02,2.299707388394052476e-02,3.040064498499439518e-03
3.133516333575036119e-04,4.897365645349775060e-02,1.216671631502834298e-02,4.375340556639323308e-02,1.229276535270272617e-03,3.747997878846726170e-03,7.387420559078310134e-03,6.630212667584069186e-02,4.984345917347485569e-03,2.902182813120201404e-02
1.579211176935307512e-04,3.618783476026274371e-02,2.934304360857391270e-02,4.833928325502637180e-02,8.777737427148706029e-04,8.329287461599292966e-03,7.755883059465140152e-03,7.731400573054646175e-02,5.301449728919179101e-03,5.289085416969220577e-02
1.618350694233028873e-03,2.382542505783062300e-02,4.033296715951675132e-02,2.958420362714079405e-02,2.184304011601996900e-03,1.096986149012364048e-02,1.349977152425657287e-02,8.414973275025509902e-02,4.081455427166490874e-03,6.837185418456888375e-02
3.365400959623029639e-03,1.209147600124434174e-02,3.410020215508191566e-02,6.052626013100604122e-04,5.861310423172218405e-03,1.261667609083377134e-02,2.027489041844324213e-02,6.888236726177446312e-02,2.466665779790050937e-03,6.854087627606751665e-02
3.816789323731104976e-03,3.747494943064613032e-03,1.514385379744835267e-02,1.892578415108625567e-02,1.080056579399061439e-02,1.441345318312066935e-02,3.263271600649129967e-02,1.600414678796587692e-02,7.098636009131032917e-03,5.254996087164882229e-02
2.357380021947723652e-03,2.002816373973476810e-02,9.341659638023063622e-03,2.342854036912622381e-02,1.443634423357632868e-02,1.547288419064225817e-02,3.759816545843981672e-02,6.166820808682319660e-02,9.090928412654297741e-03,3.116158463520261532e-02
3.479659074970012584e-04,2.101708816819024273e-02,3.746606415774694776e-02,1.872462930930103228e-02,1.413320471711767938e-02,1.420583971787250759e-02,1.921586037501987754e-02,1.172858096358166125e-01,9.669138273857777466e-03,1.862573886229468290e-02
5.492089662027477238e-04,2.429355780733188832e-03,6.211095000754770362e-02,9.480049826313978120e-03,9.526109538485511008e-03,1.032364397738999746e-02,2.112444680850812662e-02,1.064096425667640788e-01,7.515551610238965785e-03,1.422344022417558300e-02
3.392155917825641115e-04,3.580010257837051152e-02,7.004980114202283281e-02,3.461089644077347972e-04,3.657409630081049322e-03,5.224392428333880962e-03,6.224602627653409714e-02,3.972809226244025660e-02,3.211915295135507262e-03,3.294887574260003948e-03
8.539823479304656175e-05,5.415678832205986920e-02,5.773494920985699358e-02,1.384324453355423442e-03,6.525481037302847519e-04,1.267378534285112457e-03,8.097707114243726800e-02,1.910971667730655688e-02,1.402603725498242308e-03,1.815727998567329138e-02
1.973519554770560513e-04,4.901721275758145341e-02,3.405278972220208283e-02,4.210975682888580367e-03,1.649542865435431804e-03,2.717031387765874275e-04,7.308404553861730379e-02,2.659100392166614812e-02,3.937972382101122965e-03,3.593347867446129024e-02
3.155962919986273906e-04,3.324405741853306284e-02,6.165057684612323258e-03,5.741587694879856166e-03,3.988633883207162029e-03,5.589646432860998545e-04,5.483711882827758954e-02,1.166742793304125121e-02,6.349283283288318855e-03,4.055627995663704105e-02
2.620532589958399585e-04,2.218167963324969849e-02,2.301800619927949626e-02,3.762118655594511897e-03,4.900172261745063505e-03,8.985806033587463802e-04,4.284839866499819128e-02,2.936707336352355202e-02,4.720271172699491702e-03,4.118806545723069368e-02
2.367440537504593738e-04,1.694171142310679085e-02,4.482822547606628294e-02,1.557427250777317952e-02,4.460655380113012249e-03,3.794247937984949852e-04,3.645938578514085204e-02,7.574957536121790236e-02,8.009654194515475507e-05,4.854826211312675277e-02
3.083838686421243942e-04,9.191613262946055074e-03,4.832590351328300282e-02,1.829731106010499056e-02,4.200335003386117261e-03,1.960545731521471605e-03,2.184431784431372162e-02,8.511995397815987074e-02,7.598382594499838993e-03,5.450191111075430167e-02
2.965727731940467037e-04,4.639625174118595062e-04,3.522846020630043123e-02,1.317390194690134728e-02,4.713191101964968842e-03,4.988584139702491663e-03,1.074469080349889187e-02,1.763638644168198655e-02,1.803884271718071350e-02,4.038000645575746950e-02
1.978236969825480310e-04,5.722931211123070960e-03,2.010418576489065787e-02,7.420525356437199932e-03,5.861622096274477466e-03,7.746334985852455779e-03,5.532279234752585789e-02,8.174245866213766809e-02,2.432306347217560658e-02,6.499116285505385053e-03
2.860558171653613223e-04,3.064467439111610153e-02,1.428328430684946970e-02,1.483925724129853824e-03,7.605468644392800182e-03,1.071660411769340994e-02,9.239712117534101821e-02,1.328139284434712297e-01,1.642396540423537651e-02,2.086828618499255231e-02
5.130812811078120251e-04,5.821611851496275025e-02,1.709544148631585159e-02,6.416814131787107987e-03,9.084660121858493392e-03,1.309388886971050991e-02,1.034349412367496224e-01,1.118603556770521729e-01,2.087562401388662597e-03,2.411774799802456765e-02
3.010979830589897966e-04,6.927208919305041790e-02,2.266215163315108902e-02,1.122149434750535808e-02,8.329338275345654630e-03,1.247587140732394143e-02,8.625721445772381590e-02,6.733422459892861311e-02,1.526793590366149790e-02,1.976405504826200810e-02
4.827840139029427528e-04,6.504369250867350627e-02,2.643477225318202270e-02,8.047671490582187018e-03,4.554559487308671405e-03,8.432651666430961840e-03,5.411114974079987011e-02,4.623452989108223221e-02,1.606721470088861084e-02,2.996131721514847662e-02
9.622543172062170830e-04,5.890341792047480707e-02,2.381148305365130002e-02,1.377058465413781314e-03,3.582100070603130826e-04,3.021374677450309673e-03,1.974864534086819001e-02,3.664923015164562453e-02,1.311042381488318823e-02,4.788180237556895202e-02
4.945012944635487602e-04,5.530820051086703104e-02,1.260027687349654646e-02,3.385414542219368581e-03,3.912122007174704055e-03,2.256377716321338999e-03,1.200984676941016169e-02,3.404391858292532200e-03,1.472065244809957554e-02,5.511077601800318249e-02
2.791147937218068243e-04,4.740064600773864073e-02,6.870709133319659583e-04,1.096380147849766555e-02,5.442422447394611520e-03,6.977258873359939995e-03,3.683957278129160184e-02,4.309173362676957386e-02,1.896034679180557889e-02,5.264657960347757931e-02
4.866377386910212166e-04,3.173957200000769585e-02,1.842953820443905995e-03,2.857710083907816223e-02,5.801624210851927949e-03,1.029644719008750500e-02,4.881766032891764889e-02,5.021758856354670286e-02,2.052281954696378447e-02,5.110371005157943874e-02
2.526280560536180403e-04,1.608571042296687292e-02,1.892163321858983394e-02,5.105440092930974005e-02,5.821839468442700956e-03,1.171709450587320352e-02,4.821252822221933770e-02,6.700595271410882646e-03,1.743919264172057171e-02,5.005618033205797013e-02
1.414324075839526831e-04,8.651817588421199801e-03,3.817847490183146064e-02,6.318002072679457237e-02,5.795725609021117226e-03,1.200918675695803600e-02,4.131888154259782259e-02,8.861457151685057931e-02,1.065893148499840251e-02,4.688996933236047604e-02
2.207615860942853370e-04,5.201226710018260965e-03,4.480599279379190308e-02,5.888349624175455432e-02,5.764036964178339759e-03,1.156187557394619536e-02,3.231943053013064393e-02,1.353834181035825368e-01,3.069598154835531320e-03,5.022518200071005023e-02
2.474913687232995797e-04,4.063049443552654676e-03,3.905997793235037319e-02,4.993504345094670199e-02,5.741406081714292564e-03,1.000316653375467844e-02,2.361733409476241344e-02,1.224617457382278785e-01,2.816530937784441496e-03,6.824801114176907990e-02
1.829964481776491481e-04,1.668372327183589507e-02,3.217304999902562135e-02,4.756526717944652843e-02,5.731037641035576641e-03,8.487691978831960263e-03,2.088995490265197971e-02,6.784151485443723484e-02,9.162568695270311217e-03,9.124927187766360137e-02
1.398700080210743654e-04,1.940294106776807234e-02,2.981650953787333413e-02,4.376655966745688492e-02,5.685213738066768017e-03,9.214716366333872491e-03,2.789265721477057411e-02,2.899686945640312860e-03,2.036228267311873327e-02,9.931156491671452868e-02
1.381369473214866836e-04,9.402716185580296121e-03,2.664709122736228647e-02,2.510197288976488694e-02,5.569776282138477752e-03,1.174914305659570217e-02,3.800305444188325360e-02,5.197441349224488083e-02,3.476937573435334716e-02,8.740345908203332737e-02
1.258528435992471261e-04,6.337543022774958304e-04,1.700964434798651198e-02,2.255520885145185020e-03,5.482217542927900721e-03,1.307567317859002765e-02,4.000220459379341675e-02,9.431699868092485728e-02,4.520662435369576099e-02,6.886875393894624497e-02
9.350271674926067839e-05,3.297325573889314798e-03,2.442334401590028157e-03,1.779667379611393069e-02,5.511538346018232150e-03,1.194199113195044092e-02,3.249100488172935314e-02,1.318576656996492402e-01,4.874819401669008151e-02,5.136527124820709778e-02
6.580555347873975262e-05,9.789712097036724903e-03,1.470058402587673396e-02,1.211570958449007494e-02,5.458468470620887053e-03,9.978030391590592130e-03,2.328688641495947620e-02,1.630512227205866693e-01,4.906279625275197787e-02,2.973999716700796714e-02
4.803991377002384520e-05,9.038186493167245025e-03,3.516973464697248364e-02,4.039225038542942729e-03,5.127018535235349644e-03,8.199106896048960133e-03,1.337665700144647328e-02,1.661657655338447392e-01,4.884029082443596542e-02,8.102496047737011223e-03
2.921197271084402292e-05,2.603450707744026354e-03,5.391098667514348380e-02,1.045015285023807340e-02,4.946284321644445030e-03,5.900365280982250785e-03,3.717686189418726792e-03,1.236853443042184308e-01,4.683363952927019347e-02,3.819459565469797598e-03
7.215879963029429389e-06,3.150783215205759345e-03,5.862023598315216355e-02,6.630946837649869148e-03,5.380166621208499166e-03,3.563845606276453033e-03,2.175875192348648846e-02,5.867175140594131644e-02,4.174703298750171571e-02,2.057838519004576150e-02
1.235269276846143849e-05,9.143356199332861034e-03,4.639667943729755550e-02,4.018345473193344480e-02,5.480745811734587941e-03,3.193979630658256956e-03,2.126805863609149139e-02,2.252655081994409114e-02,3.358540784408459851e-02,3.790548315172014709e-02
2.800219353224877019e-05,1.686904799736043195e-02,2.990805206127679014e-02,6.390364620738103740e-02,3.638266110781397753e-03,4.734852746315190535e-03,1.185234150561756059e-03,3.991164803018767970e-02,2.387962327023344933e-02,3.531293422081923511e-02
4.194292312024758642e-05,1.933928649467512098e-02,1.829177632627670275e-02,5.821695373831347470e-02,3.847574409711896877e-04,5.318157809757710977e-03,2.328752613503401805e-02,8.639660970314008703e-02,1.786317083839834494e-02,1.635268088123571772e-02
5.456222469627907681e-05,8.574063747518801890e-03,6.509051951846090735e-03,3.370474734646775744e-02,1.661551762554246137e-03,3.275239965655857462e-03,2.711980434733283693e-02,1.228983800298131951e-01,2.022042946785175196e-02,5.073233637081722355e-03
6.455225058641468399e-05,1.372487558213446139e-02,8.335906312165977661e-03,1.814101267732549580e-02,1.362802754677356178e-03,4.536728653480486591e-04,2.174621679210138325e-02,1.337003649668868921e-01,2.627312206617461385e-02,1.839574832708316607e-02
7.150388448641125966e-05,3.725718152875064082e-02,1.790004791094541858e-02,2.182429417206742384e-02,2.234501196295753805e-04,8.056696831304039838e-04,2.568635108881469481e-02,1.299608623795898699e-01,2.592679564338481665e-02,4.249543935030392072e-02
7.588229393599062189e-05,5.057399538735303512e-02,1.890187394042789487e-02,3.052810518212852042e-02,2.777210396593127054e-04,1.025920900184883709e-03,4.045454384506157186e-02,1.321402834875029797e-01,1.826144040192403256e-02,4.736977133806325596e-02
7.781440123156396196e-05,4.854373552629225735e-02,2.051981437205875267e-02,3.484571794030424247e-02,2.024728907688161123e-06,2.074770323377861901e-03,5.209535364989246325e-02,1.528465013916272541e-01,1.255368647333123672e-02,2.727660352036025831e-02
7.708663690913093161e-05,3.723611849969182819e-02,2.660504592655164174e-02,4.515056039953137951e-02,9.855566966346120377e-04,3.818277408088392201e-03,4.929483233192171604e-02,1.836219872873504910e-01,1.344146290257894685e-02,9.365400300642628267e-03
7.371153896718770607e-05,2.892354308052275461e-02,2.797093844324474374e-02,6.641006371781070505e-02,2.465460092671584863e-03,4.496829333622075209e-03,2.952531674588858290e-02,1.927229324658220611e-01,1.616308136774768228e-02,1.750894571049907769e-02
6.793206175396713305e-05,2.823392371797114539e-02,1.965304743900588708e-02,8.053253776611285497e-02,3.627197837089054730e-03,3.420875895947685704e-03,3.710440143082284047e-03,1.509744089640583931e-01,1.862251291616290674e-02,4.651309381736706827e-02
5.995231907927082917e-05,2.677156338557133697e-02,7.962617296478404286e-03,7.159398346477759134e-02,4.206819803950066772e-03,1.459632727176518423e-03,3.797470945317532598e-02,6.867741658953517569e-02,2.454367572449230039e-02,7.668764892632708163e-02
4.992873780655403867e-05,1.607038370943542419e-02,4.447767128963261117e-03,5.073662896100183950e-02,5.519071470815360182e-03,2.998072921466544949e-04,5.522448599361427790e-02,8.473902086598306821e-03,2.861288761960489521e-02,9.385554549688325532e-02
3.808856010496658993e-05,1.239911357210748619e-03,2.137654650728542868e-02,3.855331654727224555e-02,9.202314897265284274e-03,1.054999524257654907e-03,5.037771748675996808e-02,4.754859172287843883e-02,1.311429555455387828e-02,9.021437127057080341e-02
2.472260110149104609e-05,6.679841719181876109e-03,3.846675805692606476e-02,3.795023020385742546e-02,1.491512516203109644e-02,1.490836161169743833e-04,3.899557377997707464e-02,5.700074135883913262e-02,2.924332158773659818e-02,6.593461939587311194e-02
1.012130157716703075e-05,8.224888874147007894e-03,4.528515488984186099e-02,4.041587220434674638e-02,1.967778243183348000e-02,2.602331014274037943e-03,3.797291325612377200e-02,6.393545717829395014e-02,7.981552328308330613e-02,3.615100743906005110e-02
5.422675967108445989e-06,1.283097805982799135e-02,4.235274518170568936e-02,4.507742303166527298e-02,2.023681189526525814e-02,6.363449735317351467e-03,4.625024684212414305e-02,7.881605669944363735e-02,1.119939482918002882e-01,2.087310458619261178e-02
2.159636329836470706e-05,2.049665223946420256e-02,3.868985962705427661e-02,5.416438882933565652e-02,1.631009197849180373e-02,9.141883692979505330e-03,4.915729271119752275e-02,8.769948367319634064e-02,1.166884847420605192e-01,2.370348110595194360e-02
3.809938401019425774e-05,2.109541295132714989e-02,3.488759499447013218e-02,5.903066120396716771e-02,1.087702029604902844e-02,9.171328767568910634e-03,3.665375102265049090e-02,7.353403659063285913e-02,1.030110068140132618e-01,2.756486530712752223e-02
5.466098438955598206e-05,1.117980157261314750e-02,2.339508718778849153e-02,4.723035135604813917e-02,7.325615688374542862e-03,7.475118577310300473e-03,1.678051475059241793e-02,4.302167551373027587e-02,8.231844800255294636e-02,1.161691517580209880e-02
7.098996085553360073e-05,3.709245192377136693e-03,2.233959433079031609e-03,1.954263474552219576e-02,6.705691353933628668e-03,7.436652757836778767e-03,9.809585646808553772e-03,2.680648556663842164e-02,5.935082243370973926e-02,2.572038304085193933e-02
8.678030953815754937e-05,2.063452419232261054e-02,2.098590731359712552e-02,1.141246079094769376e-02,7.428016368646451865e-03,1.020465564047245456e-02,2.383742747034782797e-02,4.755895051033178639e-02,3.493038042193881421e-02,5.999558770125756196e-02
1.018409259797318844e-04,3.679007173712894874e-02,3.407086006439109804e-02,3.618419485854638962e-02,7.277030854561774079e-03,1.272592368750505819e-02,4.243067241632248604e-02,9.503726099463445653e-02,1.081348112142193132e-02,6.791212129708720791e-02
1.160962485595245331e-04,4.088498422905618296e-02,2.623710754677528387e-02,5.369570855571917378e-02,5.461652479293943943e-03,1.197232465836670437e-02,4.532457764625370811e-02,1.396276572297890373e-01,9.390379206634196646e-03,5.842530621232253779e-02
1.293254508535416876e-04,2.589846563354416056e-02,2.180382652597258591e-03,6.483317971634007526e-02,2.724280012430546974e-03,8.550922415650020342e-03,3.232604119286788119e-02,1.619550749901315090e-01,2.213509102010758484e-02,5.995113497734725488e-02
1.411734032326057513e-04,5.176731009390926792e-03,3.360523142494532822e-02,6.856156230050050593e-02,2.218186642452756822e-04,4.533357641504812824e-03,1.594342070940661313e-02,1.576397836866699209e-01,2.564334956287476694e-02,8.548515245337051649e-02
1.517200304773258946e-04,1.986725166870591079e-03,4.618588260568646381e-02,6.392998431663224346e-02,1.661077678228178433e-03,2.662127767123022141e-04,3.217989385821120804e-04,1.223422619682603824e-01,2.085706878685541360e-02,1.257237476917393293e-01
1.614780064167045171e-04,5.944369153816698656e-03,3.678216801175209633e-02,5.222430142144984799e-02,3.969282890558222844e-03,4.433633559878571648e-03,1.733749456447257475e-02,5.931200981561525476e-02,1.164525065870392756e-02,1.594675073890895189e-01
1.701815203315386956e-04,1.807236488853732406e-02,2.308812766955654211e-02,3.789461559680896291e-02,7.710393293485145322e-03,7.451617318099824916e-03,2.950583184471951975e-02,4.834923546774637371e-03,3.519236629914871371e-03,1.620289684452536072e-01
1.767621012965674740e-04,2.862970527659522424e-02,1.861886190326121973e-02,2.804251253341607727e-02,1.132157437562622722e-02,5.627090837423406183e-03,2.053025473131916273e-02,1.031825791444160312e-02,2.009276271135207112e-03,1.302217330129060158e-01
1.819328026248533180e-04,3.471023007403195582e-02,1.635690958884518029e-02,2.806922323368724048e-02,1.174102941050571801e-02,8.473330468968176196e-04,1.045156133239310246e-02,8.067849911439015087e-02,1.112701547396286079e-02,1.020851808655774684e-01
1.883012242204910630e-04,2.923343785695781821e-02,6.428049326033595870e-03,3.684708576789511025e-02,8.589509542814064910e-03,7.558500577271061796e-03,4.247574023532762338e-02,1.600661758288733916e-01,2.956550564643917883e-02,1.166926229035358115e-01
1.948445938697806155e-04,1.123403772164852273e-02,2.829920598323693200e-03,4.835606704452867499e-02,4.808540955450531229e-03,1.065325514329526491e-02,5.426647932725308515e-02,1.941635300882144366e-01,4.764804659038644058e-02,1.532372194936464926e-01
1.965123314900283572e-04,5.663478877585246228e-03,1.918357723711952871e-03,5.808375157152426138e-02,2.811942632445395534e-03,1.080905932322398684e-02,4.378409723603279152e-02,1.758718888186172613e-01,5.371094091552010980e-02,1.532061397275223946e-01
1.959998810303933666e-04,7.562446753214378467e-03,1.437060430523607810e-02,6.513303689495021642e-02,2.450243874689594578e-03,1.107959066644543036e-02,2.346407232693539791e-02,1.227399695668933005e-01,4.666794357733722309e-02,1.086997525585724905e-01
2.048870894525389686e-04,1.606578643487541029e-03,1.619435787940974245e-02,6.743243728329995079e-02,2.523341759629879524e-03,1.287641163598229367e-02,5.308115082474797360e-03,5.507217598355814564e-02,3.672216923374337777e-02,7.682798828202365427e-02
2.185037101821590572e-04,6.631376677234038404e-03,2.716971159352291661e-03,5.962225177113295027e-02,1.937136490707563885e-03,1.565240951191163715e-02,6.452204310930211711e-03,5.676310158198135530e-03,3.062006344150400641e-02,8.870097765352627506e-02
2.128209554274974923e-04,3.927219365919969694e-03,1.698103987474747223e-02,4.022656347455556836e-02,1.432097310184737718e-04,1.780051173065061790e-02,1.698871717188260230e-02,6.192002084778826590e-03,2.392569088860382887e-02,1.019447818838075254e-01
1.980265626727969639e-04,5.548570583061817642e-03,3.923535023864404420e-02,1.670082296136953318e-02,1.750269615456383817e-03,1.673996379663730480e-02,3.584260299172890157e-02,1.869759853473626152e-02,1.232524728201910003e-02,7.783859913918864115e-02
2.265439353848839178e-04,1.639461946043145602e-02,6.582450792205321588e-02,1.731756888179111949e-03,1.763165627792194230e-03,1.179910776618718106e-02,5.912933728419929313e-02,7.535390040509272469e-02,1.855305048177011010e-03,5.234052155714126464e-02
2.787947052802976656e-04,2.200470250083621723e-02,8.871755016292480478e-02,1.159311134248542166e-02,8.116291552816713283e-05,7.063183193223839494e-03,6.241059748284247255e-02,1.330188604716016632e-01,1.386906646088231125e-03,8.441255750258160051e-02
2.429357330538361700e-04,1.071696697378527602e-02,9.458646350934170333e-02,1.269676607973901569e-02,1.922751222897874524e-03,6.650374747417595392e-03,3.128881737340738489e-02,1.143148490306265946e-01,1.089381214992250942e-02,1.673433846836000494e-01
1.582677149718671867e-04,4.414254216194563388e-03,8.548868549218455182e-02,4.427760623798501771e-03,3.415029843501113556e-03,8.000925821963093820e-03,8.757625613736054818e-03,4.195335442976209916e-02,2.190399757089060012e-02,2.307939978192582176e-01
2.677492786069796777e-04,1.811638663339368641e-03,7.873684124481888924e-02,1.314791089400184007e-02,5.885674723921195152e-03,5.360608617503871166e-03,1.939226461887344835e-02,1.386299257659469493e-02,2.553054791160658948e-02,2.181066862913483007e-01
5.034160753349022901e-04,1.775444669717264959e-02,8.361215980106202761e-02,3.659647155260234430e-02,8.884587969320900669e-03,9.154793292183555607e-04,1.669206970783342070e-03,5.508960923682343358e-02,1.859528495092569594e-02,1.410233431426975992e-01
3.022067472310782958e-04,3.049082007490971566e-02,9.088134045772722214e-02,5.630329661216474518e-02,9.905319243495179851e-03,4.341744401994316119e-03,2.297860029236470022e-02,9.650912025972643860e-02,5.236186216970854790e-03,6.005040226995671249e-02
4.592043181204238868e-04,1.620853377524378303e-02,8.730857060459347452e-02,5.917871798239564968e-02,8.250137468582142974e-03,1.565566066597655999e-03,1.900029040749027717e-02,8.678857740742275395e-02,8.531838950633341065e-03,1.947596903864153017e-02
9.112092373772699228e-04,2.262714026482828128e-02,7.045502296794353692e-02,4.070225033236244544e-02,5.973368199938536814e-03,3.802693088743519696e-03,1.144701008954391447e-02,3.960228386292187486e-02,2.254750131525198181e-02,8.281570326575138710e-03
4.150876298113148817e-04,6.545011273671046126e-02,4.766120710429993385e-02,1.083430484422283520e-02,3.883084490530517435e-03,7.335056183273071587e-03,5.139704322277104109e-02,1.652444253558317880e-02,3.930126719377419892e-02,1.693190891879980953e-02
3.910450450345889805e-04,9.284105784907048520e-02,2.724299279963653814e-02,1.717668351438551497e-02,6.998523516990920977e-05,8.557925104679396308e-03,7.697543179046989481e-02,7.099709702261880473e-02,5.428098535833527499e-02,7.955638915901297459e-02
6.360839845929180079e-04,1.007795431892743870e-01,1.205483840613450278e-02,3.613334895590677304e-02,5.653781001210678343e-03,8.460070230508758005e-03,7.631071977142302176e-02,1.175215063398280801e-01,5.936791966783186436e-02,1.535001186818031882e-01
4.421775110553783326e-04,9.518546682450382268e-02,1.596677995192776617e-04,3.942707156854931283e-02,9.305866530171270912e-03,7.332781636710410111e-03,6.413661749772876786e-02,1.443791513413377747e-01,5.480231924578156388e-02,1.845318263732579900e-01
3.746067831127261800e-04,7.869871390796355504e-02,9.620114969211291875e-03,2.077980394789896365e-02,7.394680078943995268e-03,6.195417125118501435e-03,6.483749933555262024e-02,1.449283926606331208e-01,4.767995293039432869e-02,1.455902394347700080e-01
5.027991350593890825e-04,5.283693231188935774e-02,1.029345172989274207e-02,1.197495200496898927e-02,1.688973355125586353e-03,5.877399809698772605e-03,7.927213578168318397e-02,1.267888041805742549e-01,4.168842845517004014e-02,6.357501296744628994e-02
5.785356421134916398e-04,2.832459659424124004e-02,1.684576400183966823e-03,3.634604730601567052e-02,2.709023447875216154e-03,4.921318983028189278e-03,8.675615867296107564e-02,1.082018005532430355e-01,3.869562020751146636e-02,1.554771785864836678e-02
5.588291061708607847e-04,1.887630015408901449e-02,1.562646747714778808e-02,3.750681099745099834e-02,2.652136943709439403e-03,2.472427433801184342e-03,8.394726547600789290e-02,1.099360571091438088e-01,4.441840887496439905e-02,7.033377672568646988e-02
5.660398084067401556e-04,2.366189881174020695e-02,9.915613465566911616e-03,1.993223755491898425e-02,7.173399345407447010e-04,1.097561304185429385e-03,9.420054336563928044e-02,1.421290361504062294e-01,5.995197230856860043e-02,9.796258675662619653e-02
6.272785043408141137e-04,2.640093253673821486e-02,2.474297186096012513e-02,5.878250945309445100e-03,3.670514998750119221e-03,2.535489157205852648e-03,1.249033768827671337e-01,1.866091508774177787e-01,7.330140355309193445e-02,8.545966653956867110e-02
6.674127396412597377e-04,1.498706444289852995e-02,6.870153505559131735e-02,3.152272631778307160e-02,2.750848949381904003e-03,3.509908411313700499e-03,1.459594161478738328e-01,2.075456264678882390e-01,7.100176922626237619e-02,2.067758714957888821e-02
6.592157660099004718e-04,4.449966737720261259e-03,9.222812776725944350e-02,4.534822192907358995e-02,3.328519927307696611e-03,5.248638856927096905e-04,1.283663687607513870e-01,1.917703414239274040e-01,5.379617692386266109e-02,6.746146197001658129e-02
6.744281565640193729e-04,1.672838150864038032e-02,9.228533911914765797e-02,4.130841294334464814e-02,1.269279351590369212e-02,9.874838687722395023e-03,7.579629024907567902e-02,1.529907414410346667e-01,3.317839979662395855e-02,1.175733750743055972e-01
7.550780427927685249e-04,1.682697234453567336e-02,9.403392806352020572e-02,3.532929764282992380e-02,2.074804568107007849e-02,2.106741326771058645e-02,6.842246758038342778e-03,9.266853227029658857e-02,1.768290275690040034e-02,1.043152933955245332e-01
7.883562852394732480e-04,1.468662422699227796e-02,1.114663847119241047e-01,5.043259345111984759e-02,2.365290271221792695e-02,3.077337825474800448e-02,6.274999426632824062e-02,2.601722851849111971e-04,8.322446383030866410e-03,6.776560689730395937e-02
6.885133199819555095e-04,2.130615207129329600e-02,1.278597780677512563e-01,8.227561227342346239e-02,2.209382809166183029e-02,3.776284566564512557e-02,1.131794161268252080e-01,1.022612830394259847e-01,2.716303463253889883e-03,4.941419482886313941e-02
6.762744642205977636e-04,3.525527761198538057e-02,1.241900222804527276e-01,9.887507360845040894e-02,1.959980647719393801e-02,4.176191398697386842e-02,1.267876999951763894e-01,1.630498773656293143e-01,2.027548880287525709e-03,3.142860394544938485e-02
9.487779801121420942e-04,4.600812128075952578e-02,1.042496363564785339e-01,7.761284478028089573e-02,1.787415370216854926e-02,4.162026355182600612e-02,1.084075747869429063e-01,1.556587651620871537e-01,9.272737586495584383e-03,1.761370999278933855e-02
1.026830925177754997e-03,4.808531502384798262e-02,7.819321707865908855e-02,2.843331280687416696e-02,1.713999426146218044e-02,3.621657112059490508e-02,8.091862571241163760e-02,9.970296003615454483e-02,2.130697436128063671e-02,6.367112044066582099e-02
1.649613267854712229e-04,4.669474942710905713e-02,4.230343799260755794e-02,1.903503408490993948e-02,1.838781388609660172e-02,2.712591679894047966e-02,6.057661425445598491e-02,3.172414241228144194e-02,3.491684988697572878e-02,4.106769963165046722e-02
1.514722508551644619e-03,4.690974372132509368e-02,4.667583513972064016e-03,3.781110798481256835e-02,1.957006735879300921e-02,1.786664943613901213e-02,4.755243055197801855e-02,1.898165395795010923e-02,4.022478500103335991e-02,3.833614542784832824e-02
3.304090231564903949e-03,4.262027872530099043e-02,3.879104001332648460e-02,1.393713097076371144e-02,1.363168470638149651e-02,1.089548922415333951e-02,3.826349756799765633e-02,3.712209179376029650e-02,2.971586240467277359e-02,8.141452121869879877e-02
5.056242777635761194e-03,2.444632234982998392e-02,3.164475159074194022e-02,4.770040933602569949e-02,1.954156508231746914e-03,7.876343751591050740e-03,3.860338804383326577e-02,2.554131071212317403e-02,9.105586888113529481e-03,3.825975882889658120e-02
6.532054393812910913e-03,3.819378912104273195e-03,7.001295305937972266e-03,1.179712683335267381e-01,1.831293484604280125e-02,9.946668294297633661e-03,5.653011571612990421e-02,1.056541210368016660e-03,7.091815593240442459e-03,2.985894372296583540e-02
6.329815058615582794e-03,2.610991138064513994e-02,3.295401439811179722e-02,1.553183692292395279e-01,2.552563264132310869e-02,1.416765624336391999e-02,8.164894500657964016e-02,3.418577352097207367e-02,1.080622714242014150e-02,4.035416467601535967e-02
3.649714258498445822e-03,3.062376447116048686e-02,1.998705160591324193e-02,1.383299855802607170e-01,2.416177004141895415e-02,1.455987366758218493e-02,9.228151358242978053e-02,8.097173382118842688e-02,4.182384959062900205e-03,5.851897760736274323e-03
3.154847839142424829e-04,1.845519483229083463e-02,1.289003282684486780e-02,8.497229001822222128e-02,1.989292004191860544e-02,1.086967227101853783e-02,9.149085874203717605e-02,1.502272383048913473e-01,8.788615446840140899e-03,5.927816400326984397e-02
1.216424968825516144e-03,1.781260062422121513e-03,3.177984862018685269e-02,2.996364342441077896e-02,1.411663875762332078e-02,1.003917817779825458e-02,1.060508603028449126e-01,2.262329394881922306e-01,2.412299660790780120e-02,1.110240551887083926e-01
9.436202045999238577e-04,2.096034731087192612e-02,2.693890204931941382e-02,1.227965699176885098e-02,6.998167715090233137e-03,1.403993146636422357e-02,1.337434669213768967e-01,2.678371677981521426e-01,3.459967155997742405e-02,1.798035689537088588e-01
5.160194325058549631e-04,3.279084703949759760e-02,1.523961204336859478e-02,4.958180155290884544e-02,2.718905609489441315e-03,1.443685178583149591e-02,1.321522442167621658e-01,2.534789313060945015e-01,3.559341829605260077e-02,2.509895058563474946e-01
5.714420914125655816e-04,3.725702867727615636e-02,1.481313332098084176e-02,8.359977985620901941e-02,4.261200438100875600e-03,6.232564081516948039e-03,8.599612956940320962e-02,2.161788764777004823e-01,3.200492902037766624e-02,2.927652236387915941e-01
6.546515633966078131e-04,4.197331431449197875e-02,2.435976442049749349e-02,1.022854986164354330e-01,7.619405642451907747e-03,1.849076793799078180e-03,4.214037322442030359e-02,2.022720844499917292e-01,3.173251739203498262e-02,3.021873414814044145e-01
6.753434404315936633e-04,5.394233890667773923e-02,2.877523959667507153e-02,1.033758380689125955e-01,6.470214631183048709e-03,4.701166723628221258e-04,4.712185834028510129e-02,2.132519859872503143e-01,3.556060276927223984e-02,2.913574865009150860e-01
7.819208582438074784e-04,6.668629426293572193e-02,2.290331234122180981e-02,1.011334543811342190e-01,9.655901782437917996e-04,1.152951547401641179e-02,9.137483562184578467e-02,2.308557689370633048e-01,3.957601800735761899e-02,2.529211029965947599e-01
5.685759319368681539e-04,6.245631238165097465e-02,1.941280198548849673e-02,1.003165977366920897e-01,1.231303987606890277e-02,2.425424509637414197e-02,1.409723297501664918e-01,2.651174182960306935e-01,4.401426225856832491e-02,1.686621495153373951e-01
1.864346130824578725e-04,3.344811018414481363e-02,2.790252507777617880e-02,8.695304721072649734e-02,2.395980178331864538e-02,3.630424674099993337e-02,1.813426227977648353e-01,3.174952645718638333e-01,5.234911447810784019e-02,4.271705077076764362e-02
6.877561857287297926e-04,5.209201812857691856e-03,3.911538784880336933e-02,5.728416318698419801e-02,3.180719376393056214e-02,4.621969309147198890e-02,2.053220326257424455e-01,3.390693347191203744e-01,6.231058200224874610e-02,9.092238790577149288e-02
2.515429205826667900e-04,2.957716604762077733e-02,4.090102250277000834e-02,3.087715591828547532e-02,3.371063042506154683e-02,4.938545658266464689e-02,1.989783210675498404e-01,2.936322452213089296e-01,6.663087485639451746e-02,1.972912644998290888e-01
5.195386938903911620e-04,2.902624148176072283e-02,3.864679915856759213e-02,1.965137694915438868e-02,3.225956187399777603e-02,4.478299107394802941e-02,1.635091652763648595e-01,2.136441703580444496e-01,6.489841950047640917e-02,2.626172113466673230e-01
7.349346983238838745e-04,1.280332271065398771e-02,4.505788638600431717e-02,9.429323578217137236e-03,3.002518539599477107e-02,3.616834744581060024e-02,1.168449268515838468e-01,1.227613243711004332e-01,6.396960222639928861e-02,2.799485851537061309e-01
5.008533752235069933e-04,6.662767346263410301e-04,5.599059878183674371e-02,1.131931253160043359e-02,2.305647864525596849e-02,2.221996111558532244e-02,5.974862428012006621e-02,3.317354340442786598e-02,6.376189039807497738e-02,2.433570221762272334e-01
3.899686565822458521e-04,4.886546809306363537e-03,5.355654082176329600e-02,3.056181435150566450e-02,7.166884620374972849e-03,1.759453615434724465e-03,1.803088104883623227e-02,2.815841745238829574e-01,5.650139205515222057e-02,1.784849878527774159e-01
4.783840386988122135e-04,1.701632140297650031e-02,3.436565550581842376e-02,3.759757456846080786e-02,1.142178983538224939e-02,2.890635094345306300e-02,9.205089146995618088e-02,5.095643575805031134e-01,4.228952624432817664e-02,1.386099309165245430e-01
5.187384176803806583e-04,1.893709411655179753e-02,1.821061899991905167e-02,4.418742934179811788e-02,2.214339032982123867e-02,4.330096710428918416e-02,1.184356494218355288e-01,5.733514720895472871e-01,2.935824488017862999e-02,1.415492988692161336e-01
4.678579474974706902e-04,8.093617654537870951e-03,2.093504841199876967e-02,6.310968864760257979e-02,2.401235662730176121e-02,4.110513482828480336e-02,9.886665804973442107e-02,4.786040639329532942e-01,1.850272496532230290e-02,1.502576060039345629e-01
4.395846850850097971e-04,1.172365563946937191e-03,3.228077982311649413e-02,8.407937274771321023e-02,2.346067580235300029e-02,3.407133260468167557e-02,7.372878047026926174e-02,3.405650425297331307e-01,4.070845863991147742e-03,1.313455544005475151e-01
4.553135170912817899e-04,2.727274772456551866e-03,3.196559954496316913e-02,8.592481893699431550e-02,2.270195763182128110e-02,3.025062653901419707e-02,5.439923155385938819e-02,2.144847161648798517e-01,9.815592053475010598e-03,8.923174558223864739e-02
4.616804036798872178e-04,8.486189153200854665e-03,1.718748467530476637e-02,6.050069951526313577e-02,1.899068725547441855e-02,2.574629895218742345e-02,1.895768446390171114e-02,7.641324185388717605e-02,9.105018195995420727e-03,3.881604478999987201e-02
4.476045071682897250e-04,2.786741096530074430e-02,1.071484181013148849e-03,1.478519880978511336e-02,1.134312471549965735e-02,1.743123881436778322e-02,2.872249066299013831e-02,7.211976128566580102e-02,1.207154920699908020e-02,1.714373371459678927e-02
4.375103022439472676e-04,5.105320188565792838e-02,9.187490751014692689e-03,3.882666218249707091e-02,2.662872397477023673e-03,1.144367691297142227e-02,4.513336491366412573e-02,1.842403755249372999e-01,4.191463392623966111e-02,8.242152560734812561e-02
4.364558887591372840e-04,6.050500155762209009e-02,1.841711889278378755e-02,8.605173415890675359e-02,2.438340328758242630e-03,1.466919283096041263e-02,1.415225270181065878e-03,2.342239850481675767e-01,6.303763390779443254e-02,1.545680336495657559e-01
4.326459487169295086e-04,5.187716489613244941e-02,2.913209233987771804e-02,1.182408405656581729e-01,1.733839849176916107e-03,2.488273229388577104e-02,7.436522999310582471e-02,2.369217159153867436e-01,7.196199656184602833e-02,2.177896239161341008e-01
4.231676977514258202e-04,3.690839387739926897e-02,3.362117616383218655e-02,1.425912602870872958e-01,1.145880391019492338e-03,3.399119767102327938e-02,1.246424607574597304e-01,2.125878885270068019e-01,8.149336943220365781e-02,2.595234938634956023e-01
4.131403119057359854e-04,2.768987695512504371e-02,2.538509046776461428e-02,1.671123940939483465e-01,9.598424906040938388e-04,3.738036055978052885e-02,1.242114682161697126e-01,1.781182269089513770e-01,9.859081039142554570e-02,2.878733562648049804e-01
4.036645384685978656e-04,2.228203459812771320e-02,1.208428947144953372e-02,1.751732953773994517e-01,5.568421238083996142e-04,3.584944904235954494e-02,9.505559202255794982e-02,1.698657219742774060e-01,1.069128556158396859e-01,3.004011366276934103e-01
3.920833161427062993e-04,8.446207652289046408e-03,9.507900530289561947e-03,1.424560429789137606e-01,3.380928477274349440e-03,3.111505101465070547e-02,6.362996923745442568e-02,2.311888374623355391e-01,8.550714018573786490e-02,2.625262351122494286e-01
3.776356569024951534e-04,1.799438638655836281e-02,2.293517478536744730e-02,7.797103465917358533e-02,1.350219443622601226e-02,2.439909328812836509e-02,3.519913296767892413e-02,3.506143770311195285e-01,3.963060548888374529e-02,1.744967844750798802e-01
3.614104152856633312e-04,4.324097628168065838e-02,4.023423460528779971e-02,1.837704615709097669e-02,2.277510273970293972e-02,1.771023274168360626e-02,9.204356135769281577e-03,4.447399757469639447e-01,4.747555729389604795e-03,1.187087877056293428e-01
3.437034959880854541e-04,4.874968096047287841e-02,4.418289845058137599e-02,1.372379361462275869e-02,2.606045383165913817e-02,1.183664341351631580e-02,1.704328526949379363e-02,4.520629197740532179e-01,3.127136752587721114e-02,1.637263045477179713e-01
3.240102604450680827e-04,3.132453188946798806e-02,2.680702967170602025e-02,2.083609078748866611e-02,2.429446505360847997e-02,5.086256870665975018e-03,5.206666174375457201e-02,4.112696344462210551e-01,4.093148503103023750e-02,2.540386521257908536e-01
3.022636339620130290e-04,6.768584104409726757e-03,7.725144193748834445e-03,1.356165102470330980e-02,1.992597559494663217e-02,1.645733987025517660e-03,7.842723529998434084e-02,3.718381443986602530e-01,4.090275126926206511e-02,2.674614445179416822e-01
2.788521553406290380e-04,3.239990285086860253e-03,4.660646084536434336e-02,5.663872383306062588e-03,1.476202108185770134e-02,2.343632362491645648e-03,4.287077349666063020e-02,2.757532166848016830e-01,4.397170315026985993e-02,1.679280280843319928e-01
2.540387661632500268e-04,1.195704054522395664e-02,7.200690257866627919e-02,1.067161802159018354e-02,1.113115947162813396e-02,5.332620872457049903e-03,6.927956583581065808e-02,4.899470600749211702e-02,6.579016150812048991e-02,4.410848375469716282e-02
2.279404426545934977e-04,4.360993367319208891e-02,6.925467404849426634e-02,2.667927250123452651e-02,1.034520545369337421e-02,1.254780168917141170e-02,1.830385953861090320e-01,2.312232189173968055e-01,1.058613883043292431e-01,1.185261406537054321e-02
2.007916272786347653e-04,7.277628433516757089e-02,3.902083299483934814e-02,4.137802936206641524e-02,1.106999904789809398e-02,8.970091018874370298e-03,2.180787601098797823e-01,3.998416873121153903e-01,1.432963544353936525e-01,1.403088448668615359e-02
1.729495586595407883e-04,8.894944954489866773e-02,2.538432182759775384e-03,6.078501605509891575e-02,1.164057601952184044e-02,2.186790175047499153e-03,1.900932215723989127e-01,4.021544955145187616e-01,1.644117903975428896e-01,2.959803408679476458e-02
1.447662992709797725e-04,9.487867321497266138e-02,4.093462723370989292e-02,1.077193505725784067e-01,1.262004839325743012e-02,7.454870722786183061e-03,1.700974575370403641e-01,3.168431747060172499e-01,1.829253993645462151e-01,5.630469012405299456e-02
1.165733065027285762e-04,9.427710352756436818e-02,7.412121941944822823e-02,1.792900149885107708e-01,1.565550743315687748e-02,5.458991869165315952e-04,1.799877558683502521e-01,2.318582522237708221e-01,2.176771420835230397e-01,3.085862750256999909e-02
8.871992383960739599e-05,8.547959767763942118e-02,1.014904751624544355e-01,2.323817926010517954e-01,2.047334832574064858e-02,1.128576648038331215e-02,1.810080769931733113e-01,1.767470044780183602e-01,2.571862407444264753e-01,5.197620314720246409e-02
6.157077293950685465e-05,6.929034904438850784e-02,1.141267308893321730e-01,2.292166056774489480e-01,2.377360959490349562e-02,1.810702821349937167e-02,1.345359826173809781e-01,1.241514559291157782e-01,2.666332820402558257e-01,1.114965981818545199e-01
3.549654083696841112e-05,5.192521674907884383e-02,1.068992076382627721e-01,1.769211866937971944e-01,2.198394332966597739e-02,1.873812348528767699e-02,4.309387228240885853e-02,3.780094113033168057e-02,2.318945590319648753e-01,8.638089344624573507e-02
1.085974396779578778e-05,3.697867967622173180e-02,9.061307312802820146e-02,1.084948115375893446e-01,1.599026063837629547e-02,2.068285632082168118e-02,4.147178591202141384e-02,3.256448947989447340e-02,1.757764840521083560e-01,1.007357779747364811e-02
1.203838173647739162e-05,2.434661263487299804e-02,7.905098128432828941e-02,4.694379400175160977e-02,1.141868367483927019e-02,3.002427950737365098e-02,5.277110863474784863e-02,2.999998241232704199e-02,1.252597498576614732e-01,4.128692064682840807e-02
3.295799591919067255e-05,1.795615845782261299e-02,7.013081404798864049e-02,1.293053472700288371e-03,1.195028653002896610e-02,4.210437422227480270e-02,1.535927607376880166e-02,2.315658116268394795e-01,8.445029631092548783e-02,4.565471030715125000e-02
5.160960509064429065e-05,2.348010314094543804e-02,5.226403359512800384e-02,2.586701125529594636e-02,1.485664666534097962e-02,4.709781388840311028e-02,9.868033938034571906e-02,4.284813151502651074e-01,4.761740765196140202e-02,4.955821693376064735e-02
6.767085300187947899e-05,3.742340044491732076e-02,2.437670212750725138e-02,4.285399085013247983e-02,1.631494063023083280e-02,4.547710713069585964e-02,1.523876522306759906e-01,5.288166673281430308e-01,1.787720642582008718e-02,9.130488382434559513e-02
8.105358842209003608e-05,4.862125907663719659e-02,2.967183077625506257e-03,6.154210198896312156e-02,1.753299623234466295e-02,4.766914009368113103e-02,1.913180031790917834e-01,5.830387641113593533e-01,1.630499373513685790e-03,1.502374846267843234e-01
9.189238157113327195e-05,5.243996869003807182e-02,2.168070330202997303e-02,7.549862084954644947e-02,2.129376452233733633e-02,5.600805952217154798e-02,2.235891342311189522e-01,6.328478157809012128e-01,2.138337875125306126e-03,1.874069614155151331e-01
9.998205012659146869e-05,5.500127178203082640e-02,2.807785972361144175e-02,6.795788480512511553e-02,2.576069221722345967e-02,5.972194047021067709e-02,2.249444072359625679e-01,6.360627259962043922e-01,1.737131750834518956e-04,1.906256664109611809e-01
1.047960806115897275e-04,5.911783253645663816e-02,1.739996523400538439e-02,4.499744779176520493e-02,2.619591193634987492e-02,5.057543958452972999e-02,1.924223024590364650e-01,5.704805904167381536e-01,5.643758159095627752e-04,1.579404611361550637e-01
1.066956869095953334e-04,5.388741690663714085e-02,6.573296880907702859e-03,2.843386754124752058e-02,2.094996096505805094e-02,3.166037731567271363e-02,1.489810776004056592e-01,4.645717446221931390e-01,9.541820433896834597e-03,9.411850047130970731e-02
1.069233394907248178e-04,2.840156988118644824e-02,2.323200842559527968e-02,1.590652391495811155e-02,1.266387451329927492e-02,9.935162817188808795e-03,9.661915053061956304e-02,3.230142025625314384e-01,3.260170479658947018e-02,5.070922034498966807e-02
1.050163744977387675e-04,8.077940607831029032e-03,1.551870213295644500e-02,1.035502711994272518e-02,4.483834083657458475e-03,9.563522377032515967e-03,2.594339873397902285e-02,1.491920175905321888e-01,5.995586473946300232e-02,9.464037613072004418e-02
9.874602694432603554e-05,3.265151112775502990e-02,7.080734738626846304e-03,3.775073223707817172e-02,2.774440456758635667e-03,2.281442061181341088e-02,4.356726951772388334e-02,1.990453726226279474e-02,7.921437817366192014e-02,1.900088867979302931e-01
8.962886225636838681e-05,3.533686146816578111e-02,2.299303453549070633e-02,3.269972000262762191e-02,9.251166325490490366e-03,2.809411487005303645e-02,8.149889478350604011e-02,1.955584855971186781e-02,8.393497723879418670e-02,1.928213793650142283e-01
8.318624963737500713e-05,2.728119021463931010e-02,2.797935983593877185e-02,6.465497678502900303e-03,1.363146632615210886e-02,2.756614522204551068e-02,8.782358404215104275e-02,1.164711200169491895e-01,7.630546589144186764e-02,3.225273167865257140e-02
7.716269847458981617e-05,2.288057994751173385e-02,3.191857303404612572e-02,4.602796687547761750e-02,1.528674101702811802e-02,2.496190435087129039e-02,8.722222915117129605e-02,1.900308230889145855e-01,6.644469024213042752e-02,1.771708463749732398e-01
6.064361305232454430e-05,2.582564060298115846e-02,3.563740943997315697e-02,6.206242488424229542e-02,1.814374123958052004e-02,2.417873264556188312e-02,9.796111758765410626e-02,1.631506114765657045e-01,6.551883210331557739e-02,2.763714200954441313e-01
3.917074527714255042e-05,3.329343872233757329e-02,3.420689069026228851e-02,6.003966172598883266e-02,2.666067684356858425e-02,2.792349506101295467e-02,1.144001280247542857e-01,5.955805757519755383e-02,7.457590601774419237e-02,2.427854955680034954e-01
3.725732146774637655e-05,4.256262543056159309e-02,3.628127021390373935e-02,5.553717667101644440e-02,3.742526133569074737e-02,3.243751081696451266e-02,1.065096830274094852e-01,4.639726368060220763e-02,8.670480218037804332e-02,1.627495731148345393e-01
4.479001341084924362e-05,5.093748211116987112e-02,5.184910569104694833e-02,5.365996578638938114e-02,4.220569026746948116e-02,2.928683560656928850e-02,5.298986001697204851e-02,1.127441782892750904e-01,9.954877245471138725e-02,9.604822419784359022e-02
1.022711409219097519e-05,5.614735402808745252e-02,6.382157883766799433e-02,4.467060666725972129e-02,3.976351331513444665e-02,1.857127894493931786e-02,1.364627536430797379e-02,1.650360709345804200e-01,1.133723447598483508e-01,4.258326175664810254e-02
4.513222184134831137e-05,5.755891254376047095e-02,4.317235167802029039e-02,1.711270684095744093e-02,3.538470305092230456e-02,1.041261314916256883e-02,3.850037100053093492e-02,2.269960383365424439e-01,1.202331891359607052e-01,7.161731606917598816e-03
9.531544860423157991e-06,5.297063914389421591e-02,6.269702511972321569e-03,2.078987041084489132e-02,2.953798144033674758e-02,7.753025071833941767e-03,3.004878637280453124e-02,2.367251828886571263e-01,1.113785874086558880e-01,5.891116253428153871e-02
7.565212502521000647e-05,3.898029397181294875e-02,4.757846281303964447e-02,4.151696638371916298e-02,1.886297905101152680e-02,2.471221928958909370e-03,4.785249829193567728e-02,1.176028264541199020e-01,9.287803324551367756e-02,1.319036537995993685e-01
3.100004371206162063e-05,2.059290194940418747e-02,5.714039862112207935e-02,3.154058621304645094e-02,7.214856586416083621e-03,6.423376073108954393e-03,9.775420567196839439e-02,7.411627278271996910e-02,7.871472340544716229e-02,2.391113692147825709e-01
2.558694246520575358e-04,1.143049428038303214e-02,4.465105732886322232e-02,1.630052673314107137e-02,2.712208644743545685e-03,8.422486276877035050e-03,1.192343712615006046e-01,1.866364366502234751e-01,7.076529172526868638e-02,3.534031558064359979e-01
3.811610069089382027e-05,1.521243577790250268e-02,2.728316381133855106e-02,3.507674147599735420e-02,4.633104972177434777e-03,1.617355044263952754e-04,8.465533107851368200e-02,1.674442121716075704e-01,5.842867147660285587e-02,4.255105264303726820e-01
7.340860809466687523e-04,1.825311103196525925e-02,1.168536228852880970e-02,9.251234010232237126e-02,4.879941645402502762e-03,1.040844854497784654e-02,3.360511358299231310e-02,1.100262673219102316e-01,3.573699097507204020e-02,4.344570871361054243e-01
1.195903612721129373e-03,1.050340693358309090e-02,2.449807370389621777e-03,1.510096941363106571e-01,1.476555842108884416e-03,1.646625292833430593e-02,1.840186950997843573e-04,9.617531909660780032e-02,9.244610356908915944e-03,3.997449330270396728e-01
7.333152610389626980e-04,1.402058990059751927e-03,1.741385476512230307e-03,1.702278107113840422e-01,7.894994354270988210e-04,2.235767105208647312e-02,2.994783253385633129e-02,9.940102831528263572e-02,9.067045707546328090e-03,3.534535713608599194e-01
2.541739319177271038e-05,5.329839631082169439e-03,1.222541214734867206e-03,1.393801548703863524e-01,6.838861848995218644e-03,3.061748934176887135e-02,7.003235047371544897e-02,6.601974960629550249e-02,1.171568094584039994e-02,3.178492732561640222e-01
2.628161607172400526e-04,2.370120323989149957e-02,1.713316032003779979e-02,7.459483294700575140e-02,1.601009847187681578e-02,3.605381205752243579e-02,1.002054850185055135e-01,3.771961435415733740e-04,1.186570943023809721e-03,2.963654372007261117e-01
8.230555742414952833e-05,4.764420641168223142e-02,3.378399486675797564e-02,1.537526678462741280e-03,2.216278769544849717e-02,3.398189581061273473e-02,1.017352491046360635e-01,6.757441625021093357e-02,1.322153963193424715e-02,2.741508157850404692e-01
6.478067868049542895e-05,6.618183725506111836e-02,2.897097396959642801e-02,5.741495226487899894e-02,2.150339197311358641e-02,2.656163796578264041e-02,9.705333402243584984e-02,1.350186934884092804e-01,2.512041565640744933e-02,2.388753574463480522e-01
7.082352430985929166e-05,7.020756652605628090e-02,6.861767407678347197e-03,9.071934831864827964e-02,1.379713539418371201e-02,1.865218662010966616e-02,1.195894680865782628e-01,2.015053915310051347e-01,3.302864007516983363e-02,2.007607264169369299e-01
6.446778410072433597e-05,6.101755653425168513e-02,4.792672724014105821e-04,1.035697411947518326e-01,3.992922022099606311e-03,1.343660115051428794e-02,1.630655751454434810e-01,2.377545540720902850e-01,3.373717774988026913e-02,1.786515031955053512e-01
2.340357942768485073e-04,5.281677613094207246e-02,2.460684386306316238e-02,1.158637289289689704e-01,1.114146738200088183e-03,1.378798779912002517e-02,1.988679096108917355e-01,2.353543857026128006e-01,2.589884440825694287e-02,1.680957275775023241e-01
1.292575466523244126e-05,5.578077956990740160e-02,5.889954501327174241e-02,1.402584036535492185e-01,1.065810032978333627e-02,2.263697572235158842e-02,2.281773160976683368e-01,2.533114804549342902e-01,1.839795704025302958e-02,1.370321181448337922e-01
7.793299399490295721e-04,6.292169800048026673e-02,6.815826519391156302e-02,1.592363509638992092e-01,2.794339071602581007e-02,3.871830057641857670e-02,2.704310193062164358e-01,3.445304917690032998e-01,1.828880681309041564e-02,6.539068503926670495e-02
1.247218958984111980e-03,6.297638756411121086e-02,5.133337457952184824e-02,1.429969331008557054e-01,4.140007092617847134e-02,5.468451463953923758e-02,3.112441614179407012e-01,4.571015116531620959e-01,1.451497950498209510e-02,1.649578531555205563e-02
7.879551019721748586e-04,5.733007298771344157e-02,3.688773579462871488e-02,9.357808027864947253e-02,4.357111440815340797e-02,6.351529224986950106e-02,3.156489669473516169e-01,4.861664975530513577e-01,6.228666102175219564e-03,5.740969865634069913e-02
1.529307054722711510e-05,5.578085022044531466e-02,4.314018447819365637e-02,4.836117226994492840e-02,3.820964154540227448e-02,6.592838731571758204e-02,2.898247551280611622e-01,4.111757177798813223e-01,3.290247641467477363e-02,5.764434383005836299e-02
2.062045644096836556e-04,6.281634284657768019e-02,6.193043696648610486e-02,3.631804975933052015e-02,3.487117332440665962e-02,6.760560209937144238e-02,2.773931563085811347e-01,3.078477104838141520e-01,4.052771871608736032e-02,6.855409144038129843e-02
1.137414923841869110e-05,7.302404491708465450e-02,7.840710072206739933e-02,5.308352372328107444e-02,3.764895665816226505e-02,7.029970432193514973e-02,2.935226303240031642e-01,2.426213816435313086e-01,2.156263253204702274e-02,1.037924951732785150e-01
1.072010620798806977e-04,7.434327497912536498e-02,8.967444663255604020e-02,7.974443316056718800e-02,4.244397350740016644e-02,6.958038475916057675e-02,3.051196548380608609e-01,2.293316702033227628e-01,1.176261502559537708e-02,1.076598429813886842e-01
7.937167426526349875e-06,5.532792645986092661e-02,1.013471792677992922e-01,1.010262033528845915e-01,4.405982717583988711e-02,6.067480241442250316e-02,2.771362395361052777e-01,2.701718124454805525e-01,4.756694774235770140e-02,4.502098076171168195e-02
4.500636306058401331e-05,1.727950827674302331e-02,1.155620865119951490e-01,1.014138923553526278e-01,4.147174023938327014e-02,4.434952251727857647e-02,2.124084585266001191e-01,3.642392168953526577e-01,7.813914612556956130e-02,3.468987240081668200e-02
1.054754473020143933e-05,1.969932469531358865e-02,1.263794915579679878e-01,6.950423947919300016e-02,3.550951453201240532e-02,2.662159298810727603e-02,1.461474186930830366e-01,4.741815894197986547e-01,9.393279799470423408e-02,6.380112525815850866e-02
1.543396682231328878e-07,3.160067785100419829e-02,1.251188663110765209e-01,2.061150634360356393e-02,2.583436671958160361e-02,1.277297631651052451e-02,1.094378127446607174e-01,5.405805412511670571e-01,9.185202009242217358e-02,4.008225709865824438e-02
3.269232441197046353e-05,1.572907821187341515e-02,1.110746594158667777e-01,2.506300226394119965e-04,1.400919801433988046e-02,3.616992708386880702e-03,9.794036363266772627e-02,5.439488899959112889e-01,8.160128120789264528e-02,1.519446847202808419e-02
5.766603215034980573e-05,4.204549565327499357e-03,9.577587031372877813e-02,3.687786363872935097e-02,5.495595099939749872e-03,2.380154384079334086e-03,7.831656731069694399e-02,5.056956160896923791e-01,7.275114248346543910e-02,2.890952678557135586e-02
6.653249962926640520e-05,1.503401492349232260e-03,8.964163286950699305e-02,9.309857775779588340e-02,1.360263029763249167e-03,8.631327350428447814e-03,1.896080536585304649e-02,4.171774646822498656e-01,6.364550497254294059e-02,5.742791209289416221e-02
8.205777147717676940e-05,2.872087012170589440e-02,8.436509848114935595e-02,8.322332379680894010e-02,7.670374755386436330e-03,2.121396890531855942e-02,8.829966930138596903e-02,2.453186089064373909e-01,4.539881450991283679e-02,2.016143011492387699e-02
1.040265772757903716e-04,6.933741073625987461e-02,5.876596504913598334e-02,1.940803484794044118e-02,2.827337140888934452e-02,4.058691743008938091e-02,2.143366708675734089e-01,3.568846876338345464e-02,8.176843799485593658e-03,1.247277389197616604e-01
1.232888312390135641e-04,9.890198474690722885e-02,6.077909985828445182e-03,1.344951640830295558e-01,4.984590639068497281e-02,5.366548775773779395e-02,2.940998571167393605e-01,8.757356799944476800e-02,4.929134224542085219e-02,2.929892383682635715e-01
1.480392137897194719e-04,1.044566125217558095e-01,5.215619726998396016e-02,1.731266520528277619e-01,5.556918968285237681e-02,4.676997299069196590e-02,2.748001017334807949e-01,6.859571092799918168e-02,1.073098629292139061e-01,3.503347022256644294e-01
1.783844946844560147e-04,8.396899358639350885e-02,8.465008536351489865e-02,1.472348171399859296e-01,4.534579179261280513e-02,2.550903469494177761e-02,1.737693431472424610e-01,1.649109639333644350e-02,1.361828389293133212e-01,2.780127825561205523e-01
1.914816145888117733e-04,4.787318400558757125e-02,7.880246950720685983e-02,1.291356423690638855e-01,3.486494839065424484e-02,8.334302903013745406e-03,6.025086728438529271e-02,7.632942529640712737e-02,1.270707416127390688e-01,1.843187061717864172e-01
1.941943432770568633e-04,1.669281977302890935e-02,4.889570758321121202e-02,1.417407047871472592e-01,3.324190606894897315e-02,1.855919322591822107e-03,2.148532967832349205e-02,1.196743755677590337e-01,9.671549579772764638e-02,1.484182231829407339e-01
2.366007342287599355e-04,6.169174148815267759e-03,2.402849837949756068e-02,1.534642505462034956e-01,3.384083546711426360e-02,3.749640503446905089e-03,7.947067582129339891e-02,2.202386688335626064e-01,6.031968322073401334e-02,1.403599434451452410e-01
3.002748338240209566e-04,1.417244957213984607e-02,2.911046740573962691e-02,1.498663085410246176e-01,2.789781232488721188e-02,1.567377807747677085e-02,1.275702970464515362e-01,3.915503490789731256e-01,1.791704934557640516e-02,1.088358829226049457e-01
2.756149433877127099e-04,2.789102636470166749e-02,6.411636595738393063e-02,1.412398579907729879e-01,1.644779400402793940e-02,2.773584117940861016e-02,1.514144300913865260e-01,5.341360515328004155e-01,2.993068503018940507e-02,5.593488054843070989e-02
1.997954578645073833e-04,3.861696883850343487e-02,9.733503098834295209e-02,1.201728927550295006e-01,5.810751130441204129e-03,3.039446047765371681e-02,1.348561641477807882e-01,5.401944195356330747e-01,6.860816570679420523e-02,3.265507469453629574e-03
3.100165354322802539e-04,4.298368002272866945e-02,9.239472422070793556e-02,7.147307076691107597e-02,6.639485841192986453e-04,2.183994241430595173e-02,9.317841219483398441e-02,4.285257865152376500e-01,8.140301539236544093e-02,6.845303177501657621e-02
5.406088917762725491e-04,3.775021964902053329e-02,4.969036059349246637e-02,1.091222137650999999e-02,2.391934111847412048e-03,6.387682156270502176e-03,5.631964348703408924e-02,3.103355541708376353e-01,6.936681822466489455e-02,1.102491989945254963e-01
3.396434691488339178e-04,2.347164302467220562e-02,1.244871513332482423e-02,2.798016425593970527e-02,8.306779155302763083e-04,1.058251255248942972e-02,2.936882811425325576e-02,2.383196245915401856e-01,4.735169570531617966e-02,8.029854063959940280e-02
4.211086758832122525e-04,9.130713404210635820e-03,2.232039442361541393e-02,3.592184671942774687e-02,6.661976905540555743e-03,2.325123527035389062e-02,9.877897486813658895e-03,1.683024114076553945e-01,2.266605945811810824e-02,8.273587734810072813e-03
8.962255095053403217e-04,4.020323514491023695e-03,7.401415369930279542e-02,3.228439246121525552e-02,1.032260975777739807e-02,2.808453803335754506e-02,7.694205853749055968e-02,5.213448636743488879e-02,6.503266658865438504e-03,8.516916494032877871e-02
4.374355259081594846e-04,5.927667908288784641e-03,1.252203800375680520e-01,3.629592448012219225e-02,1.077238760035814993e-02,2.933041747716900668e-02,1.596386573790885555e-01,1.098822270737203205e-01,3.418653012016923537e-02,1.248194855927577396e-01
3.692043732501375415e-04,4.257840890392017644e-03,1.443643319204997999e-01,4.914884161037476329e-02,1.272595300960106118e-02,3.601405106646381887e-02,2.325930131346684304e-01,2.972526725628554245e-01,4.912161705425410752e-02,1.691687853530242369e-01
6.341636769114170893e-04,4.538308909795231785e-03,1.322512839516568894e-01,6.210924466843884689e-02,1.869480379112305538e-02,5.012861641701384097e-02,2.824466266786779256e-01,4.895415653452782068e-01,5.310735442238145865e-02,2.294394823689442364e-01
3.686518776212992059e-04,1.236377828698975202e-02,1.064281960720200731e-01,7.324262651310126104e-02,2.242016039086036638e-02,6.176613123744822270e-02,3.098784167348691554e-01,6.590943836487761498e-01,5.675694121326654851e-02,2.439112006543854294e-01
1.751933143451999092e-04,1.381457757565224959e-02,8.499168995770381430e-02,9.044537968515793669e-02,1.593519434165635573e-02,5.997987429168528256e-02,3.120316552367950469e-01,7.785665916076406345e-01,5.938082082784226085e-02,1.762205761770201107e-01
3.649474125444848618e-04,1.361733221578178069e-02,7.829366841758567119e-02,1.180566545285179347e-01,2.744743794849262373e-03,4.694739583021220047e-02,2.812473484576676896e-01,8.436225931056888783e-01,5.225616018367845034e-02,9.025211958083316499e-02
6.272231003856085663e-04,1.147775222638831340e-02,8.000118475044458444e-02,1.449357532169359697e-01,3.504556971454480044e-03,3.505773065862641258e-02,2.198988728520191449e-01,8.671133711060202698e-01,3.970310435862035858e-02,6.382843628970963357e-02
3.601703974465030522e-04,3.113785822149768394e-03,7.232025797068535045e-02,1.484395811415681887e-01,3.696579791134618504e-03,2.913492327402397719e-02,1.380930107054105793e-01,8.424535011846198129e-01,3.949701075754007140e-02,7.912731059720298776e-02
4.470863052163664714e-04,2.785722367250293915e-02,4.872792550855606364e-02,1.137293266898546790e-01,1.609704651826356775e-02,2.245146063830373226e-02,5.017836435025841563e-02,7.489012481800255694e-01,6.086689259064803625e-02,8.290553877437341346e-02
9.050848656756220164e-04,4.177870390856237154e-02,2.412823288075446881e-02,5.462082613515389928e-02,2.354719070202518361e-02,1.357943155345312305e-02,1.094860067587751298e-02,6.057331879843087519e-01,9.402823539919660800e-02,1.062702441782209795e-01
4.270735871817105708e-04,3.638089741687357964e-02,1.827069257611053932e-02,1.133176526021266450e-02,2.406970396118713468e-02,1.117157741716276464e-02,1.563282096529988729e-02,4.619389521923423225e-01,1.235182933309711822e-01,2.046183896384998480e-01
3.400582820386413726e-04,2.752540122051329308e-02,3.587441354816639505e-02,1.785106370262483019e-02,1.831186475416611906e-02,1.663710036974413303e-02,9.498825921126663463e-03,3.323371046591919176e-01,1.414985749108745861e-01,3.151775786337849272e-01
5.504147142661528890e-04,2.614937221863298036e-02,6.308245663541128812e-02,7.044783789050929057e-02,6.739125626656038148e-03,2.029647700390062315e-02,9.762024482019002192e-03,2.328709079217709532e-01,1.452340492090926916e-01,3.140793725269194758e-01
3.300561709891007122e-04,2.430900922446205953e-02,7.785591115798420891e-02,1.304954625216648012e-01,3.825439008110524761e-03,1.946763848193567084e-02,6.693186300866328653e-03,2.402667529529413093e-01,1.335713113266762397e-01,1.967224913064011815e-01
2.324733256969715035e-04,1.767588705895671575e-02,6.811709768792269248e-02,1.551378143550485866e-01,2.945896768274057585e-03,2.177385514540024214e-02,1.653985137732475255e-02,3.765039452021232136e-01,1.123952273350959513e-01,7.912694267057084063e-02
3.283620681911622553e-04,1.634412763862070489e-02,4.357892650639827448e-02,1.235720948536613295e-01,9.906560542542708694e-03,2.772520512807098367e-02,7.780520331518314681e-02,4.914315343210101661e-01,9.422218463732967564e-02,4.122812504107594561e-02
3.774054689496137154e-04,2.668359171506619332e-02,2.244848676141599636e-02,4.259382115034750921e-02,2.333299275283097496e-02,2.771105662741616890e-02,1.172981863823336635e-01,4.295868956533520633e-01,8.531633481309490452e-02,6.459959113745289416e-02
3.314482566870518513e-04,4.205188252719617437e-02,8.315768684056892152e-03,5.783160936081838815e-02,2.796105952376720660e-02,1.863172312666466074e-02,1.253922366953820200e-01,2.610676050400531079e-01,7.891883118258578855e-02,9.346915043482409424e-02
3.060504220376872807e-04,5.510055007216482087e-02,6.084616516977881667e-03,1.366187094592307416e-01,2.619790968975716297e-02,9.872276460912203511e-03,1.569302219563606382e-01,1.874997740156539583e-01,6.638819621526197146e-02,8.844558083719716857e-02
3.425850149467785295e-04,6.447788802424885002e-02,1.780871435448815043e-02,1.716477875376525852e-01,2.640203346597105524e-02,1.070363127371036678e-02,2.254897507475274454e-01,2.644790815879843882e-01,4.916335428546540764e-02,5.775134337960459441e-02
3.779536451892787302e-04,6.879919570525962202e-02,1.587510194677392919e-02,1.806570582488542520e-01,3.101575445760295160e-02,1.996174750930933620e-02,2.668543101603260137e-01,3.570191906943101512e-01,3.330582941800788038e-02,6.353008652719088767e-02
3.548422286143545134e-04,6.470698798339240276e-02,5.796998109623393083e-04,1.935339833336823245e-01,3.351074618970236590e-02,2.972272218853200254e-02,2.330385917110509297e-01,3.413395091966086592e-01,1.869674363831349412e-02,1.403949686171374611e-01
3.213034830174124677e-04,5.073354663836320694e-02,2.317243016158468394e-02,2.107488527025052627e-01,2.781435949555110046e-02,3.518116714885789059e-02,1.640316162427030711e-01,2.319885231944356363e-01,2.734082070589904240e-03,2.110455871738234346e-01
3.842085167533800276e-04,2.921014826168324627e-02,4.464221425347561500e-02,2.112032650382924259e-01,1.683806943022000957e-02,3.777952726080754248e-02,1.343677057767830585e-01,1.113964392407981729e-01,1.171025925206616893e-02,1.634831859704032331e-01
4.826476949248169118e-04,5.539327272352016079e-03,5.521314367666588924e-02,1.864550180405922797e-01,6.778863305695828449e-03,3.788621023661343373e-02,1.564878767442861585e-01,2.215618921467496505e-02,2.296623529146581480e-02,9.696314913146259276e-03
3.937703819576170573e-04,1.622672241228174245e-02,4.234144327487187470e-02,1.418192371808220109e-01,2.977399804250440915e-03,3.018816976737536545e-02,1.686565608246915204e-01,4.992523883819611347e-02,3.839755504372731332e-02,1.114975432267329286e-01
2.243320912820811976e-04,3.771512973767142396e-02,7.645125787936107864e-03,8.429857002211517403e-02,1.615288928394038176e-02,1.300869259816635377e-02,1.217303471669520104e-01,1.280169490032341262e-01,6.189102452376819830e-02,9.987126240678466382e-02
4.616217817420736934e-04,6.028107305329737792e-02,2.757208647869827459e-02,3.467960769240122088e-02,2.875124417849677858e-02,3.806045130870310336e-03,5.029474741235903656e-02,1.989979532597729861e-01,7.836976143850339638e-02,1.228183409996159298e-04
8.780512497816417945e-04,7.624540540222020379e-02,4.430463813818866226e-02,2.252202354113051058e-02,3.170620991784519477e-02,1.014607034322013990e-02,2.320410155526872464e-02,2.240239639832934393e-01,6.718806241209085428e-02,8.132627152402584214e-02
1.081417718244610533e-04,7.732442692739299739e-02,4.428268489406404773e-02,4.316075268324551933e-02,2.378108366183832173e-02,9.897356387470610667e-03,3.761117428945968955e-02,2.082957756586148457e-01,3.164746599409704736e-02,1.072469270973644972e-01
2.314077347158287248e-03,7.122730925354349429e-02,4.061131424370476722e-02,5.259772503653421805e-02,1.334880708967235707e-02,1.447197343684080567e-02,2.013966442184750988e-02,2.217565367647157115e-01,3.104010034310797188e-04,1.076230413000471703e-01
4.277954862182019834e-03,7.458235691408485191e-02,4.114355367655338214e-02,2.735559960603513308e-02,7.089362825872494618e-03,2.618743195694306358e-02,5.801843849968451455e-02,2.961957477770036373e-01,4.898848675793959773e-03,7.977640541075699254e-02
3.484674347886572085e-03,8.724138499118723467e-02,4.742732489954112202e-02,5.855867348526783665e-03,3.922036807459237766e-03,3.666045560465033132e-02,1.331751064799517048e-01,3.532507709786487093e-01,1.052924652319537149e-02,7.908063630275010900e-03
8.237408636003027036e-04,8.998753264350660419e-02,5.951938707838454190e-02,1.815585237010879094e-02,7.263629333279491423e-04,3.964374011278579135e-02,1.475046004590051807e-01,3.144189158957788610e-01,2.884394974090015440e-02,1.207870584246209106e-01
9.099170207737580351e-04,7.060260843514920559e-02,7.439910168713620431e-02,1.953903063784371424e-02,2.162191719324945902e-03,3.763551241946565262e-02,1.316801304957322671e-01,2.200428535826665366e-01,4.303780970701537312e-02,1.793113518801264517e-01
8.580766563778034978e-04,3.665718886953473615e-02,8.584529937544757572e-02,3.312840886499067439e-02,3.274533227807751006e-03,3.451100184586326086e-02,1.367431109924364119e-01,1.466048426714620101e-01,5.647590552868644864e-02,1.808145460569429985e-01
3.540062390023681065e-04,2.215413680146837132e-03,9.103573263847940245e-02,5.961652593567431935e-02,3.180436609844752849e-03,2.855011527236155089e-02,1.395914752993264452e-01,7.936787480380563808e-02,6.915121603534059302e-02,1.874872183324244879e-01
2.994743280379760547e-04,2.265644468827261726e-02,9.369576885606609173e-02,8.545791704846437964e-02,1.908326502955123198e-03,1.767107802667439859e-02,9.001637578023478914e-02,2.739776454704535846e-02,7.625646848755554541e-02,2.040919947750340080e-01
4.829351126471133002e-04,3.028322689879745302e-02,9.679698387036728136e-02,1.025628335957407544e-01,3.867998534841568699e-03,6.830503074273668734e-03,1.445142734179329438e-02,1.262206991160541858e-01,7.771485406946725127e-02,1.867899936811015793e-01
6.775643961246474809e-04,1.711485977253220797e-02,9.538745898863619510e-02,1.061278625695421252e-01,1.632792386740922544e-02,3.664343133217321316e-03,7.859609433022295144e-03,1.193832068108694605e-01,7.865397451079395030e-02,1.511949345993455207e-01
6.575948031174384985e-04,1.102973416776345181e-02,8.336997379731654612e-02,9.375599091950764796e-02,2.994997233539367643e-02,8.131743033927579800e-03,4.252219083759489759e-02,2.878992014607270611e-03,7.948501096409252287e-02,1.522257225219648680e-01
1.249404077314693350e-04,3.938811540315650950e-02,6.556919968530236509e-02,7.706650985513990859e-02,3.482532409273694785e-02,1.126608436716938777e-02,1.033453569292250851e-01,1.441566814077062386e-01,7.417750425491057009e-02,1.734272364403948996e-01
1.559637215045601554e-03,5.035700320687985787e-02,5.361786372213282054e-02,7.620058443001916093e-02,2.792630152175845995e-02,5.011212452168288187e-03,1.174483218475434326e-01,2.091921750004763492e-01,6.131189420576982352e-02,1.411837417047761833e-01
2.358713516779671702e-03,3.513398779894957163e-02,5.053887718716143507e-02,9.932803328983906554e-02,1.694115252528565624e-02,8.822384442939345747e-03,9.057846374731234884e-02,1.842686112366015705e-01,4.939483951536093043e-02,4.736555367529673988e-02
1.619026891337349604e-03,4.749122306336244284e-03,5.044368947257640151e-02,1.416941096478855633e-01,1.193261619620009269e-02,2.076419125028152596e-02,6.083125563598774238e-02,1.262619438840895669e-01,4.626809219019640401e-02,2.679898955005392130e-02
1.640919954517296706e-04,1.772039557245924310e-02,5.269037893405519035e-02,1.899252205693716944e-01,1.582157865247159345e-02,2.378109296918714394e-02,4.916528918679802934e-02,1.015475118679114996e-01,4.833998427920359331e-02,2.598043144657130252e-02
6.064416748415570827e-04,2.139080644549523277e-02,6.231981973416731574e-02,2.064653101489932752e-01,2.163446380392199456e-02,1.947156059535926076e-02,4.881572753440083234e-02,1.228578083077413036e-01,4.548454838124676991e-02,7.173081618563406647e-03
4.876222016998241074e-04,1.734702210160423558e-02,7.416907880735099101e-02,1.416322477919017275e-01,1.749888121286710674e-02,1.529860610920977249e-02,4.097161013599855822e-02,1.395108695718312031e-01,3.377454503182950735e-02,9.938329722913426256e-03
2.409410305246843114e-04,2.203778755341697509e-02,7.054949768483516348e-02,3.052607259319532577e-03,1.929816818293571355e-03,1.745576491439621708e-02,1.561922423497143046e-02,1.093938136426471919e-01,1.920365099937312511e-02,1.354145746186568439e-03
2.654897828006111621e-04,3.794212788455724600e-02,4.093110519296988548e-02,1.521035729821139659e-01,2.817317854504184163e-02,2.520040521515036144e-02,1.316931248681793218e-02,6.418431278437411458e-02,1.009118676016905122e-02,5.647563267730829062e-02
3.447174678462370384e-04,5.312039050806657142e-02,5.137444188115825559e-03,2.313289624862041594e-01,4.726146337330214275e-02,3.176004868450034435e-02,2.062809885213993596e-02,6.023328992954692096e-02,9.326186266780603015e-03,1.871638139348796581e-01
3.041334285647019522e-04,5.638898081028900777e-02,4.866896922587642116e-02,2.416922933992804723e-01,5.424630580353133336e-02,3.285916069921264449e-02,7.173553203733886580e-03,8.334535864805919791e-02,1.471882666305751944e-02,2.908204060191733609e-01
2.381112877488089359e-04,4.894674340038791815e-02,7.630559780560712546e-02,2.288804445592399206e-01,5.409021711734479654e-02,3.208163943414906599e-02,3.421778157982752200e-04,6.681840966227906020e-02,2.398662551482478450e-02,2.610402031599760031e-01
2.289270817889969877e-04,3.913470813837165857e-02,8.301070058539511409e-02,2.062136848882428208e-01,5.029078378016361289e-02,3.361664989400375836e-02,6.189559813309375436e-03,1.770535766577797931e-03,3.589285986194225980e-02,1.342821177653519549e-01
2.339354905186401398e-04,3.089049409281810141e-02,7.164750805541249268e-02,1.498267857128645630e-01,4.020447548884121397e-02,3.420138437287878475e-02,1.731123151457927140e-03,6.445521426900505113e-02,4.692491973826531243e-02,4.447503958302553850e-02
2.144483196988305638e-04,2.326343401665596083e-02,5.485754300232704994e-02,5.970437826699564327e-02,2.219623280992396100e-02,2.857572399530252522e-02,2.469509256172824213e-02,8.690170020622822733e-02,5.145051605878191853e-02,3.036612806497001465e-02
1.902026177117438358e-04,1.618729312174491120e-02,4.711983142695910787e-02,1.874890622747453842e-02,1.231262420895783832e-03,1.755884733316103591e-02,4.948431912908827363e-02,9.398727441343349143e-02,4.740044835735553880e-02,5.477987281173678225e-03
1.797375712202306660e-04,9.494271162426147492e-03,5.023702373152189038e-02,4.316023794264131630e-02,1.503787500864949694e-02,4.282899219669475052e-03,6.352479074368719281e-02,1.023276651836135392e-01,3.839539169488449116e-02,6.406711080212786069e-02
1.741584244873020475e-04,1.499819618301892108e-04,5.389339050204429438e-02,1.900406559423913067e-02,2.305819512226829279e-02,1.100971774795497619e-02,9.204615471949822991e-02,9.010557551747228056e-02,2.851281216346397696e-02,9.466832352766471614e-02
1.647295176127223113e-04,1.303406995620172773e-02,5.048181530176994863e-02,1.274257565608160822e-02,2.498995897962109913e-02,2.649397697046697656e-02,1.362119586323241038e-01,4.985492360382525606e-02,1.894291156473719429e-02,4.251255222067384237e-02
1.554960739115252054e-04,2.447812633933048321e-02,4.161533938222521101e-02,1.943635523964687070e-02,2.502889598460545165e-02,3.652214892412711245e-02,1.477742413715233682e-01,1.052359156534912049e-02,1.092432356009701185e-02,9.571154933689436650e-03
1.505196816272854309e-04,2.664723878416769276e-02,3.134538527419276216e-02,2.163440444168811955e-03,2.582244977931850288e-02,3.902862312446212650e-02,9.491921526795313313e-02,5.670579856462937274e-03,6.812576249567325014e-03,1.256988977471780108e-02
1.478152728991262638e-04,1.929147463447469790e-02,1.951579607621448803e-02,4.419769991981712526e-02,2.908524155860602381e-02,3.870324045385396122e-02,9.315414618328146656e-03,4.106868921113837612e-03,6.272464347871983988e-03,6.154840819630340298e-02
1.452586886862375110e-04,1.195872360924770533e-02,3.164951649568471109e-03,1.023771164902725489e-01,3.684389112119718784e-02,4.041627514617610051e-02,5.175091575451936515e-02,8.866800976504440879e-04,5.111539635541435464e-03,5.989241308426460769e-02
1.435041541515608469e-04,1.533859592487048229e-02,1.598858554520988032e-02,1.535393086020390430e-01,4.725651935433758388e-02,4.510975811993547802e-02,5.242300072335495664e-02,1.932438050396820609e-02,5.530052865881426166e-04,2.090204663164771728e-02
1.432610032069032719e-04,2.713039254768572980e-02,2.856692664080214342e-02,1.478734187642579689e-01,5.113686998145675067e-02,5.114091733101646525e-02,8.935046437338181602e-03,7.611591615057464177e-02,1.043072574564956473e-02,1.125160219569588949e-02
1.439022299175178371e-04,3.068379001649317386e-02,2.784543445564097858e-02,6.365659394064968057e-02,4.019976755728647821e-02,5.445237831771797266e-02,9.269060588568323045e-02,1.407907086543427333e-01,2.062504301957162473e-02,4.877123616971940079e-02
1.447320056834687605e-04,1.528003197385377314e-02,2.004864043290150236e-02,4.905446821023090598e-02,1.855115322338682371e-02,5.070349439449518131e-02,1.373713742597448551e-01,1.507806692521131420e-01,2.775955073018367136e-02,9.302466229057390623e-02
1.456635528937328631e-04,8.566456082970460434e-03,1.634055964043595183e-02,1.162873628902884038e-01,6.701942471706765457e-04,4.143040946016755127e-02,1.219719758241132879e-01,9.152101178014057647e-02,3.202407689140653047e-02,1.032053034693563159e-01
1.466438728371110580e-04,2.415205009174114376e-02,1.850459744578520152e-02,1.151334867224100139e-01,9.123525003637380712e-03,3.381582742655957902e-02,9.019539164820145061e-02,1.351277865542014830e-02,3.515973607743043405e-02,6.755421114534167215e-02
1.473374173564586265e-04,2.977829542393319040e-02,2.138885008945797667e-02,7.272765966252987824e-02,8.224090163976871884e-03,3.195012064911149918e-02,8.933527547353518894e-02,4.171180378344007539e-02,3.663822336762638521e-02,1.147005478602506137e-03
1.474021318441732565e-04,3.222314072593805007e-02,2.508708760857864331e-02,1.178553183898486609e-02,2.212040648428459117e-03,3.310227693500564922e-02,1.115217397730738497e-01,7.544738306874140821e-02,3.374580383502664982e-02,7.737828273622845976e-02
1.466552599197336424e-04,2.853834758603535776e-02,3.463578460054085595e-02,6.416769465347800516e-02,7.496625287661897591e-03,3.386578481091723214e-02,1.188064014634484522e-01,8.796885191748909927e-02,2.491936378325450632e-02,1.446570606357334421e-01
1.449543235308713455e-04,1.080938388383631543e-02,4.925611927540477636e-02,1.345895001966282700e-01,1.928459346775984740e-02,3.484643855494574255e-02,1.040529559740443893e-01,6.478006258903748482e-02,1.251089877377924500e-02,2.080145634312849656e-01
1.421162431347919959e-04,1.441057093178377616e-02,6.007449363797319475e-02,1.546135595060223467e-01,2.659604699527354579e-02,3.699037181394822932e-02,9.603124507196242332e-02,1.521925230026223430e-02,2.355810281684883600e-03,2.663430993260744728e-01
1.379805683988879106e-04,2.803097761430249288e-02,5.908649118175500481e-02,1.066236065368761088e-01,2.203453263117817126e-02,3.756550291230881938e-02,1.101496504197370246e-01,2.719206830968966954e-02,8.964960977270383657e-04,2.789273486941589719e-01
1.324750914894946992e-04,2.369492980646675448e-02,4.659114425627224054e-02,2.841120814797074706e-02,7.248928083640036706e-03,3.440769727041503856e-02,1.284862123788585164e-01,4.868555033437545199e-02,1.695383863982400773e-03,2.007774992192788155e-01
1.255888409429939422e-04,1.787993405612838677e-02,3.109895704207236294e-02,3.295968899062423629e-02,6.452809741973200217e-03,3.190462370518819951e-02,1.364351083763513106e-01,6.763005963306191470e-02,5.516569363380142629e-03,7.060426731628592634e-02
1.172985301815379958e-04,2.677135588172283379e-02,2.289755756958346267e-02,6.505934511617238181e-02,9.961425051163784461e-03,3.571077847071553457e-02,1.425219822478019926e-01,1.080882215048670353e-01,8.565536474035344294e-03,8.781340486472498028e-03
1.075858681986650406e-04,4.333163610336024374e-02,2.333274970211579938e-02,7.329375141867390531e-02,4.980811058176444484e-03,4.120840756264340654e-02,1.455674072077798864e-01,1.752775735537094315e-01,1.230085620651238422e-02,6.423918243366358305e-02
9.656885443910905302e-05,4.823672356347734336e-02,2.152659147102575429e-02,6.101793719536164479e-02,1.372901639669157209e-03,3.685136204310539287e-02,1.242741333334069082e-01,2.491301516125719595e-01,1.622803068914127969e-02,1.130900127273892358e-01
8.448675207420983818e-05,3.665883134802245397e-02,8.339490457775163013e-03,4.249513286748081431e-02,6.456266079681856167e-03,2.244846794747368257e-02,8.537422640327703427e-02,3.055774629732648795e-01,1.598066864110313581e-02,8.708640356859415413e-03
7.142774381166511178e-05,2.117863915665185379e-02,1.045363888180175782e-02,3.786017113282960644e-02,1.236300698422277550e-02,1.247217675905436599e-02,7.508732536697550197e-02,3.453209289847883889e-01,9.816484679587789142e-03,2.042630759353850634e-01
5.733650677626040912e-05,1.100172187019314400e-02,2.248142981455274539e-02,4.342621676072533354e-02,1.882005521403952442e-02,1.506624825101145725e-02,1.074453553412021978e-01,3.818087759018602423e-01,3.422704144845061663e-03,3.380686481261898635e-01
4.257849288618592424e-05,2.369420579169997237e-03,2.282703859941611138e-02,3.634169016094279669e-02,2.217915247944944254e-02,2.079181813443999396e-02,1.319184716922517930e-01,4.103179890049537537e-01,2.034295795348555445e-03,2.958316936240936723e-01
2.792886233263515666e-05,8.443211803382347572e-03,1.371003793604925330e-02,9.968020638441380671e-03,2.185583620294349882e-02,1.999860178776848019e-02,1.129144502222984570e-01,4.191872920355264598e-01,2.464072563983770586e-04,1.505944182619314287e-01
1.335393322308708015e-05,1.590395446513495625e-02,1.729218937538694930e-03,2.145426809331257498e-02,2.109534842462108470e-02,1.710760699281935193e-02,8.378497110282417948e-02,4.120025858284538378e-01,1.263546494686023161e-02,1.196484582478335966e-02
2.017069096432705350e-06,1.625366773453997687e-02,6.425798498177688915e-04,4.803179121680959535e-02,1.948882766334780747e-02,1.782956452136623057e-02,7.526562374062470417e-02,3.834794530909486077e-01,2.693541980269214750e-02,8.755102443366660769e-02
1.731142135997610303e-05,1.750071630720812649e-02,1.377459984346465251e-02,6.861981098080546793e-02,1.223366957695338868e-02,1.659424804636647557e-02,5.607686720825161980e-02,3.039013704413984218e-01,1.923096207638898616e-02,1.712449669880437564e-01
2.980488787259377679e-05,2.738175336897565731e-02,3.088440483761282357e-02,7.618968542921725207e-02,2.819627906398213760e-04,8.795679077907106805e-03,1.098597249976623370e-03,1.727319784366850297e-01,1.851052285152492149e-02,2.583607352502087506e-01
4.045038197187761060e-05,3.852801772030835931e-02,2.758153630748682791e-02,6.303556601637466672e-02,7.012278635410738176e-03,2.836551532578827917e-03,4.528206704424708740e-02,6.171344417159890100e-02,6.236296117934109901e-02,3.482465325011869228e-01
5.427421665585048917e-05,3.728295338960809641e-02,3.092716072366101521e-03,3.958241609128880512e-02,4.122024107598018343e-03,7.204765634288666856e-03,3.326538358697454095e-02,5.608928172565465220e-02,8.371498048590532426e-02,4.275495980208542934e-01
6.859989008832472607e-05,2.134276261968019728e-02,2.034141123540684354e-02,3.178622162328337275e-02,3.776431099773366017e-03,1.492057304769912017e-02,1.098450312652388475e-02,1.491770373681328421e-01,8.012098425577750260e-02,4.785545050012914858e-01
7.191351184013281895e-05,3.557695026548432331e-04,3.038619976397741868e-02,5.542442388557170668e-02,9.544265891989742179e-03,1.078017403242628389e-02,7.907990323212273076e-03,2.162689046472186238e-01,6.787906406057651887e-02,4.916635205251400076e-01
6.900122986602294343e-05,1.335390735894055256e-02,3.495357429581052305e-02,9.516146204766741390e-02,1.077907647209396837e-02,1.139971287569687547e-02,9.343970807986527738e-02,1.291935761054941734e-01,5.660522193953948511e-02,4.658093880277444643e-01
8.404400019934222155e-05,1.168777052105218935e-02,3.423643483956538558e-02,1.127572249713653801e-01,6.426384363545577585e-03,4.230877031480050066e-02,2.564316223532587258e-01,8.152137046631420525e-02,4.482276889729243374e-02,3.951333231421665371e-01
1.070266756033303482e-04,2.984458669162350260e-04,1.041803840161578329e-02,8.290781003094831181e-02,3.582978376692377929e-03,6.434497604494390788e-02,3.731401800880542186e-01,2.382083703912194483e-01,3.304273114282756801e-02,2.679556155271151097e-01
8.573495713955088776e-05,3.123012980996557088e-03,3.985816454453678520e-02,1.996232068075018407e-02,1.491409748335990708e-02,6.674644189462046462e-02,3.706685001812279334e-01,2.386801802489522673e-01,2.684534936970022281e-02,8.119716383429281814e-02
4.001138114816479461e-05,1.531646937080722096e-02,8.577731730238657981e-02,3.681185511323804838e-02,2.222243742736530053e-02,5.541113134765832116e-02,2.952397198949544554e-01,1.800026317059245651e-01,2.762702929646141531e-02,1.419656491560659373e-01
8.196615129731046250e-05,3.893899315398558630e-02,9.536070253048195555e-02,6.039283073544945979e-02,2.427283448803400565e-02,4.479775598008550047e-02,2.462154320143675468e-01,1.914202062045804453e-01,3.050414977613634740e-02,3.413501467043032478e-01
1.725070734411143487e-04,4.096705560552429265e-02,7.470805901366978086e-02,5.458613604363098115e-02,2.183542970829305957e-02,4.131351263660585499e-02,2.480819580938687097e-01,2.474881958060470011e-01,3.224010742335122609e-02,4.443078063476650352e-01
6.891307392759871175e-05,2.083176601349749635e-02,5.527516077579301690e-02,4.296559680069673287e-02,1.426841618533370229e-02,3.829129041270315503e-02,2.399212964861463515e-01,2.333036836638872902e-01,3.355744468011077897e-02,4.241596602366269342e-01
1.604746607397600471e-04,4.853590954363299834e-03,5.056925767436132313e-02,4.497324022757410306e-02,1.368759880251944894e-03,2.631877144042973904e-02,1.740571548620671594e-01,1.155889507057310805e-01,3.349367607422906734e-02,3.208477905994842616e-01
4.771329515188175801e-05,8.091620910431269326e-03,4.617936366535582704e-02,6.027920398783122996e-02,1.261560717057257260e-02,7.465486922025667965e-03,8.054608602913071458e-02,2.543259151637614068e-02,2.879195919690351324e-02,1.877480931579405821e-01
8.167772671354096891e-04,1.550478014971379270e-02,3.016875889129312996e-02,7.122962516260164523e-02,1.918811469543552084e-02,2.766979030153408556e-03,2.985501200611263492e-02,9.565601475400870024e-02,1.970396517261113062e-02,4.441428895293319384e-02
1.277165095129184939e-03,8.775997156546120476e-03,1.005145897016479495e-02,5.548116465068429759e-02,1.406475726711355068e-02,6.505082406217798686e-03,4.797122437609763201e-02,7.601174568106967844e-02,1.063553688454652382e-02,9.622841595365468070e-02
7.908472303464709682e-04,5.666389172562455619e-03,5.878926562125798630e-03,7.094769064997850753e-04,5.185602509484493750e-03,2.523170548805714689e-02,9.121027197697312294e-02,1.495830037266578094e-02,4.282144068645239547e-03,1.973086196367775935e-01
3.625303596345634083e-06,8.019489498166046046e-03,2.184538543492731133e-02,7.740046116036207458e-02,3.809297126932589990e-03,3.583811819246648239e-02,1.157891369541936138e-01,4.659757396615085701e-02,2.159150458067669170e-04,2.399398161896084403e-01
2.361915111790586521e-04,6.655581991510665929e-03,3.794016651612878294e-02,1.306903410241253838e-01,6.444126127963748646e-03,3.805291001733952100e-02,1.318122143284615744e-01,1.055713332450317066e-01,3.382064119256832438e-03,2.493713313515326102e-01
2.966799192177652696e-05,2.412447263453850951e-02,3.867557796438995943e-02,1.152903025138416609e-01,3.431564242347504706e-03,4.578429157372834041e-02,1.574448972833835669e-01,1.527411386620785572e-01,4.876244310433660613e-03,2.307062515981249395e-01
5.302256234960430977e-05,2.924806690160705949e-02,1.250046069942704202e-02,4.387046927947803321e-02,3.226736722386004674e-02,6.415616519459324540e-02,1.709723002779679479e-01,1.582161067486936024e-01,6.986802503406623968e-03,1.453905809088553158e-01
5.606200415174067094e-05,1.876801618959505341e-02,2.880605915238777445e-02,1.826580774034394783e-02,6.477171571981420184e-02,8.336523481228023946e-02,1.498995754226255250e-01,1.223692138647742844e-01,1.349850739162809787e-02,6.543286058538801131e-04
1.138586736934845366e-04,2.031414411498901409e-03,6.209645900828979215e-02,2.318689572798128887e-02,8.084923419845188586e-02,9.245381319125960118e-02,1.128765982869372325e-01,1.073415204860098809e-01,2.420328129592498947e-02,1.230696254400724110e-01
8.099880568584524193e-05,2.774912388182569981e-02,7.794465093767859176e-02,7.921760968657197768e-03,7.802106980372686129e-02,8.957513888482157571e-02,8.896345770805227926e-02,1.974783387756127440e-01,3.394732055734617920e-02,1.818480916566700689e-01
6.938869902751627103e-05,5.480202590783620625e-02,8.606460844567945245e-02,1.752004834816938209e-02,7.037461160689956197e-02,7.933537845809696121e-02,7.963431909754631333e-02,4.115041555153466368e-01,3.781281152647657240e-02,2.272275573264317949e-01
9.874376754245350397e-05,7.768098257559900854e-02,9.828999002171387445e-02,1.685084131844591382e-02,6.867096263858546434e-02,6.604620751239242971e-02,7.347903509728394289e-02,6.481179346398504570e-01,3.560976447466109029e-02,3.211134510155274069e-01
1.168010380329813141e-04,8.894851304872068709e-02,1.116385383824461119e-01,6.543192663505405238e-02,6.938208212137968178e-02,5.134849071180946217e-02,7.160796596931028046e-02,7.635696747616604885e-01,3.087298030238548249e-02,4.476933025028692059e-01
1.135768802967520219e-04,8.502998508609883876e-02,1.116288701405246109e-01,9.196262646465801216e-02,6.308469586269267737e-02,3.521646345142591394e-02,7.831475394884845898e-02,7.193666289115711043e-01,2.617169546036028985e-02,5.309181009456127587e-01
1.133650994426620276e-04,6.882703582412205701e-02,9.163880486889486310e-02,8.837202414266391581e-02,4.634972289016082297e-02,1.665416401155228598e-02,8.114902399831691593e-02,5.968525587246601427e-01,2.101860762906097857e-02,5.134554600478029585e-01
1.211407694566296470e-04,4.590543727181073397e-02,6.272445418690500429e-02,6.545820839233956745e-02,2.339646805830122855e-02,4.725708710140356580e-03,5.738718700663076461e-02,4.612386061372891755e-01,1.536743745333038827e-02,4.113882975560115285e-01
1.256446889567897085e-04,2.051243904885970137e-02,4.026619142161660947e-02,3.804528615712223644e-02,1.023779237053692483e-03,2.593759778819170608e-02,6.494160990978461306e-04,2.943324840874184667e-01,1.230751173837575478e-02,2.915280504091185554e-01
1.245180403918671541e-04,5.714591214932159512e-03,2.599311340118615546e-02,2.299662030924014278e-02,1.593704578048229376e-02,4.194758473112353975e-02,7.268349442432489593e-02,8.658785695278764516e-02,1.423957405109162362e-02,1.936912590528061529e-01
1.231704203009697564e-04,3.253615103645269430e-02,9.666104272031324565e-03,2.545318177263755643e-02,2.637691423970221771e-02,5.074246598755455945e-02,1.254721137739039927e-01,8.858933143229615059e-02,1.917431644248855302e-02,1.054407653535610057e-01
1.229851172586830040e-04,5.754044665072113179e-02,1.432366449600462263e-02,2.145613397408181744e-02,3.102767350332970991e-02,5.281763314054507136e-02,1.410019887508449643e-01,1.530949121438222593e-01,2.407941138343482057e-02,3.439520190389302318e-02
1.216803174726498947e-04,7.591615009120133983e-02,3.994772772223713353e-02,2.008684502382988846e-02,3.007774590042790533e-02,4.602784142960706509e-02,1.275943065132071896e-01,1.305923272904499499e-01,2.881268321760581744e-02,4.924955282288766278e-02
1.188435984004726200e-04,8.586915542271086887e-02,5.885164907468069112e-02,8.914783235452666821e-02,2.456010959923957127e-02,2.877965382104604591e-02,1.057194290248565371e-01,1.127687769062231948e-01,3.406452340406315726e-02,1.869160563997262214e-01
1.158631864173745231e-04,9.027304928593524180e-02,6.799864727060070391e-02,1.306169117170015159e-01,1.669070527694174744e-02,8.031243085226607431e-03,8.994713459406619704e-02,1.444414465257018165e-01,3.842738867689089732e-02,3.640033476684161329e-01
1.132981757027231890e-04,9.133374483288439483e-02,6.543691517797169122e-02,1.009156506326351621e-01,6.107639323026201050e-03,5.551349904290590019e-03,8.314832238979812107e-02,1.985580351536770372e-01,3.936126310867935074e-02,4.574725487110424260e-01
1.107827871775277757e-04,8.876668038353220658e-02,4.839246118499878485e-02,1.571578695992276870e-02,8.465670519873890257e-03,9.837573794714464873e-03,8.139747630141511148e-02,2.436039728624780909e-01,3.559943191436049786e-02,4.384162343896692571e-01
1.083078077022918276e-04,8.528527295775094330e-02,2.306648865362977141e-02,6.752444248625479040e-02,2.184682582986052779e-02,1.003136704491684045e-02,8.280410729918195878e-02,2.751723179397973507e-01,2.869260881984398576e-02,3.563862862164610679e-01
1.064600684940017510e-04,8.853954920352807845e-02,7.038045374071843531e-03,1.060664859922504921e-01,2.477143677750952636e-02,8.520664790988771720e-03,8.960199027160488383e-02,2.886045828319172002e-01,2.218137200009307267e-02,2.382543268572961115e-01
1.056936547289453549e-04,1.002659668659308528e-01,1.085706371547213132e-02,1.000585884112685509e-01,1.549647098524983835e-02,4.388923479225356750e-03,9.997011886013722204e-02,2.719491466990208717e-01,1.763955773109043834e-02,7.921529770527047098e-02
1.057968586796840534e-04,1.039358825383376733e-01,2.501896358237718637e-02,6.823863638979273116e-02,1.646961029279568958e-03,7.239102107379775507e-04,1.041633670067056427e-01,2.287688040376887610e-01,1.287107152449118441e-02,1.003014149769116403e-01
1.064724038076243350e-04,7.632233479671357568e-02,3.522980723917307211e-02,2.020123499498711894e-02,9.781528192653805506e-03,3.573019162291302554e-03,9.345076260463594520e-02,1.733753899588307279e-01,6.481761994276049460e-03,2.495629831651038633e-01
1.084573708795001206e-04,1.827151442461213970e-02,4.055940009021681558e-02,2.962562305037235583e-02,1.787271767360771452e-02,4.151816600086648788e-03,6.916857169121369553e-02,1.053776923914818420e-01,1.953458803775866542e-03,3.242039088188394258e-01
1.127429124055926606e-04,3.871300266433106568e-02,4.691362095842181723e-02,4.656474612224841686e-02,2.421697401200639463e-02,5.775931702493561359e-03,4.334590291971066739e-02,2.541174734541343933e-02,3.593213164286787782e-03,3.106333069474732644e-01
1.181656105186744247e-04,6.206314771149697845e-02,5.365674208307153609e-02,1.098630294453240702e-02,2.961777096537566989e-02,1.154926506862673057e-02,3.485343144547328742e-02,2.137685865172249400e-02,9.690586145124229639e-03,2.412297960091139559e-01
1.227958269220427549e-04,4.321535882083241131e-02,5.587324297710321436e-02,4.718406936891002268e-02,3.406602492225953294e-02,2.179829071723721548e-02,5.827723825223303511e-02,3.284115919055018845e-02,1.340688685859143907e-02,1.874664321867836603e-01
1.291033711685087297e-04,9.657651132513218883e-04,5.248069392728436922e-02,8.405423326293781638e-02,3.676149230927332201e-02,3.385041158369039155e-02,1.064845367978755619e-01,1.825978622673635199e-01,1.055394086696061912e-02,2.077604290464043491e-01
1.412216576318006277e-04,3.409248753421979805e-02,4.743039750465237459e-02,9.188773935048501207e-02,3.703482606441160785e-02,4.406325917473689902e-02,1.494690982875172824e-01,3.171233132842624647e-01,3.352522374242922817e-03,2.957429914685451577e-01
1.538502898211587162e-04,1.972100553194565051e-02,4.580853554357133817e-02,8.288780798038494768e-02,3.633366576334372960e-02,4.965227865707806665e-02,1.599764909889189735e-01,3.322585440839365134e-01,3.675053625809774835e-03,3.819875497289153543e-01
1.577662996900835069e-04,4.134171792435796522e-02,4.703126994349670492e-02,5.300167934979580636e-02,3.648962559485529472e-02,4.763366709190808984e-02,1.351476736556942171e-01,2.389447586442271509e-01,8.488502864168542481e-03,3.821157503883680917e-01
1.636709611817101077e-04,1.043667213270459970e-01,4.202528100348541101e-02,2.200250629343232858e-03,3.515701173667512558e-02,3.490696715266985994e-02,8.940420497270679112e-02,1.134992835269036660e-01,1.207010222646790962e-02,2.672165053074981866e-01
1.910720512058083139e-04,1.309180351012704802e-01,2.419477131567462219e-02,5.891949442458070674e-02,2.742014426384309714e-02,1.374158450754222813e-02,4.092594004192798285e-02,2.762379778762700730e-03,1.603980800958390920e-02,1.021571413573809650e-01
2.170785113372048891e-04,1.289531056715986779e-01,1.481320098450815588e-03,8.537995973984369158e-02,1.398115862307260440e-02,5.403135712666491675e-03,9.036592970335993388e-03,9.624827766337844259e-02,1.977554550749857643e-02,2.143201336485434788e-02
1.988113156432720630e-04,1.254202280330417862e-01,1.241532519255143796e-02,8.090462921084499992e-02,3.055160325346366074e-03,1.244815493815954258e-02,1.093340485721502886e-03,1.464169063625621325e-01,2.096441650187520767e-02,9.340754586587921016e-02
1.833647458573981566e-04,1.234359195622333205e-01,1.569460230804779755e-02,7.161021187072598437e-02,1.440106625937656332e-03,7.484494019788616448e-03,3.826326382324395786e-03,1.623663486825435709e-01,2.003928437186604933e-02,1.695841585573502064e-01
2.628401254747150069e-04,1.104793747083774591e-01,1.573609838162486063e-02,7.040819298775521928e-02,7.944315321074748790e-03,2.663450499340658598e-03,3.082074563288134117e-02,1.906160688887817700e-01,2.090849150957433539e-02,2.529241411627837777e-01
3.382118919355904811e-04,8.973724956180527401e-02,1.331739095555406829e-02,6.440420497789747789e-02,1.729735458544728877e-02,1.384530494611981022e-02,6.768966572526642633e-02,2.468679542657394310e-01,2.587748623031617748e-02,2.706957457628840213e-01
2.089338791009780075e-04,7.955751182846806935e-02,3.520895162093214299e-03,4.641895664356937568e-02,2.525552745152241998e-02,2.426691397051071106e-02,8.090751455981580464e-02,2.960425228396434960e-01,3.327209368803818457e-02,1.905058894236949518e-01
8.234478183413227576e-05,8.957769659202653723e-02,1.067708099953076396e-02,3.150350783783381625e-02,2.780888427755763559e-02,2.879284203118744057e-02,7.091747392539332617e-02,3.172926311287291856e-01,3.982512721557301960e-02,9.448604072530754350e-02
4.052007102548290003e-04,1.094197816267518941e-01,1.980409233122280843e-02,2.925807106114282699e-02,2.142085878769522250e-02,2.265515641874195005e-02,7.159793185251672742e-02,3.399995279510452106e-01,4.219315081850677496e-02,9.040812009580248554e-02
7.233609498363607546e-04,1.181088005237978661e-01,2.253354419590977362e-02,2.752500091810319502e-02,8.820677215244350847e-03,1.092933124571749369e-02,9.256573232434635312e-02,3.939047042909392671e-01,3.834266541073532569e-02,1.733491813470289522e-01
2.583921995441708754e-04,1.038490734628186168e-01,2.718511966237632804e-02,1.821591892711759211e-02,1.361718167035988816e-04,5.825467055020812530e-03,1.028224072660190447e-01,4.491626655930676115e-01,3.010072290598610201e-02,2.356531422717002833e-01
2.474818761844160830e-03,7.614344837153369516e-02,3.688285931919341176e-02,1.440060277722327725e-02,1.807394147662208343e-03,1.109368863409572470e-02,8.193163510663520332e-02,4.417283955939568796e-01,2.161997388445146065e-02,2.184409492589967638e-01
3.706059780379388109e-03,5.373128604485671173e-02,4.271223825990605460e-02,3.057217980406547533e-02,7.628856381968800171e-03,1.631458869333398190e-02,5.092036085473941598e-02,3.607683481629454514e-01,1.493124196827406470e-02,1.802855171973760107e-01
2.469583728129971702e-03,4.227166650857454300e-02,3.599231846950071145e-02,6.226954339303383129e-02,7.760061713584301413e-03,1.202015357787727078e-02,3.388491655386931256e-02,2.654220393215798723e-01,1.032707325562445301e-02,1.912073581325975380e-01
2.478296951251365171e-04,3.268624353002517330e-02,1.992246371727016824e-02,8.671586970675231043e-02,2.548042516373678554e-03,3.652664399248824450e-03,1.773544116855441111e-02,1.960938756930804827e-01,9.158362091059930182e-03,2.338587888483036337e-01
7.391687890511740170e-04,1.944727624700429494e-02,1.795881793094957369e-03,7.600842838625490594e-02,6.799331592416083675e-04,3.179225415745186908e-03,2.403296532272999886e-02,1.252268782558404459e-01,1.167108182617818124e-02,2.441230220227984249e-01
4.258521313306995720e-04,1.043308449681996236e-02,1.933972481510827512e-02,1.907882813701639382e-02,2.207767770434120383e-04,1.213882005842658457e-02,8.218772229015476605e-02,3.017913302345457197e-02,1.430989019714131068e-02,1.897669676022461505e-01
1.075454953168351424e-04,1.506670532365951554e-02,4.485026492532008524e-02,6.163635511208918893e-02,4.194467296847678717e-04,2.098834618644828884e-02,1.122372532761835157e-01,4.546692556027403381e-02,1.349571040999292086e-02,8.454853774798870569e-02
2.388894590245924749e-04,2.740509213518330101e-02,6.202575525399026818e-02,1.211415540169779453e-01,2.369113999746141289e-03,2.187311953969976394e-02,8.357236802056183800e-02,5.340491981837076907e-02,9.699681149883298409e-03,2.773620678024412561e-02
3.728047302018527766e-04,2.947554093246971402e-02,5.465399992024991965e-02,1.255156120871099290e-01,2.630729515561819852e-03,1.454300336843758479e-02,1.073957151282185947e-02,1.320373994488389241e-02,4.304311383062396808e-03,9.085849459485866031e-02
3.007540327879770596e-04,1.239558433942640481e-02,2.624470147929963693e-02,7.968605935337604029e-02,3.294781241458414126e-04,2.042819839975241678e-03,6.455622395003442204e-02,2.353366265036686139e-02,4.067601987137152084e-03,7.760646814816724026e-02
2.238030558439455279e-04,1.570853370078258843e-02,2.231858054698209262e-03,2.280592246803141848e-02,1.303086609323410913e-03,1.200833099416378016e-02,1.082995315280447790e-01,3.736708983712475757e-02,1.589794681761622780e-02,2.196699780928889484e-02
2.434422196578267224e-04,4.391774074027915420e-02,1.401306157117454196e-02,6.844349147024990712e-03,2.035178786997547326e-05,2.278172237116446452e-02,1.137559459815632584e-01,3.343817578014071645e-02,2.651895252362190813e-02,1.093344119265215152e-02
2.664516267803362514e-04,6.874291273946987746e-02,4.088912293768688297e-03,3.909769678999596570e-03,4.651244737920977486e-03,2.645330996761410119e-02,9.678768385895132609e-02,7.433639748643795092e-03,3.021878580134406897e-02,1.944013014535356937e-02
2.403858050835529616e-04,8.944520604724937041e-02,2.476067337704818822e-02,5.180288509279428605e-02,1.407235526210553339e-02,2.263862831815495816e-02,6.991499712991149085e-02,5.377489235728714900e-02,2.740022578335752496e-02,1.116788192943618113e-01
2.103304999775845350e-04,1.052651202684612708e-01,5.919260717943004846e-02,1.240584292309113851e-01,2.740663314853642937e-02,1.298223790075801395e-02,2.889469748775218630e-02,1.517685408835157679e-01,2.378657756619453195e-02,2.326723281689628553e-01
2.106464089605862501e-04,1.188812703964999135e-01,7.802917354369577618e-02,1.897455275858825896e-01,3.808485720642733330e-02,4.576169360850711014e-04,2.447596543876509601e-02,2.606361404977282081e-01,2.286201963111413396e-02,3.284064471825829945e-01
2.174238918328148817e-04,1.336901193938544452e-01,6.997485276367058915e-02,2.119882025386411462e-01,4.009464131611161636e-02,9.394383912588656627e-03,6.732743481132405505e-02,3.306789130425943357e-01,2.301170094924204906e-02,3.551788855406936007e-01
1.953865054985663209e-04,1.474320351913752936e-01,4.292215963782875648e-02,1.801920223598948434e-01,3.569566325751447056e-02,1.122743125432048607e-02,8.208372739509289806e-02,3.231592574662238704e-01,2.232245637528072410e-02,3.190771648140922623e-01
1.625742806791372595e-04,1.559923725630814328e-01,1.192315121540080819e-02,1.157265321228086452e-01,3.112627848397830910e-02,5.620554875676128659e-03,7.763093782821603450e-02,2.457257107220678360e-01,2.174425420683592444e-02,2.599135460055977398e-01
1.770888866774053224e-04,1.619808095453112717e-01,1.491602035613950536e-02,4.442572625554838672e-02,2.688681849676076430e-02,5.344421671747613288e-04,7.190871280125329945e-02,1.463859877196558024e-01,2.264042294403200914e-02,1.967938821319415166e-01
2.174545828459039547e-04,1.701157274005005993e-01,3.746274876525537006e-02,2.579228086612198739e-02,1.800323166550159282e-02,8.104676359429972008e-04,7.354888190560335270e-02,7.709893038202200732e-02,2.464304555874316863e-02,1.277490648442672350e-01
1.679808315919979007e-04,1.745432469351749227e-01,5.554901566975017219e-02,9.774663569262449780e-02,3.332678952533569324e-03,4.618137855245129514e-03,8.617994497593280123e-02,6.591159581584900284e-02,2.600860211672403541e-02,7.272962603072642696e-02
6.454922915156138189e-05,1.624038592145759241e-01,6.250680243706299710e-02,1.567570734353606610e-01,1.065048565574987401e-02,1.120839934028271083e-02,1.114227121376884649e-01,1.110845253762411944e-01,2.453795186807947518e-02,6.724205717407612248e-02
1.536563244412308602e-04,1.340092377060876083e-01,5.111003504998830327e-02,1.588865272291349329e-01,1.692905035536184516e-02,1.699898296577859874e-02,1.409363222561663964e-01,1.882841862250382026e-01,2.002859735931766111e-02,1.146112557188313508e-01
3.775281642766385921e-04,1.095726571823697759e-01,2.639287018861006390e-02,7.109440498020641597e-02,1.470874865417836665e-02,2.253562978548214260e-02,1.553982133972227897e-01,2.616961962630837135e-01,1.599953555579601908e-02,1.766501494211287215e-01
1.674202680434453425e-04,1.069372465204605910e-01,2.619418656327129891e-03,7.336899953099179639e-02,6.691769404199930660e-03,2.426457053192716123e-02,1.389365704096850451e-01,2.994917258818760586e-01,1.591041894278154636e-02,2.094710260617103914e-01
6.237258036328082985e-04,1.151022470943336012e-01,1.311454590726517967e-02,1.898384657517220575e-01,5.855546888721115464e-03,1.585408899587947840e-02,9.616288687214583075e-02,2.925455809328725287e-01,1.870270047603524513e-02,1.962708651590299724e-01
1.116024370071409897e-03,9.994949223922615367e-02,2.132883361860607452e-02,2.222982172040284810e-01,2.072582107734646795e-02,1.845832382627759930e-03,4.912871464810573269e-02,2.574596928399957019e-01,2.112176301829437122e-02,1.534442330377328856e-01
6.193376274284847875e-04,4.320228245969449932e-02,1.683740898060364505e-02,1.832086005436849296e-01,3.113657442252860952e-02,1.972803292501039765e-02,1.152824745406593430e-02,2.164620847325421649e-01,2.217636622109507571e-02,1.123558339509917459e-01
2.079278843395431127e-04,3.073027365870404509e-02,6.807237995388167560e-03,1.142854768756976502e-01,3.049956839552614082e-02,3.118404675040528651e-02,2.373605501925521097e-02,1.835712397142229002e-01,2.266348285059079093e-02,9.367758677978459125e-02
3.838347300632124104e-04,7.864724905557371470e-02,3.864215865776372133e-02,4.284177504046238899e-02,1.980442814023496145e-02,3.642519865205086360e-02,6.032187072489659380e-02,1.713198348384805392e-01,2.268468265558828967e-02,9.936793191151094273e-02
7.052810289679428842e-05,8.528472541778417404e-02,5.433410366071607378e-02,1.748668444502899516e-02,6.431377455071034949e-03,3.555727312729159428e-02,7.888925594036257094e-02,1.907839009505667427e-01,2.145883593687089586e-02,1.260106363975022070e-01
7.381108435056931013e-05,7.237757596487842671e-02,4.600592195369593296e-02,5.627480319953227089e-02,3.412698376033834313e-03,2.683263674356742637e-02,6.300132307633313222e-02,2.380977680337085511e-01,1.849257929861423261e-02,1.755156884809957463e-01
3.934746600084842744e-04,6.551873083938385134e-02,3.407328099779000780e-02,7.381653333082130453e-02,8.737003723656497703e-03,1.374762503203925262e-02,3.033669858176237313e-02,2.937290051102206534e-01,1.468071026531679243e-02,2.435062013504210310e-01
2.233395133834330389e-04,6.852885257845285627e-02,3.984628435490056297e-02,8.431482089152957105e-02,1.156977795301449008e-02,5.080702066671739618e-03,1.441578403979944592e-02,3.355978884578521559e-01,1.180766246462580660e-02,2.993132167808179589e-01
5.990043765495662535e-04,6.957314430157483798e-02,5.983036851113760629e-02,1.003609048442725138e-01,1.309363773756081102e-02,4.980782858595722735e-03,2.528612415227068921e-02,3.478808033276831191e-01,9.519533710092255990e-03,2.991442073244246491e-01
1.091857572787818375e-03,5.950565901539606184e-02,7.950884521013984463e-02,1.216522202365909605e-01,1.275768380558342865e-02,8.877511940693293482e-03,4.684704345582796359e-02,3.271753880357625710e-01,4.077941072423623380e-03,2.362422862995278983e-01
5.972330004148137649e-04,4.222381723171518553e-02,9.820774871660480076e-02,1.449121488001926805e-01,1.109748336803868980e-02,1.037384422221132932e-02,6.223200333708893417e-02,2.853993729113031286e-01,7.347030542110945597e-03,1.569652773022114922e-01
1.943029681281620942e-04,3.071768002634453487e-02,1.231084249553321686e-01,1.742789632145572976e-01,1.155742973892330550e-02,7.691589866673042772e-03,6.704896245136077182e-02,2.360783324204493994e-01,2.225269907718237239e-02,1.065767528920861101e-01
4.029415077470359071e-04,3.355157956881013592e-02,1.485456373993694623e-01,2.073491183525446313e-01,1.633125114581778989e-02,3.105404278057556991e-03,6.618967062122464717e-02,1.778786918353147395e-01,3.483583142930043314e-02,8.710511249976835013e-02
1.760054632761130214e-04,4.867976005450613819e-02,1.575549925209342728e-01,2.171124741282423332e-01,2.108319257763498558e-02,7.431707954408928694e-04,6.521111937318802010e-02,1.072684296768391526e-01,4.111637497996594587e-02,8.743904271954569540e-02
8.158421288475200552e-05,7.019450918681766072e-02,1.365540811163465373e-01,1.718261161477634968e-01,1.890925549469209266e-02,3.737339040301155321e-03,6.001698242569482311e-02,4.456534411004542395e-02,4.040408982795620774e-02,1.112994494953993968e-01
1.765346876524956561e-04,9.241474922288450689e-02,7.693946849278582301e-02,7.844774620922725927e-02,1.027705766053236408e-02,8.035653789336100195e-03,4.031698941570917988e-02,1.843957686652862929e-02,3.401338039327613666e-02,1.459962140783990225e-01
2.155817837258622652e-04,1.074044179413579103e-01,2.291833860030584313e-02,1.456192349353132784e-02,3.221864804933766407e-03,1.341561529566846073e-02,1.168169780883328290e-02,1.891388386539281583e-02,2.511581690548912379e-02,1.470599061434125221e-01
1.648712389894027043e-04,1.080011323826975816e-01,1.392815878497718762e-01,6.444742421199814442e-02,2.355636451094037485e-03,1.411713991429065958e-02,1.167272308094292280e-03,6.653146000400803062e-04,1.771758688792798159e-02,8.792816319406089598e-02
1.377626783777088925e-04,9.343344389227731250e-02,2.218867969663261275e-01,6.716989359742361887e-02,3.847254826332012836e-03,4.735632484380798528e-03,2.646513489708028979e-02,5.990802081109676547e-02,1.310441404684630461e-02,7.971159389749210566e-03
1.517483321991104487e-04,6.775325328018405591e-02,2.339712043196355007e-01,4.224102715799470109e-02,3.090392026375033633e-03,1.121720590293865706e-02,7.158587366431627685e-02,1.495628697976893462e-01,9.435740995908502987e-03,1.047047471987815614e-01
1.541829934057808353e-04,3.708998075069077499e-02,1.859754010254550394e-01,5.111474781328005298e-03,1.537930529867248888e-03,2.374325040138552945e-02,1.070355296679504492e-01,2.553290610351302559e-01,6.083586192058240173e-03,1.872272786503232367e-01
1.364220027163700732e-04,9.695453075472823881e-03,1.168465596092016084e-01,3.770404047636388006e-02,3.311102893044448516e-03,2.715407710813398309e-02,1.207592939045547820e-01,3.645693599311774502e-01,4.232886463859809878e-03,2.436837290524420385e-01
1.232248597968385281e-04,8.385113153741331760e-03,5.550851324324994340e-02,7.691062055318377555e-02,8.864188135541694463e-03,2.366633255708815164e-02,1.170619314361959207e-01,4.362811066696103968e-01,2.557403386325636171e-03,2.521252629650585497e-01
1.191764704106751469e-04,1.721941146532559794e-02,1.364017498141463156e-02,9.467225450868572978e-02,1.437965462993893821e-02,1.723324547683062827e-02,1.007881993164951723e-01,4.292909148828721322e-01,1.399229674324613173e-03,2.026072288335422633e-01
1.129871809129400997e-04,1.737303517796450966e-02,4.498591732010961963e-04,7.687366619177903038e-02,1.541762394645583914e-02,9.581304604777716311e-03,7.546077511647736324e-02,3.541360988800431597e-01,4.463576266178770346e-03,1.136294360113549728e-01
1.026322226916149747e-04,7.113390125383098686e-03,1.537669954504811490e-02,3.146929904721049859e-02,9.767477453611896412e-03,2.818866637335680925e-03,4.612074475371921722e-02,2.573536099175555703e-01,1.972139515504442442e-07,2.504255983465836222e-02
9.363589102382126122e-05,8.953200225802782422e-03,4.337238538921582565e-02,1.415525801908967297e-02,1.391087268823806801e-03,5.837689506298815879e-04,1.713837096801225715e-02,1.735363379470035161e-01,1.080435034166631406e-02,1.533418562233641695e-02
8.726109912707796887e-05,2.022139368719800406e-02,5.510505645556119242e-02,3.856974129819185082e-02,1.334612678556135190e-02,3.876021583365671201e-03,6.220639797171923988e-03,1.239957276169083300e-01,1.768979044330251660e-02,2.214986673668454739e-02
8.116876566824368449e-05,2.566975815250423232e-02,3.875918588906916706e-02,4.052987341344586186e-02,2.024739982149180786e-02,8.590238431093404070e-03,1.643831654350584592e-02,1.277496259884879914e-01,1.580387000398314826e-02,1.166410907690141052e-01
7.497515603579549682e-05,3.427540525723304227e-02,6.382992532777364419e-03,2.611446933720586866e-02,1.947015654346259325e-02,9.766382466543131052e-03,1.248268273871882064e-02,1.738490283450166429e-01,1.421006320032635814e-02,2.062741009004921688e-01
6.999232197770513487e-05,4.439304525791980260e-02,2.355634349871394556e-02,1.481213982595106296e-03,1.300988802532371258e-02,6.687836144707557523e-03,5.396850411741503650e-03,2.117293372060514434e-01,2.385495017112779573e-02,2.416139839151494051e-01
6.656412875805815192e-05,4.199046369779300264e-02,3.682434629947272525e-02,3.129545197597089629e-02,4.422446123826717992e-03,1.961087726740747689e-03,6.241532980606742664e-03,2.049448867638371252e-01,4.323157480274519154e-02,2.202836533119038875e-01
6.417802469185516297e-05,2.660927433947708753e-02,2.176773755873632338e-02,4.486484602538352157e-02,3.800404546496077840e-03,2.581880602907793507e-03,1.256189762687119280e-02,1.700887763861785584e-01,6.179188172944886925e-02,1.744976404407334591e-01
6.282598847978083879e-05,1.832829446823372455e-02,2.193928179713444324e-02,4.195255298948589312e-02,1.000455022991437667e-02,6.634883565488182595e-03,1.451383081549293894e-02,1.388751061577088997e-01,7.130492504735068404e-02,1.381188011965509554e-01
6.291196952010298866e-05,2.977233391821635516e-02,7.242206790237543101e-02,4.293098660432029950e-02,1.300737162452006261e-02,9.245231895227943447e-03,1.010050146070922902e-02,1.151227700350076488e-01,6.918898081743710127e-02,1.233147389030676833e-01
6.436397764562558127e-05,4.951738594557542755e-02,1.020155070288362026e-01,4.932719537097751683e-02,1.251276464195141477e-02,8.778113035853560286e-03,6.893389452704277477e-03,9.318665721240820821e-02,5.734345416608397500e-02,1.280267888465633774e-01
6.677589919533921062e-05,6.023360641382970171e-02,1.032201190799588442e-01,3.244001389112156214e-02,8.954972389445512576e-03,5.352418263935020820e-03,1.079263674228584172e-02,8.287999255998405868e-02,4.184729181756248473e-02,1.589224448241975396e-01
7.035813285439040487e-05,5.668742000689894200e-02,8.448178339981925189e-02,1.941700719205960782e-02,3.114788101048921246e-03,1.282388694658618579e-03,1.854894536314414741e-02,8.808007326364582223e-02,2.885068018402445200e-02,2.198361282868276645e-01
7.566367226578402637e-05,4.195035313748242400e-02,5.365810472020202809e-02,7.645649933700141010e-02,4.044448490285850080e-03,1.550800952527243027e-03,2.248777043322394004e-02,8.941479564182795714e-02,1.852469396023703752e-02,2.797444999755873130e-01
8.199874641544772989e-05,2.140510399954407075e-02,2.454095068156247894e-02,1.088394744886450050e-01,1.176309095669494931e-02,3.309774189981018900e-03,2.056147319290690945e-02,7.248941414315845932e-02,6.493422001236134888e-03,2.917974430613227144e-01
8.797617874357961556e-05,3.621709442917184132e-03,1.977594817506256666e-02,1.186789980697910696e-01,1.938938901957994176e-02,4.553158269352464670e-03,1.850447982338984665e-02,4.993093632549180927e-02,8.449936206510378148e-03,2.479678839495732812e-01
