1.224820044138626163e-01,3.553240078579451844e-02,5.255828728079887761e-03,4.654771138782424177e-03,4.314416393808273055e-03,6.201834245699798000e-03,6.297003627495623146e-02,5.293872334373418004e-02,6.545286013338033788e-03,3.621893459080643279e-02
1.126418607675510747e-01,5.408357518896483168e-02,4.596750960692017399e-04,6.850459971785107828e-03,4.398505142643609200e-03,9.469433489074986429e-03,9.694889524529276548e-02,5.884287448427667072e-02,8.085370021386672958e-04,9.304668729966099339e-02
8.002907207134757339e-02,7.329171611796500563e-02,1.693397361864203837e-02,9.038781187320144711e-03,4.266532329064376405e-03,1.227665110846268282e-02,1.154900405603153796e-01,4.640910228658394476e-02,1.769587994413092044e-02,1.469195761225399188e-01
4.251725282476508105e-02,9.231412985563822171e-02,4.111488768278393630e-02,9.018730391921187320e-03,3.242543365349930939e-03,1.310265847553551688e-02,1.339191161199165814e-01,2.702435220740801239e-02,3.462171381876333331e-02,1.824064158577062000e-01
4.013612716900132743e-03,9.346985926950730772e-02,5.292162185328157936e-02,6.784166199449399165e-03,2.182021695913558684e-03,1.185546313133028704e-02,1.670900203190390232e-01,3.012867258804706200e-03,4.170814161110545509e-02,1.983042288276929688e-01
3.674574715584510987e-02,6.793960151079911358e-02,4.305900290012019960e-02,4.535360968144263108e-03,2.007152180454561344e-03,9.889021882959822887e-03,2.014019033657398483e-01,2.674385716466832694e-02,3.586002352712154562e-02,1.967401687512169428e-01
7.300086047205414652e-02,3.590696077534539371e-02,2.355971377232194894e-02,3.813832865068355130e-03,2.321095045340252402e-03,8.476530130669696766e-03,2.067682260642598746e-01,4.850407721795354371e-02,2.212832238276645283e-02,1.758915891563732625e-01
9.445138639184993967e-02,3.201261175844373474e-02,1.130736418459061046e-02,4.051068127038986652e-03,2.407963948947467858e-03,7.519624151219561105e-03,1.732090140502577924e-01,4.204970440329652837e-02,9.316630162930845255e-03,1.377583146048026730e-01
1.011444613892793915e-01,6.729967314207017937e-02,7.999923879566130797e-03,4.107712225099765559e-03,2.307300828187600506e-03,5.748928314444592264e-03,1.200902831301909751e-01,8.396266835785475002e-03,1.752614956847200860e-03,9.495620179771661895e-02
1.050792618561054992e-01,1.118314023573420551e-01,3.180418604576148219e-03,3.838193741518096218e-03,2.352208815459711638e-03,2.354481798197950726e-03,7.203257759568242047e-02,2.595841930769051883e-02,3.591254726666884972e-03,6.341894873788431197e-02
1.185364633642622123e-01,1.252453348244119136e-01,7.771569399817350107e-03,3.643656849449768229e-03,2.516193366902247635e-03,1.630658706580802872e-03,3.784076745436163597e-02,3.614959085690382795e-02,8.707242979901238730e-03,4.855866193008012005e-02
1.455106800454098182e-01,9.924692355964642720e-02,1.878388055275648227e-02,3.507947369103062325e-03,2.592295838583412448e-03,4.203147681442804054e-03,1.288979316561197214e-02,2.043567731747862604e-02,8.695337600175791909e-03,4.124184532515755286e-02
1.800601094570430383e-01,5.506839315175348498e-02,2.572957013489547348e-02,3.179183225891466912e-03,2.597938846980808129e-03,4.687238250981962465e-03,5.625395499575823466e-03,7.355080053362863558e-03,9.694819573508148443e-04,2.981255995988583984e-02
2.081558399017075789e-01,1.058774588535422653e-02,3.233216003746720163e-02,2.800700658220559806e-03,2.707885803719199420e-03,4.285038726069655482e-03,1.341125415429913516e-02,3.714701669454218563e-02,6.917258516641135169e-03,1.352022791268303430e-02
2.203320891289671790e-01,2.567942491045141148e-02,4.132962361584968658e-02,2.615024703453078855e-03,2.864627072971462005e-03,4.252707240221335547e-03,1.127790797603359270e-02,6.843658843424860194e-02,7.560070722859371650e-03,1.170544457318406159e-03
2.248203280821339245e-01,4.234875699490139173e-02,5.095256956609367505e-02,2.229105436191879813e-03,2.775166747186010464e-03,4.557878602511405801e-03,1.300308788808518176e-02,9.908518003160496357e-02,4.204956509146584413e-03,1.403024856925229845e-02
2.300634505326891455e-01,3.451880612490918626e-02,5.985566235277767211e-02,1.187699010278848045e-03,2.514979790869643298e-03,4.636811024050491864e-03,3.169778925083784060e-02,1.142891615274076178e-01,2.747315883526568053e-03,3.084135155270746262e-02
2.168900153281826670e-01,1.148089468278623744e-02,6.226177288409490140e-02,4.107402324350469458e-04,2.669691759291661741e-03,4.442107162254244589e-03,6.258820882901315608e-02,9.681701129682165896e-02,2.008004977779305738e-03,4.989492589769148334e-02
1.614474269258107664e-01,2.071726070921915686e-02,4.275403385250698546e-02,1.679624428903161472e-03,3.314913193470608085e-03,3.951075985659350219e-03,8.478023531787143297e-02,5.267486833996419537e-02,4.760903632813041583e-04,5.997719165481274484e-02
8.189044858968425045e-02,6.245702028452156107e-02,5.199087516020906366e-03,5.170413596760594505e-03,3.525560621233081535e-03,2.423717406146485513e-03,7.881594096141676664e-02,1.240474845675398896e-02,1.556402261733007362e-03,5.567865931074744007e-02
1.902944864722341464e-02,1.004981583859328592e-01,5.909297043702174679e-02,8.751169100723711972e-03,2.734427583457632246e-03,5.918318359229553325e-04,4.341151657009631459e-02,4.341354782820171058e-03,1.688735983560374007e-03,4.559259111382963497e-02
1.910000548395886927e-02,1.119619513186686788e-01,8.535878492973419940e-02,1.002421414248533954e-02,1.660846682630313497e-03,3.996469404145617035e-03,4.366139347131764090e-03,9.513821610268802936e-03,5.476468576300132576e-03,4.103889699757150289e-02
4.670110141342717625e-02,9.161566568218638962e-02,7.591336673935780710e-02,8.197137309838667049e-03,9.974077389794404249e-04,6.224115106954994890e-03,4.810463824177355074e-02,2.059913592520358494e-02,4.063999592267715337e-03,4.405601597222851690e-02
6.106970065900280131e-02,5.716086582275284322e-02,5.194771228403505248e-02,4.527148257914623622e-03,4.156679010399022935e-04,7.095749687091952931e-03,8.659276954366922074e-02,3.483180906497265056e-02,2.718052478811549752e-03,4.923503242598168544e-02
6.508157603763889409e-02,2.875257659717224412e-02,3.481964472090680329e-02,1.729345070593153472e-03,2.610569850777883991e-04,7.330220851129041516e-03,1.225529048395448406e-01,4.286993168349644695e-02,1.021152557332844629e-02,5.107790279067055822e-02
8.993844584461024860e-02,1.004662906526009383e-02,2.664311771308047749e-02,1.764436325902334936e-03,3.810650087536795148e-04,6.881597593984704019e-03,1.457021116835399699e-01,4.760312263917344799e-02,1.489194417761151995e-02,4.837606447964932360e-02
1.461661984071069564e-01,1.301846069928561112e-02,1.817665846163530816e-02,3.406900528476388551e-03,1.088429492516009337e-04,5.171396340027710828e-03,1.407586427005924901e-01,5.423749047614399160e-02,1.697525554829446004e-02,4.575651205344334616e-02
1.932934891082616347e-01,5.129977613991119900e-02,4.369318609261282557e-03,3.264798946324371041e-03,6.697109006938742034e-05,2.456635094820594067e-03,1.083954778682617165e-01,5.496078005646736625e-02,1.818427832757958315e-02,4.986187208575366958e-02
1.940088214441195169e-01,8.979066845542629793e-02,1.091799030033131605e-02,1.329832040690269598e-04,1.875220499349340231e-03,5.570319184574285334e-04,6.630742878185269529e-02,3.678385434376993390e-02,1.811153023858541253e-02,6.049899214631655059e-02
1.570717460725344905e-01,9.890180509337803683e-02,1.988839283946820108e-02,4.459621220177872013e-03,4.611016184030549379e-03,4.079364594701984960e-03,2.944420596062344297e-02,9.937278880909044404e-05,1.288536678955322194e-02,6.825490703256301139e-02
1.063868407069312738e-01,7.102735807411694746e-02,1.770746764166067008e-02,6.298969061215599179e-03,6.863552303319139965e-03,8.450384995467151439e-03,2.148127155521224914e-03,3.980107914551611614e-02,9.515007565600626252e-05,6.483434931304550564e-02
5.100123978390634638e-02,3.034097609262166595e-02,6.621237803319404355e-03,4.703607661191947821e-03,8.115017509949556951e-03,1.237139583222661952e-02,3.250877231128131845e-02,6.887470702115525145e-02,1.531032880144302111e-02,5.316957453313665705e-02
3.549709671739524966e-03,2.049009414221484009e-03,5.611217123341607702e-03,1.882440633085819643e-03,9.061634436193736347e-03,1.405980076587630932e-02,5.522092268967133261e-02,8.217495832586239890e-02,2.270074998286765802e-02,4.338174818037823094e-02
9.374297181082050581e-03,1.303940364642194524e-02,1.220964443352473734e-02,1.082071034883649125e-03,1.078177579297241555e-02,1.380745213024161741e-02,5.843062219345369901e-02,7.502589376907028984e-02,2.047036650784924208e-02,4.066446678962853944e-02
2.220034128569081666e-02,2.652115286553715506e-02,1.327239803900397142e-02,3.178302173075837119e-03,1.322369729513882437e-02,1.308863734911788930e-02,3.851560141706278362e-02,4.233504558098052928e-02,1.743225618022039777e-02,4.054272398094205254e-02
7.206250389429923187e-02,3.645858673118062415e-02,1.479989594666657367e-02,5.089726301177722664e-03,1.437383295914794641e-02,1.204914783406148791e-02,3.302005433959889508e-03,7.553053591909278212e-03,2.004983510158121068e-02,3.564453919729296261e-02
1.040491988907080584e-01,2.659771005440961580e-02,1.945734823687645526e-02,3.576776893770662775e-03,1.238429209291849395e-02,1.064687944062464586e-02,2.862606180734857467e-02,5.475688928955520923e-02,2.449215761109359291e-02,2.430154524229679452e-02
1.030651348652151522e-01,4.680222296690732253e-03,2.005500185330518284e-02,5.405482873289074817e-04,8.564505016972787793e-03,1.029999938550512674e-02,3.405002706948179192e-02,8.805781096238096683e-02,2.413812833396072194e-02,9.554939848380045175e-03
7.328202261484929869e-02,2.628947738945087639e-02,8.814225804265763548e-03,7.936277979343402209e-04,5.692178283655556503e-03,1.067989432498679669e-02,9.164685922038534605e-03,1.072687048593290032e-01,1.816637636476106307e-02,7.984214426391265940e-03
2.538707275645448597e-02,6.611535425833982640e-03,9.349279120463953319e-03,4.576072185868771368e-03,3.593940417704755662e-03,7.832570903143536156e-03,1.882010905237849890e-02,1.081400349990812443e-01,9.657756680578647238e-03,2.770784070340857191e-02
2.229469810784257683e-02,3.880802545170783380e-02,2.271709774468099255e-02,7.411667527647955965e-03,2.025574276930217511e-04,1.629530382485134838e-04,2.507407179014821408e-02,8.464655642788498913e-02,1.518033232429605523e-04,4.011833966992153083e-02
4.747682073419278587e-02,5.992865606150535318e-02,2.921324417182617067e-02,7.707244845713554122e-03,3.462813302202132158e-03,7.164921711627370189e-03,2.246123220062566303e-02,4.330790655546348789e-02,1.074091683111510348e-02,3.440613502646430039e-02
4.540468635996449537e-02,3.118806473012896222e-02,3.774373275005346584e-02,8.972044209674586920e-03,4.210956231995035236e-03,8.610756479754856293e-03,4.758513185633520687e-02,4.460163493936032219e-04,2.356786588380715627e-02,1.664867399804202674e-02
3.324154561586907530e-02,3.198795325189129901e-02,5.686625312003161514e-02,1.389045152656121114e-02,2.083178206076520197e-03,5.116161362417903993e-03,1.209416508342208707e-01,2.991141118922007597e-02,3.942274968369414295e-02,3.250417430331166771e-03
1.756798746483813345e-02,1.048374759505737303e-01,8.631483145319937544e-02,2.061075055763825215e-02,1.808870760927579809e-04,4.173048310600973275e-04,2.198691811608080859e-01,3.915108522621937870e-02,5.805371586369235948e-02,6.053733966909766173e-03
2.184113725038456036e-02,1.663693415495569317e-01,1.132176378954910245e-01,2.508943884276181036e-02,2.164785392556186575e-03,4.605258934365576325e-03,2.794966381235640673e-01,2.652383222756431180e-02,7.251946910922771328e-02,2.754024570579221773e-02
9.159129666883127074e-02,1.970106336000124192e-01,1.190684321690586855e-01,2.461661647920897200e-02,5.302746437203033868e-03,9.835518323937907439e-03,2.434076567244859157e-01,6.378279378595578218e-03,7.235274918442069492e-02,6.070604189653697885e-02
1.507736489012191927e-01,1.980965391441790735e-01,1.011752091489659389e-01,2.005527457494602622e-02,8.614449019368074570e-03,1.291733081888003093e-02,1.317393531795287842e-01,4.746951220905064328e-03,5.764963228000528211e-02,7.962068125661136975e-02
1.509206537683971394e-01,1.962332506140676280e-01,8.153347737895885738e-02,1.586300593041487655e-02,9.687198204352804806e-03,1.233806371805915882e-02,2.881920592511440227e-02,3.770898552728412650e-02,4.288976139295026108e-02,6.960500564048668903e-02
9.549948011755821087e-02,2.045502245334342439e-01,8.262239484722837257e-02,1.621381995429583764e-02,9.222066398227301079e-03,1.096006932668453643e-02,2.164921572472602515e-03,9.177960047882938177e-02,4.053517218949220791e-02,5.344183660727747087e-02
3.242426901127901800e-02,2.054786482208654508e-01,1.006016621676521644e-01,2.064827589121692383e-02,1.060909405041493558e-02,1.381171188080263998e-02,4.311472206554206599e-02,1.342157858724181696e-01,4.714338816771410784e-02,6.232770905723278992e-02
8.776289032509862476e-04,1.847918304868567119e-01,1.112233011482079009e-01,2.526681619285485805e-02,1.472483869686950532e-02,2.222133764310366480e-02,1.312667398933745899e-01,1.458180027915843557e-01,5.026376664350402229e-02,9.152227200886954572e-02
5.168037953663955422e-03,1.478008312346034414e-01,9.619798515720920373e-02,2.765710023249200872e-02,1.809458781245272888e-02,3.085548764791058718e-02,1.992815271027431889e-01,1.341689148447308411e-01,4.361605016077586827e-02,1.069637200029716628e-01
2.370799924311443874e-02,9.801291052181554386e-02,5.909523106144526361e-02,2.844994011581403193e-02,1.742852491649562324e-02,3.296461365466143295e-02,1.871769365708074451e-01,1.159880285951496171e-01,3.166892895089117033e-02,9.393914744369191716e-02
2.356698923035942944e-02,3.750873004840547809e-02,1.984949176112446589e-02,2.877991877175043942e-02,1.398612167859779321e-02,2.925158232892744598e-02,1.148970268050207300e-01,1.033058592551969884e-01,2.176428482105164861e-02,7.391685391662140836e-02
1.939220452221891017e-02,1.586374893596705429e-02,3.919486713438139966e-03,2.875124287459783837e-02,1.151643287771136545e-02,2.712649786873375449e-02,7.297905565315097876e-02,1.036606158658192889e-01,1.556398961406871978e-02,6.627988176072088788e-02
9.354431827783059317e-02,4.306258819568808960e-02,8.467201843346098405e-03,2.844351299015875079e-02,1.119403518314173070e-02,2.976822678490283897e-02,1.050633879215048527e-01,1.134013593439617690e-01,1.089182493436315069e-02,6.204999172493363968e-02
1.499857839081992217e-01,4.444913852381510155e-02,2.478844591398328759e-03,2.834951238931173595e-02,1.098858113342630026e-02,3.217182531401999168e-02,1.655769764660783849e-01,1.151000294075927993e-01,9.290505983028400985e-03,4.952581916593760958e-02
1.438331026908573895e-01,2.933243611198725620e-02,2.276813923776847132e-02,2.794941749458290312e-02,9.360465567770041156e-03,3.008428558898070329e-02,2.060070759468401458e-01,9.758033241426190829e-02,1.446655322468891336e-02,3.539393468956333888e-02
7.702618912926016692e-02,4.321093476532372399e-03,3.673355407487487873e-02,2.555783920391721184e-02,7.148829100121605225e-03,2.563844214009342731e-02,2.268126725647836017e-01,6.943151621418064412e-02,2.346115068842230533e-02,2.472770013664840616e-02
8.250164741696994555e-03,2.106401490312223221e-02,2.618936603659283505e-02,2.099080270767896689e-02,5.629859448263527071e-03,2.150436879166330029e-02,2.346746290848173155e-01,4.154454080358064433e-02,2.798834692220366835e-02,1.101302110281704091e-02
7.288005365265375068e-02,3.633182927283445246e-02,4.117212391444062362e-03,1.674289590758369292e-02,4.609059855047237426e-03,1.702285776013693144e-02,2.207547892109826271e-01,1.133035605438119202e-02,2.550644412974042985e-02,2.437184162357039496e-03
1.037077418047090138e-01,3.853473156857031845e-02,2.414468301466474870e-02,1.558253350303966459e-02,3.682320183175589057e-03,1.330044439288187615e-02,1.959219748285992435e-01,2.190284197275238487e-02,2.117503837719504622e-02,2.239568016803465244e-03
1.001758739303856421e-01,2.844566004297740050e-02,1.292124009599614036e-02,1.821350119973173462e-02,4.053298638205045552e-03,1.414459491874106578e-02,1.904007964515477547e-01,4.006195664333774692e-02,1.821017056707551277e-02,7.256228623846722528e-03
6.388129251855594049e-02,5.303349669561573457e-03,1.161926130142326014e-02,2.117163939538732609e-02,6.273949134153738484e-03,1.841438225986718677e-02,2.078335641232690045e-01,2.322312272743486811e-02,1.239014236033679148e-02,5.646566236338471795e-03
1.198217989119736496e-02,3.038646634912339425e-02,6.330550490414207400e-03,1.555600641024520656e-02,6.973285031778611934e-03,2.026840196958246132e-02,2.301697140464911417e-01,2.118189574185392471e-02,2.658936286412955617e-03,7.342983981984782527e-03
1.519475447107369002e-02,7.793773795153413619e-02,4.696258973399396880e-02,5.312927127764822434e-03,2.398638096022223838e-03,1.984605542103511783e-02,2.666708712435827966e-01,5.853682272251466145e-02,2.616847618534811140e-02,3.071507596131067049e-03
1.665659996229403028e-02,1.363298441862119681e-01,1.120231671462704193e-01,3.368412921851472036e-02,4.873307138700704033e-03,2.257178204385242720e-02,3.329337762316579852e-01,5.807977272148483194e-02,4.683166590579797978e-02,3.162103145069269233e-02
9.230326965821705754e-02,1.946313333449580241e-01,1.368505600599869698e-01,5.182870108736875592e-02,8.015318021595004006e-03,2.588822266635455727e-02,3.834440560276916043e-01,2.393329782672759531e-02,5.233391657046015250e-02,5.556198111578074944e-02
1.489254733278803922e-01,2.356044259140778474e-01,1.135872007117363358e-01,5.200459938672821053e-02,4.610659621651325493e-03,2.099417510706369158e-02,3.486544079136431051e-01,5.151533003251279261e-03,4.399340477565078650e-02,1.220414198395035690e-02
1.361210398901376850e-01,2.552290076884384251e-01,7.631066056340855830e-02,4.273042790047487660e-02,1.660858132892815541e-03,9.552179119325964959e-03,2.436985427575233121e-01,4.590751673475034975e-03,3.579335554393554136e-02,8.857759895710913545e-02
6.735667901324830786e-02,2.612616700269099201e-01,5.215275020106394793e-02,3.408414049056236045e-02,6.601162079508924446e-03,2.536251575094917651e-03,1.486423706035403802e-01,4.046668304717959685e-02,3.574041141876210109e-02,1.699970565278981771e-01
1.558635512323567306e-03,2.537950952954998174e-01,4.318225842593430286e-02,2.694698593673426623e-02,8.119646451363047093e-03,1.337614075416847020e-03,8.280412755269606073e-02,5.574580736799126385e-02,3.682930741214787002e-02,1.817993704311486602e-01
2.119054390058419321e-02,2.293510167149101775e-01,4.540365820704685140e-02,1.814672448627255991e-02,5.567047205532343196e-03,4.273791346661467636e-03,5.380826942784206618e-03,2.758409311145128620e-02,3.113269203611808769e-02,1.478693138146862651e-01
1.145409545958663705e-02,1.979234649638416665e-01,5.614379195008580709e-02,7.457185541593243198e-03,4.805617385113822651e-04,1.977875711961599864e-02,1.407807089666883726e-01,2.184947531508268578e-02,2.135239211544850968e-02,1.131270924134745171e-01
2.106076349850423066e-03,1.730544978387147936e-01,6.469698545245758381e-02,3.168414501687467216e-03,3.940527065897579152e-03,3.992855428549709623e-02,2.974934134277516518e-01,7.177787379623611075e-02,1.213903134404466927e-02,9.235263223670514554e-02
1.104675153719626018e-02,1.499786786929242777e-01,5.693027813553227373e-02,1.169849970517897533e-02,6.454944840310095598e-03,5.617893745431778996e-02,4.346787752150875206e-01,1.324703311037577769e-01,2.603268505050926156e-03,7.710719384292943901e-02
1.510075243592675504e-02,1.100171856999650477e-01,3.145655096540364570e-02,1.512599038069897990e-02,9.133749386753596197e-03,6.266235407255259238e-02,5.115702889315554280e-01,2.057508883552836565e-01,6.811736782447863972e-03,5.647036185235047856e-02
2.325525907042535860e-03,4.518474276955093683e-02,1.799484587260754415e-04,1.126532037469070088e-02,1.375605308125471722e-02,6.001756050992961694e-02,5.295900693282407090e-01,2.562005405011764658e-01,1.158649216909065499e-02,3.037668075148013472e-02
5.502377875842322935e-02,2.950042857308649014e-02,2.349625500756740565e-02,2.986391272721417196e-03,1.863497108849393458e-02,5.611242355165976109e-02,5.546987778529316460e-01,2.528483102609365707e-01,9.469529095448315018e-03,1.515689224328180783e-02
1.215230617681789249e-01,8.984219709922802721e-02,2.858711881795530929e-02,4.686857378166306431e-03,2.101828080621854708e-02,5.765309514350957371e-02,6.175355392054998616e-01,2.104022254539885950e-01,3.386806280963909274e-04,2.263367360111272208e-02
1.611375525646706053e-01,1.248465768431759604e-01,1.066022311496755103e-02,1.129715471441038871e-02,2.119064950690608198e-02,6.248729813947391520e-02,6.430012264226594443e-01,1.655107224649874365e-01,1.661675182115762012e-02,3.688925848342118619e-02
1.646223286513756878e-01,1.403343440488313554e-01,1.598586403904798253e-02,1.798110340312362304e-02,2.101602320036897661e-02,6.430011174509916994e-02,5.639362493520242436e-01,1.325878350604812461e-01,3.614879893792101451e-02,3.485541099097523576e-02
1.632758899415051035e-01,1.446535820391977589e-01,2.436318649271248388e-02,2.123916504376213016e-02,2.004213837832001868e-02,6.082257994813849988e-02,4.229719709798162031e-01,1.012767153158513345e-01,4.401393213640696772e-02,2.080629776017731483e-02
1.722930222477883633e-01,1.407336941628946070e-01,6.671185050842322155e-03,1.868157143260439426e-02,1.780071593340045930e-02,5.463881023861634489e-02,2.869096264699285137e-01,7.170421864114298605e-02,3.203283028110943259e-02,1.437911592137858241e-02
1.526126673618865004e-01,1.302548835804579197e-01,1.169863670254926713e-02,1.608765704004305741e-02,1.774581820218946310e-02,4.952714163130553932e-02,1.555180211044072947e-01,7.509860332805881611e-02,1.214455797385119613e-02,1.339985719950251460e-02
6.633259880850429779e-02,1.183570050494219261e-01,8.167193535468684693e-04,2.021191435383251633e-02,2.264000232589423109e-02,4.675617334390508306e-02,2.103992056881810735e-02,1.380289936140320084e-01,5.850428320585693807e-03,3.341313728526446036e-03
4.909661040600103027e-02,1.153251621073793365e-01,4.124341711774265340e-02,3.059825892447409074e-02,2.859878899721127882e-02,4.383821553755058720e-02,6.528228352161305481e-02,2.301246457374392373e-01,2.136470200291634702e-02,3.816012352213332681e-02
1.109371614921381977e-01,1.299812912914534158e-01,9.038360607934400881e-02,4.365434219323337944e-02,3.018692678385907421e-02,3.843263992375624272e-02,4.624427398688790020e-02,2.826396822757346605e-01,4.797788743299911257e-02,6.496566772054084005e-02
8.701032840847219840e-02,1.500867559691451136e-01,1.212299540771525352e-01,5.656946366202465076e-02,2.816923626516479318e-02,3.208194928027633536e-02,6.573113795887297606e-02,2.630286606585208187e-01,7.084623694298383678e-02,6.116489259285839974e-02
1.613815311861462737e-02,1.369801485636821803e-01,1.266515419750811611e-01,6.460411533771091841e-02,2.623243035278016722e-02,2.726818030134328316e-02,2.015785171953317079e-01,1.963765228115378902e-01,8.431754902527627271e-02,2.940363061550547302e-02
5.798386797797555614e-02,6.481819417985409948e-02,1.174477734420775604e-01,6.288105319465424337e-02,2.397355453521237550e-02,2.359175466059509549e-02,3.025905335090108839e-01,1.172597406771761080e-01,9.034968837864770785e-02,1.384151490605579730e-02
1.234050458347530216e-01,3.483301602720571127e-02,1.039083868147769180e-01,5.236621932164745724e-02,1.905707610559342902e-02,1.965061728142014283e-02,3.554232404261897238e-01,4.129682543437381004e-02,8.979815850933917099e-02,5.605849664097455054e-02
1.681742749459290975e-01,9.626517017753641325e-02,8.393723795644035535e-02,3.928197798983814465e-02,1.305927864647304926e-02,1.552304349495571209e-02,3.735514102556919402e-01,1.864215994157031667e-02,8.052653429174545796e-02,9.564768900560843834e-02
1.618234188045097333e-01,9.266781758928999135e-02,5.489146826546963814e-02,2.903272707403776326e-02,9.559573343737786527e-03,1.103924364425612134e-02,3.596547978500854170e-01,4.855396542146833694e-02,6.376609216431415594e-02,1.370511294294551874e-01
9.413505755092867189e-02,5.911908153868696003e-02,2.454290098536971235e-02,2.240368535651002246e-02,8.131311813796945204e-03,4.489451130605000111e-03,2.943904651562067043e-01,5.366043210309562328e-02,4.672563321297031752e-02,1.750756100846310170e-01
3.746936448412186479e-03,3.831277770365539709e-02,9.880993389147826184e-04,1.633190512821470694e-02,4.956590193889507182e-03,4.384660092403174815e-03,1.775348259769093384e-01,5.758924004786371287e-02,3.537702512110089959e-02,1.907744733755308564e-01
5.796257794094146487e-02,3.300777127529523625e-02,1.523475707041239968e-02,7.949874699926334776e-03,1.116109940002290527e-03,1.208876134878042810e-02,7.070984162575449927e-02,7.262680473356439292e-02,2.700091536334104508e-02,1.755596744269241061e-01
7.378847683863931639e-02,2.469782246423989081e-02,2.538495421883453854e-02,2.305215536613948370e-03,7.187781110259087308e-03,1.506304916035111630e-02,4.776539851338140047e-02,8.677727781288981090e-02,1.266790748988888202e-02,1.480340030209515156e-01
5.566448761813543727e-02,1.349466070474255111e-02,3.554086124452891793e-02,1.252132463499866163e-02,1.121983176920088310e-02,1.496726814732533134e-02,8.941148620676778180e-02,8.823745019253623201e-02,1.231206233393051901e-02,1.292713888717099968e-01
1.645454453517634918e-02,1.573297035781468997e-02,6.066789211847768704e-02,2.182060838048775764e-02,1.460295260621293292e-02,1.759703466975179320e-02,8.803228765677212353e-02,8.723806101036961358e-02,4.053088936010099119e-02,1.138943350245071179e-01
3.165865791476536739e-02,3.394144014053735586e-02,1.014456252350316723e-01,2.820786306532102952e-02,1.865388854061834217e-02,2.604785215201963280e-02,8.535088223122912210e-03,9.778799999184918657e-02,5.689512120090859520e-02,8.489012331519166232e-02
6.400176721777146860e-02,5.365687404307269842e-02,1.242599996970526338e-01,2.711626448399258663e-02,2.124439504240901999e-02,3.595027184828315098e-02,1.121468521289519654e-01,1.083968352860705253e-01,5.245693271820815046e-02,4.474136466761201997e-02
5.116028252608869481e-02,6.735018552452855245e-02,9.345818497833871530e-02,1.626345957429061601e-02,1.861344121170000615e-02,3.839861266684439084e-02,1.078099784785846171e-01,9.533167530427064107e-02,3.200301938033341120e-02,1.236531318248870054e-02
1.212456742308012404e-02,7.743874331575063830e-02,2.071516999642710258e-02,4.974180053717420190e-04,1.006801536535881919e-02,2.959101728142519289e-02,1.299393426024315901e-02,6.343575562267057821e-02,7.965635909070688941e-03,2.662425274348564214e-03
9.245043794121952929e-02,7.417621145980730912e-02,4.248743901722770722e-02,1.095523693548444352e-02,5.042249813844593229e-04,1.788487413064735604e-02,5.072174366926442135e-02,4.675775182648866934e-02,8.517879901916960289e-03,8.827540917119184455e-03
1.451919367544350636e-01,4.268433621123203514e-02,5.979407689597532327e-02,1.192602175104265187e-02,2.701488531269414031e-03,1.613858601374444646e-02,2.211122722723223716e-02,6.383556913029093949e-02,1.075918416771127345e-02,2.171560275927406775e-02
1.573239983922151974e-01,2.469046267637412147e-03,3.755972547033947784e-02,3.350065173421708144e-03,2.907808335019629667e-03,2.400579580283158238e-02,4.813421045446206886e-02,9.708618606124226613e-02,1.376984684410432992e-03,5.217320633143054942e-02
1.503391233444469899e-01,1.747464543008229315e-03,2.890728107142009201e-03,9.128813409459781564e-03,1.110521584324893757e-02,2.535054326588729104e-02,9.755637820476256716e-02,1.195778376751412547e-01,1.950245623160412958e-02,9.767395183494614885e-02
1.429590495213464707e-01,5.337736656758056142e-02,2.204748285342669756e-02,1.994877860948898046e-02,1.334309965785854778e-02,9.815162953225858161e-03,1.226538767542310754e-01,1.182062605596426175e-01,3.270133238436684353e-02,1.388507443560123844e-01
1.299595692118051815e-01,1.110666017633072378e-01,2.459219608936188267e-02,2.632378970340670463e-02,8.752004734330928390e-03,1.084286393920075829e-02,1.535249015291745289e-01,9.349609375412144818e-02,3.846904083811899383e-02,1.545692822352830453e-01
9.969616364124340990e-02,1.241775143997141811e-01,3.351311007303984721e-03,2.810695753323124921e-02,4.118327049636893306e-03,1.729304656352456324e-02,2.120722603197089384e-01,6.127025883374508097e-02,4.333780575853226485e-02,1.476984559086657045e-01
5.601807263581302931e-02,8.606209378773754803e-02,2.921825842651582308e-02,2.538106700987361256e-02,3.183205448273762009e-03,8.211631719418086353e-03,2.825501084706250055e-01,4.448817688358752687e-02,5.135507753993348579e-02,1.424044862166521930e-01
1.706908564114131485e-02,2.524364471968976176e-02,5.664185886219284816e-02,1.676924930776545891e-02,8.485655365308277052e-04,1.347451452829516449e-03,3.009085000936934651e-01,4.108119428862762323e-02,5.750607637888335844e-02,1.484327331164349562e-01
1.833765359470189080e-03,2.163885243420641397e-02,6.998474116532985012e-02,2.780119189173435763e-03,8.673143812886571768e-03,1.007618153451052614e-02,2.158569051558631713e-01,2.003861940036904404e-02,5.490844604361917736e-02,1.469484435537289635e-01
1.452731329292934574e-03,3.273915858314997013e-02,6.630287115469422898e-02,1.034619461079124524e-02,2.204953765580358258e-02,2.735042825253247711e-02,7.697973745055046446e-02,3.009386331974277587e-02,4.384448364622323124e-02,1.229060704139325610e-01
4.787417563568071958e-03,2.265747096669110117e-02,4.647163652570017456e-02,1.571067530546157304e-02,3.051603967207511606e-02,3.604175288160301610e-02,5.172050177540833682e-03,7.653842987053122160e-02,3.015308109246929089e-02,9.280461080015837971e-02
5.753799601819359517e-03,3.111256876136704597e-02,2.083569652684472140e-02,1.459484282566916175e-02,3.122127117838744900e-02,2.945574163618680866e-02,5.270536255215105270e-02,8.560571671198992372e-02,1.673709907744035802e-02,8.219185863112600521e-02
1.727959874404154383e-03,6.932438070377831829e-02,4.887121689335113643e-03,1.396925511185618737e-02,2.895294369196564979e-02,1.602006587629773923e-02,1.389800503727854075e-01,6.330638560161533368e-02,6.909240106361463560e-04,8.486520571958802717e-02
7.658019755995629230e-04,9.425276458271675262e-02,1.762555784575675979e-03,1.526124605918856986e-02,2.708226916414949864e-02,6.177351900204356566e-03,1.531342162148990049e-01,3.678135499295848154e-02,2.003658549022389532e-02,6.997392670088622979e-02
1.622079279949709477e-03,5.969076583241466477e-02,2.488979819993521539e-04,1.316280085131210816e-02,2.303675052525985464e-02,5.256564836563280916e-04,9.192263073990225575e-02,1.962631591224067024e-02,4.018707213246922733e-02,3.432691062969675522e-02
8.167687324782662434e-03,2.313812529255906969e-02,8.276025557204707075e-03,6.363346234755599268e-03,1.447961169055247098e-02,7.614816896429719463e-03,5.291102992625926899e-02,9.284568110221842058e-03,5.030527875332332227e-02,1.559366259708112185e-02
1.553883181090911884e-02,1.016628867932552749e-01,1.680563146854748002e-02,8.530480214030977410e-04,4.768648957955227627e-03,2.081758100735572881e-02,9.356703063369151141e-02,5.679635163390907293e-05,4.560012254320007508e-02,3.436575369603526997e-02
1.350829826519289040e-02,1.418815497818546600e-01,2.402000832848743758e-02,3.107134114533115308e-04,1.287701518318467176e-03,3.295014035626751825e-02,1.585346531465112174e-01,1.388842717670584273e-02,2.915355622802245916e-02,5.670945924572066282e-02
9.894980408871519376e-03,1.419215762124361180e-01,4.080639827034161088e-02,2.651360670599717424e-03,4.154947061415328532e-03,3.796993426320315057e-02,1.810014819583134482e-01,3.581326532195792944e-02,5.784933250911998559e-03,4.542207577474080549e-02
5.075356744890211630e-02,1.030476414469972679e-01,7.430780280832720297e-02,1.108189789001630572e-02,8.352397309987925206e-03,3.971159138184014725e-02,1.921576438398057696e-01,6.332574473903128387e-02,2.305625543018426094e-02,2.060196042965059190e-02
8.863334180328327760e-02,2.828188209635449507e-02,1.124446184620563755e-01,2.150394283422534664e-02,1.582473092425636108e-02,4.732352924518338361e-02,2.583314399456888011e-01,9.086167434165726142e-02,5.434732074328680468e-02,2.911079315516426624e-02
1.075823813143314545e-01,5.291930493223134802e-02,1.351332407114986811e-01,2.750360022866323029e-02,2.365256240334218801e-02,6.105477640331416489e-02,3.517948034911971833e-01,1.165655801365970412e-01,7.851162217100307594e-02,6.733044589327212559e-02
1.070277355144105269e-01,9.630138749243807861e-02,1.373337673143663895e-01,3.010090805598376537e-02,2.793176041908971077e-02,6.846077127620363301e-02,3.747447624274511391e-01,1.401882336063480228e-01,8.720133947851824163e-02,7.758295988321091408e-02
9.544287474529608573e-02,8.901245452744943609e-02,1.304942949566061938e-01,3.346525697691792728e-02,2.759533463538352965e-02,5.896992057289070915e-02,3.019460443289361251e-01,1.566599722639139547e-01,8.165802335145212754e-02,2.622912382654464178e-02
8.484666713715835473e-02,6.203730044754161843e-02,1.218567142387055185e-01,3.534668424965853317e-02,2.446019820038834724e-02,3.858412870104873521e-02,2.132924865383556412e-01,1.582860439943625797e-01,6.514967161044402100e-02,5.253647023554272599e-02
8.688600995278245032e-02,5.291708335357483278e-02,1.089894600672636493e-01,3.104357295541064141e-02,2.135407131284277130e-02,2.338918734856927639e-02,1.721032067891074269e-01,1.439975964421388033e-01,3.656541065365973703e-02,1.053323078654594819e-01
1.053526156558415305e-01,7.559294173570543784e-02,9.780720674736588516e-02,2.408328865452269776e-02,2.069106537753310354e-02,2.054533334027169172e-02,1.503529831882175483e-01,1.230338771114479757e-01,3.214232711935174035e-03,1.192221988865665994e-01
1.336727350903876010e-01,1.243765486731026881e-01,1.004299514313771874e-01,2.229604886466002300e-02,2.322572828073024911e-02,2.383350224385336058e-02,1.075040638584461583e-01,1.053976645568249354e-01,1.399290091917379519e-02,1.146502342299703103e-01
1.626326221016286544e-01,1.835050195030423215e-01,1.083792669669077086e-01,2.443888712069880453e-02,2.692578347046148748e-02,2.698994802246940106e-02,7.539341042532973769e-02,8.857440663748147869e-02,3.321656915067318014e-03,1.049051517559551477e-01
1.901204760658028181e-01,2.309893327422204989e-01,9.866320765767183643e-02,2.209282517844388463e-02,2.857743171155691098e-02,3.174924166415546423e-02,1.079842266662067590e-01,6.323414210045208428e-02,2.194206347677071095e-02,8.345318789971724327e-02
2.167208819864008262e-01,2.511125076606071094e-01,7.216385596118773949e-02,1.462761028302739935e-02,2.773068654622498283e-02,3.954749575961478275e-02,1.790042956028226051e-01,3.535001386206364227e-02,4.091380771957019852e-02,4.474962945319027607e-02
2.231735835084834307e-01,2.464544410794543838e-01,5.532415269686129233e-02,1.067917709772890980e-02,2.680427634554967756e-02,4.337751354103986517e-02,1.900227395753776582e-01,2.409010892470622028e-02,4.729105211943041703e-02,5.140318760975166185e-03
1.679063303601821544e-01,2.298369727321432077e-01,6.305168530004351402e-02,1.444825205790461684e-02,2.645351044723291342e-02,3.587281293939502402e-02,9.237374019467338437e-02,2.826738177601202662e-02,4.750874646702925308e-02,8.122562094322082968e-03
3.904158190870856554e-02,2.078063245061317621e-01,8.357804409027880244e-02,2.103174482123402675e-02,2.449987842058191229e-02,2.165822836326303583e-02,4.228172823837280520e-02,1.929021842998554503e-02,4.497789639637039816e-02,1.110940840081041901e-02
1.025261934336319514e-01,1.798106060322511579e-01,9.302279847755662301e-02,2.510206153047144992e-02,2.048206723201381058e-02,1.201113562473060149e-02,1.120024620201997695e-01,1.776729046412845597e-02,3.461405156271377126e-02,4.284302654793225446e-02
1.780126451081273653e-01,1.491989896973108520e-01,7.172259081909931888e-02,2.521548365888124851e-02,1.685374922407811490e-02,8.863881551007051288e-03,1.100535962181658778e-01,6.013440876683780884e-02,1.435022874351643031e-02,6.746415432312181937e-02
1.808566944887852745e-01,1.242749468954444381e-01,2.073732490644349807e-02,2.063607978394331466e-02,1.437980525645724851e-02,4.499848775037016205e-03,1.016158793977419844e-01,7.801880106846453833e-02,6.791553781067046630e-03,7.653636555241320749e-02
1.623723174775771327e-01,1.066731548739752872e-01,3.286922335378460180e-02,1.179197221167499823e-02,1.107974818690354510e-02,3.551442628329278071e-03,1.118471917029887630e-01,6.708657984946896080e-02,2.131784505094226276e-02,6.129145025688911841e-02
1.448864697979595217e-01,8.860982958618686400e-02,6.272262088046817730e-02,3.271332702500445461e-03,7.280633619152238056e-03,8.463657448227341826e-03,1.154082612297133853e-01,4.164450200631139576e-02,3.453685683471758444e-02,1.557428378744865442e-02
1.150135687077689095e-01,6.858659095807338735e-02,7.017479927294713316e-02,5.138319173222613036e-04,6.516106401792899974e-03,6.672801692186421801e-03,1.080921803883918564e-01,1.921676868084688100e-02,5.003744551242972349e-02,4.815942277767241986e-02
9.003871202805124874e-02,5.501172862734035607e-02,7.077766054010772856e-02,3.354345811039299418e-03,9.024561370661848825e-03,4.882472950908526080e-03,1.082769167425381152e-01,1.963206317910268228e-02,5.557062465936748324e-02,1.010493413205588581e-01
1.143353037257898441e-01,4.023422538900814360e-02,6.854132406413131207e-02,6.487550613282121181e-03,9.660234003655527452e-03,9.981160311032065760e-03,1.054887840850726316e-01,5.398989526007067635e-02,4.073075441248426992e-02,1.208866196137825394e-01
1.838152921875959578e-01,6.317448222246460632e-04,5.861087911308259651e-02,6.946970154356749833e-03,5.744754110243798818e-03,1.807846235890652603e-02,7.648832478271751223e-02,1.032502239125680510e-01,1.801025756992903626e-02,1.130256663173137971e-01
2.348583520430008453e-01,5.957057315959290306e-02,4.203412914515769483e-02,7.609483908374881610e-03,2.048390439344533603e-03,1.964757709309053815e-02,4.348183458240993671e-02,1.296815982858668670e-01,7.448930980611228811e-03,1.061688212742486065e-01
2.217183000198986453e-01,8.883076959775677850e-02,2.946454930922857984e-02,1.050717959458182145e-02,3.585449793390413798e-03,1.251942769516379249e-02,5.578194017572294522e-02,1.174946648081260786e-01,9.668667919306659156e-03,1.194250079959402466e-01
1.664350663314085876e-01,8.064845448658840288e-02,3.722220342513678920e-02,1.083876717707257971e-02,7.975116339675715482e-03,2.727527948039513202e-03,1.047124715320754407e-01,7.998402846339669470e-02,1.283716980095331826e-02,1.356422274371007486e-01
1.203196908103102980e-01,9.450865464689363338e-02,7.318352356301388584e-02,3.826311549425882169e-03,9.932836976896187650e-03,5.974746521864367221e-03,1.123583667777756923e-01,2.792927143729319675e-02,1.564426094906574624e-02,1.210239922977411342e-01
1.012552009883443682e-01,1.585464100088255779e-01,1.194135249293337697e-01,6.137193886599158661e-03,8.916528437921365791e-03,1.368009413334207724e-02,4.433658477889068639e-02,3.489268077215747915e-02,2.308324610676839792e-02,6.961365725727847176e-02
8.701787565320580342e-02,2.109356262157779938e-01,1.433472999596061559e-01,1.102363681217544654e-02,6.855971270157090042e-03,1.496701370904764475e-02,1.133394668867886840e-02,8.533775091055134654e-02,3.110710752573394092e-02,1.082332394545528279e-02
5.898083402140008591e-02,1.940314397671555613e-01,1.345868919551583831e-01,1.069204241892293510e-02,2.881628310783322915e-03,1.265082136847379621e-03,4.900493242776055025e-02,9.166501392312123575e-02,3.532835761241335387e-02,2.742200697231719775e-02
2.830787739106370091e-02,1.456094156200343492e-01,1.165215259297393696e-01,1.128016634448049220e-02,3.834761038606351521e-03,2.321123227748725371e-02,1.893552269668115351e-01,5.637766512850257705e-02,4.286371997555152996e-02,4.594344897511808135e-02
1.590712898455398996e-02,1.412908076266465585e-01,1.153695942724131673e-01,1.541372077533783268e-02,1.032151434480564449e-02,4.155455317047166558e-02,2.833876860805109588e-01,1.277903696188001023e-02,5.888995988788601338e-02,6.328033420782921969e-02
2.448061597899174602e-02,1.911354899789029227e-01,1.298338927692308242e-01,2.083988228735539350e-02,1.410536618954099861e-02,4.516561785932076550e-02,2.934622431848122326e-01,2.013810804122658296e-02,7.280820096932789920e-02,8.806816597324139406e-02
3.696057893010450124e-02,2.397373082538739875e-01,1.357678003750183993e-01,2.517019584536389284e-02,1.711356877954579858e-02,4.164284307631666016e-02,2.840490760803516257e-01,4.484656623598445163e-02,7.006810642733264649e-02,1.050328285340883239e-01
3.369500044457313798e-02,2.402420755940458952e-01,1.134587439122930336e-01,2.634104580787947208e-02,2.135711262005665981e-02,3.863171124582803068e-02,2.798474433844109210e-01,5.694210339808252613e-02,4.882728176319017094e-02,9.127451164344130285e-02
9.043272966733907972e-03,1.922083085934522817e-01,6.876039239791574553e-02,2.252001530748879918e-02,2.492272290308953156e-02,3.374887067292432069e-02,2.323688766429588826e-01,4.729024292838058391e-02,1.722056596416086938e-02,4.759676477631896718e-02
2.445053738058888815e-02,1.216785958514212534e-01,2.849865200694396555e-02,1.588981650654413408e-02,2.543198293254739575e-02,2.509093380082555100e-02,1.232695806079358303e-01,2.459290763951821335e-02,1.797259035226733692e-02,2.713151642230561284e-03
4.958656425469137874e-02,5.504572192753183490e-02,1.394627663978245495e-02,1.223488669296671043e-02,2.414783744408093014e-02,2.010932608686552894e-02,1.038920056589355372e-02,6.592924929815032267e-03,5.206024540958716779e-02,1.719092706417343908e-02
6.318175729954753073e-02,1.367577937426800623e-02,2.289681223525463771e-02,1.383693665857839775e-02,2.401295923832108201e-02,2.662946234988959257e-02,3.930247308199448508e-02,2.210912093208543087e-03,7.600859586783807742e-02,1.171450472608549440e-02
7.590663828751691156e-02,8.166671980646939000e-03,3.621254228228555638e-02,1.613897969662456827e-02,2.511644799101900999e-02,4.066766227610300183e-02,2.070886578995982663e-02,5.468908722789036711e-03,7.866150333236697489e-02,2.162050263296446707e-03
9.494270744949002971e-02,2.123681188383769874e-02,3.249887192133840697e-02,1.277453029472903380e-02,2.413338204943311222e-02,5.065669309517703556e-02,1.153525628276727208e-02,8.272514053631928668e-04,5.931649506684807255e-02,9.214617161328151826e-03
1.161375693446598523e-01,1.602851241055341935e-02,5.703217507087588942e-03,2.725256651215958448e-03,1.917049163229521055e-02,5.237315756820924706e-02,2.700933953790996683e-03,1.406283387634573931e-02,3.340165059483702487e-02,2.994768646864398934e-03
1.312426201940908588e-01,1.588159232194175791e-02,1.813890380446143979e-02,6.684674973578764307e-03,1.403641858755377489e-02,5.248989603973790163e-02,4.322759943317337761e-02,3.168726018857484505e-02,1.807579147685169085e-02,1.211407653539096040e-02
1.329865756638198560e-01,3.572650187709633385e-02,1.723536074411859825e-03,5.457233790399761836e-03,1.443859905161296205e-02,5.664384532316599219e-02,5.756539174367843875e-02,4.196672509872498985e-02,1.282034814725888094e-02,1.447256407752654794e-02
1.159790165753713520e-01,1.175019761088838890e-02,5.005944717592622495e-02,7.338457606340711634e-03,1.998336220219456422e-02,6.170095094946659309e-02,2.842456424140824001e-02,4.596473111053430566e-02,3.265073965963299213e-03,2.169298035453036747e-02
8.159476698190486210e-02,3.417444911023126419e-02,8.572208418794864671e-02,2.100257369201930305e-02,2.473528213043988538e-02,6.270085439770274605e-02,1.936488722418147901e-01,5.779317880616967329e-02,1.544019227722469127e-02,8.627887875377417137e-02
4.225687832465771510e-02,5.937610751035483220e-02,6.909311089146949469e-02,2.537010387999345112e-02,2.576762170876852401e-02,6.031048939027637557e-02,3.189243961325237131e-01,8.831103213687742370e-02,3.005241960187949798e-02,1.288346450480754024e-01
1.775950580329804795e-02,4.937562487904250536e-02,1.342999801231851628e-02,1.981498334830115657e-02,2.500075542207799706e-02,5.682114221879930316e-02,3.019033552445067325e-01,1.228856853282138950e-01,2.589376583350516681e-02,1.204436893786213769e-01
2.287492986234855238e-02,1.369956188023738544e-02,4.971295019904341250e-02,9.144094401226201749e-03,2.306228149091386209e-02,5.048984450365513743e-02,1.692878880986046775e-01,1.283513502864351841e-01,4.537903518707427086e-03,9.292776238449314274e-02
5.330897746583897895e-02,3.167822975080090975e-02,1.003505862907642793e-01,1.554403551670682868e-03,1.838070417656019126e-02,3.895744789354855381e-02,4.302866894924218394e-02,9.543242831356707478e-02,1.541914375985059017e-02,8.804632258325201244e-02
8.840032589988483513e-02,6.125679054000549711e-02,1.309336302856361212e-01,8.157822997345815647e-03,1.155657991510509845e-02,2.373245892327691120e-02,4.591518854494790192e-04,5.590279967577928277e-02,1.463466890050157086e-02,9.782848642813928020e-02
1.142454076883061137e-01,5.433012490799662975e-02,1.464085294158782857e-01,1.023812883023252941e-02,4.723846391735246966e-03,7.348151783332035336e-03,1.758256339127590301e-03,4.039685647349723630e-02,6.054411418749149933e-03,8.810596844239802772e-02
1.357632971605272076e-01,2.386773693333950341e-02,1.584210608353031347e-01,1.093238798263959644e-02,1.636898163769774997e-03,9.219185889754490104e-03,3.156875367202698068e-02,4.149230268512713038e-02,2.581605600254104071e-02,5.676449709653880182e-02
1.572121340437228065e-01,5.238833669218928568e-03,1.681034520749860595e-01,1.173128884525364256e-02,7.434018883852583706e-03,2.402528923170168390e-02,1.074077030449653303e-01,3.509323025297180626e-02,2.873099647615693850e-02,3.190366516581317341e-02
1.621170072740432122e-01,1.596112370005329378e-02,1.674042814358689957e-01,1.168572330119270475e-02,1.145798026345167669e-02,3.439765398669764052e-02,1.757060545041934096e-01,1.488646602636389121e-02,1.761744145276450055e-02,2.398504092232708884e-02
1.283549734189820823e-01,4.336921475011325244e-02,1.528358523510043865e-01,1.069802440264457088e-02,1.311826576180319046e-02,4.082993134034618860e-02,2.146275351855208569e-01,8.517477403586992679e-03,1.342177927773130410e-03,1.555117074810467674e-02
5.852309242141753853e-02,6.315338706008041814e-02,1.195786979489479318e-01,7.575769604084277818e-03,1.259086285801811096e-02,4.594541780047835949e-02,2.416427303547786787e-01,2.393164389012813337e-02,1.624317143088697957e-02,1.849052477498345018e-03
2.177109198620778840e-02,6.186858202427086839e-02,5.933898505661974743e-02,1.855084119393077356e-03,9.465917477452347531e-03,5.033876477409523348e-02,2.603498941943183653e-01,2.600732305381145415e-02,3.260537906118247953e-02,1.287434952286413588e-02
9.345512172100590986e-02,4.908868204890049630e-02,1.423837516249691279e-02,1.773601993472552485e-02,4.645650195700863801e-03,5.340168722018276415e-02,2.541382792612438823e-01,1.582154151412553528e-02,4.227129611809864185e-02,8.335487478651482096e-03
1.508184653477541992e-01,4.138706196954221317e-02,6.091158737437998155e-02,3.120860564836133375e-02,1.586540411755944660e-03,5.529311368921155379e-02,2.196394050327553082e-01,2.476877819515888035e-03,3.552108623040831081e-02,3.913471494527169178e-03
1.822245051852648123e-01,3.307937794931824216e-02,5.728005126004408892e-02,3.383936061178263038e-02,1.754097295712254197e-03,5.443084843929697769e-02,1.676909245978124019e-01,2.647066956954391426e-02,2.442931388427173420e-03,1.831663723831419843e-02
1.726094048391121627e-01,7.235496656239581020e-03,2.732823749355121901e-02,2.909988601238548689e-02,1.490516508254218983e-03,4.752538802941386892e-02,1.071159354598572866e-01,4.950868535989173119e-02,5.027474755677504431e-02,4.962277224664388142e-02
1.276266313102618621e-01,2.615738013900215791e-02,1.401209999267312607e-02,2.765000725023361930e-02,2.964970643705064010e-03,3.504276376590793884e-02,4.598090720664182313e-02,5.400126826987965145e-02,9.304051843174546144e-02,8.003613773620388283e-02
7.260817924997065020e-02,3.852978224541559610e-02,3.228163017562512421e-02,3.308402561140565828e-02,1.011041641057046879e-02,2.169992278118499165e-02,1.272502917113648227e-02,2.833514717045646988e-02,1.011930471111506802e-01,9.548282644576000511e-02
2.636769930573169829e-02,2.621998869830349452e-02,5.855969034446617538e-02,3.833374289061642487e-02,1.534491586294854486e-02,1.085577130409897360e-02,7.585064660694910976e-02,1.104767691732482307e-02,8.020664956798406742e-02,9.943446923983305374e-02
9.905754664737809190e-03,8.078878147671357188e-03,5.838749919828607748e-02,3.507488684897595854e-02,1.558595285676419445e-02,3.754923649353786308e-03,1.370692197971381254e-01,3.573448854751472281e-02,4.898038126612096893e-02,1.071580437152527959e-01
4.226158985004341978e-02,1.647643596284867340e-02,1.785265370569404791e-02,2.188912001606372129e-02,1.042073139155101462e-02,2.204667710344000633e-03,1.632705198517218348e-01,4.329888159123164437e-02,1.510582133426263338e-02,1.201106801678031993e-01
7.437397951046870181e-02,6.616139586509632575e-02,4.787708099964594483e-02,3.992296003142787458e-03,1.542837024500864473e-03,5.969354644644700968e-03,1.219199450847986699e-01,5.574211801751869505e-02,1.816330624670389401e-02,1.140580484968184705e-01
1.040062858650190880e-01,1.279793626099662573e-01,1.074804590691080253e-01,1.130701304884443661e-02,7.898488225957150943e-03,1.065334898970196273e-02,1.251589297853267571e-02,7.987611668184545211e-02,3.956629952932431971e-02,6.827399300741729404e-02
1.213356022067680479e-01,1.470881561241382807e-01,1.323760533153900687e-01,1.909508280029180438e-02,1.464948753758812429e-02,1.264711945010255773e-02,1.207093515584433396e-01,9.563195438431072726e-02,4.119830417296177494e-02,2.607760362120312668e-03
1.172400569695987299e-01,8.861161029535030709e-02,1.130102248562901562e-01,1.944054738745342945e-02,1.665138098834226948e-02,1.241854049456403777e-02,2.044993255310682545e-01,8.783967866513531231e-02,3.000743599983825283e-02,6.387430792905927912e-02
9.913271163676423692e-02,1.512115450831613347e-02,6.591047573105962565e-02,1.652011823884924277e-02,1.423758780906796660e-02,1.171966461812236002e-02,2.053629301780767746e-01,6.724263868266695809e-02,1.782757948174065396e-02,9.576617710230556080e-02
8.566865780357285631e-02,9.965249402346022800e-02,2.163639337519865369e-02,1.474202010518235913e-02,1.095747091935629636e-02,1.273103763428594729e-02,1.844398329974898942e-01,5.558161380754578218e-02,9.348007242785314613e-03,9.596719068659642637e-02
7.658644732817612710e-02,1.301322264006688489e-01,1.541925303688573834e-05,1.525659176743149152e-02,1.120567868900701480e-02,1.882684534445968824e-02,2.248473879929971941e-01,6.354970909450496919e-02,4.855524457093397805e-03,6.415450876848755035e-02
4.893694271594138667e-02,1.144184955719359242e-01,1.595655550020095952e-03,1.630945900132659346e-02,1.575614948159066719e-02,3.018125540033197995e-02,3.067487371352449754e-01,8.232135935495278611e-02,5.308850404431254486e-03,6.297144516317991145e-03
1.986303633619840216e-03,7.950069222029010341e-02,2.533073463562761363e-03,1.652450887697487145e-02,2.121595389811469293e-02,4.036244808883918123e-02,3.271168949128012704e-01,9.071698051731398593e-02,9.089737240935678170e-03,5.353969870568159317e-02
4.724713905368931044e-02,5.074351255739385086e-02,9.276099251803752652e-04,1.600282147943279248e-02,2.370500657666293684e-02,4.188315367346866908e-02,2.450854398893396735e-01,7.664914419110802069e-02,9.062656530712542152e-03,8.372509621528251289e-02
6.801658167681709499e-02,3.830840922475382826e-02,2.170537365290377968e-02,1.433799202986592129e-02,2.129695553651034939e-02,3.297247987650672035e-02,1.323725867297276537e-01,4.973179553746513715e-02,1.410297410970536274e-03,7.270164453269173377e-02
7.836878953756779009e-02,3.423025241637540905e-02,5.953197733104405309e-02,1.098598709201052681e-02,1.438534657103707898e-02,1.744399544873763072e-02,7.285276541245670756e-02,2.716855616838370277e-02,1.870319414747223172e-02,4.263077509923701020e-02
8.544311000978307979e-02,2.738048074445878152e-02,9.729521096781712508e-02,7.786970391328940436e-03,6.067339931219179611e-03,2.574428634718176154e-03,8.384763739012539296e-02,2.051537140407625956e-02,2.894128061383481262e-02,3.013313971803500968e-02
6.985393448373090897e-02,1.522412759107016900e-02,1.154930080432730322e-01,7.029284993012588183e-03,5.500082524939136318e-04,2.624053313056574476e-03,1.427019821308381786e-01,3.824726776054486466e-02,2.300840972651750985e-02,5.133919750493706052e-02
3.107956731445484649e-02,2.028260436171516919e-03,1.140093260807698572e-01,7.632400603498333026e-03,8.792124087586498504e-04,5.605938431389767204e-03,2.138789225856941312e-01,7.299514438414120288e-02,8.928931367448596917e-03,8.785283344160788044e-02
1.297052824807565750e-02,2.248699351168670368e-02,1.057966033739586448e-01,7.513926963394113381e-03,6.237165144806766648e-04,1.878289441609274496e-02,2.359558503637402549e-01,8.493746746560258687e-02,1.433779863553263012e-03,1.077587576984942730e-01
5.197266841911302171e-02,3.453734790191544807e-02,9.458842034916239983e-02,7.443480589512115921e-03,5.660515065346650478e-04,2.357810934076416329e-02,1.621901680869939077e-01,3.745065818987949879e-02,2.666791252005380058e-03,9.832917820915754170e-02
1.262782254894666834e-01,2.704485040966213630e-02,7.652099452287645931e-02,7.926794841681239490e-03,6.865273868100069121e-05,1.751081788236034248e-02,3.138874897136096492e-02,4.696936249682295839e-02,3.055883915617233632e-03,7.291868234997482545e-02
1.848385234906142760e-01,8.982221559134298192e-03,5.740064637866122005e-02,5.993805148421503005e-03,7.513244479833600890e-04,8.997683483552983488e-03,8.359144370272381108e-02,1.072723773673586178e-01,3.258944424582698157e-03,4.416526358349945336e-02
2.051049970721739168e-01,4.691096114261499419e-04,4.763276139891797767e-02,2.265275357133484865e-04,2.786318369024599808e-04,2.110079294333624695e-03,1.955512582679441169e-01,1.203947527698022019e-01,1.429074951496354766e-02,6.668537868036457372e-03
1.969969002879571884e-01,5.964349703012693064e-03,4.305024951773613051e-02,5.272405528838290840e-03,3.722435443526004185e-03,7.366865396878356786e-03,3.638182081922222144e-01,1.152437188763729969e-01,2.706867785340709084e-02,3.895079665144124403e-02
1.713609647615878528e-01,1.410329271377838006e-02,2.894286655151817253e-02,6.835321924761460222e-03,7.279338471898776780e-03,2.038290600057204166e-02,5.477220719013480288e-01,1.140760049451586128e-01,4.071804601905158749e-02,6.605154237475635570e-02
1.309150576231083996e-01,2.026772469987245598e-02,1.913978604844385721e-03,6.468928154703693090e-03,9.323342156405543119e-03,3.081837054422437161e-02,6.268890788784532431e-01,1.054897272268690289e-01,5.535572323854494325e-02,5.387934446914964537e-02
8.136193270743902195e-02,2.860992269883917347e-02,2.355023278865981534e-02,6.980243790218360056e-03,1.026832561854753439e-02,3.427399251792051516e-02,5.650754261707772175e-01,7.913660131258470898e-02,6.791485084918882920e-02,2.319572202526656163e-02
3.391083871258892407e-02,3.470971919750468621e-02,2.939239290062328064e-02,6.683691631642922279e-03,9.984961382878389247e-03,3.200155209358067354e-02,4.419081754260154038e-01,4.956497939560620264e-02,6.630955529843286789e-02,1.082581699092273822e-02
7.930353460122406550e-04,3.073652950184481772e-02,1.356184024427028664e-02,2.375122934501842139e-03,6.963049821210902032e-03,2.636525799063795666e-02,3.283792351295317657e-01,3.610449292820710337e-02,3.854428530985576362e-02,2.211309479658871840e-02
1.528900915659341976e-02,2.571741242185034831e-02,3.478995820266051614e-03,6.022012102158857093e-03,8.977422488427753630e-04,1.907331031849611447e-02,2.298861097051395075e-01,4.216202412650926767e-02,5.544155956422889067e-03,3.696502287350056370e-02
5.632344462113877612e-03,3.581453474098249962e-02,1.436239021382504887e-03,1.591528572698027930e-02,5.601520800398247270e-03,1.336570162051630567e-02,1.493594264072195532e-01,5.907721300118595753e-02,3.724774892844482516e-02,4.971730103581509935e-02
2.186765158682344237e-02,6.103195790668784065e-02,2.984948990326578150e-02,2.530227894543538372e-02,9.532190692957709724e-03,1.216574715836172063e-02,1.138777289785219693e-01,7.242980651320972407e-02,4.077968418790114263e-02,7.012667531092368900e-02
4.351098911927780283e-02,9.401055989928309986e-02,6.893938317001559180e-02,3.431442824468421138e-02,1.156137903034209352e-02,1.318541815076515120e-02,1.216263716914506854e-01,6.429729540029674451e-02,2.589997043636273200e-02,9.196891451682126517e-02
3.305712231036980059e-02,1.332770891721765660e-01,1.105350701281027082e-01,4.293103059059955040e-02,1.463383470358093144e-02,1.080085833019821424e-02,1.278507163293098048e-01,2.765414858790429115e-02,6.569748625449892653e-03,9.313912150351366659e-02
6.667015758453230002e-03,1.628382594736754452e-01,1.399494771850814390e-01,4.749905949403733507e-02,1.744398097994631983e-02,4.342600656387843663e-03,9.724449920827178684e-02,2.096215035170277338e-02,1.243905199326403137e-02,6.597580326640396786e-02
4.254028706560111783e-02,1.486007054567051455e-01,1.255097037373460178e-01,4.276482715259451173e-02,1.444371862714205132e-02,1.160533157586683120e-03,2.840388544438269408e-02,5.696459502996496088e-02,2.361475030845265610e-02,2.283625570651889869e-02
5.360551149762886325e-02,8.660304171419726249e-02,5.587121313580059589e-02,2.906443017424639036e-02,5.325888068251629151e-03,4.202870748082440655e-03,6.632298175740744539e-02,7.193530459331087812e-02,1.403048382523467037e-02,2.516078514671360108e-02
5.537569477906002791e-02,2.217455590811667071e-02,2.749169346255225799e-02,1.360548835051859223e-02,1.974201909177257432e-03,9.072916428874982717e-03,1.650586808794016480e-01,7.189254823767471381e-02,1.342500153572252775e-02,7.172690923211141878e-02
6.654758310386629794e-02,8.745746803575218942e-03,7.235559491733369042e-02,2.102448715769327306e-03,2.008458066359034878e-03,1.657567667755745905e-02,2.320140449017215889e-01,6.210605808358207747e-02,3.333243655280031248e-02,9.897083774669850065e-02
7.692857636950221900e-02,2.112007395004034463e-02,7.713347512664175953e-02,6.762743383127858311e-03,9.313464681603223546e-04,2.096465903861196092e-02,2.429175256649714620e-01,4.610967904917571275e-02,2.701060915248082450e-02,8.209739575690790103e-02
7.184290274207781601e-02,3.780274588605376379e-02,7.673428498616029214e-02,1.567441463251414285e-02,6.136478037996297629e-04,1.876336801225471362e-02,2.077249223339448503e-01,3.089663041188237327e-02,5.576728104465958000e-03,2.277710325064447733e-02
6.418820292581323139e-02,4.416036275274305700e-02,8.089066206102031587e-02,2.151378063452936279e-02,1.832490051061868262e-03,1.386299485099507477e-02,1.553959389605541475e-01,2.455135260987308457e-02,1.014314493040126969e-02,3.496963295275169747e-02
7.583880661210670726e-02,1.536833367441452387e-02,6.438556889027985397e-02,1.852882779955718900e-02,6.803113496240409397e-04,1.285395757112594434e-02,1.163702713422022084e-01,3.356042844487963639e-02,1.928658688919420230e-02,4.037699840015307462e-02
1.061437718492242721e-01,3.744070319215411086e-02,1.753367771780438983e-02,7.651102910071505905e-03,6.011361249705337792e-03,1.911042559620707709e-02,1.161394552442730765e-01,5.986503413662012940e-02,3.341248974876719763e-02,7.250185351719350829e-03
1.391212295860292103e-01,7.685535827368823736e-02,2.923454837272138063e-02,2.110538442621727375e-03,1.407998855044700209e-02,2.887688194230486616e-02,1.458215740029645824e-01,9.236423808130220237e-02,5.023674119972047769e-02,4.831763154187405235e-02
1.624294563331558916e-01,8.455024873510361139e-02,4.448622104707808389e-02,3.283820593248788864e-03,1.771715348382148919e-02,3.187815222585579922e-02,1.545801920337564472e-01,1.104407036223141320e-01,5.499522041968862851e-02,2.590435211407679517e-02
1.635262992234428614e-01,7.448847056864130178e-02,3.387701115747409480e-02,2.798367697038567879e-03,1.466022139853296810e-02,2.188907716185303429e-02,1.176165582088917472e-01,1.074601623526767469e-01,4.326820300877304293e-02,4.732112013016161189e-02
1.302435796524180622e-01,6.570308064015654981e-02,2.179249609662969184e-02,1.033635607332097223e-02,7.813845764043992823e-03,5.733139298087152128e-03,7.145687047683700610e-02,9.741746299669849785e-02,2.574638405766765947e-02,1.098747503262644670e-01
7.352645043588032503e-02,6.424896636925193916e-02,1.586774598332380687e-02,1.594385835465893936e-02,2.581073922396852609e-03,5.898897770006674042e-03,4.051502772843541128e-02,8.760823116763845342e-02,1.369842782764393863e-02,1.289340134090015411e-01
2.993914177148264757e-02,6.844146063616904363e-02,1.125542990190635598e-02,1.801423283973267730e-02,2.360970047347271498e-03,1.204480591356471043e-02,4.577017259117505295e-03,6.784088999515913709e-02,1.274088842386613893e-02,1.189710499634269031e-01
2.421798076793547916e-02,7.004285256300100959e-02,1.367606504852844802e-02,1.477442509167629231e-02,5.699406926875587309e-03,1.749843786885413310e-02,2.945819333875408091e-02,3.835021870355755785e-02,2.471639383029471462e-02,9.478345483335663679e-02
4.240538898110583765e-02,5.658437765629768107e-02,3.014482969603250045e-02,8.364477521866000437e-03,7.105100783122181296e-03,2.310447901615978600e-02,2.955490011607177225e-02,1.573934232185148635e-02,4.150568437571905411e-02,5.530214827048714199e-02
5.242357209693744580e-02,2.862672994675023730e-02,4.295314508420906841e-02,6.637830705139520504e-03,1.778134516292174819e-03,2.832233377953114611e-02,2.642115604674977886e-02,1.050098302355761265e-03,4.292677449879452739e-02,1.085768020456608259e-02
3.891511134644733139e-02,1.106889595567570311e-03,2.272042029526701729e-02,1.479878586576615675e-02,9.095625967194830713e-03,3.482852459498984171e-02,7.743590329129537708e-02,3.316278404637480054e-02,1.641695270750852947e-02,1.727774847671868785e-02
7.923977426883738878e-03,3.693650603082573869e-02,2.912865809989142671e-02,2.748643499955917904e-02,1.875369232769359337e-02,4.164317009688868476e-02,1.485159199309178668e-01,7.861878678042187596e-02,2.298886202090642469e-02,2.540478375419365220e-02
3.202534439073093792e-02,1.006641789640461693e-01,7.742592257819247425e-02,3.436270466327942530e-02,2.171663083702242078e-02,4.458430668613683895e-02,1.534917324768035884e-01,1.024046579810084789e-01,4.571961565670024097e-02,2.629057104836133793e-02
7.685089231116518094e-02,1.876827916170906996e-01,9.777227820949939419e-02,3.236588905481471712e-02,1.939597039367350548e-02,4.311781597239663227e-02,9.288279868024845731e-02,8.345931282332813561e-02,4.225685812583506590e-02,2.567549138218828964e-02
1.180528515396550848e-01,2.526161434436932640e-01,9.730411522958298809e-02,2.770485382762673601e-02,1.794285946469979104e-02,4.114131520000404579e-02,4.985889426528050672e-02,4.739746635153618826e-02,3.333723251749058647e-02,2.141959726465022043e-02
1.467089402668201037e-01,2.591740885303994157e-01,8.701736900753895276e-02,2.604438694070770194e-02,2.095282061620218350e-02,4.103294890603054190e-02,7.030131891175958603e-02,3.768622100050490753e-02,4.106021924707591725e-02,1.492818500674818888e-02
1.681041043572887583e-01,2.219362188920087353e-01,6.552329334145411133e-02,2.616378544605363343e-02,2.582730552652117914e-02,4.212382207526215588e-02,1.246496327193557935e-01,6.513608343849218441e-02,6.158013515035874741e-02,6.744787140044481571e-03
1.919211859641475337e-01,1.812980158198432279e-01,4.055229378619099045e-02,2.497139447429090262e-02,2.812953698728279384e-02,4.348576139406738761e-02,1.683118813011533210e-01,1.012403289989465133e-01,7.608727285218937209e-02,8.065411356727125031e-03
2.075490122706963314e-01,1.566755628943343748e-01,3.491683285072439552e-02,2.310368821561152586e-02,2.705415206731251118e-02,4.391487102301444567e-02,1.832124072603510956e-01,1.186825961495235615e-01,7.754408726995395962e-02,3.103065020770879798e-02
1.925047315083600608e-01,1.427026973107701491e-01,5.505214385842083225e-02,2.219857969689082583e-02,2.424794700343730833e-02,4.107659758416335599e-02,1.712632712441602978e-01,1.181217276493494589e-01,7.239499603473861788e-02,5.634332853656871115e-02
1.449163192528472865e-01,1.366797410028602056e-01,7.829133490702562537e-02,2.140202322888547226e-02,2.004194277321674419e-02,3.391799217186366316e-02,1.403845563800074914e-01,1.086957394804528854e-01,6.441503509949028650e-02,7.540171155914540679e-02
8.554912356312881216e-02,1.458208270929384487e-01,8.270388855671524653e-02,1.935988740831055474e-02,1.410530150618571552e-02,2.411416891292846032e-02,9.286517842129442257e-02,8.500485387479771171e-02,5.337469018321260028e-02,7.819576642544869005e-02
3.067785190848290253e-02,1.678079858058271479e-01,6.709562223589254915e-02,1.555954663390171286e-02,7.861186033981034174e-03,1.392088508604287858e-02,2.586786605368490352e-02,4.096689282470967336e-02,4.601276953499673639e-02,6.109613963491815347e-02
1.779052414131565563e-02,1.834162031114016655e-01,3.947742983228403474e-02,9.208499922428396017e-03,3.734722463814504380e-03,5.110589241099632030e-03,4.553642667278944012e-02,8.424943975984922062e-03,5.251745465217830255e-02,3.888191570671021419e-02
6.037400758807209139e-02,1.747996225604729892e-01,1.173318819831251254e-02,1.145629826855794559e-03,2.886318018041884523e-03,5.011437087789438576e-04,8.811099043167661127e-02,3.953780734998386254e-02,7.043332009152238060e-02,3.097083355608815786e-02
9.537237217787448984e-02,1.389486255484316535e-01,1.392168380706335432e-03,4.700866113344189662e-03,4.327422389750196566e-03,2.896303380330136554e-03,9.529275008458049090e-02,4.868874771804834745e-02,8.240893083978646783e-02,3.267029111093664590e-02
1.238805050289109727e-01,8.122365258862089543e-02,1.100678730708128800e-02,6.546111244833333585e-03,5.405415414128712445e-03,5.221653499545298067e-03,1.025080626119815874e-01,5.263605316627260888e-02,7.198261869869422569e-02,2.214842082827985989e-02
1.487690908240666132e-01,1.127254492622653363e-02,1.446400805963455639e-02,8.968530454356079401e-03,3.541202566053949612e-03,9.977116671235391338e-03,1.325625951849192241e-01,6.363477094960265368e-02,3.856016009861269050e-02,3.696711082827047398e-03
1.699403743337035422e-01,5.067108944288260808e-02,9.640075124176729349e-03,1.678612741922314716e-02,1.321121743108332651e-03,1.493399515280193629e-02,1.577348556839051896e-01,7.762425048880083889e-02,9.405575703462887120e-04,2.445943564583594187e-02
1.845852460317896071e-01,8.100047887247097123e-02,4.248085713439524180e-02,2.649414131172301429e-02,6.137964723616958981e-03,1.610603822276746380e-02,1.458044836897308405e-01,8.611073465170014651e-02,1.422290596388073661e-02,2.796332857295783306e-02
1.893315845115225715e-01,7.748520293107462320e-02,4.869917519940579476e-02,2.910936229591025784e-02,7.526105845742302528e-03,1.407045805322343877e-02,1.148674888618041873e-01,8.773868901953151000e-02,2.585717648314597716e-03,2.477038552538133459e-02
1.843293917161579754e-01,6.659462261135953853e-02,2.713825953999336738e-02,2.210918828636452074e-02,5.402393553985943182e-03,1.383535883227741785e-02,1.064883834032489263e-01,8.732652794978346122e-02,3.049469888522729835e-02,2.901205055718029599e-02
1.811764939878793279e-01,7.611234834532001892e-02,1.379548725166121828e-02,1.394263708909918367e-02,3.353417493803895807e-03,1.803383996511929641e-02,1.243884604458375120e-01,9.127322141886101692e-02,3.922986063367538134e-02,4.153475780225834163e-02
1.945680264574642937e-01,1.076875102338493290e-01,3.533120805535592407e-02,1.389946097548451498e-02,4.630404699581903115e-03,2.357881779519117177e-02,1.351725100353639852e-01,1.007369455367121552e-01,1.965907101408310639e-02,5.442048528728762880e-02
2.098523723580865696e-01,1.450978419229844163e-01,8.135096106405607930e-02,2.149671794418580792e-02,8.415188400635806310e-03,2.647286096160555643e-02,1.170869248566268894e-01,1.038137476706878226e-01,1.474152854501266721e-02,6.094871725833724690e-02
1.799018446427270157e-01,1.802421600200069807e-01,1.286643153154821140e-01,3.004600292128711478e-02,1.154767579608626145e-02,2.696669776289241718e-02,7.854017189492200346e-02,8.505589908746712113e-02,4.893550446899473660e-02,5.832087729751501276e-02
8.336155507556387845e-02,2.132708416173834665e-01,1.691627081435953528e-01,3.598580649877305970e-02,1.271694443682501799e-02,2.768118194957149697e-02,3.632913257252700506e-02,4.735079788504976267e-02,7.792566951589501023e-02,4.711472701902624793e-02
3.847582937440061773e-02,2.307218966221811496e-01,1.973608391732986356e-01,3.856043403205629272e-02,1.220310260155679956e-02,2.882476423546900465e-02,2.321808603765363951e-03,6.484602625776662160e-03,1.027151662701549090e-01,3.254011565508322518e-02
1.337197965778536279e-01,2.111409703112801239e-01,1.943770425056466911e-01,3.525073132711144946e-02,9.160010930590559153e-03,2.805515723223072494e-02,3.793126631688840955e-02,3.619941354050723592e-02,1.244049366114426264e-01,2.429851691951782564e-02
1.947989571180539226e-01,1.585945169097225382e-01,1.503829654613954292e-01,2.526652251076847572e-02,3.344392469242101189e-03,2.448733700499472130e-02,6.888289023310038839e-02,8.776551701738294353e-02,1.397407860852271089e-01,3.013097966783218409e-02
2.315529439608517703e-01,1.013665110751660603e-01,8.816877058064041817e-02,1.417911817734550210e-02,1.589263721025377689e-03,2.101662043996943216e-02,8.351982657022076484e-02,1.314528573579370196e-01,1.385750864410668082e-01,4.901118493617953598e-02
2.333056927737687247e-01,5.294662469922144926e-02,4.365534553719891547e-02,8.881744764528409775e-03,9.891732145977383261e-04,2.193140035801016685e-02,6.740130261602304829e-02,1.340682170105522153e-01,1.138545886565552057e-01,7.371753513483252085e-02
1.940253614935344428e-01,7.412867819169886505e-03,3.074680909731548895e-02,1.022747581248894914e-02,4.762380612447316905e-03,2.775278888635499333e-02,2.676013058382541165e-02,8.980386034847567811e-02,7.755177827300781257e-02,9.657339773102742442e-02
1.413002740066692520e-01,2.855275003531370509e-02,3.295344466610320572e-02,1.345072002137745817e-02,1.037436400652272210e-02,3.296172552104673081e-02,5.052674449632763368e-03,3.174322138613789451e-02,5.258718949591555114e-02,1.087482662140185630e-01
1.078840373501080280e-01,3.827603395102828487e-02,2.271783220596855501e-02,1.318515118810022722e-02,1.179727388559806064e-02,3.112503389629257128e-02,2.871576199203048838e-04,4.479769875449008190e-03,4.382655397737428987e-02,1.026290534432497820e-01
9.400785952654509836e-02,2.903846877310955338e-02,1.203131164305850341e-02,7.257672524072451836e-03,9.948836545842710405e-03,2.233087150747481431e-02,3.417727459565637893e-02,1.207570999847996408e-02,3.444884536284940207e-02,8.084739176499787516e-02
7.813869663984288061e-02,2.894228578419517917e-02,5.622239709154865789e-02,1.827502369366572647e-03,8.157615168036346995e-03,1.204836566767123612e-02,6.750473648755497824e-02,4.607945619591177419e-03,1.605137877395392335e-02,5.098336347380321570e-02
4.947270769452765532e-02,4.766503614505093051e-02,8.204758209880597120e-02,8.560772954056234535e-03,7.904813906567805318e-03,2.805268019233960863e-03,9.207378506518279493e-02,7.978604653489009685e-03,1.080461448599037699e-03,8.116421340078654872e-03
1.560102842314609051e-02,6.429494260206267131e-02,7.413149562697239625e-02,8.804868271544488700e-03,8.265159501937839603e-03,7.330646050304633413e-03,1.213447862617677842e-01,2.249674914079316870e-02,2.147794690636564176e-03,5.677149162021583040e-02
8.304027636605917570e-03,5.693147128776245708e-02,4.022917376851791599e-02,3.197021368762936831e-03,8.328821582347526245e-03,1.737804288004360376e-02,1.514957098363214349e-01,3.364723801493999661e-02,4.926493241299548589e-03,1.264798375527786678e-01
8.839941185375198296e-03,2.652934601676332563e-02,3.429276240852034696e-04,3.610150648061987225e-03,8.283589489950676440e-03,2.161347115879597852e-02,1.534744715558208628e-01,3.946532143008576327e-02,1.766354371854025884e-02,1.622913079020829874e-01
1.379964762835875214e-02,1.356276601439965028e-02,3.297794251580935670e-02,7.746078028166484761e-03,8.366663875325463032e-03,1.730650649586713830e-02,1.109421702526560000e-01,4.662168923809218574e-02,3.061682667530216811e-02,1.478072041468039277e-01
3.892082586355767593e-02,5.559539765580091136e-02,6.343053507954020398e-02,1.040337843312405704e-02,8.306243542518085624e-03,8.273576347847283463e-03,3.858368631621474087e-02,5.467195161731836645e-02,2.545303979059762578e-02,1.046573607855579846e-01
4.174217995672578618e-02,9.608949320129005212e-02,9.775023514748221176e-02,1.550626457532570425e-02,7.814160542548015745e-03,1.199862802038335809e-03,4.292279449458070995e-02,4.688292761601199621e-02,2.527779665646548261e-03,5.887556941645838426e-02
1.774875404561190168e-02,1.316824464171206244e-01,1.246377503467753778e-01,2.217520701789778281e-02,6.945694336313111561e-03,1.062362914814256321e-02,1.262951405719635323e-01,1.265180908812564911e-02,3.720227270441953116e-02,1.510779109131592940e-02
1.500443030627350051e-02,1.649032200027449324e-01,1.166781641834806343e-01,2.221002441129665481e-02,6.255297585345744905e-03,1.974259119557212477e-02,2.075373901664103460e-01,3.039209451129672515e-02,5.301994795799107318e-02,2.963898502481085440e-02
3.427894539734800683e-02,1.942248629371315372e-01,6.061846456795419447e-02,8.253453024111198286e-03,6.293623486029135267e-03,2.535417670060055931e-02,2.741612939766157608e-01,4.928005294977456235e-02,3.660944884759308182e-02,6.815530363191221741e-02
3.315993997348401501e-02,1.913724777925412124e-01,2.068257811821903533e-02,1.617430100767468931e-02,6.099294039556124765e-03,2.405858492374935223e-02,3.100208362180160160e-01,2.728022157915249712e-02,1.018024849761037329e-03,9.021887755038805745e-02
2.572889059933546052e-02,1.211847674797959101e-01,8.511115447029175829e-02,3.809688386967902129e-02,3.326907481282480056e-03,1.598880797294794168e-02,3.075317661238503586e-01,2.148797294341881631e-02,3.680085888666737720e-02,9.662729065722093502e-02
2.967322489715624664e-02,1.450019781684464860e-03,1.081925281459157201e-01,4.730511818745319896e-02,2.543658966988599293e-03,4.949859526752423827e-03,2.746064687744649291e-01,6.638837804575831170e-02,5.707888038689653415e-02,9.684708102989443568e-02
4.196084875619100069e-02,1.097470092332764185e-01,9.879751841565577453e-02,4.455517083235902703e-02,8.344905383930631762e-03,3.938385588755134031e-03,2.282755841947574083e-01,8.674349679389019296e-02,6.243548706143463300e-02,9.616046450330538453e-02
4.460465651927965347e-02,1.551539287844048431e-01,7.991136380716280796e-02,3.689185178871563081e-02,1.020514857898201580e-02,7.297811846838108719e-03,1.811820684580334462e-01,8.180614553341616912e-02,5.602392491392099022e-02,9.089644861286441668e-02
3.505249161903892241e-02,1.469200164153049437e-01,6.059872831847373104e-02,2.825302665337870930e-02,7.508767619588745286e-03,5.440900598817783804e-03,1.418523911012430638e-01,5.740777047591139048e-02,3.616028743749080676e-02,7.735463750626109247e-02
2.835300599038950708e-02,1.156276610323162396e-01,3.408334693853887210e-02,1.776715265137911171e-02,3.026741898786637457e-03,1.274779711224922028e-03,1.238983212817881818e-01,1.729467304835086497e-02,5.482262983963729838e-03,6.107318313776304713e-02
2.644908185435254633e-02,7.356510565916556110e-02,1.276667582648187069e-03,5.559969572559463058e-03,1.471595884794754412e-05,2.182504076369075167e-03,1.337715754578163163e-01,2.530371503801298605e-02,1.942787231238376697e-02,5.120189812933051421e-02
1.344269436512271140e-02,2.185281112972702056e-02,3.510231724172806211e-02,4.759035056105323513e-03,5.096710237854785303e-04,2.997843386781220802e-03,1.523152539917101700e-01,4.584676820193078067e-02,2.235260829682891165e-02,4.781372887944619621e-02
1.340805397055080603e-02,2.830860440213747373e-02,5.959105747801345804e-02,1.070704469141059954e-02,3.908874427503427089e-04,9.759798393303133418e-04,1.552943093263844943e-01,3.454595598275447821e-02,9.661926334146097445e-03,4.388436416204263141e-02
3.504207779769918235e-02,5.588521149035072938e-02,7.490101141768802651e-02,1.359398919995445827e-02,1.196624512222475237e-03,2.121459875519466839e-03,1.448081488791819749e-01,1.142811244795268258e-02,1.509238515587800738e-03,3.931056131304001139e-02
3.791675810685512377e-02,4.743496404910087227e-02,8.054983353987096861e-02,1.442821051693275042e-02,1.575293893023447904e-03,4.674043288538693927e-03,1.285319196561980626e-01,1.215637992700756547e-03,4.179334806764251585e-03,4.131240252049498546e-02
2.810285472945254701e-02,1.058994572342083530e-02,7.519228787004138270e-02,1.140248975840596653e-02,1.925472355094715472e-03,7.363048618726032724e-03,8.399560197828676023e-02,5.770803206399972331e-03,9.158987527637153098e-03,4.794789683337160463e-02
1.406931257360108205e-02,3.063273919818743085e-02,5.871053882709690447e-02,3.722130854288754898e-03,2.381431415034659244e-03,1.109641762881868540e-02,1.024803117741145651e-02,1.393675433267885233e-02,1.260929604538071902e-02,4.362988737979804632e-02
7.135641876127064853e-03,5.483483980096646310e-02,2.395825235189638289e-02,5.978809373605621993e-03,2.763065996596471893e-03,1.368477178834662418e-02,1.190603659357275523e-01,2.394340701829441795e-02,1.589090320963473107e-02,1.965993172581100012e-02
3.738574144186576631e-02,5.909308560911583769e-02,3.802388952772206565e-02,1.465648596232842910e-02,3.001254052760083703e-03,1.217126122389497640e-02,1.800200275007849959e-01,3.855920135645956454e-02,1.452588661123486308e-02,1.053026599665432203e-02
6.158929129063599184e-02,5.749597584958903579e-02,1.133125283579263093e-01,2.092944384666984084e-02,3.175215848394230631e-03,8.330927652669014444e-03,1.877051446675125912e-01,4.837741329309144800e-02,5.152629049894812824e-03,2.890007937279562289e-02
6.075857931995842787e-02,6.300360975478500047e-02,1.653335807389115231e-01,2.375948545681179011e-02,3.316231606144481175e-03,7.539077281397169386e-03,1.977062428999211419e-01,4.079438134451848080e-02,4.187083298022578268e-03,3.730588774865145618e-02
3.983164886951200828e-02,7.081069622486400872e-02,1.710322242358269795e-01,2.220865310006484017e-02,3.387545573928881903e-03,1.115744365149336399e-02,2.398839636529029873e-01,2.183922393683486798e-02,4.482308723754136436e-03,4.839225294256701421e-02
2.414720356019070882e-02,6.541508286688346718e-02,1.413160089526948882e-01,1.695214476928893696e-02,3.375914166939364934e-03,1.419635521523315846e-02,2.742334944680944187e-01,9.918457836185758103e-03,2.752922805236813954e-03,5.954199683272789340e-02
2.539155167413131159e-02,4.572451533103869675e-02,1.024357784170155244e-01,1.040255146012281084e-02,3.302100365464960031e-03,1.230122659651569465e-02,2.509340707517731528e-01,1.036496206633044821e-02,1.210815717609348141e-02,5.745317782968251130e-02
2.855528753942030568e-02,3.187067580368382891e-02,7.199504031684854366e-02,4.909382458041184304e-03,3.178057316117011231e-03,7.515829398637515271e-03,1.806422415801820502e-01,1.386619701146609221e-02,1.875914921904304686e-02,4.532594862228798982e-02
1.593299344195255735e-02,3.986890678765703244e-02,5.226600583949626150e-02,1.093237199812768703e-03,3.001365525668969487e-03,5.135202323563154737e-03,1.223116066149966957e-01,1.453043704458692811e-02,1.192753517792815611e-02,4.264758836713562068e-02
1.088572513652197316e-02,6.064918225737913476e-02,3.467564323725035036e-02,1.777084996878297313e-03,2.775048210365795541e-03,7.623232843272493252e-03,1.216178468684663005e-01,1.057551668985716974e-02,1.803005971693105725e-02,5.714919822050825576e-02
3.594244592815508399e-02,7.326401711802196792e-02,1.415471355519977784e-02,3.674956462973819060e-03,2.510218014344342378e-03,1.316771413447595344e-02,1.780008935010643500e-01,3.741035209726989007e-03,6.048837144406620653e-02,7.631544170102526337e-02
4.466889358871380805e-02,6.843735049691883343e-02,5.353792115708855270e-03,2.866058914227511290e-03,2.216600660890157264e-03,1.780677975337674815e-02,2.525453120294252063e-01,2.595153199303031760e-02,8.964920751472711669e-02,8.751018752516181998e-02
3.243934519036239389e-02,4.933556582142723662e-02,3.064457277417923994e-02,1.812923528591037833e-03,1.900925226197224937e-03,1.792783595741603148e-02,2.938720093012616719e-01,3.603875355997228358e-02,9.292539052019910262e-02,8.964222486455825090e-02
6.751712052967901757e-03,1.863654526529076941e-02,8.246920424193161792e-02,7.964743224764711874e-03,1.571068971280728489e-03,1.275878194110910760e-02,2.723728273324434457e-01,2.026335935743436498e-02,7.944473459908477087e-02,8.315348451738024949e-02
1.518952157149072377e-02,2.122139042114869548e-02,1.188247148712546913e-01,1.079278514843978395e-02,1.236577490153225288e-03,5.051447476247298250e-03,1.984973552402888586e-01,5.646797387283727931e-03,6.055003092527909414e-02,6.334230335192507499e-02
1.771842486843325931e-02,5.778258768188924976e-02,1.112193241372187030e-01,8.036070431013016269e-03,9.064414544594538107e-04,1.779387137231723927e-03,1.040466582356585346e-01,1.537651685145855276e-02,3.857510197872839053e-02,3.165658210890298641e-02
3.015363653219528452e-04,7.450067462854610689e-02,7.639525229252962235e-02,2.105503743513499788e-03,5.885395080997114043e-04,6.351566071100999550e-03,1.754139552815237382e-02,5.735367281870676869e-03,1.714110981489086472e-02,6.734960904000510638e-03
2.201148602583273897e-02,7.180489220440944287e-02,4.667593559897217914e-02,3.336525022395645142e-03,2.903954260155833115e-04,8.251605110244569080e-03,3.622239246979366833e-02,3.988581720013363759e-03,8.200967398777191802e-03,1.173152748415668550e-02
3.166344562790957690e-02,6.773765938734917225e-02,2.982905550940873063e-02,6.975264183707769600e-03,1.918711178570888139e-05,6.897205629518217938e-03,3.981125134978038410e-02,2.899722272655493645e-04,2.007500462763740431e-02,4.696374082260961619e-02
2.111940165302799918e-02,7.035759266609985241e-02,1.381875280068147437e-02,9.299263435179791829e-03,2.188467837595016062e-04,3.611954579190519883e-03,6.314872760391738310e-03,1.563232832320648677e-02,4.279648395952690559e-02,8.452830479005207787e-02
2.025166031850986811e-03,6.439028106901122095e-02,4.978446453971158495e-03,1.054249130125089681e-02,4.186294749370428250e-04,2.096424415440885196e-03,2.060118557640751302e-02,3.562793063122934173e-02,5.462084745604695729e-02,9.617004544140285438e-02
1.928577985474623502e-02,3.349804007881567597e-02,1.712900031638609974e-02,1.059229683437247493e-02,5.761493164616258685e-04,4.293116493024148883e-03,7.996352572663460029e-03,6.112824343894106977e-02,4.516817872127941447e-02,7.918961363084778271e-02
1.850772135702957386e-02,1.704827803958287522e-02,1.778041133937158930e-02,9.880380835848861718e-03,6.884959224160632505e-04,7.967903442478763837e-03,3.636208248151280575e-02,9.147112306652283031e-02,2.478564766345910109e-02,5.029685729925181120e-02
9.945935168587495892e-03,6.544521779002440698e-02,1.377861329980111828e-02,9.140304390141179916e-03,7.540073651030325570e-04,9.977321609551358106e-03,8.427071429671292857e-02,1.137260767930057259e-01,8.679800716810485636e-03,2.303784586091643660e-02
1.413691895922041843e-02,9.113731064592084374e-02,1.410369518330718483e-02,8.613513803285103090e-03,7.723142375758173823e-04,9.669103610524013362e-03,1.233580888030702816e-01,1.131498919623484811e-01,4.615911596811137288e-04,5.333895571072635317e-04
2.988214082705912059e-02,8.661803693537030446e-02,2.297893757145413191e-02,8.098464384405311065e-03,7.442869715888249466e-04,8.080389210214230025e-03,1.567611404545558584e-01,9.264126477514120217e-02,1.115456010275883009e-02,2.090209857928303216e-02
2.996152762120459639e-02,5.981895323299936396e-02,3.991614493935385921e-02,7.491160860692631929e-03,6.719866728404590888e-04,5.847904738022789706e-03,1.723541236524799014e-01,6.724736865261424223e-02,3.004294844843374834e-02,3.373973704180306676e-02
1.338999185710640014e-03,2.497312883339984635e-02,5.827209701678442988e-02,6.882543529557253598e-03,5.586186402046046991e-04,3.023324981391386102e-03,1.423538724333797689e-01,4.118370909793044043e-02,5.154109858993388693e-02,3.476730184119760508e-02
4.169823242649801226e-02,9.939667430459268177e-03,6.726156737531674423e-02,6.325580912740391866e-03,4.084435745527868907e-04,2.358601770297914964e-04,6.976237598841353305e-02,1.017619817878214969e-02,5.859188071948998738e-02,2.878381752477097988e-02
5.587928455895395385e-02,4.089799354903386752e-02,6.213655854037613419e-02,5.782620629026255163e-03,2.266492560184930178e-04,9.841805012170466802e-04,4.584827959404690761e-03,1.612046916117634843e-02,3.807262169932661144e-02,2.774737826284505784e-02
3.546810011848100519e-02,5.619818685309431461e-02,4.832808888325900581e-02,5.232591672494012712e-03,1.920762936678767005e-05,5.415474480450136851e-05,1.556646527408811834e-02,2.049162373233391621e-02,1.678701945649184284e-03,3.458754057796756265e-02
1.625252727248361131e-03,4.203820964282230926e-02,3.187507157253031964e-02,4.696990057108475780e-03,2.072790608664679449e-04,9.470858514322270938e-04,1.456887180124631816e-02,8.280416644142040566e-03,3.580321165595407723e-02,3.311693004367160381e-02
2.066145093319846776e-02,1.935544553222956141e-03,1.245484706737894076e-02,4.189958768254029541e-03,4.457493966854858417e-04,5.974789670653579427e-04,3.595401246444198534e-02,4.993209053323475165e-03,4.853236218089140852e-02,5.447626164207615938e-03
2.266055500091757741e-02,4.362402401967867965e-02,1.067648785545961994e-02,3.705413587535299775e-03,6.888670832399690792e-04,4.202861087552312198e-03,7.848356358587964265e-02,1.971156785684436905e-02,4.545766509781082321e-02,4.131337388862329346e-02
1.545348315946328335e-02,7.903585816448553680e-02,3.220023528728715306e-02,3.240170168563038210e-03,9.292091312589126611e-04,6.991569719363951649e-03,1.094439865561862846e-01,3.374080241970293936e-02,3.840340854819328936e-02,7.893061288342838322e-02
