9.310879634885942113e-02,2.581717693326148963e-02,6.187982722637624250e-02,1.178927110225268249e-02,1.602957011054824930e-03,8.687581662918770001e-03,4.455045607895942450e-02,2.967779407770800709e-02,2.999002597184163843e-02,1.906498412709319154e-03
4.691088621657755336e-02,3.984245899022883890e-03,4.283595871903108504e-02,1.335191633121826996e-02,1.805564665196705615e-03,1.074105271362284578e-02,9.887067833470410128e-02,2.231634048866196207e-02,2.416520882685840171e-02,4.287452003054913717e-03
1.006961605533079548e-02,1.449966386525872696e-02,2.038640950558223350e-02,1.445482354692908915e-02,2.536426275145970723e-03,1.047928458179706035e-02,1.114568216956805524e-01,1.138218783372577959e-02,1.712843333834206117e-02,7.853654811720114579e-03
5.896622640330152071e-02,7.032959064144354844e-03,1.641850659929858930e-02,1.498107371270659093e-02,2.920393433511574589e-03,7.899437676963378188e-03,9.153866793853873696e-02,2.768932378014806080e-03,2.084306818413974097e-02,4.994308866791010749e-03
1.094686980347638477e-01,1.810149389467978487e-02,3.255241766430178041e-02,1.581426435203223471e-02,2.314236810238952651e-03,5.196448256901924426e-03,7.815473341350542835e-02,2.410596892214333237e-02,3.410092609306315803e-02,2.629525124343392965e-03
1.791612345266506701e-01,3.623159117639037502e-02,5.150080528753633868e-02,1.759768572395680949e-02,1.351670829889565833e-03,3.908611402066741215e-03,8.548881708679767488e-02,5.465462773916147238e-02,4.336222424298393635e-02,7.532312302650415355e-03
2.359278566515137787e-01,3.863894553654045189e-02,6.173551250745369645e-02,1.969228053380151985e-02,8.984355968441793848e-04,3.487498982763513264e-03,9.131173163848817220e-02,8.304458963729312304e-02,4.300125969025019035e-02,3.758032773775321720e-03
2.025450620316551209e-01,3.263634556436385142e-02,6.766995914045025040e-02,2.123731329533318571e-02,8.283208208317118567e-04,2.814794964817817890e-03,7.539647151648308510e-02,9.108287964231645550e-02,4.253291222645613767e-02,4.924035916795229360e-03
5.597529670910190991e-02,2.215994780816952364e-02,7.747409976277788712e-02,2.237785601933727636e-02,5.759218545907647622e-04,1.725090082724844856e-03,4.279815163262250255e-02,7.242997761496247633e-02,5.136129555355896381e-02,9.148108677960377355e-03
1.218478511791571267e-01,5.866909849753959051e-03,9.042148899112779914e-02,2.368709094156155881e-02,7.110255380590621522e-05,6.049734454588149863e-04,7.728993254475499675e-03,3.658748949357385621e-02,6.738754712435716943e-02,5.746178607291124729e-03
2.325821826099181144e-01,1.522958336589422257e-02,9.694377654645464082e-02,2.521865981551691185e-02,4.447581926275530817e-04,4.830910178394905727e-04,2.183391006885703270e-02,1.650358712389094103e-03,8.368814279900244069e-02,5.402668622582268085e-05
2.558936834467012145e-01,4.094801670267820409e-02,8.942144417347361318e-02,2.673836131462197993e-02,9.319782345253029053e-04,1.716290066542280673e-03,3.969003830583520825e-02,2.821257678165391830e-02,9.771046457206379598e-02,3.209210268173833501e-03
2.260818333349869369e-01,7.147368921081760640e-02,7.399112357028328479e-02,2.826804007799434484e-02,1.500496914708473930e-03,3.071131378214451025e-03,4.290380330328377734e-02,3.338576861912108396e-02,1.107340605229765462e-01,4.573886695257598119e-03
1.675152186293302481e-01,9.555979142363058010e-02,6.779105368649689101e-02,2.993310232915907462e-02,2.169565981489707251e-03,4.418674601627163058e-03,4.324551015596257014e-02,1.907411839796781597e-02,1.229846851090774934e-01,8.472961839088681557e-03
8.983143912776450635e-02,9.621309375582962065e-02,7.997233385105030623e-02,3.165223256209205582e-02,2.887341926707919903e-03,5.840660412318315030e-03,5.859404606073244370e-02,3.009922270395736128e-03,1.317609528315163425e-01,1.703822158400047221e-02
1.229851691765960348e-02,7.780371933980789745e-02,9.973680085922909111e-02,3.336770644793746882e-02,3.638479927920706004e-03,7.453024260825380325e-03,8.739492035194530717e-02,2.326316304712941138e-02,1.340001710465355822e-01,2.680008892555833105e-02
4.539220096548749611e-02,6.785376779138543868e-02,1.081632923598850465e-01,3.530742728746891906e-02,4.437435848311402017e-03,9.018048884169049470e-03,1.104064061358423776e-01,3.949929677300190872e-02,1.299762295769398557e-01,3.217315661371474012e-02
8.933430729353539212e-02,7.909165832305906085e-02,9.866421694407626064e-02,3.753150542069124546e-02,5.289344578316845444e-03,1.030690571523339844e-02,1.234883701662026351e-01,5.375054510461672874e-02,1.230951368955138930e-01,3.315468651538863026e-02
1.399321257738552482e-01,8.950915884153208546e-02,8.243809079691578889e-02,3.954963258636818441e-02,6.190957296187767425e-03,1.180987689423720899e-02,1.435735803880981987e-01,7.081201128412842327e-02,1.171464967316907801e-01,3.523777085340851906e-02
1.885060764704421521e-01,7.529875215045603309e-02,7.694269799944446209e-02,4.127052082861511900e-02,7.125112759636021038e-03,1.400425346512984559e-02,1.679463346004829993e-01,9.697882452211553650e-02,1.174590230960213533e-01,3.959640300625793391e-02
1.912166057254297280e-01,4.363659653914870457e-02,9.109060932362025853e-02,4.378012061908773817e-02,8.063738524793959139e-03,1.573594305522005299e-02,1.568260940782595092e-01,1.297518940151381750e-01,1.316826650707143831e-01,3.953753614053476945e-02
1.221123703819099321e-01,1.563297804495641583e-02,1.176843598296561794e-01,4.727417310262413408e-02,9.022026873152845863e-03,1.506722754619850037e-02,8.670722851677464815e-02,1.454529162534022035e-01,1.580305127753346139e-01,3.118730985281981810e-02
1.356954002211311142e-02,2.832213305951873303e-03,1.385488251248189195e-01,4.873302068500805218e-02,1.005197052594366917e-02,1.229631872518034165e-02,4.091049747777159885e-04,1.128796509204820081e-01,1.739942521135246223e-01,2.187695609700083740e-02
7.148551125524127414e-02,1.516980037729713168e-02,1.416862380582588066e-01,4.501664024519919788e-02,1.110696643237720459e-02,1.016352540501832234e-02,3.416758868756504530e-02,3.497379757689956375e-02,1.580129395706874884e-01,2.108917667531749751e-02
9.561782733634163756e-02,1.932652180515748858e-02,1.333515660690876292e-01,3.840237253872447881e-02,1.205515720327922889e-02,1.063849934786816227e-02,6.220350285216861771e-03,3.791542069639713269e-02,1.240660094946552383e-01,2.747418008887806198e-02
6.621434063572079198e-02,1.708857944686346941e-02,1.250267659106306384e-01,3.440737032623960440e-02,1.298701958298886967e-02,1.342583362008001324e-02,3.263302264923117341e-02,5.683018211612778092e-02,1.021978141182442179e-01,3.272781478295842816e-02
1.222027865725253126e-02,2.138123082114531948e-02,1.073620299803976219e-01,3.243196170529062672e-02,1.415985720300204191e-02,1.725185486627021925e-02,3.950159312611827012e-02,2.299868819642087933e-02,8.181476633223039308e-02,3.309882678287955071e-02
4.067417042844367198e-02,3.965629267651891998e-02,5.062921194385915785e-02,2.316270675290351203e-02,1.510525617338299292e-02,2.038419422413069101e-02,1.981187052584225047e-02,2.836604489413582092e-02,2.021425037806070038e-02,2.724662481027165239e-02
7.200639605471083338e-02,6.207961392130927764e-02,5.662496926995361918e-02,8.207917185648182928e-04,1.426065700681728755e-02,2.063544996717688734e-02,3.390039134295958542e-03,7.421131247874362957e-02,8.384419691262132157e-02,1.059360396488389158e-02
6.612031163762809027e-02,7.472114651146165298e-02,1.779899439709002607e-01,3.395339845272977997e-02,1.056928461691420545e-02,1.721228600549488952e-02,2.250645846652506166e-02,1.126432025167242307e-01,1.733619963553824084e-01,1.502538092430306602e-02
2.827585542702159074e-02,7.512882327891001744e-02,2.590888286387373896e-01,6.192841394540553324e-02,5.020930969706445188e-03,1.197997508476724218e-02,4.119903343023201964e-02,1.387759661611161766e-01,2.036944157720162185e-01,3.504267947203134476e-02
9.036845733444171663e-03,7.061355391233858914e-02,2.856644915463434908e-01,7.716381087409594774e-02,6.408454542097338650e-04,7.293709866281482095e-03,6.346497413586413283e-02,1.375382277829279576e-01,1.939439228969966345e-01,3.917330272272374209e-02
1.625775607657998709e-02,6.727660209656662060e-02,2.868129339513657561e-01,8.421279518330805625e-02,5.734139436688059054e-03,3.914472893444564429e-03,8.900584068007091898e-02,1.046547911018180232e-01,1.958216026401900511e-01,3.527512728568590883e-02
2.196878795622992167e-03,6.281087249211261825e-02,2.809922474762783784e-01,8.823063287588155112e-02,9.602725626299591505e-03,2.282225711606956225e-03,1.035355092845439834e-01,5.641706798978397830e-02,2.315657922655191270e-01,3.500849039166910315e-02
2.104416242876363564e-03,5.098348604054781658e-02,2.540784504679912126e-01,8.652895556235662422e-02,1.059045284040932740e-02,3.260958607130356405e-03,8.262031466637202726e-02,1.048411547562095279e-02,2.729452989540810393e-01,3.662565188862098448e-02
2.879358064402102318e-02,3.606987472573777720e-02,1.977534014096717641e-01,7.593692115415978661e-02,8.394039034923334031e-03,5.892983089446689714e-03,1.988941028140577688e-02,2.806155907472393865e-02,2.769843998095593007e-01,3.213411015384939201e-02
5.875952483978526264e-02,3.457551497151517550e-02,1.310747168893910408e-01,5.972619896669199846e-02,5.761954930805977988e-03,7.171817119503457079e-03,5.669098997913523535e-02,5.879933725699226787e-02,2.328161289610692075e-01,2.164353998695939946e-02
7.393836313113097414e-02,5.304620465298356957e-02,7.158470669594149682e-02,4.216895996064828206e-02,5.266588868857018449e-03,5.895479264499093978e-03,1.040063797015712554e-01,8.363755918416798663e-02,1.665596522797822554e-01,1.142558624785354818e-02
8.411956025169022022e-02,7.646451429159942248e-02,2.332189838914128233e-02,2.523172134556930443e-02,5.748491564843538799e-03,4.373774131079807143e-03,9.417985857600555399e-02,1.122465554396990250e-01,1.105710557783046166e-01,4.503631282685989327e-03
9.316664962767981506e-02,8.930597972892116709e-02,5.351968079994384730e-03,1.458268675142049969e-02,4.664021372734621779e-03,4.795276718834480881e-03,3.075906622472997926e-02,1.485093746824532046e-01,8.161467809890006475e-02,2.752754934831538186e-04
8.388211060104013017e-02,9.011946164089129629e-02,4.517829799874001351e-02,1.725732737094546124e-02,2.523406843139390943e-03,6.324684564817874451e-03,5.249429537992366529e-02,1.731444381021469137e-01,7.835336505283424513e-02,5.063430075720088026e-03
5.684978420771454044e-02,7.726128766465747977e-02,1.237744315742943246e-01,2.864088807137460044e-02,1.595449135653852170e-03,7.593553571381019170e-03,1.101712230846329937e-01,1.594945870379120834e-01,8.307437706898078422e-02,1.354749163345103126e-02
4.087049127181965197e-02,4.616377947541310672e-02,1.755242872599621917e-01,3.473518167988746269e-02,1.588282415011008737e-03,9.515893424934911138e-03,1.170187490003538749e-01,1.061449615075829300e-01,7.239852881031122456e-02,2.826861504993125399e-02
4.580754135135818583e-02,8.797376556284321539e-03,1.665609113375572659e-01,3.181845835373800502e-02,6.811805653959201665e-04,1.250808662892707694e-02,9.065637714318015850e-02,4.112155607701514781e-02,3.854955824418811183e-02,4.050127869326306668e-02
4.886468302066949987e-02,1.215424598041905425e-02,1.303822663060491827e-01,3.006993444016374875e-02,2.865497849996924569e-04,1.246940326077820849e-02,7.615851294822940931e-02,4.940367780453374866e-03,2.589490785912905782e-03,3.034338040194732231e-02
3.892407786592270991e-02,1.534564785992566238e-02,1.100944187742480262e-01,3.494447341260198403e-02,1.401497621625262362e-03,3.940073709258649741e-03,9.713555652078857683e-02,2.162878535423226611e-02,2.618842564174004434e-02,9.836548181507722560e-03
3.116647840315375437e-02,2.080636988694642073e-02,1.068864742888623182e-01,3.978958099881334254e-02,6.239731067732721438e-03,1.212407492065421810e-02,1.298279890747038590e-01,1.499324110048374549e-02,1.799594965114896528e-02,5.761345964886045723e-02
3.415092116728971061e-02,3.239842471507724253e-02,9.858353977928185907e-02,3.899915907008676130e-02,1.174252114452055927e-02,2.752923022185095256e-02,1.391566580167293010e-01,8.416095501844578219e-03,1.538221822279076459e-02,8.315155757130479608e-02
3.894532727055931981e-02,2.517945468126097167e-02,7.688087935755083535e-02,3.482439490099347584e-02,1.470505213194285739e-02,3.498976263304651863e-02,1.233794026421729528e-01,4.081705803013959549e-02,5.141845935030274484e-02,8.385205622952057736e-02
3.744866385121516789e-02,1.674240075866397642e-02,5.294552483326624842e-02,2.953454901803457405e-02,1.345136501092585382e-02,3.383352296418575683e-02,9.946770406419593036e-02,6.203642344265377501e-02,7.095970245751156980e-02,7.773411901796298262e-02
2.644197559205704526e-02,6.444615991453948867e-02,4.051948955263453417e-02,2.196056220086583730e-02,9.210391238078418155e-03,2.693911888707739566e-02,6.448498123930671011e-02,5.068869156778437607e-02,7.057069673894847406e-02,7.169648219216065432e-02
1.955457703040821595e-03,6.713636636276168468e-02,4.138820332824416637e-02,1.320668902435331513e-02,4.945792876183152144e-03,1.664511250313895074e-02,4.291083889949856220e-03,9.351568913709213532e-03,5.360062988925499289e-02,5.850228136589686462e-02
3.574123453193919081e-02,1.272039821406164423e-02,4.376563053898767375e-02,6.966804978139339542e-03,2.138476542077914072e-03,6.029589950194231586e-03,6.826138046462067177e-02,3.978810192356466852e-02,2.309296633644490615e-02,3.707842204600431124e-02
7.824106436879330051e-02,5.515977508805107454e-02,3.109432624174773147e-02,2.310950499681304997e-03,1.706949581810861130e-04,5.120094836525397944e-04,1.120021966248616052e-01,8.606154952044613171e-02,7.693413660368310023e-03,1.558190895440290068e-02
1.119633754450386348e-01,8.904065833722762946e-02,3.996738118433356551e-03,6.317726465712993414e-03,3.288682010529252187e-03,1.860931834820909363e-03,1.017544332885730735e-01,1.340218398003113487e-01,1.528126807398939857e-02,4.698443974096690526e-04
1.204222234083955761e-01,8.396800588341256366e-02,4.738206412482329211e-02,1.874442914856914999e-02,6.977634280636788901e-03,1.560721590872094031e-03,5.953511480695106162e-02,1.685915633936924396e-01,1.035985543468938286e-02,1.044542854944590163e-02
9.399719153183054565e-02,6.614598839320819101e-02,7.043225123963249568e-02,2.567641755785193824e-02,9.183682125682291267e-03,1.541884781202138444e-03,2.375967259546105451e-02,1.471272556511971918e-01,5.471939118516688794e-02,1.477980517478874080e-02
4.431873921119355159e-02,6.355283942222847426e-02,6.161428716456354704e-02,2.070608783415560719e-02,7.648118828665077286e-03,8.518787675507279774e-04,1.946494282208318348e-03,5.081468470338289939e-02,9.605557838187966935e-02,1.622145085155942898e-02
3.786034256718355528e-03,8.843873349495483260e-02,4.372310408494750611e-02,9.496872866814120434e-03,2.735460982430234708e-03,6.876276138203251537e-03,3.713369326639356233e-02,7.836445625702152806e-02,1.203487861085521665e-01,1.944536320985649352e-02
3.518050208103240539e-02,1.216094680748235207e-01,4.268609445668167246e-02,1.082588719369308259e-03,2.185770683867411992e-03,1.295894285015671520e-02,7.129065433531449336e-02,1.762437997919205634e-01,1.212988282455672723e-01,2.648668911961618230e-02
4.328968326865915289e-02,1.267699970266745191e-01,5.040870418864801250e-02,3.842226005241363568e-03,3.982994650846508750e-03,1.579655321810277332e-02,6.958510559694480735e-02,2.126470701044034239e-01,1.001026993175758439e-01,3.693496102226574707e-02
1.799054985021740494e-02,1.041299985584486637e-01,4.310430587746783698e-02,9.320985479889904238e-03,2.274143798790457995e-03,1.539131976513919385e-02,3.235128794874469332e-02,1.942634222636310248e-01,6.527977763970131686e-02,5.064820919474061212e-02
3.655465737150830063e-02,9.831904341437322503e-02,2.574190709391081799e-02,1.449179656241652084e-02,1.075959901193023014e-03,1.148863616498429184e-02,5.796256922852398297e-04,1.398239671163448161e-01,2.763324283384335431e-02,6.490707533790772421e-02
8.375896326854198604e-02,1.298280259331898445e-01,2.719683843346836633e-02,1.470345228661318164e-02,3.507489689440070058e-03,3.171092830918322784e-03,3.858424472606357316e-03,7.302750098852009430e-02,4.780309282166416047e-03,7.288129494455471147e-02
8.605379987147110388e-02,1.621841943444941314e-01,5.436387106393900104e-02,9.006112006394872624e-03,3.498241477054101108e-03,6.449453347620934598e-03,1.852732086677083209e-03,2.141922111981508364e-02,3.007234422312222988e-02,6.981850297439939901e-02
4.583041075501432388e-02,1.591038405223396679e-01,8.100845846094895109e-02,6.084167158410746460e-04,1.950046993446808092e-03,1.137783792096897298e-02,7.134370162763662912e-03,2.441769023832079423e-03,5.137213757269635389e-02,5.659156721109392246e-02
7.147821307744007743e-03,1.282459529024095046e-01,8.765004386309775686e-02,8.876693554662903884e-03,1.285064549738476353e-03,1.056592658518832467e-02,2.680505072166941907e-02,1.168870838792858413e-02,6.870730712851881583e-02,3.644046638130164079e-02
5.224543086564368416e-02,9.033399978533795949e-02,8.716336478661981801e-02,2.032707351335936302e-02,2.742486218641313530e-03,8.963190492701483131e-03,6.367207901755998767e-02,3.037337038852103502e-02,7.748890644166993302e-02,1.536914609421425465e-02
7.732673057125673266e-02,4.654754415071006568e-02,9.567649586221163571e-02,3.128482353039837432e-02,4.904578069810595388e-03,8.963211190931885328e-03,9.348235762780322811e-02,4.239153210398757810e-02,7.915409391914739190e-02,3.296386749824043241e-03
6.220995718893410076e-02,6.802464840486065548e-03,9.724904645094274713e-02,3.474240274039167020e-02,5.022791961015854109e-03,7.039151263640614983e-03,9.884034976630655389e-02,4.058624175919411242e-02,8.227270404580608321e-02,3.980691963200292706e-03
3.688592296173301248e-03,5.924328716371356912e-02,6.447581361713335124e-02,2.779196528101804051e-02,2.193280719731011043e-03,1.445214572474304944e-03,8.611369955725239889e-02,2.490928525926867920e-02,8.673903919024264497e-02,6.542782563145744038e-03
5.049833465560527729e-02,9.485672843795722731e-02,7.392275372277560576e-03,1.740544961103382068e-02,9.423357947988245022e-04,3.535861841884880771e-03,6.118848084963413730e-02,6.625279848306830574e-03,7.944772449279516313e-02,1.724310776198935587e-03
4.303536602663219496e-02,1.071360646863357274e-01,2.880963551256665589e-02,1.292813349582518263e-02,1.010288742828612018e-03,4.743401842866638851e-03,1.789951166306271227e-02,5.770815414027066423e-03,5.502963975275298320e-02,1.704679562299862838e-02
1.369333331177641569e-02,9.837011017429581061e-02,1.746519092926217265e-02,1.619138799531924175e-02,1.488097377469199635e-03,5.270280683462138030e-03,3.953004796487553235e-02,3.040939273029149084e-02,3.028261405990455638e-02,2.319506877422983920e-02
5.118917551611199684e-02,7.153745312315705485e-02,2.435546901102954645e-02,2.282537533149515269e-02,2.034140676826792782e-03,8.859501462686209319e-03,8.583098487636807439e-02,6.722224849371953581e-02,2.592799752754281623e-02,1.038417321906089270e-02
4.152226096810467115e-02,3.426837985144417370e-02,6.591168799164894010e-02,2.887337351493724641e-02,2.667433049530370560e-03,1.453318797723386624e-02,9.843966506581774967e-02,9.973073237617785525e-02,4.087589369173643544e-02,1.674462492002832398e-02
2.284417157279661562e-02,1.036428287785737604e-02,9.258916800385891266e-02,3.185766367431727003e-02,1.014982192289851266e-02,1.904764491595279871e-02,8.091378101918833554e-02,1.180860449142615010e-01,5.765934082746569656e-02,4.573702367784317907e-02
2.117676720250987604e-02,2.563121566089689857e-02,1.022005321623393609e-01,2.979039961894741281e-02,1.422821761978285832e-02,2.005844627953343173e-02,5.827624935580612980e-02,1.077455791318564504e-01,6.889404790603616269e-02,6.632213218355985374e-02
1.081744305680671508e-02,7.066854887850543276e-02,9.290143438569409273e-02,2.377388362649235018e-02,1.173999299578872176e-02,1.636519798669391207e-02,5.295371869583830743e-02,5.777405277341912671e-02,8.178935320505334450e-02,7.819569171151366516e-02
2.807494728235441703e-02,1.018759962568117350e-01,6.548578863230308800e-02,1.851722295160082923e-02,5.480066935751445531e-03,9.549296327428406089e-03,6.375537175954314184e-02,1.361353454548588568e-02,9.506352855279688596e-02,8.848239242222075140e-02
7.259287018747181963e-02,9.407649086476706224e-02,3.252266336815119036e-02,1.725073431356136805e-02,6.277117528433423348e-05,5.008318594614525471e-03,7.090525126074692652e-02,7.271298723392446983e-02,9.112229661178557205e-02,9.507435352823843944e-02
1.000985483134874537e-01,6.642226232284102749e-02,1.578820843585363592e-02,1.900714023613400347e-02,3.297391525994643451e-03,6.915645903741494613e-03,6.572467260625662611e-02,1.096224354007784701e-01,6.243565291599172118e-02,8.214384675586962337e-02
1.118220692051387494e-01,4.606301879486784934e-02,2.607637070503499716e-02,2.228322993671856891e-02,4.954859089357202886e-03,1.219640800951739962e-02,6.608048062305808823e-02,1.302402075267845849e-01,2.944232896960474397e-02,4.815719215636723310e-02
1.006704540504186063e-01,3.567321467455876471e-02,4.784812397921393845e-02,2.722367128823607874e-02,5.811478603639671364e-03,1.317633379507149143e-02,9.308332863162824267e-02,1.215817506504756063e-01,1.716025164504866515e-02,2.222249743473276792e-02
5.742031268508911157e-02,2.488015424058432137e-02,5.421267495065247577e-02,3.225353225768368831e-02,6.381630491983297966e-03,6.691548988604874466e-03,1.380005577413024043e-01,7.194212703596898628e-02,2.596829700709233496e-02,2.299811592629890170e-02
1.249432203712535529e-02,9.120391953970323137e-03,3.686101788843365590e-02,3.281614241881845168e-02,6.809566082106621385e-03,2.283343849558503585e-03,1.651709910114039781e-01,1.396522157243671250e-02,3.840420230264618429e-02,1.839379334526205362e-02
4.943288657239727595e-03,6.865944377572249201e-03,1.233275541228298980e-02,2.665807287926220612e-02,6.142315266696290674e-03,7.259493605485570211e-03,1.569925748854807124e-01,2.039252685811623281e-03,4.421523233812167664e-02,3.007975410927133525e-02
1.503320489951490493e-02,1.050362756077163374e-02,4.646808850435300842e-04,1.778413139109312480e-02,3.491885204849300844e-03,8.191071858332702946e-03,1.452807959681344241e-01,2.829048286433318016e-02,4.741169158870678357e-02,9.550674403021153225e-02
4.632903700876099193e-03,1.053072442350770632e-02,9.933781246528970016e-04,1.253385826329509942e-02,5.501742986177491886e-04,1.016364093118715846e-02,1.709348801436472998e-01,6.524265655494403127e-02,5.560488889022279640e-02,1.146174202404990072e-01
4.249091008979156980e-02,5.373063751454511955e-02,7.634369459171347003e-03,1.294611905971660738e-02,6.514645885234693606e-04,1.473573974393222949e-02,2.165932876169440746e-01,8.163929216341520023e-02,6.977555461931415903e-02,8.578021005680280808e-02
4.033966382786303290e-02,9.771229300851028143e-02,1.057133614448996228e-02,1.456874397231733981e-02,3.598660302194319534e-03,1.635543330987251562e-02,2.204212180912760721e-01,8.353712805684090914e-02,8.004158589649981725e-02,7.441521334587160308e-02
1.366232755446013941e-02,1.141538102100966429e-01,2.925629201374759653e-03,9.958564630375759882e-03,3.656012886033827188e-03,9.879535106194150748e-03,1.614887362162628348e-01,8.108743566987605678e-02,6.964357251489644574e-02,1.111929106426084723e-01
6.242056650285829345e-02,8.508408774594883317e-02,1.827024151004855851e-02,3.898249209876997190e-03,3.903438156346062792e-03,1.256467539939509596e-03,8.555202234405970274e-02,7.009384916751926209e-02,3.127231720702511319e-02,1.477322379395378527e-01
5.718544957865225042e-02,1.626941865983203700e-02,4.384802096133604693e-02,2.050261064517329770e-02,1.540408044924754596e-02,8.679477109964424397e-03,3.674007058564766892e-02,4.468074436898609308e-02,1.854753024862274696e-02,1.349216294471259070e-01
1.754080397895365490e-02,6.178368007218309338e-02,5.613211601318348482e-02,2.913683399026003804e-02,2.199897328365023677e-02,8.919805295552673749e-03,8.089610185910502821e-03,8.657916992212860360e-03,5.117340859186932100e-02,9.044966201132569050e-02
5.992967350458007318e-03,1.102597078572588041e-01,4.742226379127922192e-02,2.588028483167880908e-02,1.976095396712941599e-02,4.919760699272019214e-03,2.658932681126577324e-02,2.503950472717652101e-02,5.298315083562241817e-02,5.798464730674213891e-02
6.900960373060320736e-03,1.077717570052456469e-01,2.499026155341392552e-02,1.596892341435619811e-02,1.237478591086280805e-02,2.411670741781905304e-04,6.591044353097183506e-02,3.546590290396006012e-02,3.110411212102144260e-02,4.241331493263442859e-02
2.263575500041230260e-02,6.726781916335060341e-02,4.518246439891264975e-03,6.185864783273480917e-03,4.809842293516524390e-03,5.851567114277746347e-03,8.603564783020350992e-02,7.924464177082051267e-03,1.856477494218314317e-03,2.227525620210715762e-02
6.148424719589189180e-02,2.451906221933528029e-02,4.175789659484017285e-02,5.684982637586756711e-04,6.168034329175970309e-04,1.102363887585789022e-02,7.722686681708389178e-02,4.132340088809625250e-02,3.312156410527931916e-02,4.822449540084037742e-03
8.070052625854857997e-02,7.073709030231082467e-04,8.347415763364272878e-02,4.365070511387484850e-03,2.762612984468651792e-03,1.427625260410651797e-02,4.915415827294536411e-02,7.577865081366659539e-02,4.782200306493596120e-02,2.685193558308097972e-02
5.670229958169076268e-02,1.639522284119745640e-02,1.166955513810096906e-01,6.702022440536822487e-03,1.747570091370462785e-03,1.525293363040614893e-02,1.976802760793658700e-03,8.250879330981437942e-02,4.044383037675979009e-02,4.356326792335679654e-02
2.435703392556257812e-02,4.168112113839780170e-02,1.274217363806335601e-01,9.849592213057685106e-03,4.242013602892915920e-04,1.394901210928451221e-02,6.684402891186692897e-02,7.901688744844082013e-02,2.422999932015742694e-02,5.405466504132039329e-02
1.894665687722982619e-02,6.016899683422072265e-02,1.127715796555608940e-01,1.499895921301569457e-02,1.549939078455481005e-03,9.434500373260761019e-03,1.185087741986163151e-01,7.452178240816649535e-02,1.812239575132929686e-02,3.948969233185867234e-02
2.823338943311211671e-02,4.760969600214656067e-02,8.470188940465120386e-02,2.087737958945140235e-02,4.178763621546490760e-03,1.995102050061848230e-03,9.314904851145015818e-02,5.701819167031658975e-02,2.803827169727703822e-02,1.117426175985585142e-02
2.678672521357578287e-02,7.901477795685622058e-03,5.725723565587766128e-02,2.450408846157399803e-02,5.883394270442647567e-03,4.836724607367949916e-03,5.886445474134631428e-03,2.283265106274213682e-02,4.333708101239851923e-02,7.440306005362419539e-02
1.527816203072375999e-02,3.185115549417647657e-02,3.031436586339539968e-02,2.258197397685453647e-02,6.656953548205902724e-03,6.866242386980532519e-03,1.039670362215479732e-01,1.019643993398385365e-02,4.704350316552972228e-02,1.131219753725765526e-01
9.770057999561944026e-03,5.143415258722504324e-02,4.923184957450789379e-03,1.350585014964626566e-02,7.987941363081585769e-03,3.298195524071994428e-03,1.438876400148301204e-01,2.547901152659096113e-02,3.093949125483432330e-02,1.120652963258896018e-01
2.323116219615754124e-02,4.916657104066411710e-02,4.764403070120572931e-02,2.829385108754210081e-04,9.950937595777002362e-03,2.372293391331845979e-03,1.292005697026798183e-01,2.506458993325728912e-02,1.594687024665667526e-03,8.142581029641386692e-02
5.968156604207779797e-02,3.342038108709503158e-02,8.581439075657212867e-02,9.983613479030711488e-03,1.094409293702972019e-02,4.576631929671311563e-03,8.446586795137536741e-02,2.319849468692465611e-02,3.072835476098668278e-02,4.116062566716154753e-02
1.039295804047209310e-01,1.137452699037598894e-02,1.076247487881377973e-01,1.244997473616069224e-02,9.346346291538847051e-03,1.976668355239996925e-04,3.615974874374821429e-02,3.420975055608369009e-02,6.198857710786782188e-02,1.140273524049793472e-02
1.249578250184066874e-01,1.431416909389717461e-02,1.068750416572608331e-01,9.365669747698267961e-03,5.363143804651921386e-03,9.377225898069793328e-03,2.648867837289027583e-02,6.054629202788606307e-02,8.756610380212853650e-02,3.979002250634873679e-03
1.065083065372394583e-01,3.822795268526149592e-02,8.491289007340231676e-02,6.340515542435826851e-03,1.599017213364594325e-03,1.569911127904536491e-02,8.052721714999648561e-02,8.384577055264906542e-02,9.660310994604963397e-02,1.017693843075075794e-02
6.482498445634586604e-02,4.515888281307727653e-02,5.193515162939951746e-02,6.052007312177258742e-03,2.636258230004083535e-04,1.523948758125313711e-02,1.614539722367711871e-01,7.943155061596393618e-02,8.212092963872041906e-02,4.490284240916191279e-03
2.869272837875811583e-02,1.788547939359400735e-02,1.927869788050831298e-02,8.321670737040348653e-03,6.079498004440382977e-04,1.226760921494892895e-02,2.117270902439090108e-01,4.831464063467953707e-02,4.951607596532294625e-02,2.599539398549912533e-02
1.510586993977309882e-02,4.074378487405415361e-02,8.832526787991104925e-03,1.284844918078945422e-02,5.313259176867785039e-03,1.273279020893913066e-02,2.275046211131273866e-01,2.166494228928009594e-02,1.009649188811456016e-02,6.064034797472651200e-02
2.566666571021458329e-02,9.605968510370274660e-02,2.861069274144295224e-02,1.813602093450841779e-02,1.378739472321277755e-02,1.518846627350044741e-02,2.414378007160751793e-01,2.314449611613917865e-02,2.656347052503419889e-02,6.888183588261036217e-02
4.786990236911237845e-02,1.096482145667138502e-01,2.997374255882757910e-02,2.100465311412942626e-02,2.021376562386708459e-02,1.280986446220240028e-02,2.490011179479830472e-01,3.552223093292071476e-02,5.186410490125614725e-02,5.091737649144963823e-02
5.659855448214258511e-02,8.441833826993101753e-02,9.951689982276641644e-03,1.992909585446023604e-02,1.993434564846405244e-02,3.278889518839199144e-03,2.132045570265611589e-01,1.605066047812713295e-02,6.046587511203626447e-02,3.631580136821083854e-02
3.211891546682629772e-02,5.909710440081328287e-02,1.638378424431680483e-02,1.619980326161302858e-02,1.435739356032165147e-02,7.409975527818405371e-03,1.457127785419762289e-01,5.216259491341491972e-02,5.820356884565408562e-02,4.328925625889681189e-02
1.831611321249505125e-02,5.344510821118517163e-02,3.297440548880558459e-02,1.170445319488418526e-02,7.562644893922941189e-03,1.127430751401610129e-02,1.249112888838884161e-01,1.290203888680750977e-01,5.709855408602822202e-02,5.834836845536880284e-02
6.507377921281987110e-02,4.949191805894287421e-02,4.037770169894325245e-02,8.318272939972646413e-03,1.304616498411380072e-03,6.754389777974248790e-03,1.982810665455448651e-01,1.511775048628804241e-01,5.689303048777286098e-02,5.970932301031508377e-02
7.775500196349680038e-02,3.033999223018914171e-02,4.707048901393927343e-02,7.807886021827546708e-03,4.902994028556347320e-03,4.988673004406397665e-04,3.015041932784900958e-01,1.023144401217314647e-01,4.488942740970335021e-02,4.623100658943100905e-02
4.050089012483577833e-02,1.188769689745345585e-03,5.860532446675309481e-02,1.005245380178577258e-02,1.086861339363268987e-02,6.578699780733732140e-04,3.250775467018883758e-01,3.116887813398862284e-02,2.051060728999574978e-02,3.665317266698649157e-02
3.384961027752103613e-02,3.053696015652308804e-02,7.931886271895829954e-02,1.344756074176297125e-02,1.499741502054439610e-02,8.234731722729397504e-03,2.483125016087852632e-01,9.201741668589285758e-03,6.518135026879669919e-04,4.789900249337531585e-02
9.879837538703063748e-02,5.911012657477734966e-02,1.069621955606639696e-01,1.763370405268933211e-02,1.655434250362641455e-02,1.658703539221378226e-02,1.520405822828583831e-01,1.368930238142673089e-02,8.987912209976911537e-03,7.950746487722733236e-02
1.080187675446809686e-01,6.600185620094865813e-02,1.257600632997068757e-01,2.271192943849444090e-02,1.733021924116300710e-02,2.058478052298917671e-02,9.756628960820687424e-02,6.833457086321064258e-03,2.374984170007755219e-02,1.145484591569172900e-01
6.426942570658927822e-02,3.768449035164267436e-02,1.188396223208158381e-01,2.613382933305234343e-02,1.973325329885608145e-02,2.289842964176989210e-02,5.686505331249672168e-02,6.565477748282380621e-03,4.955961218012684688e-02,1.307207529022941794e-01
1.601174842935171663e-02,5.536532671892089100e-03,8.466768031937380035e-02,2.532734337996539464e-02,2.331601185636246118e-02,2.737210073432450388e-02,1.329513907445245557e-02,1.955541571625910718e-02,6.976992066280875149e-02,1.156253934708293130e-01
1.553956148533350550e-03,2.879636930604354689e-02,3.609253205013937538e-02,2.385627853656357641e-02,2.432536748105102245e-02,3.029860315653448016e-02,9.120249004201361198e-02,4.185991058899909967e-02,7.363593724249212213e-02,7.979458565626013078e-02
5.219811027958537811e-03,2.241664451914707201e-02,8.885948221948436476e-03,2.856495000057138883e-02,1.951635196101830783e-02,2.557457396009979109e-02,1.329146376661842488e-01,5.474989588523721668e-02,7.017037329599121187e-02,5.109386146033050718e-02
3.404335709583386493e-02,5.720883466430277606e-04,3.327637147591644418e-02,3.886765306691426780e-02,1.022491923514284168e-02,1.575385279492911086e-02,1.472657317258128651e-01,4.210773212070754307e-02,6.696589625203118457e-02,4.593689824453488918e-02
9.258509350865722076e-02,3.042043833146428414e-02,2.808544615360565946e-02,4.542839661488545788e-02,1.684327507257616773e-03,9.497769448128669245e-03,1.708614788763280212e-01,1.101428750906522161e-02,6.413951654641036892e-02,5.165068017198540945e-02
1.414375141152103277e-01,6.154293991395309860e-02,7.985554412861355089e-04,4.098641517517606636e-02,1.807366691623656270e-03,9.870842527172039860e-03,2.031301825708828057e-01,2.151641566646197296e-02,7.068769858511859960e-02,4.788548069970276211e-02
1.479968687509234659e-01,8.012748138432912448e-02,2.584090077432392440e-02,2.673601793526876255e-02,2.003713534411324503e-04,1.302643206838593679e-02,2.190899895122058183e-01,4.976562241752352511e-02,9.639438123892195287e-02,3.269774209458022052e-02
1.265963486891680811e-01,6.974840701976361967e-02,3.350245257615088595e-02,8.970360696015568236e-03,2.969702537192988288e-03,1.586128488114540644e-02,2.150712006788315089e-01,6.811568634922253451e-02,1.278583251873370297e-01,1.578393143380568339e-02
1.104216186895784768e-01,2.948157682328195195e-02,2.853545793777143708e-02,4.657716127944017473e-03,3.229321042808942863e-03,1.736280932117310535e-02,1.974102676433651393e-01,5.757314170009951437e-02,1.384833463511059015e-01,4.096175308386388117e-03
1.028543485183006229e-01,1.763778358350251776e-02,3.035806483909615425e-02,8.395729746654255130e-03,1.339587794021734370e-03,1.533819132483536969e-02,1.570445112390390363e-01,1.086990483923735810e-02,1.190994299960545649e-01,2.819154789611732700e-03
8.379673698393018400e-02,3.919857087066823398e-02,4.102285669427363501e-02,3.652039496549277543e-03,8.043511235477326590e-03,8.450472454875799025e-03,9.002263934894161324e-02,4.399769300968728314e-02,8.181430962091079673e-02,9.600588914394133505e-03
5.188803713638950182e-02,2.349217151172944273e-02,4.822388381245750616e-02,2.208158250488351411e-03,1.290577230327770615e-02,1.049275800603214704e-03,1.728044994652949695e-02,7.166797963992917186e-02,4.241778292838047776e-02,6.841251891398351416e-03
3.111145382552362587e-02,9.968941725375789209e-03,5.480309821842831858e-02,5.316213993602220654e-03,1.595913618161650185e-02,1.076608452237660246e-02,3.568874288396092775e-02,6.823592334507097568e-02,9.321501523576702225e-03,1.616505895046088659e-02
3.384912217826954034e-02,3.971400772829245668e-02,7.261670052765614725e-02,7.998630901341896582e-03,1.992841586074209706e-02,2.070151848237835462e-02,5.744496112906782859e-02,5.305128679041143380e-02,1.868023272124777825e-02,3.908110569350194824e-02
3.964141542530252166e-02,6.956094440018990854e-02,9.010845378734985700e-02,1.052160855380106230e-02,2.433423983823509995e-02,2.910367674028093224e-02,4.347829378005890755e-02,3.706847779238047619e-02,4.435681966589007097e-02,3.585493440026210621e-02
2.124680606551709525e-02,1.060039929753152088e-01,8.362210380658628706e-02,8.391199333864013052e-03,2.555220169787199638e-02,3.086261967158589886e-02,5.483667176775690669e-03,1.860744079342464830e-02,5.699931492445360626e-02,1.719151008455464119e-02
2.419577758109540608e-02,1.241618083102457859e-01,5.915583257111953208e-02,6.460130101580201191e-04,2.253736596803659550e-02,2.502664505227695374e-02,6.874242841254389613e-02,2.631859447362949050e-03,3.971211188280860532e-02,1.932371982334132182e-02
7.964826152270866599e-02,9.235930523280286297e-02,4.626232412469800243e-02,6.807202166234302410e-03,1.796689393233901269e-02,1.919512032543708308e-02,1.072569470833942828e-01,4.859620619485965388e-03,4.068671394899716492e-04,5.430167995486376992e-02
1.250851142245275605e-01,2.509118799938844790e-02,5.107952924724838695e-02,9.277064267418276555e-03,1.380580492198628904e-02,2.020480124211905884e-02,1.005348002123487433e-01,2.945039634912959350e-02,2.975324935099810456e-02,9.866639201713725549e-02
1.399323103552127801e-01,2.443587337163306492e-02,4.756136825260155743e-02,8.775784449795894990e-03,9.746354801371011692e-03,2.476526701579627801e-02,7.565160938249818057e-02,5.771127499245028852e-02,2.622496186229229809e-02,1.320063213509929112e-01
1.091327714124524506e-01,2.673848121856965687e-02,1.756798419714548226e-02,8.745443358875915410e-03,6.173644361406368207e-03,2.566212167833075916e-02,7.487123677941177891e-02,7.663219591773558215e-02,2.531314646047928482e-03,1.591140389054780113e-01
4.284048989832069110e-02,5.802424934300096093e-03,2.411982116323032818e-02,8.513700371286517937e-03,5.190899967653679961e-03,2.202479502311438866e-02,1.056200088295384670e-01,1.015601328844388529e-01,1.526190082567270047e-02,1.861168723703725825e-01
2.180304648171295726e-02,3.370816076209323144e-03,4.888573955570569424e-02,6.422187183674226210e-03,7.369306928292018721e-03,1.673183967755816764e-02,1.552092146192303179e-01,1.425267899624471368e-01,1.758696271031921776e-02,2.007752104869464371e-01
5.391420327149951119e-02,2.954800876796814801e-02,4.517930365334595771e-02,4.318057980363027883e-03,9.545281859588991211e-03,9.739887240551657610e-03,2.222721463437076772e-01,1.690559206293626993e-01,1.429743120906466942e-02,1.910888101898148561e-01
5.484215479803272730e-02,5.498966778098054314e-02,2.807617689895143542e-02,5.056618204316481839e-03,7.974711138061319968e-03,1.386994936188134294e-03,2.820936190892643358e-01,1.479773907602142946e-01,1.927856436948168981e-02,1.640229784523754841e-01
3.958741109154782084e-02,4.598150888329240876e-02,2.419215168820364886e-02,8.563997842569646274e-03,3.026322580218308855e-03,3.551046629933318158e-03,2.747075553349033195e-01,9.917727012597962744e-02,3.787044643300754854e-02,1.312267116859136551e-01
1.431316796666872414e-02,1.833878223098496865e-04,4.813768752383951882e-02,1.358691869713566681e-02,1.600659185975222137e-03,2.608836051782419292e-03,1.962742331259473838e-01,7.103149527183444389e-02,6.140268349142734283e-02,9.081640042419995840e-02
8.585318890971839478e-03,5.395457009345207972e-02,9.175284328386097699e-02,2.029649218460418195e-02,4.412364757787169169e-03,1.364421034634616999e-03,1.352457120451471262e-01,7.179434523545992486e-02,6.938731450197632711e-02,3.791430083572197574e-02
2.308494416882946910e-03,8.693395314834095888e-02,1.349409510998187400e-01,2.770210520394848080e-02,7.694349574587469251e-03,5.408805202588653355e-03,1.448774478652411768e-01,6.547085209562178432e-02,4.646757909292321964e-02,1.562144480029809858e-02
4.232454469465283392e-02,8.637778144504754119e-02,1.639747016750486008e-01,3.114292358723346962e-02,1.212862263859104152e-02,1.117669908608829275e-02,1.564490759359301320e-01,2.879112942081096110e-02,2.542536363445542947e-03,4.654438673007166294e-02
1.016250849391747008e-01,4.825279390887075165e-02,1.761403671818094485e-01,2.688421714553235892e-02,1.379146168615327794e-02,1.174589758271728235e-02,9.009529172335543901e-02,2.369938887202223399e-02,3.508459817493141120e-02,4.527918174507442051e-02
1.515437686846863030e-01,2.387791694279159729e-02,1.719034065937747879e-01,1.862677603576659915e-02,9.973451773271288512e-03,7.988446711970808439e-03,2.492575345785064816e-02,6.928902743161256816e-02,5.261318519614155420e-02,2.716990398323510664e-02
1.863429210651322554e-01,1.003168593544021131e-01,1.552159625081218075e-01,1.535345890024590598e-02,4.668164925570364096e-03,7.038693898068370050e-03,1.067083739182571461e-01,1.017923296480009593e-01,5.753581715559041854e-02,1.544714100808618901e-02
1.946553070449501543e-01,1.353855938251411484e-01,1.408554811589335098e-01,2.134906881917059476e-02,4.024746378459139080e-03,1.216147997251988688e-02,1.299424625643817999e-01,1.225804556499039549e-01,5.510276453638319333e-02,2.012191342729460763e-02
1.569009905084024215e-01,1.116862066012893201e-01,1.438836751099160927e-01,3.085276837757821786e-02,8.709190387443206324e-03,2.061498890956922278e-02,1.164085308169387767e-01,1.297806559980476948e-01,3.782417214259940763e-02,4.182091808513725695e-02
8.422438841657753361e-02,5.208728661234442864e-02,1.573376315160671390e-01,3.484405321357705171e-02,1.466547081198544059e-02,3.008264169020495593e-02,6.837402148057911133e-02,1.275098034844938943e-01,3.697405657037140803e-03,8.475515735349967161e-02
1.920429186074866512e-02,1.557052251146840392e-02,1.565041555332265244e-01,3.135476374141060729e-02,1.928782961835826329e-02,3.989454595730572428e-02,1.927495981326602867e-02,1.316039006140467538e-01,3.168991879797634220e-02,1.426743633498390451e-01
1.709794943147305291e-02,8.025643957250487570e-02,1.305889934188770307e-01,2.557786956187734981e-02,2.267283667613098977e-02,4.497621764392835397e-02,9.738247022315475732e-02,1.499840110858006170e-01,4.962386566176510416e-02,1.796599856771670389e-01
3.609668297549221971e-02,1.328115630420557691e-01,9.558631364666644870e-02,2.140904479489173784e-02,2.408301860476759482e-02,3.697726790134188424e-02,8.086948340473011643e-02,1.628026382233408731e-01,4.767549515466085186e-02,1.595242624813321963e-01
3.921975678981948904e-02,1.545777192243479869e-01,6.841315317430000931e-02,1.789488265045978757e-02,2.137026783957228851e-02,1.620838814508336612e-02,4.586908128289158421e-02,1.397964098831258606e-01,3.938662579314181761e-02,9.446688222127999635e-02
1.903910038722255588e-02,1.333846134024359031e-01,4.107509013508547219e-02,1.308017987697657029e-02,1.407364069533851257e-02,4.680452793845915095e-03,1.887265743564777998e-01,7.877961220427980027e-02,3.768824926810854237e-02,3.129480799209424097e-02
8.141705340759279250e-04,8.190991220713887688e-02,3.722834716360874652e-03,6.636087291792872565e-03,4.478715013283323526e-03,1.539151626469355272e-02,2.486437217677314182e-01,1.018113377930366346e-02,4.278065413426897223e-02,3.750721863781130653e-03
2.634922204171091797e-02,3.061806098104902576e-02,5.505290774130280895e-02,1.267547315466979740e-04,4.334858707087581656e-03,1.985703863945531902e-02,2.256453028807871020e-01,3.925610257434268557e-02,4.661067617501395144e-02,1.186954767565877138e-02
9.166281455878555473e-02,3.671753435162271491e-03,7.465653006875078157e-02,3.532795688681080078e-03,9.637817745808550246e-03,2.634494575685807430e-02,1.773095801441370856e-01,6.754696160597674359e-02,4.629445294303118769e-02,3.531534434259127157e-03
1.426690156968381251e-01,3.438851948956546303e-03,4.642787370179923823e-02,3.740386898211682173e-05,9.251296522533355993e-03,3.303870558383917994e-02,1.280929405082793793e-01,8.032079749859977191e-02,4.859502953070313908e-02,2.522231010505637111e-02
1.381203001679759401e-01,1.453132666904320518e-02,5.865985043972324689e-03,7.434108436343103178e-03,3.364824263242450174e-03,3.281302259613446543e-02,7.699245490057672614e-02,7.853273612755604094e-02,5.875330497405881897e-02,1.515135651090161045e-02
9.014278396791838843e-02,2.033130815808326802e-02,3.548352369001327167e-04,1.064602524258388520e-02,4.307957588722815569e-03,2.659580264263438146e-02,4.795114223367835660e-02,6.874003608296069823e-02,6.865500233137240838e-02,3.748305286475536041e-02
4.087618155380494389e-02,1.154591930639659904e-02,3.269783647138538307e-02,6.438673279250171390e-03,9.416690762497157557e-03,2.257376477906074264e-02,6.952021029091418058e-02,6.213661262468278546e-02,6.151317100889092115e-02,9.243861765243284456e-02
1.836032185329614097e-02,2.321562610876205801e-02,6.746285564198009621e-02,6.260103253871735635e-04,1.021164877426137055e-02,2.547292253174132312e-02,1.237990302842705143e-01,6.001581368573749575e-02,2.910539419841612699e-02,1.116578729446618123e-01
1.926075745062818742e-02,9.665624014351116566e-02,8.403159213747250778e-02,7.568290752411633085e-03,6.856335147707576065e-03,3.300243271298457237e-02,1.565187453677134022e-01,5.706163239985653779e-02,1.692842167077495893e-02,9.979754911662426509e-02
2.520939353621176951e-02,1.959539792158717098e-01,9.534221015520767673e-02,1.613046366056753236e-02,6.431745599281382165e-05,3.982870220922869048e-02,1.326602233711987877e-01,5.370739333787936248e-02,5.271384990601488130e-02,7.667519504956910037e-02
3.023608307380640237e-02,2.764026524918642425e-01,1.173730728651958544e-01,2.555221592361373029e-02,9.077466419596502689e-03,4.084189183434287079e-02,6.268176916220803696e-02,5.114475422786939757e-02,6.330297828853180542e-02,4.770070553031255378e-02
4.652538744611261351e-02,3.011564087704622916e-01,1.445169394007734809e-01,3.094370314032948710e-02,1.790975888644959560e-02,3.327793047516459241e-02,2.024207456011595935e-02,4.341908116839217346e-02,5.345413153903605386e-02,1.141735222653358049e-02
7.825668274208533171e-02,2.698351572327971626e-01,1.559852463460551231e-01,2.918296275391458333e-02,2.430994756274737489e-02,1.865973459091770439e-02,9.351741406626379316e-02,2.211038035602562457e-02,3.412428755698052735e-02,2.905500307625723949e-02
1.020361149656607846e-01,2.008564735944335933e-01,1.366716705687777977e-01,2.090541994092760120e-02,2.582213479614389740e-02,1.625428678892505089e-03,1.574962197453315949e-01,2.127107408101865452e-02,6.923886846242284336e-03,6.511657126415816566e-02
9.162501052403704271e-02,1.167470144833355067e-01,9.566894980898918432e-02,9.358818625187228027e-03,2.108625880270375078e-02,1.272662703242015067e-02,2.148874866399823613e-01,8.969373532200125565e-02,2.745991085098524118e-02,8.551334726064231673e-02
5.361711775823949783e-02,5.660792223328686701e-02,6.223648761924612666e-02,6.187371347805392229e-04,1.315484845210415296e-02,1.859255486396003618e-02,2.289087451986287491e-01,1.576290733662969457e-01,5.311072302691574598e-02,8.617177733816316909e-02
1.657031950274065815e-02,6.275648414644882656e-02,5.605429201249449711e-02,1.853510539306536115e-04,8.300388814875280658e-03,1.095479513826749796e-02,1.329376502956602646e-01,1.743408047865463439e-01,4.848225848641357638e-02,7.576122509612730205e-02
7.465253989078562795e-03,1.280144632849606057e-01,6.891894317006007353e-02,6.399036769970007331e-03,8.995658524852885238e-03,6.633573050175218394e-03,7.427378485396037011e-02,1.244252471278217698e-01,1.427296942229231563e-02,6.509889046143034486e-02
2.443359666751456633e-02,1.839576623537789168e-01,7.898357640639311339e-02,1.066527106825473220e-02,1.076633907887489423e-02,2.000043620089858240e-02,2.810126784215316031e-01,6.086435301137803344e-02,2.110933486170867013e-02,5.886467165816650776e-02
2.804917674025334678e-02,1.714772446386617633e-01,7.199950976875170439e-02,6.510510943145879706e-03,8.272071824529977913e-03,1.774717598244783187e-02,3.693192034481432295e-01,3.840946586461162215e-02,2.987177311849937775e-02,5.975612981639036314e-02
3.116451251364490971e-03,1.058992218459091500e-01,4.889980624874529225e-02,3.278177745829878934e-03,1.925932911819231222e-03,3.472733593288296079e-03,3.363659276506925644e-01,4.434766775617370732e-02,1.131405459845515049e-02,6.638955659074587123e-02
3.783235488559937715e-02,4.825147055468093082e-02,2.218321950439933188e-02,1.060894546598837619e-02,3.973450079181492858e-03,1.104903418043305663e-02,2.633592057034197520e-01,3.605576224537904856e-02,1.446980336361234666e-02,6.812124800088180387e-02
5.651430140787638834e-02,3.045581469763401425e-02,6.780499961842460441e-03,1.142725583685248042e-02,7.014458104635758716e-03,1.997673582325993138e-02,2.007214231161334184e-01,1.215247591893117186e-02,3.150763462444054058e-02,5.884842466873392575e-02
3.438931031053557574e-02,3.499459837399061801e-02,1.311942266976312728e-02,7.417889647805779064e-03,7.099223975191948886e-03,2.446349052168128937e-02,1.344602221859647617e-01,3.623504385222104263e-03,3.754936192897414399e-02,4.654882442455899466e-02
1.339903841027233894e-02,3.319167694727850892e-02,4.153960405499661918e-02,8.952586750327533403e-04,3.607750970505472707e-03,2.420657910108336280e-02,5.178010424848250581e-02,1.851444739116740734e-02,3.234984422846180763e-02,2.971817293759076301e-02
6.468473861721736606e-02,1.416093279214678327e-02,7.331334049320456514e-02,6.014152401899948257e-03,2.920134868094123939e-03,1.666178757421577644e-02,1.506417557472572444e-02,2.860789857703942632e-02,1.013806868390052830e-02,1.091032300836835070e-02
9.922297658567215406e-02,1.995343106011379999e-02,7.748142615146964840e-02,9.381767798859800417e-03,7.848610152956380856e-03,4.561118437815351104e-03,3.351434046565862634e-02,5.785495439479649595e-03,2.850163186874016263e-02,6.999942041766156475e-02
9.899423910421219219e-02,6.337691902366505980e-02,4.353855583345780239e-02,7.117454213590213713e-03,6.674813959658695318e-03,3.778513240372482172e-03,2.048019982516471882e-02,3.967812197639686289e-02,6.540309334614133330e-02,1.023803801304712380e-01
7.358288989443589889e-02,1.050603617865736444e-01,1.155514693999173080e-03,3.093754424741813978e-03,1.549639846862329402e-03,3.957253100551396188e-03,1.588803332885309685e-02,6.353013413681043997e-02,7.738059169866763620e-02,8.228510978834718825e-02
5.809123967070520256e-02,1.295243728575478648e-01,2.208614629914772490e-02,2.585303439663324144e-03,1.236078407712714331e-03,7.225489548409107059e-04,3.533086993885144189e-02,3.798261807165909110e-02,5.928422544747510847e-02,4.140950799590437797e-02
5.960242308334773309e-02,1.285242754153680667e-01,1.795224990752095073e-02,5.142097955527247591e-03,3.050763905589418947e-04,6.205057296429285565e-03,7.268623115190735173e-02,1.341644264829773212e-02,2.761189375720396466e-02,2.084023158066507578e-02
4.454860506961879490e-02,1.092904110595779299e-01,1.533861548309796777e-02,6.958184312649828840e-03,2.225992357999704956e-03,1.238967946647791946e-02,1.235173713914183846e-01,4.723542353398084426e-02,2.211671521496208319e-03,2.045006386344385210e-02
4.416261857239332789e-03,8.634972420228705092e-02,2.950154836740342262e-02,9.052471610754403084e-03,9.474988461723911218e-04,1.985213565820084097e-02,1.841161183276012192e-01,4.889333707728851786e-02,1.117636928302153526e-02,1.691786753677842342e-02
6.343681891872969547e-02,7.017972791963424106e-02,5.059876288581124926e-02,1.602747943654987683e-02,2.963719769246053216e-03,2.725238985385124851e-02,2.404231659662866283e-01,2.997822110497603068e-02,2.100105879454518612e-02,6.389937536326907846e-05
1.050847951349655474e-01,6.809437681911889584e-02,7.029349242529259190e-02,2.560009949557996364e-02,7.590034131529132047e-03,3.350906703792991964e-02,2.742577218423374874e-01,2.093382522180690149e-04,3.588494767639200528e-02,2.722140613289121894e-02
1.199552261429127631e-01,8.625731073476682054e-02,9.854265476894120968e-02,2.772181744631692021e-02,1.244459900096404024e-02,3.908071723035331374e-02,2.802179776864530680e-01,3.286775026047638465e-02,5.424440974458933501e-02,6.185548204584299936e-02
1.040621302742677362e-01,1.221492699988118852e-01,1.397402374236612899e-01,1.822717215513944625e-02,1.692956559022526508e-02,4.408864218161558796e-02,2.697260324202881421e-01,5.388944688081383910e-02,6.958349524136335507e-02,9.667379048737859137e-02
6.045757015104735038e-02,1.612875653379264307e-01,1.698946696038707294e-01,6.132278999143167195e-03,1.881386737087271249e-02,4.722787153387480313e-02,2.578613610569084336e-01,5.061154604710209337e-02,7.957603094470146188e-02,1.164249020335784562e-01
1.266515368952116430e-02,1.874655532234496269e-01,1.606839110672514115e-01,2.034403253078873128e-03,1.662641627981114451e-02,4.705660505130278282e-02,2.506084283969581827e-01,2.761157101039932518e-02,8.317225652283734283e-02,1.105617255204333765e-01
7.371161791113360791e-03,1.923851523481594772e-01,1.179729679246493967e-01,5.006476191072790558e-03,1.212081951742878354e-02,4.357489160673917034e-02,2.462501719566421166e-01,4.381206039722666899e-04,7.485773497645360763e-02,8.555740143195822434e-02
9.725723268042843483e-03,1.760885285490825514e-01,7.286516311949507718e-02,6.359018338736610945e-03,8.739601855282131196e-03,3.885527545548387446e-02,2.441720300150280187e-01,1.940007074896619998e-02,5.050720372163913091e-02,5.881753773000113206e-02
4.086622340600064990e-02,1.494333869889098165e-01,4.251017059033489198e-02,1.443992710829450701e-03,8.907530353990791849e-03,3.648560105944009813e-02,2.461375827505649649e-01,3.009887196149547625e-02,1.607304131452975959e-02,4.388247853803845661e-02
5.719432530747357857e-02,1.361945062609373203e-01,2.519717952903651609e-02,7.674597664429719593e-03,1.300052862615784684e-02,3.846017907576641109e-02,2.472710584628063923e-01,3.261618288410516459e-02,1.507897953592997331e-02,4.066474768263907830e-02
5.736189347490693730e-02,1.528279759448185615e-01,2.278942034806506062e-02,1.758917635603230237e-02,1.881835256333521181e-02,4.003446239144729801e-02,2.246350913112773739e-01,2.277225402043326144e-02,3.206150984253399588e-02,3.272486011719490800e-02
6.416416724892198831e-02,1.801972441436046068e-01,3.901832553768342510e-02,2.674177187441054149e-02,2.281936154777271589e-02,3.055623010591617533e-02,1.427639966447573350e-01,5.103243922133632836e-03,3.212910040841576720e-02,9.785252489630767714e-05
8.505956259075829473e-02,1.788095738825097591e-01,6.361829290846000851e-02,3.421139737561286476e-02,2.382160158644372125e-02,5.991640008911054520e-03,3.488458879004088103e-03,4.575867223809683415e-02,2.015694348100386529e-02,5.225599823549169354e-02
9.369618930064861628e-02,1.406660416470295605e-01,7.983936081451770139e-02,3.730101845908760649e-02,2.288834317983769531e-02,2.195472048149506306e-02,1.542332255436935085e-01,7.979036414082293915e-02,6.001286328657436109e-03,9.022531226074440025e-02
6.789977892849788366e-02,9.965531195865023895e-02,8.188454690752591802e-02,3.211452472613118836e-02,1.848581892376577676e-02,3.828009850615001625e-02,2.396342959914946613e-01,9.025052416590322035e-02,3.864122109036082029e-04,9.361578686140163696e-02
2.801231892707307936e-02,8.196178236002184259e-02,7.648436744276450316e-02,1.928792840409972176e-02,7.744216007505472753e-03,4.276594755469018821e-02,2.689573582353229075e-01,8.051366527853956456e-02,2.986990881731398095e-03,8.525409782737405906e-02
8.302692174214653525e-03,7.602178534360504170e-02,7.505314425295631087e-02,7.321056582512082238e-03,5.603176752689289879e-03,4.528119945195255291e-02,3.035340853646677495e-01,6.629424001720961301e-02,7.172940290591963731e-03,9.246606953893417302e-02
4.943022136847669522e-03,6.295428669820243850e-02,8.341294232579718471e-02,5.133206305287350488e-03,1.222984175195365036e-02,4.842339330196934744e-02,3.488807294824488592e-01,5.143767595159106504e-02,2.224891084400199177e-03,1.044806987201551407e-01
1.199711055682988262e-02,4.876140351203121781e-02,9.073484697142875088e-02,1.230048978055180847e-02,8.957452806328468700e-03,4.709823106400604781e-02,3.511489489377160877e-01,2.378806778664713587e-02,1.031063612664923773e-02,9.697190470324075495e-02
4.519916392272645134e-02,5.138399274103089970e-02,7.525182646303409106e-02,2.033193619764999890e-02,2.682057005593979550e-03,4.108690835426926508e-02,2.963357666118862643e-01,2.070759875978903791e-02,1.866409958507180694e-02,6.998547481084904653e-02
6.538062705303863964e-02,7.344733270855191565e-02,2.921145176687804657e-02,2.158684128642177416e-02,6.815927922391405713e-04,3.628852107063935961e-02,2.327232906657625278e-01,5.713540451899583317e-02,1.275936871958811142e-02,3.347291084426261276e-02
5.645957176848418607e-02,9.772136446216860006e-02,2.865797567113289104e-02,1.523331139781950241e-02,2.739912828190288648e-03,3.507428682072624010e-02,1.915729735601955919e-01,4.761066682326852567e-02,8.512019722378465214e-03,1.269189061510245589e-02
3.653618841575646814e-02,1.006512997613652205e-01,6.799193501332057021e-02,7.861592110289902791e-03,3.831510939286248817e-03,3.369349211533862604e-02,1.574537604390063850e-01,1.283158108833987177e-02,3.918174257232364538e-02,5.884458351129383952e-02
3.229517069160374454e-02,7.114997103521196464e-02,6.790144944030057639e-02,8.599506012815359701e-03,1.963897398842999248e-04,2.868187043088723728e-02,1.235091896109837967e-01,7.899820827432874060e-02,7.023716891628539738e-02,7.943094164655369049e-02
5.081143119840306199e-02,2.151042810338597150e-02,3.280945536715090122e-02,1.930317457777644408e-02,7.680821258682695059e-03,2.024526333249876756e-02,1.047372318869635027e-01,1.032055987020453203e-01,9.084907879814908827e-02,7.181972534196384705e-02
8.032967514193994907e-02,2.768664536316983379e-02,1.145782083297493606e-03,2.989060114705792068e-02,1.535495479970064824e-02,9.422206031315901939e-03,8.303047311474084924e-02,8.462655377384641076e-02,9.134771190359576576e-02,7.077857012997805508e-02
1.070711705014530113e-01,7.038096437071468536e-02,7.599975395350861557e-03,2.841815886061317339e-02,1.782259989927354599e-02,2.985952155850103273e-03,1.875550014474456142e-02,4.928874524161035858e-02,7.223671299710290872e-02,9.865033656292312991e-02
1.226488907421220825e-01,1.069151045334043315e-01,5.830244486697803291e-02,1.537964756743609614e-02,1.419029355417167869e-02,1.300163607994863670e-02,5.744745684627045046e-02,9.436620222135897948e-03,4.745066966187978796e-02,1.258431876283342965e-01
1.193533379661663035e-01,1.250564005197580819e-01,1.056021276270619064e-01,1.929716209180094410e-03,8.136863764698123655e-03,1.410802873877169822e-02,5.148564360222586400e-02,2.764270787632843937e-02,3.021280417299597454e-02,1.076601148449702339e-01
9.203575817851140928e-02,1.150243663197151323e-01,1.163513544240234038e-01,5.954440824032652957e-03,2.760587557951585651e-03,5.235485024999471035e-03,6.024217576688623010e-02,4.413205449571231537e-02,1.932915653133254752e-02,4.250782838798140145e-02
5.130836200470633574e-02,9.252037563841533641e-02,1.057557992461793522e-01,1.359296946505858007e-02,3.279712483496198105e-03,5.981624374132663707e-03,1.852342645353838024e-01,3.418245433732995664e-02,7.815257453107151558e-03,3.074028931179402166e-02
2.249373916090159284e-02,8.170913513177120724e-02,1.063363479142545032e-01,2.647514741525908849e-02,1.283498008440742306e-02,1.166020288425007913e-02,2.296722423182371020e-01,1.020720188039161112e-02,3.038807394871624254e-03,7.677924207358023667e-02
1.911802273512788405e-02,8.593590428397755721e-02,1.241383865714666690e-01,4.130584127708774450e-02,2.492940378352619460e-02,1.094009000060217930e-02,1.830319782474550128e-01,2.422365385250712516e-02,9.561260014758335424e-03,8.444180888881867852e-02
2.519479261388113400e-02,9.548959707770578176e-02,1.413160697320282322e-01,5.102285638697548475e-02,3.445229214869451051e-02,6.380947834596387321e-03,8.082032541699468720e-02,6.916911201638635542e-02,1.632367088825387516e-02,6.290191624935845272e-02
1.344869263323777986e-02,1.110508988768809518e-01,1.474899726258551702e-01,5.252004445007175948e-02,3.729326660733515292e-02,2.315263349067489453e-04,3.791164199442138838e-02,1.019035021303534710e-01,2.739637246150861127e-02,3.792775075284610109e-02
2.394431228581639370e-02,1.397873042736040572e-01,1.492353495407828523e-01,4.737222365511029737e-02,3.474543485609050270e-02,5.169208550195601541e-03,1.306203946375951441e-01,1.005232058333814238e-01,3.420563871302823716e-02,3.580735741477834855e-02
6.788662529346399521e-02,1.780692799095688617e-01,1.523904232653338908e-01,3.955734166031833060e-02,3.192824746122824991e-02,2.832753315856869226e-03,1.743329304043272354e-01,7.913008551179602501e-02,2.463931941521438004e-02,5.708128443990607287e-02
9.249111651279046109e-02,2.124684325606663315e-01,1.527129554860666705e-01,3.363120700210814329e-02,3.205576021721515123e-02,6.923799399393499622e-03,1.937429719976457021e-01,6.054164583093335494e-02,6.009972011160324978e-04,7.840495701061028777e-02
8.725275932256232325e-02,2.306492219173253977e-01,1.446896088221573951e-01,3.157085923529838467e-02,3.348039965580760363e-02,1.607195391334245368e-02,2.297032277305261772e-01,3.931297573569639964e-02,2.989344281729262864e-02,8.310260197600695398e-02
5.716915847662797090e-02,2.254202531520913266e-01,1.268933772831572493e-01,3.062893739810449573e-02,3.257446661220612938e-02,1.651357484826057945e-02,2.857360869563645989e-01,4.322289522223202174e-03,5.370039074779192623e-02,7.577505634888466457e-02
1.022443725638370535e-02,1.985070883091206162e-01,1.003037332542915383e-01,2.675238721037788772e-02,2.797396544661909581e-02,8.890048605324324740e-03,3.205795232869986799e-01,3.359754583648084936e-02,6.749210040940124833e-02,6.920633548661417334e-02
4.491970162520460275e-02,1.631251034758727236e-01,6.815723890419818354e-02,1.935368416148736462e-02,2.106664319594662993e-02,1.555106610622446813e-03,2.835933293733338689e-01,6.423952554106439339e-02,6.678743753302855690e-02,6.994193905827407465e-02
9.619566629198363084e-02,1.323977306156667588e-01,3.355337889822087444e-02,1.024792475557191607e-02,1.374950551950201993e-02,1.026694223305573122e-03,1.636372226846340427e-01,9.534865441533514618e-02,5.070279889254550310e-02,7.315492899302118712e-02
1.335405469902317399e-01,1.075987573302726041e-01,3.153665727530629431e-04,8.463383309412078961e-04,7.683213543712063588e-03,5.317050730821202414e-03,1.096753135968445494e-02,1.231605848948147397e-01,3.154864477338149148e-02,6.849515384188652189e-02
1.539770320062244235e-01,8.905401049506025957e-02,2.268878863983531807e-02,6.135035709598169774e-03,4.951351144454490573e-03,9.198370948477557763e-03,1.107914117487952405e-01,1.188281455875422749e-01,2.909095030808262622e-02,6.002720555146834336e-02
1.598934744347065284e-01,8.783101591014430554e-02,2.183059565207540187e-02,6.683719061469561504e-03,6.470162618444358013e-03,1.300878243554147266e-02,1.888387598036847526e-01,7.166175974172550589e-02,4.771155083411087600e-02,7.085453857211873596e-02
1.573618042589718380e-01,1.073929194482448751e-01,6.706676851878600604e-03,1.555099395942683912e-03,9.329012453149772288e-03,1.985745295291218432e-02,2.411608105032572169e-01,1.977503780165350972e-02,6.831109847994784601e-02,1.087721715728239835e-01
1.535863915184496331e-01,1.262791322041753317e-01,3.627686947916751795e-03,2.331113991162440426e-03,8.626228746854995924e-03,2.657456725049547192e-02,2.563487371328574960e-01,1.003326739947655102e-02,7.141137166061363450e-02,1.436688242780154723e-01
1.486820613211152498e-01,1.224841460150270234e-01,2.332166779117745767e-02,8.076563619103802657e-04,3.086030096586317960e-03,2.563842318473986623e-02,2.092429397674670510e-01,4.454294616007246216e-02,5.908793387069002923e-02,1.446364402248059011e-01
1.323776573635846443e-01,1.014481969738829509e-01,4.806212156899492688e-02,1.585996040987310224e-03,3.314350991510134174e-03,1.538484641613596313e-02,1.149874699439357439e-01,8.983531107389602921e-02,4.523818920125481646e-02,1.204329039308005278e-01
9.952999446404152406e-02,7.772741478122299763e-02,5.670697030362252533e-02,1.220415953224887563e-03,6.268905128637199814e-03,1.651440007215508252e-03,1.619589386084110266e-02,1.259330040406652640e-01,3.458639251473495657e-02,9.653617831485332423e-02
6.727404959746720314e-02,4.826924502082532986e-02,4.873120622358693282e-02,7.436985251221073581e-03,5.733741166716542145e-03,1.008867139999122114e-02,6.478011651474070709e-02,1.603101908304115641e-01,2.223053456592470958e-02,7.404144884701772955e-02
5.676343288817728427e-02,6.704499198955365252e-03,3.960392491817311955e-02,1.005320646587711149e-02,4.483715114508748933e-03,1.866285570312442230e-02,1.271798966558967403e-01,1.926918779583791652e-01,5.883694039714826990e-03,4.038635729639003524e-02
5.254193726812529663e-02,3.698458557503379873e-02,4.270257149146357289e-02,6.586698187250801008e-03,3.894031603051124717e-03,2.368202253230290710e-02,1.672540221597501320e-01,1.907625147721618564e-01,1.210416543843152726e-02,1.780640474271223857e-03
7.136592187058075389e-03,6.982252909589356515e-02,5.954078824987198149e-02,1.183395599827629903e-03,3.013479495467230942e-03,2.360090879068924355e-02,1.762046839189833070e-01,1.219555450524733298e-01,3.004182816109129267e-02,2.437109237536297379e-02
9.701117845273089790e-02,8.754098072608551551e-02,8.064036803734010717e-02,2.145499900946321384e-03,1.187615511023734118e-03,1.923012427394827847e-02,1.540708380829643454e-01,3.601113221149117218e-03,4.614932687617604584e-02,3.726479642264660802e-02
2.123900302425089648e-01,8.514948289439225326e-02,9.333785448555173558e-02,3.885116605025995106e-03,2.990061525755174227e-05,1.571258907787139239e-02,1.203351722069417734e-01,9.977172266160223846e-02,5.587565342606096164e-02,4.889752962334969338e-02
2.710080614600089977e-01,6.212458692946291883e-02,9.390956625019164505e-02,6.544614076538596455e-03,1.822889526301939593e-03,1.766593778975816820e-02,1.057191445848584682e-01,1.342845644523560644e-01,5.618595464538134882e-02,6.139509360440757735e-02
2.459374344315849448e-01,3.864397097811624743e-02,9.141475620634138821e-02,1.124566946685321908e-02,7.197261371959324389e-03,2.334591092396762907e-02,1.164445256539923812e-01,1.008038178234017257e-01,5.098400728680099053e-02,6.763626443536034649e-02
1.595960465998860767e-01,4.076619219901544966e-02,9.502329642310836100e-02,1.718874354393184686e-02,1.346620426230796079e-02,2.668966038065892152e-02,1.136654737698371970e-01,4.217341623541077944e-02,4.835484773243861611e-02,6.681803545768119634e-02
6.030953764199983858e-02,7.028863222350574536e-02,1.023122654263413089e-01,2.249789462736299928e-02,1.706533848111983775e-02,2.458044310592879395e-02,5.548187222649515055e-02,1.231279404365286101e-03,5.252164450766810821e-02,6.298576714406578514e-02
2.043024499349840612e-03,1.061678690167342787e-01,1.054346233456091991e-01,2.561955303540553244e-02,1.650210061903465905e-02,1.869743461031510290e-02,4.476804388639091942e-02,6.200641161266764491e-03,5.993640780077138380e-02,5.538605507103976089e-02
1.089264215763839465e-02,1.308471529219271401e-01,1.030717638513206219e-01,2.660705528454961402e-02,1.329629579174328342e-02,1.145516841007824041e-02,1.245568989124856141e-01,8.393601597248858542e-03,6.420818439517529674e-02,4.475303158219778171e-02
5.422256388741261701e-02,1.447241098781889834e-01,1.014548374892245974e-01,2.603864526867777016e-02,1.040620284386137642e-02,4.725903891774635088e-03,1.330534030773497522e-01,2.360875139216722304e-02,6.488375491220303715e-02,4.169239690353605116e-02
7.429414636021319795e-02,1.551248400876485134e-01,1.063455736231654902e-01,2.311550069896947321e-02,9.703669531531573800e-03,8.716719291049130919e-04,7.854270004239831404e-02,3.070343919396346585e-02,6.717970837540200579e-02,5.371721295353244774e-02
6.228569055302193846e-02,1.532892973463990394e-01,1.140096155902322050e-01,1.726777816960797449e-02,1.048056392890870173e-02,2.764540596513539311e-04,2.568489191107640318e-02,4.248377838350225755e-02,6.945549746875588626e-02,6.885359884701315603e-02
6.436777668596843638e-02,1.140811996483940410e-01,1.094730078771529169e-01,1.085220176437175915e-02,1.037599209371764877e-02,3.346838447787063488e-03,3.908323937455199931e-02,7.565585749630288070e-02,5.863594833716739146e-02,6.763418527480381803e-02
1.061706398270827467e-01,3.373722126235988855e-02,7.999157040694188092e-02,7.100713553030474530e-03,8.321591979261999325e-03,1.089052892353628912e-02,1.102433573541737183e-01,1.233515685275742568e-01,2.819967537460156548e-02,5.043139767805485119e-02
1.490543164079662086e-01,4.577523129823412446e-02,3.334558632163085734e-02,6.365575883877060137e-03,6.466590298703235248e-03,1.735388238700840205e-02,1.576919815354845822e-01,1.525766178694254460e-01,6.174663173224041388e-03,3.730114785736547700e-02
1.397695989328615884e-01,7.467648423552430970e-02,3.937931756613301942e-03,7.338548203339838316e-03,7.971076085135144276e-03,1.514902267289464782e-02,1.233141472680693435e-01,1.350303828017848928e-01,2.196379326926714559e-02,3.794583930179762365e-02
7.700752137947551590e-02,4.855274217719817570e-02,1.246202806671377859e-02,9.750430603530067103e-03,1.254010247806471717e-02,4.961067754249847903e-03,4.125942033388871333e-02,7.778589488848575151e-02,1.520087277286724138e-02,3.856370342422813652e-02
6.337849819233591121e-03,4.147006373963566667e-03,3.232228900878103203e-03,1.202339410033296564e-02,1.564441074993309228e-02,4.978908176623001586e-03,1.690762711396592149e-02,1.855985798773664847e-02,1.023053575952634006e-03,2.644749613524573564e-02
3.654879132225900829e-02,2.775921597819666631e-02,9.397049728957378167e-03,9.118059283719642805e-03,1.321458864698627465e-02,8.906234312046056381e-03,3.466274606972743338e-02,9.928177687491062178e-03,1.618233463351190227e-02,1.217598373288700242e-02
5.457121465350926043e-02,4.721915954491422152e-02,4.850399391307459035e-02,2.008745232176174702e-03,6.083646233311249506e-03,8.423230102162330979e-03,5.410991770908776810e-02,7.806032270829614018e-03,2.887432698152932187e-02,1.453921848548397726e-02
6.402870856547936140e-02,6.612197183312164273e-02,9.778697006010590720e-02,1.645468024529880488e-02,1.321660918155700883e-03,7.490305150556961049e-03,1.074460597053376598e-01,2.748898987025231132e-03,3.987797596924218257e-02,3.296555543420457562e-02
6.107981564373894667e-02,8.066093396130878668e-02,1.192195032928122234e-01,2.540399591952295991e-02,5.652580530601383074e-03,6.807831748069203236e-03,1.762032469506978338e-01,1.027688938161162857e-02,4.906847575597823863e-02,4.849800997448693030e-02
2.579510546081040245e-02,7.532713184887331048e-02,1.043719651860911535e-01,2.493402267715623052e-02,6.623200148901496262e-03,5.020047067426869347e-03,2.137687122881920532e-01,2.229029508600201964e-02,5.644725619245456738e-02,4.956412895622636094e-02
4.366809841591903774e-02,4.853620080164628564e-02,7.787408710607979234e-02,1.794762474556537563e-02,5.458349663168346987e-03,2.508508749732761556e-03,1.909927073079247528e-01,4.150512107175357429e-02,6.008298542589464442e-02,4.506752870910835096e-02
1.134890212831048129e-01,1.446705289426252275e-02,6.186718674303062077e-02,9.509978547969810680e-03,3.302950656939586307e-03,1.238750874355868791e-03,1.196278755042731734e-01,5.230328503687784597e-02,5.577860429581920493e-02,4.834666963436547865e-02
1.404975277130151023e-01,2.018914116151210997e-02,5.748318161410731486e-02,3.265017492967399806e-03,9.557665804139617218e-04,2.118971611206463355e-03,3.907186343478035589e-02,3.819412213907296544e-02,4.292298818011597988e-02,5.727969916661834054e-02
1.117233174561450826e-01,5.735928579838222435e-02,5.783480099905016769e-02,7.918998481957081025e-04,1.167916200166354375e-03,4.111395239373729499e-03,1.753200190653524115e-02,2.299097042806533004e-03,2.775484275998902836e-02,5.869963192168220489e-02
4.917235853049514716e-02,8.467722019622189733e-02,5.782058853605762105e-02,1.163135693795081752e-03,3.202326927447766286e-03,5.076958074130604771e-03,4.649343178669188004e-02,3.508047178191558979e-02,1.764615306622241073e-02,4.732648693451818600e-02
1.815056398845830976e-02,7.916867624708122386e-02,5.091226452154024723e-02,1.147432889245436714e-03,5.560192533777009831e-03,3.469358564699721523e-03,6.364587001780365461e-02,5.631634767171533190e-02,1.519614114665784194e-02,3.137333580363994151e-02
7.546643061109414852e-02,3.904774004787784497e-02,3.351015968451830779e-02,1.556930482966031957e-03,8.147089826031570989e-03,2.980575319704759259e-04,7.513171146573829895e-02,6.173365664696664479e-02,2.022368898086571512e-02,2.168204692508540060e-02
1.199391745724648767e-01,1.023321769721428909e-02,1.354687965656048432e-02,4.966784869680015632e-03,9.991579289225416619e-03,1.701022352734528819e-03,7.449403384998723454e-02,6.251490219911781665e-02,3.186673070935011620e-02,2.149161504954023166e-02
1.473054477470255030e-01,4.478452284231804886e-02,2.956324432254426888e-03,5.211738540749349426e-03,1.005546915928722147e-02,1.781022296914394490e-03,7.002626735213490772e-02,6.110688340165425919e-02,4.293910155576263071e-02,2.584464365584629095e-02
1.459846889486491883e-01,6.115908208893449521e-02,2.252986450698479196e-03,2.294738522205042822e-03,8.248190820627951739e-03,2.125388065084853062e-03,8.217996299984092756e-02,4.986258049130919134e-02,3.861939575463213536e-02,2.803052604868072964e-02
1.133677251031132427e-01,6.875714388806497546e-02,9.612834927829848330e-04,3.389105783877737572e-04,5.379058128980242215e-03,4.408519839919882409e-03,1.039459277522530728e-01,2.991833305166131246e-02,1.172222825963866767e-02,2.600294807998525248e-02
7.532488269993187213e-02,7.697585870134836250e-02,7.361607339526383617e-03,1.921675789804538903e-03,2.664813460366553290e-03,7.479025812121536942e-03,1.028551705451441756e-01,1.697050571793147500e-02,2.373105148564919054e-02,2.188878133764890141e-02
6.427445020951480514e-02,8.709482300511914299e-02,1.569928343261140294e-02,5.279698912215737179e-03,1.386030104968833439e-03,9.023247358131957982e-03,7.540047825644162482e-02,2.088280315152497152e-02,4.525021470972560161e-02,1.719067227984454743e-02
7.398881752419993185e-02,9.053553885557794056e-02,1.122038653134761060e-02,7.583835476270651965e-03,1.936649301662363197e-03,8.210948751095114087e-03,6.090757956127916539e-02,2.746637693269551872e-02,4.622178130821183450e-02,1.198171739683929517e-02
6.867974180766900361e-02,8.043694794619697663e-02,7.540845967823953805e-03,8.314026395337943340e-03,3.086051691554275896e-03,6.253553780314865911e-03,8.576267823321753747e-02,1.143082180879288062e-02,3.779588643519002367e-02,7.198127432732997349e-03
4.278856636125088347e-02,6.388150861454627849e-02,2.560253312620759322e-02,8.540409294636279458e-03,3.279620929311559581e-03,4.627963073996869958e-03,1.235361495138316557e-01,3.032605155162972424e-02,2.944037826739795069e-02,4.904369872734347033e-03
3.350732783673567722e-02,5.407989995583178944e-02,2.793969312130380536e-02,8.884910545277173444e-03,2.459804316366816321e-03,3.075999108719329814e-03,1.256116604571246576e-01,6.827697861175974214e-02,1.924911066130527079e-02,7.877911396662294619e-03
5.972770886783390631e-02,5.510983835834516731e-02,1.504271426596707519e-02,9.462182521478275030e-03,1.627136566202503232e-03,2.692159153601684715e-05,7.275401299479869466e-02,7.180845307168014224e-02,4.916938811224544174e-03,1.857465465664115412e-02
8.347930468638027623e-02,6.198403831882366710e-02,3.101767537910480113e-03,1.053803209269774284e-02,1.219163004995849975e-03,5.004240353847332588e-03,1.462564360939260129e-02,4.312996090172121350e-02,6.214740066486442935e-03,3.554341773938277799e-02
6.019006276123667343e-02,6.864200107811060936e-02,2.030248374745877854e-02,1.197315895744733259e-02,9.192715969421688064e-04,1.048025637846510330e-02,1.018902922915781994e-01,8.001118736379084218e-03,5.689282929933642610e-03,5.333759043424420726e-02
6.410737696143708336e-03,7.042364151201822853e-02,3.541882469622227581e-02,1.290299985867210918e-02,5.223650192823106695e-04,1.453512231002285562e-02,1.616724310746177340e-01,1.916619154136338724e-02,3.023415585997646024e-03,6.883689589201817671e-02
2.401063038058384030e-02,6.470269553984814292e-02,4.821710067448069931e-02,1.277852514779137874e-02,1.598768187485440453e-04,1.672071963929263466e-02,1.796682328533320272e-01,4.336453901535054778e-02,1.081417090815131425e-02,8.276295839923718256e-02
2.597041598361980730e-02,5.109042510960557643e-02,5.882062906053345253e-02,1.181045008131721523e-02,8.106532222138158623e-05,1.779178591106326396e-02,1.566527515250598357e-01,6.733561380547896380e-02,1.981703718651112167e-02,9.208253475571130664e-02
4.959197899812332888e-02,2.929510570501093689e-02,6.576904869759350736e-02,1.012315617648538654e-02,2.710104451448749766e-04,1.803178282027022988e-02,1.065503777243106687e-01,8.479906791029886981e-02,4.009659791150713137e-02,8.781172526161519498e-02
1.116277832063243686e-01,2.046313825089128222e-04,6.400638717476943296e-02,7.382000930636057473e-03,4.602960067757745069e-04,1.593007138804985318e-02,4.378786718313621568e-02,9.446637084085707237e-02,6.913732514755800695e-02,6.476030450511174874e-02
1.662836423179561152e-01,3.132312988366165590e-02,4.940757592124304931e-02,3.197567533439878325e-03,6.252123686438114305e-04,9.353091575647579092e-03,2.711477199163120008e-02,9.636686695280125003e-02,8.967125505395062701e-02,2.807306253685634689e-02
1.831653944231586562e-01,5.897437345418191784e-02,2.330155014926082319e-02,2.469120169521921669e-03,7.546839852310795790e-04,1.340270934862946130e-03,1.032293071422476644e-01,7.546126434752360723e-02,9.135715379159663196e-02,1.228978094625443780e-02
1.868185063350032982e-01,7.668730708423747433e-02,8.683071804323785198e-03,8.787354930362686889e-03,8.726212909862165329e-04,1.241552838894902956e-02,1.699327680015578212e-01,1.710949638759264035e-02,8.251264417814024865e-02,4.728489581944050196e-02
1.956807254364680837e-01,7.736636880498819202e-02,3.647181063634545584e-02,1.374551786182649435e-02,9.880278046451049321e-04,1.952121973256196880e-02,2.060757226379673346e-01,5.883771733004072163e-02,7.492650043441904939e-02,6.799703020850833557e-02
1.825096931032940129e-01,5.997846276415047528e-02,4.643304613000633074e-02,1.493040884198391927e-02,1.091364909025987779e-03,2.042506512546794425e-02,1.996337731897078471e-01,1.064046499955815656e-01,6.568475673150561689e-02,6.747733833932151315e-02
1.243248290602078227e-01,3.482470449404896640e-02,3.297054874646210276e-02,1.137363415065946980e-02,1.197891366863179348e-03,1.579624114090910636e-02,1.540987765306652268e-01,1.038779135170197904e-01,4.450693602361900647e-02,4.809659734186254310e-02
4.971600643679215115e-02,7.504394029587915620e-03,7.610362695557322532e-03,4.897277484352161037e-03,1.333951028430626663e-03,9.025776914924859076e-03,8.795856072201357900e-02,7.567277968805104227e-02,1.660921496131505942e-02,2.487066212007838645e-02
5.226892038279779863e-03,3.016085532916802994e-02,1.372267908601584700e-02,1.210209505579369019e-03,1.472829873479942825e-03,4.295836066590885509e-03,2.916991031876512916e-02,5.460281610432336091e-02,2.298330196403753842e-03,1.704547679089939149e-02
6.008582242631749053e-03,7.076395780505001509e-02,2.773892290969608154e-02,5.174864037562138669e-03,1.572874717593853409e-03,3.159743289953584160e-03,4.806039204184328964e-03,4.293147541295631864e-02,8.775026549538038345e-03,3.076072245046687290e-02
2.424333400530700316e-02,7.431081947665886533e-02,3.639597281641827886e-02,7.095104131271227042e-03,1.701805594264931562e-03,3.794995157522660072e-03,2.506425332832087904e-02,2.724471815335854918e-02,2.004871965125652397e-02,5.009275199137180196e-02
7.338434784069243488e-02,1.627436664183394208e-02,3.208776525312889705e-02,6.642601842997005249e-03,1.953362842377507746e-03,3.765057552028371404e-03,5.660333943084735336e-02,9.771248999341296954e-03,2.261744506140279942e-02,5.260990266628991913e-02
1.237879037232809121e-01,6.706702976925413284e-02,8.437755916256305111e-03,3.122162773388169853e-03,2.185857143456505173e-03,1.842182782740958355e-03,1.028314285255007010e-01,1.626232436947387368e-04,2.183171238884839063e-02,3.560785608802152086e-02
1.279692249905121371e-01,1.190874379906455699e-01,2.183929907117225858e-02,2.071507824449413896e-03,2.193011594786205016e-03,1.835541739980707347e-03,1.353776483826041321e-01,5.406176032116033307e-03,2.485127638066080002e-02,2.118223352505989310e-02
7.883701105939934506e-02,1.295722506495535220e-01,3.871271597502754652e-02,5.936185631341579783e-03,2.260353888797190028e-03,4.942593588018660139e-03,1.264287275977773461e-01,6.370814799159314930e-03,2.676401518676750288e-02,3.271293730693372592e-02
1.050106459187798852e-02,1.264269130417543241e-01,3.797473590768730284e-02,6.950630987895511231e-03,2.872443077920536474e-03,4.219713730964578732e-03,8.462701387257250130e-02,1.016947350399656676e-02,2.068723496854753263e-02,6.883187012413181927e-02
4.699430976598384380e-02,1.201651835597424001e-01,2.753631529144196996e-02,5.547040229111861905e-03,3.672168447526671931e-03,1.210756318145715833e-04,4.451492097748757648e-02,4.403852339483011608e-02,6.524426338222467231e-03,1.040197355351633046e-01
8.390540821416012096e-02,9.470552457375651378e-02,1.069168770978035608e-02,2.416953008717046512e-03,3.916608527994183339e-03,4.153551775372425238e-03,2.420960076584338649e-02,6.780662096440495668e-02,1.257755929770097356e-02,1.152332449465147401e-01
9.229047382363919638e-02,4.897359328496506126e-02,1.130361406147974840e-02,1.371088155448193504e-03,4.067820259125322531e-03,5.849558636154213002e-03,1.599593417652644609e-02,6.184678547382915781e-02,3.159963390196686428e-02,1.033211627716117409e-01
6.767470406910018610e-02,1.300477856248299577e-02,3.055250839915036806e-02,3.883558442804767308e-03,5.005735598300097705e-03,6.774960280898195339e-03,1.611594976247190253e-02,4.298240987777202093e-02,4.517806013937188114e-02,8.558460308554186047e-02
2.568036046404239756e-02,8.519991843644186824e-03,4.207240581913973543e-02,4.359552086947248058e-03,5.887936977670924985e-03,7.434752404114777433e-03,3.326368431363728451e-02,4.156884649168138962e-02,5.520724378526993548e-02,7.327943693500779676e-02
1.284883664864043540e-02,1.850859348908375640e-02,5.085134068570023452e-02,4.288979027750774824e-03,5.324028264331342152e-03,5.844633001465752119e-03,6.548102174122355512e-02,6.287976327705330215e-02,6.692661126118773507e-02,6.359216610322634966e-02
4.475622060783885497e-02,1.882667807374286198e-02,5.481917849412731858e-02,4.172200605871701808e-03,4.002055570912343464e-03,1.399910135335428714e-03,1.001558954972859156e-01,8.178518522153167825e-02,7.215593470806627718e-02,5.120532820452632083e-02
6.855443780989643743e-02,1.853562341804595309e-02,3.715904485927953166e-02,1.473517017595891033e-03,3.578535580697525965e-03,3.829695411203386593e-03,1.382386287720284157e-01,7.225924988132013949e-02,5.350955823811730239e-02,3.871013102355572860e-02
7.296042350862896875e-02,3.963832884581532101e-02,6.046925628346103317e-03,5.124864538505377251e-03,4.041219970991863711e-03,7.438532755363921022e-03,1.827040161726661560e-01,3.619831149039419438e-02,1.285338036403176065e-02,3.228719021703316955e-02
7.141935290789215574e-02,7.325434696495923548e-02,4.801248133905337834e-02,1.191281257417564285e-02,4.269929855905605504e-03,7.626770574028975125e-03,2.044672743564131812e-01,2.215540547091857711e-03,2.285708091016927859e-02,3.260409129431703079e-02
9.998119042011335833e-02,8.724468939605219131e-02,6.030951098117096065e-02,1.417908461929430312e-02,4.036130015102079929e-03,3.444089007525704457e-03,1.656696198482718596e-01,2.602268766323894561e-02,3.213520379074125827e-02,3.447762277241460394e-02
1.401278874962824661e-01,7.011323861909074528e-02,4.453467686955059346e-02,1.188200272181298874e-02,3.906167407124751766e-03,3.614393602134309460e-03,8.022113709844248819e-02,3.689648524734955720e-02,1.935599920554212372e-02,3.212380883139151488e-02
1.104487469829427693e-01,4.145883659194928711e-02,2.135966479421852124e-02,8.369398450632123745e-03,3.968854846933528475e-03,9.886252142110080535e-03,8.054573152978770911e-03,4.122633767729508986e-02,2.501258228230452893e-04,2.096982971761447018e-02
1.207332434532243023e-02,2.033979392689151330e-02,3.958741791761945933e-03,5.952885206498607050e-03,3.771484248796106841e-03,1.266222555693861246e-02,1.105854170729734035e-02,4.118928545926220375e-02,1.676708669644857291e-02,7.134351151116147954e-04
1.347063420273636181e-01,4.582796130331667425e-03,6.734186878829033496e-03,5.047399105946001260e-03,3.319746063754899952e-03,1.185770264913091517e-02,1.555817843373650221e-02,3.927632794766262869e-02,3.043709028501535852e-02,2.581952954975302861e-02
1.646267653013352428e-01,1.427776146653182525e-02,1.386277042428896676e-02,5.051961911881214413e-03,3.275900165641195197e-03,9.042107535596016071e-03,5.908956375194901467e-02,3.975762554025399909e-02,4.150561568579939908e-02,3.904724849156451100e-02
1.128100297695635301e-01,3.015877254370114002e-02,2.038824739117672466e-02,4.657980976990601200e-03,3.796642227905453870e-03,6.352730966923286239e-03,8.963275051410835026e-02,4.481869899591829631e-02,5.156779774468019106e-02,3.187984402644799403e-02
4.345229043861931206e-02,2.561283965820413885e-02,2.381299325047495780e-02,3.476740598400005194e-03,3.970367993141149868e-03,5.292493305651436997e-03,8.829402209205412799e-02,5.428376819843699908e-02,5.696294191649421690e-02,1.426998119125103166e-02
1.423545013529758235e-02,6.170357432470496492e-03,1.219265082922560764e-02,3.075289514751403542e-03,3.147629692075437201e-03,5.128188628723964922e-03,6.484947555701642274e-02,6.812942992182281776e-02,4.429363226996829717e-02,4.489898587474670452e-03
6.817290285216957846e-02,4.908525684067437805e-02,2.351412697977216248e-02,4.363951195815280251e-03,1.992837043524068805e-03,3.529640464535088902e-03,4.806794960629318797e-02,8.621508640326495942e-02,4.552523530868086629e-03,9.467340421151139440e-03
1.246347816510819384e-01,7.896596665445837493e-02,7.102745455884094949e-02,5.593198221898262532e-03,1.389553274326528476e-03,4.745444028516650333e-04,4.790333870137635647e-02,1.059499281565474543e-01,4.836991840108573193e-02,2.042431786430921881e-02
1.791478764054973416e-01,8.504141552285937600e-02,1.031866657863308723e-01,4.947948767091031944e-03,1.210574941726101899e-03,5.262637168130826666e-03,4.589563963553454362e-02,1.239866585949585126e-01,8.605468327393667183e-02,2.480301190715106241e-02
2.254864015126239740e-01,6.996535875976107877e-02,1.054408272310070338e-01,3.207755995374343347e-03,8.934848431057219008e-04,8.501118503052303155e-03,2.222127433938139718e-02,1.417725173242004866e-01,9.324913013732642753e-02,1.650456348504757836e-02
2.537643484440582631e-01,3.933783378226852340e-02,8.618889109497941681e-02,2.162178182698816856e-03,3.819720226085011796e-04,9.421299652636721741e-03,2.518635199844745584e-02,1.630385502393863484e-01,7.742652285738520213e-02,2.145552397130677958e-03
2.482355188007935864e-01,1.589986722891954026e-03,6.050236101671385702e-02,2.059519090621326522e-03,6.836706037630449224e-05,9.252820788445397654e-03,7.870908373680771120e-02,1.818254860103265536e-01,5.313640014375978909e-02,2.081921100725701163e-02
2.055475847152334057e-01,3.343424914311684398e-02,3.535194545706128733e-02,1.974491002864853413e-03,4.155440911376522255e-04,9.766730883570214766e-03,1.066012448466243379e-01,1.839059760297558910e-01,2.819411979367889357e-02,2.595931902931176982e-02
1.533161085488417563e-01,6.485870182359887437e-02,1.095743814601098792e-02,1.486847916793086234e-03,7.757151372606419350e-04,1.154500435834632938e-02,8.683426561617285655e-02,1.677749911400135407e-01,4.829148460812081323e-03,1.235989596369078958e-02
1.262182698765603739e-01,9.643346256651748327e-02,1.261013474589012945e-02,8.828178661067555841e-04,1.158689298305566953e-03,1.376341226907100250e-02,3.393110036595843593e-02,1.495264763989701262e-01,1.577999478053636329e-02,1.151773856619820249e-02
1.213304402589705927e-01,1.179641698214663748e-01,3.303419682175871841e-02,3.796660338117147874e-04,1.486082432776101095e-03,1.500893074960878149e-02,1.103989651229643834e-02,1.366073719878993509e-01,3.322274452493128444e-02,3.264696286638768541e-02
1.079948198642474849e-01,1.125226058703088367e-01,4.768720555774743491e-02,9.206820849525854718e-05,1.749926242420843988e-03,1.388100426594548326e-02,1.916954628492745227e-02,1.145412428706114316e-01,4.723131193017295754e-02,4.330912944755163640e-02
8.217092816244993270e-02,8.728130167423700514e-02,5.620367077156931263e-02,6.535543664763143398e-04,2.014543933260150733e-03,1.003360259579782164e-02,6.595348419438555945e-03,7.263666298918300401e-02,5.533043613941275585e-02,4.204692210381608813e-02
6.928983196084374796e-02,7.128478863067320981e-02,5.948093470820445261e-02,1.344216903610267631e-03,2.269296096888124767e-03,5.365336844672119639e-03,4.362771590465794325e-02,2.650468787531009424e-02,5.405078468059570929e-02,3.313674585488445012e-02
7.099819199719820118e-02,7.526379540571309645e-02,5.709124190372225072e-02,2.013058419765081063e-03,2.406442496956175819e-03,3.009517524850726863e-03,6.867028098368217759e-02,2.597586454915618015e-03,4.424315654740135217e-02,2.531528192265975266e-02
5.958138506238804671e-02,7.972979737407126510e-02,4.947730376072274200e-02,2.429415552868921524e-03,2.445617667902928467e-03,4.585161360700354058e-03,7.242737702884163853e-02,1.261583018464269672e-02,3.326320073829550084e-02,2.307554343146806658e-02
3.346060821846379846e-02,7.016200323792813609e-02,4.215955734042959452e-02,2.803895499900107679e-03,2.595707294966542126e-03,8.564114697275972479e-03,6.963179463884586196e-02,4.850546284586880474e-02,2.950088966980857902e-02,2.015231566403871341e-02
2.163100688765517976e-02,5.768226311735834277e-02,4.149987919510873119e-02,3.666519586159832506e-03,2.823116421472552685e-03,1.070181990468372160e-02,8.676785560896584093e-02,8.685296513283455311e-02,3.428045012238397499e-02,8.983939406209374978e-03
2.034095852753013342e-02,5.557409551336418840e-02,4.461278271497043368e-02,4.527424585256955257e-03,2.647675918274007122e-03,6.991295454334722423e-03,1.282800586972007162e-01,9.618670950169229406e-02,4.020636523611506585e-02,5.799480335466117645e-03
1.021973728071853826e-02,5.787173852797184576e-02,4.041276492140456755e-02,3.590764175270698324e-03,1.880142802631471497e-03,1.889876547076651528e-03,1.701781746425110875e-01,5.999123769761934705e-02,3.937688056042789458e-02,1.293632808685011085e-02
6.848355995972135735e-02,5.077938003930120708e-02,2.406771025930367139e-02,2.926756831832529699e-04,1.213169594622923652e-03,1.019228500109874667e-02,1.964530728759591727e-01,3.300829510073871077e-03,3.288788652626008918e-02,1.301054374323342040e-02
9.766473046801037172e-02,2.984162114277510297e-02,4.157154011791419981e-03,2.641654191002067685e-03,1.431593702295603067e-03,1.271120843043315601e-02,2.138380359926711494e-01,5.492709279463788702e-02,2.732683641224618876e-02,1.884059118356063225e-02
7.183014775941541641e-02,6.451250238359062042e-04,8.365523589755896605e-03,1.765765924956604668e-03,2.306113955851789472e-03,9.540085170431235329e-03,2.189678784380700849e-01,7.001236065074811776e-02,2.049467954808374334e-02,3.353916729930456891e-02
3.869425255892491172e-02,2.774905629326417100e-02,1.345277216347908616e-02,2.437657137417022397e-03,2.658444030520582414e-03,5.213825329418475193e-03,1.907933852847319978e-01,5.898005576621246498e-02,2.062544952000280180e-04,4.253063731904437039e-02
5.550858303531533422e-02,4.865180250230548981e-02,2.018695886767009340e-02,5.290163122420906382e-03,1.426949665585466789e-03,4.785078090776904991e-03,1.378109804246503700e-01,6.447106666829006960e-02,3.858663335791609472e-02,3.610300178464675991e-02
1.246675166110818300e-01,6.079077110643238413e-02,3.397890854021574925e-02,3.013261461042551076e-03,1.080672570578448824e-03,9.870187025567755262e-03,1.142370921427540709e-01,1.261126815796370648e-01,7.759213786179490480e-02,2.571589875683523083e-02
2.070795300859951116e-01,6.521832516683974401e-02,4.924689037888072690e-02,2.824573214854904195e-03,3.077028867931824816e-03,1.742105712858540989e-02,1.565641835164808260e-01,2.345677619349001986e-01,9.567824644776810883e-02,2.598263293375543612e-02
2.685281837684555528e-01,6.242006620999239475e-02,5.573647763286227602e-02,6.793134315455673887e-03,3.235888038203096201e-03,2.328231196054387012e-02,2.298665956711046787e-01,3.354171386548539524e-01,8.954775656153725338e-02,3.322424937512803711e-02
3.013825455967696909e-01,5.592474241835602294e-02,5.004902090294859746e-02,5.392325869821946137e-03,2.276776503270891427e-03,2.611563939148888250e-02,2.691965277046380889e-01,3.865744897691083537e-01,7.295895900922355626e-02,3.510995835400529397e-02
3.132351355838186580e-01,5.320546825056217399e-02,3.864360821083613617e-02,5.207708224533661974e-04,1.529855015972943124e-03,2.623716011799221912e-02,2.538532623551446599e-01,3.891398827780673808e-01,5.809646839923503919e-02,3.049809952960609236e-02
3.000561775107591922e-01,5.684786427314554580e-02,2.968989460480424974e-02,3.274306295038483926e-03,1.000853306245596489e-03,2.299407862223877899e-02,2.093980582354877662e-01,3.580579089519206337e-01,4.606124659146237227e-02,2.619038558051862975e-02
2.428592231272856117e-01,5.769535956453970826e-02,2.397460109494104624e-02,3.927574359247805631e-03,1.939277200412921494e-04,1.617463414628264942e-02,1.571321306905675841e-01,2.957101977530384729e-01,3.323476815201297646e-02,2.229865169029750932e-02
1.464334406825877621e-01,4.407515157567552105e-02,1.565284149393098706e-02,2.932272217185695733e-03,4.946136945696787655e-04,8.011842531308401710e-03,9.839841235816296217e-02,2.079713099755586547e-01,1.896511657597849121e-02,1.303619654042237341e-02
