3.416583521324557116e-01,8.546078694461782532e-02,1.403772420646306855e-02,8.565013953001626571e-05,6.500975461990623583e-05,1.443450829200972356e-05,2.509965519610619575e-03,2.259483275974093902e-02,3.062639280126197984e-04,1.043189672893221794e-02
3.382500298633955849e-01,7.989652622392061365e-02,1.523005441982634711e-02,9.895590037382962834e-05,4.338540467110303585e-05,1.458171609612566626e-05,2.856086985826849708e-03,1.807122614260379262e-02,2.960050396449911297e-04,5.593723514954427288e-03
3.192460971348977106e-01,6.277909490988846375e-02,1.393153932127605063e-02,1.117043660671247464e-04,6.355347475639662328e-05,1.436938182242140687e-05,3.356503944255295746e-03,1.708095991254410598e-02,2.906598019459344330e-04,8.699841946131782987e-04
2.991262207409235985e-01,3.677646224790959845e-02,1.380304244686725475e-02,1.235600076478232277e-04,1.057286133959955515e-04,1.380458052255791371e-05,3.369518614175085521e-03,1.785191011396227573e-02,2.896925737769349583e-04,6.476374338023481621e-03
2.708250287519445298e-01,8.013475907281887578e-03,1.950466083975634438e-02,1.342026093886043161e-04,5.790703143432444921e-05,1.290302319357555266e-05,3.013487414691961349e-03,2.323888008017841594e-02,2.923731262296893132e-04,1.122178918575137546e-02
2.196679676870138542e-01,1.065073946347238308e-02,2.168501866430955216e-02,1.433348201285783105e-04,4.066625970188510539e-05,1.168862593513722521e-05,3.714952832054880388e-03,3.574941206482908779e-02,2.977919227616739246e-04,1.668795245110920450e-02
1.674687188653515846e-01,7.075516199245711520e-03,2.102989160972958799e-04,1.506890815318480252e-04,5.292509531476734215e-05,1.019287943445451449e-05,5.215216028450846662e-03,4.711919622250006212e-02,3.048794838375004797e-04,2.171433374223691315e-02
1.569013224871966539e-01,1.781792532871061610e-02,4.725166565257599843e-02,1.560337625971930777e-04,2.705727058192423104e-04,8.454035311954128141e-06,3.161468435106759393e-03,4.481446906380465167e-02,3.124300795085399856e-04,2.295488164064876657e-02
1.848478468858502644e-01,4.667314772919251703e-02,9.367274063163684439e-02,1.591783507546536743e-04,4.917163214959875396e-05,6.516130282211852801e-06,6.454630140096448594e-03,2.744713839196528601e-02,3.191295733537357184e-04,2.036816954326131981e-02
1.937558608895926515e-01,5.760812926565405528e-02,1.115894927951122939e-01,1.599775803819895143e-04,7.342888257232335365e-04,4.427872968106988497e-06,2.056885338502113802e-02,4.069148199659857086e-03,3.235852904977324631e-04,1.879381501900689172e-02
1.387122441673842577e-01,4.210813871130549696e-02,1.007620239159755932e-01,1.583344085064232064e-04,1.209948880201673887e-03,2.241421458726899916e-06,3.070070192118544775e-02,1.686972673669333289e-02,3.243563663703262576e-04,2.295528554273857866e-02
3.859163386538901758e-02,1.072599826848011535e-02,7.831142432929258379e-02,1.542017658800694572e-04,7.394608873111115739e-04,1.108224646234484632e-08,3.179611864787729864e-02,2.912295077388006928e-02,3.199869962746085695e-04,3.349007057191524805e-02
4.223813823839224491e-02,1.893290361127100002e-02,5.562082516386014641e-02,1.475830407242403181e-04,3.894500880190732378e-05,2.208037043037570237e-06,2.646650741721163352e-02,2.726264136966652721e-02,3.090436937084667032e-04,4.816733520994902901e-02
5.948176741091749931e-02,3.855164913201505894e-02,3.388897434294031730e-02,1.385313095318918498e-04,2.555238135673131407e-04,4.361387742690440353e-06,2.033838891965016743e-02,1.160195114896953733e-02,2.901490515927508673e-04,6.402892745731625368e-02
4.322498735002699988e-02,5.496497566814469160e-02,1.208716829708035741e-02,1.271473671193540215e-04,3.339566862824242801e-05,6.396319526879404812e-06,1.592306333259445664e-02,1.227415282670307056e-02,2.620070186562206932e-04,7.830422654333434040e-02
6.501448794446884616e-02,7.922526744547811473e-02,8.603093661334743070e-03,1.135765859159514290e-04,6.423291781022528579e-05,8.263366235099393352e-06,1.195517496183950805e-02,4.072112157165564544e-02,2.234331625929493448e-04,8.979089575574022986e-02
1.286817784939600084e-01,1.060556620218447155e-01,2.494193489776589528e-02,9.800464966741805311e-05,3.083779964719482420e-05,9.917446771199885008e-06,6.889785715005238877e-03,7.096167441910541940e-02,1.733985504909096745e-04,9.930570553653188248e-02
1.432181645369608458e-01,1.108857006329262707e-01,3.411403382045556654e-02,8.065234635269457112e-05,7.577050059238823532e-05,1.131895196241883533e-05,1.230828534324858014e-03,9.634117656062239632e-02,1.110564390355594556e-04,1.081298193183057033e-01
5.371148031374439746e-02,7.916610025886769431e-02,3.717968033951187662e-02,6.176966114199687347e-05,3.138506591899984429e-05,1.243469121669464329e-05,3.371871259063219470e-03,1.135829756994724271e-01,3.573044038675769881e-05,1.174239711244170620e-01
5.984597508786471121e-02,3.077150711437431213e-02,3.836490181091199714e-02,4.162918921758680712e-05,9.734536921454178354e-06,1.323867639971635569e-05,6.029533434911370053e-03,1.298259667697923558e-01,5.307248560963919338e-05,1.285832416641795595e-01
8.523666311759617309e-02,3.199098331610050880e-04,3.998403045326660160e-02,2.051882760185454912e-05,3.063673922173475108e-05,1.371272447348216521e-05,7.033613960048088094e-03,1.492762493363269383e-01,1.555786273934478970e-04,1.415689194883738844e-01
2.579427072369998297e-02,2.205019157115776455e-03,4.128031766649433582e-02,1.265772257621831735e-06,4.188600122317460230e-05,1.384686499167895037e-05,7.013877572072725955e-03,1.588971893780905809e-01,2.717291443701687738e-04,1.543112966666039254e-01
3.203188873822715443e-02,1.302232761742152731e-02,4.275338416957707305e-02,2.342832776459976977e-05,3.350918110284346310e-05,1.363954341973362252e-05,6.787484566425645849e-03,1.440814955263778896e-01,4.013286131387376479e-04,1.664935945099264847e-01
5.198539187198224221e-02,3.179874595025338618e-02,4.617419889397311739e-02,4.567904854244694558e-05,2.976181458112624737e-05,1.309761631741405382e-05,7.594930914966734926e-03,1.116527008824449302e-01,5.440745705258378043e-04,1.795659119867051012e-01
6.322777491285817841e-02,4.860315919675886609e-02,4.880747388156737171e-02,6.774259184217454202e-05,3.553560139346190335e-05,1.223613956362320035e-05,9.288028107170753431e-03,7.682258720385043427e-02,6.992432758727085747e-04,1.880982733262471229e-01
7.262220487333777286e-02,6.031285873699192279e-02,4.524645468658367725e-02,8.936537657821534318e-05,3.945078160547074470e-05,1.107795588965482342e-05,8.552566191304813298e-03,3.671264727851610010e-02,8.656363870594017051e-04,1.789705020015700809e-01
5.372823729223595579e-02,6.304764210578103767e-02,3.749936081728860032e-02,1.103198734417409703e-04,3.899036300102593720e-05,9.653092893781890511e-06,2.592561337638366655e-03,1.580643981244671606e-02,1.042283929257596187e-03,1.492014231645824029e-01
2.037159369889338448e-02,5.627009040066597440e-02,3.155965042895560180e-02,1.304084243160561298e-04,3.936167616915372701e-05,7.997987316811801099e-06,5.113957855872655438e-03,5.942047861335831432e-02,1.228624283674097225e-03,1.166969265029661057e-01
2.970423605742893852e-02,4.667986493984598029e-02,1.971405749156115647e-02,1.494712640387473067e-04,4.171586347652853576e-05,6.154555553331363879e-06,7.410829870833344525e-03,5.955957462373590722e-02,1.423068736146218842e-03,9.999927670049404971e-02
9.903993408258744691e-02,4.208194278515951098e-02,1.577172346070728273e-02,1.673929933294295198e-04,4.353939261200158917e-05,4.169134055636696882e-06,2.944976559430729363e-03,2.050544815164050821e-02,1.622652683607729704e-03,9.356947972869406049e-02
1.848152897709268161e-01,4.043323482782820028e-02,7.198966498720937857e-02,1.840970243171120000e-04,4.417733143099107130e-05,2.091316368787303859e-06,1.582510424203583581e-03,7.702135402455068114e-03,1.826175372787710183e-03,7.718561345552822639e-02
2.537794424716222075e-01,3.357882958259886252e-02,1.179777124137943584e-01,1.995397391959135333e-04,4.471968485596140738e-05,2.728405694024247703e-08,2.878338376526451978e-04,1.203818427151122014e-02,2.035118217105627569e-03,4.527794115000662034e-02
3.085446857517615826e-01,2.133203663599377714e-02,1.295843944555889471e-01,2.137268647597833054e-04,4.541574403368009666e-05,2.134314451533646061e-06,4.898653178513320654e-03,6.113011019249200290e-02,2.247061047615806547e-03,1.109634211418930941e-02
3.320509314465198702e-01,1.024089341543914580e-02,1.142698775146010204e-01,2.267274852801018283e-04,4.569747719168141929e-05,4.177974972661469958e-06,8.123182174303734265e-03,9.713184279541235699e-02,2.453650555724321090e-03,1.725196232895695805e-02
2.844899262840436260e-01,2.836936226098281562e-03,9.230034438816715758e-02,2.386369959020420370e-04,4.539202497604348589e-05,6.108290753288558976e-06,6.946400473693596644e-03,1.066483690624335928e-01,2.654710586982886571e-03,4.597053885223376102e-02
1.813222243028136116e-01,6.307131066602715205e-04,7.076722849389403824e-02,2.495403069078131549e-04,4.472674218820205550e-05,7.878332546732035231e-06,3.282021085772918265e-03,1.070077310474800980e-01,2.863050914333805947e-03,7.634326501088198325e-02
1.006029375648664487e-01,8.391703523425299988e-03,4.606313350605853452e-02,2.595808193476681954e-04,4.376235910029775488e-05,9.445356189906283347e-06,3.607240790998008035e-04,1.127168742925085398e-01,3.074557027695450431e-03,9.756858076845192906e-02
8.176619749878698273e-02,2.455076288833131157e-02,1.868999253669670693e-02,2.690286103480890047e-04,4.238419108674629948e-05,1.077183325464290274e-05,2.942450784449732269e-03,1.196346059338815465e-01,3.257232971458367404e-03,1.080820792661098123e-01
8.179472075173990775e-02,3.888013606773857433e-02,5.912288547438588303e-03,2.781200357890634719e-04,4.056758929340437033e-05,1.182634807518057448e-05,4.700158086752603652e-03,1.146553250336665303e-01,3.414877823640664976e-03,1.223875389597462310e-01
5.769166688349829097e-02,4.410608726886990766e-02,2.598773281165375412e-02,2.868907898586494460e-04,3.838508047003842818e-05,1.258433975446253499e-05,6.760575993961358103e-03,9.144814091618852503e-02,3.612223278975095972e-03,1.454140401937223381e-01
3.167356201634569102e-02,3.793072984404862596e-02,4.448078196513543386e-02,2.954951579635748402e-04,3.588159097847700210e-05,1.302867167571250224e-05,9.764716004695025292e-03,6.104052056222644684e-02,3.839663912555853469e-03,1.606327432670724975e-01
4.249477295672253463e-02,1.734655817426775104e-02,6.219137470826063829e-02,3.045506337016830366e-04,3.306868362374374348e-05,1.315001537974586871e-05,1.180867287603113054e-02,4.652684355709664488e-02,3.956093603854460294e-03,1.529010182808577256e-01
7.572249839769891466e-02,1.603943553020549875e-02,7.502815146176516903e-02,3.144441111656586419e-04,2.998171592515683459e-05,1.294704030388034513e-05,9.794469385285211813e-03,5.757996908956470455e-02,3.976351083317598845e-03,1.227593352183972142e-01
8.154605797480769802e-02,4.930472414406557313e-02,8.010199861942444988e-02,3.245566072089033170e-04,2.668177199632139619e-05,1.242640569953763698e-05,4.244788812853923267e-03,7.227717203401498591e-02,4.200857176246136290e-03,7.434485883138529372e-02
4.591514990893141857e-02,6.579043312239102326e-02,8.241968349293923857e-02,3.347038950957217690e-04,2.322722938001922383e-05,1.160255593308394077e-05,5.565577416984220040e-06,5.977494375042205488e-02,4.604862291692136088e-03,1.577611822707266145e-02
1.154358989936111850e-02,5.875465339723838498e-02,8.946179496610931481e-02,3.468098417341990039e-04,1.967063243496147630e-05,1.049732520752592521e-05,2.407781674831444094e-05,2.134941013961060702e-02,4.544561271314192380e-03,2.559203664296855196e-02
2.672245138130104405e-02,3.495632153625172212e-02,9.576678004702736391e-02,3.618548668720076027e-04,1.606996073755048721e-05,9.139362402693104078e-06,1.546097926863815699e-03,9.999788886062593862e-03,4.058178679638745415e-03,2.257712397562665341e-02
9.081686103814877453e-02,5.003758274748170039e-03,8.205528279436401229e-02,3.762060315190336626e-04,1.248814331189655135e-05,7.563391104681647435e-06,1.590411918826993782e-03,1.254432745856129405e-02,4.556792603873625197e-03,1.011992901041157411e-02
1.545202132960389330e-01,2.403915401528324350e-02,3.955976357183189906e-02,3.880238788457629636e-04,8.985661971358103095e-06,5.809323875425264654e-06,1.721632102749996295e-03,2.389133852784736806e-03,6.003849431289488836e-03,2.816704815560312075e-02
1.703853559192456402e-01,4.278594363351475444e-02,1.281148356705300896e-02,4.052554995170600210e-04,5.618600654395887869e-06,3.921253304326382188e-06,5.393590939916584857e-03,1.327406002245468640e-02,4.650861925662140746e-03,1.627082264408264561e-02
1.390820552122755405e-01,3.875774408928947534e-02,4.690297135608282458e-02,4.321517736351790069e-04,2.440075914347335413e-06,1.946345302476193148e-06,1.275290413046838676e-02,1.227296451147551898e-02,2.444232951041314886e-03,6.423558358939988194e-04
9.467810062667990356e-02,1.209178659204867418e-02,5.439317134724720726e-02,4.518398280812002308e-04,5.007134105248456189e-07,6.633762283019382650e-08,2.067058028453074361e-02,3.688670028554627209e-03,1.172876753039952744e-02,5.579724714607854977e-03
5.410510775990116927e-02,1.954374355734647684e-02,4.767528002976084700e-02,4.546602222238737569e-04,3.160875491047199873e-06,2.067053792630850407e-06,2.582828737060033353e-02,5.557385918574261549e-03,1.686848448269899839e-02,1.104661425667734578e-02
1.553422152059260458e-02,3.975363892855904996e-02,3.775956519742842965e-02,4.761262710942982157e-04,5.504903849913001884e-06,4.006610305974586266e-06,2.676990039155371578e-02,8.976884755304578509e-03,1.655082833166467496e-02,2.731820754780388966e-02
2.525875264636190040e-03,4.560270779960658855e-02,2.322256838869088749e-02,5.374012512278113001e-04,7.504817767747594976e-06,5.837571234573693155e-06,2.454295813047043667e-02,1.551524107083673831e-03,1.351033627507595633e-02,4.078106991821110749e-02
2.695763651498378488e-02,4.002016255953270291e-02,8.223065868172953555e-04,5.626851576272035504e-04,9.140629308332946844e-06,7.515416421868567311e-06,2.178381307475887180e-02,1.376471994835228203e-02,8.714412103156599088e-03,3.466115783958979152e-02
8.984591203806996385e-02,2.682431480827817197e-02,2.510879812353591228e-02,5.041893822698306380e-04,1.040095748522641685e-05,8.999622611896871682e-06,2.042305593958091900e-02,1.967553415465574107e-02,2.086145997884799718e-03,1.321014285339517508e-02
1.411588012964394845e-01,1.244473704846397327e-02,4.988389477796972837e-02,5.218607423659231501e-04,1.128318277348003973e-05,1.025464068838597453e-05,2.031896478624726707e-02,2.661019059329403080e-03,3.954390096493578220e-03,2.839052762744820324e-03
1.584756784233548321e-01,1.713447310111482387e-04,7.461085932116848229e-02,7.211834264599334713e-04,1.179321410670039729e-05,1.125074549452720155e-05,2.006254405541317218e-02,4.655614214637378290e-02,6.540077222479151464e-03,2.387220433695842053e-03
1.450334181654035215e-01,1.373835906531574794e-02,9.577438843986785244e-02,7.621196356567759263e-04,1.194515687992401084e-05,1.196473795953220449e-05,1.839213903105116690e-02,7.971047539207343213e-02,5.944732401847099314e-03,2.180979435301458325e-02
9.893316096878249088e-02,2.875410931262385034e-02,9.916152520504079027e-02,4.084496422487577218e-04,1.176086300360882957e-05,1.238048299633111707e-05,1.502752200649648713e-02,8.209118197812802220e-02,4.740543178110975461e-03,2.671733799817511967e-02
2.105845652413220609e-02,3.099628838845973691e-02,7.702201619004488131e-02,3.857290416598295772e-04,1.126924636885340866e-05,1.248927076120031750e-05,1.118822325044877171e-02,6.966871079324390981e-02,5.122967925150850865e-03,1.141039789175879102e-03
6.167272052254134385e-02,6.125487283676098009e-03,4.142622064603242171e-02,1.250643816985697694e-03,1.050539667230874608e-05,1.228999327717672933e-05,9.030063383540344948e-03,6.905943333560261854e-02,6.910808104981241637e-03,4.143311338768249780e-02
1.131733821753692221e-01,4.000631040923040282e-02,6.825160582762613594e-03,1.370294085617622349e-03,9.509578176109602680e-06,1.178913300881404928e-05,9.161577478824175363e-03,8.065077662769894185e-02,6.482873735717895568e-03,6.477069728184793596e-02
1.180639135247862903e-01,8.127248819249846545e-02,2.838370771840150950e-02,1.356914886705755992e-03,8.326135753630777166e-06,1.100056462240608196e-05,9.190379067655522066e-03,7.794344556480838071e-02,2.616977917230910297e-04,8.163596242259868463e-02
8.271516217388286130e-02,9.517125453826109915e-02,6.609721148556245429e-02,5.269927580704548455e-03,7.002308827433921221e-06,9.945175758556621380e-06,6.623605367032074295e-03,4.044203093371465801e-02,8.909576984659479601e-03,1.202559654804682826e-01
2.928165147597682275e-02,8.447573319547967141e-02,8.916657655855846076e-02,6.023769286514035586e-03,5.586986658173325522e-06,8.650317070127081501e-06,2.366869525959314040e-03,1.664600042649560380e-02,1.322172345122894777e-02,1.656790677753432472e-01
1.370203515590661704e-03,7.058302299384945633e-02,8.251061004252954745e-02,2.778944569001857556e-03,4.129450903434101324e-06,7.149095930024481938e-06,8.319091665801902138e-04,5.139096416467888589e-02,9.495882978461489543e-03,1.738463189316655222e-01
3.078856904977872455e-02,6.530555535595644612e-02,6.320883022489399983e-02,6.288245601004159666e-04,2.678136812080449020e-06,5.479531989191813689e-06,1.873450007143669799e-03,3.930778964458141872e-02,2.337909290067917163e-03,1.395590396081601292e-01
1.225709485084308797e-01,5.675572897385236515e-02,6.087008645218092845e-02,1.415108714010810103e-03,1.279437884924492179e-06,3.683596074467881230e-06,1.086100208901891228e-03,1.991097677243251762e-03,3.028267886823226684e-03,9.825976086174284529e-02
2.148385274178022664e-01,2.693023890912253984e-02,7.336331220092762173e-02,7.643692681021285913e-04,2.341612445883616185e-08,1.806156679571371625e-06,1.117156198664994186e-03,4.038334007726385178e-02,5.587114429870011778e-03,6.939572092576207218e-02
2.376565225811941851e-01,2.432008760467825256e-02,7.119877830984591704e-02,5.315926835485467600e-04,1.191377674001556686e-06,1.061395449567934979e-07,3.354868011424052675e-03,6.337817962698505392e-02,6.193275289509018143e-03,4.658253291828114151e-02
1.799687937890804001e-01,7.673180008768673566e-02,4.337051939572899445e-02,7.120473261784158146e-04,2.190472346426419136e-06,2.006025405367573843e-06,3.496354022288421237e-03,7.238684500792258447e-02,5.888003165354454248e-03,3.177448446434817664e-02
1.130513413081593171e-01,1.045004423974821434e-01,1.032506452700921763e-02,8.433465290531025685e-04,2.992543149910582728e-06,3.846780187065972408e-06,8.228451851678136994e-04,6.405820281993818144e-02,6.409649645775336753e-03,3.427944226419283452e-02
1.228599787068915261e-01,9.487740350154827418e-02,8.271062786179370768e-03,9.973385955149068754e-04,3.575831812814505102e-06,5.583377304060223645e-06,4.093744172647861140e-03,3.489588753558133666e-02,7.597227202320152618e-03,4.423039469461439999e-02
2.144819277210442965e-01,6.056574289494805891e-02,1.178285027669796411e-02,5.727210205919640003e-04,3.925384511860052658e-06,7.173584416026476161e-06,1.079616599065221470e-02,8.696762446017962389e-03,4.881430369624312031e-03,4.203505062465635878e-02
3.076166482570127370e-01,2.959515179923658673e-02,4.060739540827309861e-03,1.586024765772472023e-03,4.033274842492708053e-06,8.578989165870928510e-06,1.782481686058843412e-02,5.519153396768963771e-02,5.737276498729667294e-03,2.978805569446957985e-02
3.262227755266143281e-01,1.550070538383912198e-02,1.276802263078736718e-02,4.767731814091111242e-03,3.898641958570565824e-06,9.765925657413464060e-06,2.229772723512496446e-02,9.153179178922513093e-02,2.040693302680334636e-02,2.785116492295266338e-02
2.673500647348869275e-01,5.880749547734096146e-03,2.643789133606212066e-02,6.035689402785153652e-03,3.527546298707557667e-06,1.070627936224199878e-05,2.307216062048688190e-02,1.002972180557823029e-01,2.976221998095101434e-02,4.173923494982006988e-02
1.838057635629644082e-01,1.321292267538027795e-02,2.020744807637959647e-02,3.839711710799548986e-03,2.932649829967280611e-06,1.137815125061264765e-05,2.192274033411777123e-02,7.168165547256044601e-02,2.881027390152730155e-02,5.422121876501083404e-02
1.223122732407183194e-01,3.399858312845632086e-02,4.299398171493769988e-03,3.941081539800547285e-04,2.132732284562024718e-06,1.176636550434079685e-05,2.037425441693658731e-02,2.626695367856102595e-02,2.073572570151335781e-02,5.424328146254061428e-02
8.805665042639550244e-02,3.915210123924463964e-02,2.783048064585988413e-02,1.244331211230829048e-03,1.152058969946288347e-06,1.186280909992296291e-05,1.883438083507651267e-02,7.813451867926800645e-03,1.121270540758292911e-02,5.355768731347489153e-02
6.141339205514360911e-02,3.154048320015462314e-02,3.980238243033330792e-02,9.043950876410839553e-04,1.961923414677015043e-08,1.166659574903851032e-05,1.949448678718682451e-02,3.634213582657670749e-02,3.142567776899328046e-03,6.357000944446206114e-02
2.766739700611082001e-02,3.814050748399849811e-02,4.942995973166159490e-02,4.020805936488405070e-04,1.231742350729534117e-06,1.118405104637525494e-05,2.574284090762509955e-02,8.099599678927771329e-02,2.630674613208800958e-03,7.165715211259554573e-02
1.814590201012365386e-02,7.642404906141665732e-02,6.861821404632931221e-02,5.296829649798168258e-04,2.566277601095916166e-06,1.042852009316383578e-05,3.702898843612081881e-02,9.737795172235598484e-02,5.513815657045685256e-03,5.752329173226591180e-02
6.557944566879089776e-02,1.268677443856094378e-01,9.261403645435302423e-02,7.296536917399559265e-04,3.946342911682239442e-06,9.420003229822103264e-06,4.731177958075312440e-02,7.744810667807905391e-02,5.850632740651461744e-03,2.427931386880727987e-02
7.255745459022157340e-02,1.556083486116767167e-01,1.003860042379599027e-01,6.488473933215670782e-04,5.333436810276677338e-06,8.184629715493308455e-06,5.043641389954201665e-02,4.485278768320564990e-02,5.249069454187111836e-03,6.867262330465197587e-03
2.233533332586978143e-03,1.558897177749604679e-01,7.627776221757601172e-02,5.326792431015814951e-04,6.689239390442034520e-06,6.753983133292725013e-06,4.565780972882776956e-02,1.979415865959320217e-02,4.964698213050079342e-03,2.927989072510820898e-02
1.290415545305736988e-01,1.455473716724630384e-01,3.249052945995830471e-02,5.478628304266424699e-04,7.976626567372805795e-06,5.164295882036130123e-06,3.670955010727805501e-02,8.732626608563786447e-03,4.960148389982025133e-03,5.145689379677939601e-02
2.151829678457679862e-01,1.328749349937088098e-01,6.316866030601226822e-04,5.820353857209498161e-04,9.160633235419719624e-06,3.455533251707880483e-06,2.651207729480153930e-02,1.180281253807699202e-02,4.807563130219039485e-03,6.330547343665038351e-02
2.046432199157500464e-01,1.097134449066570483e-01,2.812231922258277231e-03,5.559099986530528781e-04,1.020934120367981370e-05,1.670390195933179411e-06,1.480451687821742954e-02,2.060355117629155547e-02,4.519081806855633834e-03,4.031739051107951360e-02
1.355326193077375230e-01,7.252080172066714681e-02,9.414185651344190650e-03,5.211129940464660250e-04,1.109467018322864955e-05,1.467740515631747508e-07,1.933345279930180106e-03,2.018194498024875744e-02,4.290359144829232474e-03,7.532172061260379754e-03
9.332099377716589206e-02,2.954200733197225384e-02,1.627780386785677297e-02,5.153350073917749210e-04,1.179305302192630036e-05,1.951036965265478530e-06,7.100495731192176321e-03,6.351084253658650404e-03,4.120400434837525119e-03,3.397845433352621181e-02
1.318719439214240396e-01,1.036911716222136542e-02,7.990597561756289380e-03,5.147527188177862664e-04,1.228597974892038388e-05,3.698022026318790233e-06,6.364642824045052029e-03,8.979668679548283641e-03,3.920509511409303767e-03,1.696218863187294937e-02
2.326980841655612309e-01,4.141231803852200855e-02,1.480656224588664666e-02,5.012928182256324010e-04,1.256039870650741532e-05,5.344988969008168546e-06,3.148860518095626584e-03,1.359666712473769565e-02,3.692662180475795100e-03,1.841489411283928068e-02
3.199427436126022761e-01,5.519903884001986505e-02,4.507279242073529424e-02,4.857354279409435835e-04,1.260896700699101739e-05,6.851878219829476780e-06,1.350102168450257115e-02,3.112744895830197971e-03,3.480864850217795219e-03,4.181550752051212128e-02
3.200104095523083614e-01,4.574393158224655809e-02,7.049544184369614663e-02,4.764620686547781851e-04,1.243014664800356646e-05,8.182284036255997603e-06,1.788678741477322393e-02,2.259622377353439487e-02,3.287047720547330541e-03,4.597966919778295053e-02
2.238450813409224027e-01,2.306015014244978262e-02,8.102331271452070660e-02,4.682675885493455111e-04,1.202814674209758457e-05,9.304332736338825210e-06,1.547034363574433143e-02,5.444539356568930261e-02,3.092763259806970751e-03,3.564488654314518917e-02
9.478419177779488780e-02,8.854666020955168776e-03,7.752747122511294275e-02,4.569620815935654477e-04,1.141271635628382343e-05,1.019144486630556827e-05,9.791311769492952455e-03,7.381059225015855485e-02,2.898793420446975615e-03,1.922433052182285704e-02
3.178313384170546388e-03,1.350114694694409985e-02,6.774385447438120711e-02,4.447896679272956796e-04,1.059879630882161583e-05,1.082296311799986004e-05,5.717132291148103659e-03,7.324055221724809495e-02,2.715441335487339593e-03,8.242078556510948339e-03
4.711487303682025674e-02,2.998141998094724231e-02,5.340179854480596455e-02,4.334583495653608794e-04,9.606041834977545416e-06,1.118463120578276945e-05,5.666432195654944395e-03,6.634680283485361318e-02,2.543840850088587967e-03,6.789262760672573442e-03
1.021068463028165924e-01,5.307375277282701254e-02,2.974045073816797280e-02,4.215341996362224767e-04,8.458231221034509219e-06,1.126891265755883028e-05,6.768953037356981520e-03,6.406656942246190256e-02,2.380254657622914508e-03,9.495544707221201600e-03
1.685427994943032304e-01,8.496564457439494122e-02,1.858786403037067771e-03,4.081235775315389586e-04,7.182578238139542431e-06,1.107514247293013278e-05,4.535648709032185158e-03,5.629995578924191363e-02,2.224866238832925482e-03,1.727234642699657097e-02
1.915895227046947591e-01,1.167140377827092235e-01,1.111489363341577885e-02,3.941379737070565235e-04,5.808968419336699506e-06,1.060950875338496854e-05,7.894356286677808171e-04,3.093852222487222109e-02,2.079869655227633250e-03,3.906838470404379315e-02
1.409739046449479116e-01,1.270788322510987833e-01,5.593242706588901977e-04,3.796452793040760846e-04,4.369140863915323199e-06,9.884865611872115166e-06,5.377459430083868057e-03,3.320282604002809494e-03,1.945331695292601935e-03,7.379232677833144627e-02
6.878375866610678124e-02,1.095557108618872288e-01,1.984693198204780240e-02,3.632405250662557993e-04,2.895838288597833584e-06,8.920382818348011428e-06,7.968669876612525030e-03,2.795307084286986765e-02,1.820045239593580388e-03,1.072715729434594589e-01
4.812600522518871438e-02,8.157270704510977133e-02,2.093591967202243498e-02,3.453020604575791777e-04,1.421948457301495037e-06,7.741041631986340232e-06,1.053729540312644403e-02,3.791512630655369254e-02,1.703493594938756614e-03,1.277846081227962116e-01
9.114666709799947031e-02,5.929407336098215658e-02,7.740623473924143714e-04,3.284015070573945822e-04,2.034009068833348066e-08,6.376990012106177989e-06,1.421663741296586361e-02,4.072693257956219726e-02,1.595497721353207610e-03,1.327048393425745154e-01
1.614064404687279852e-01,4.258031180045106917e-02,2.378208639336728755e-02,3.114734048708050042e-04,1.400345914519132376e-06,4.862773797615257604e-06,1.819149297507902802e-02,4.138602713231524094e-02,1.495320776008634374e-03,1.255132375121691679e-01
2.322388231093912014e-01,3.137830520723156047e-02,2.387921967850282004e-02,2.892832782942566594e-04,2.689645444645153381e-06,3.236463416906940743e-06,2.133831230690303241e-02,4.158321644853078813e-02,1.401856102536517407e-03,1.133683944674462180e-01
2.840974951592949993e-01,3.466362973118332358e-02,1.577599916189010784e-04,2.643510387720010893e-04,3.862747878274386709e-06,1.538698165609101599e-06,2.275881414627944216e-02,4.599366619224425773e-02,1.314086814850136484e-03,9.868241151977671932e-02
2.735292954057103598e-01,5.228046009650023918e-02,2.443771444535999468e-02,2.481564856547661588e-04,4.897677816665777768e-06,1.883279901429942567e-07,2.223239162580760431e-02,5.540365322048652202e-02,1.231044682491469521e-03,7.354595118376153207e-02
1.783194690301614371e-01,6.664988909058190691e-02,2.994936448612166291e-02,2.359373119829027293e-04,5.776452056675725007e-06,1.901913806686356360e-06,2.096337075792844076e-02,5.911055167675730720e-02,1.151638013231999881e-03,3.538131345837436381e-02
6.555145648351329291e-02,6.341234298684643444e-02,2.116621589968111644e-02,2.035616445608123284e-04,6.485440057763982769e-06,3.559905382550131636e-06,2.016288548158045105e-02,4.688223945313966384e-02,1.074713613200958904e-03,2.448769415576335443e-03
3.690463216150405290e-02,4.669131976701502984e-02,1.772473923091147027e-02,1.611479125042631169e-04,7.015600941220081322e-06,5.121731987273301651e-06,1.929708903233695247e-02,2.532764908108342192e-02,9.991830956872255632e-04,3.760092733506957899e-03
1.010365577569489609e-01,2.733648273949780549e-02,2.903209234859841642e-02,1.610805394633668772e-04,7.362593346910946488e-06,6.549397674697021039e-06,1.745106729890572028e-02,1.174191940981112944e-02,9.240394417768978130e-04,1.218365510474234484e-02
1.681153271972787022e-01,8.304198941787946722e-03,4.609433231944071174e-02,1.837354983784232219e-04,7.526757978416032420e-06,7.808404472482964405e-06,1.529990460515241041e-02,1.364644148848209552e-02,8.483401158256539173e-04,2.501266736422057269e-02
1.748914577408422766e-01,1.171664730572606616e-02,5.358442218338475838e-02,1.172564011914192279e-04,7.512976114454215771e-06,8.868584746275008337e-06,1.421266789887390761e-02,2.419146518836341742e-02,7.712381985932098474e-04,2.207108079633481046e-02
1.525618454670442103e-01,2.727120298470919746e-02,4.307328721234574692e-02,1.024438561478740800e-06,7.330410660450942836e-06,9.704822686440791869e-06,1.438108353003901031e-02,3.648741299883099393e-02,6.920258930856529322e-04,1.563312671028836698e-02
1.583311080972019391e-01,2.609631491056495223e-02,1.675803964598726603e-02,7.808093943667180313e-05,6.992139371834231874e-06,1.029764769713114950e-05,1.478798371250982305e-02,5.119734685660153051e-02,6.101510102484732599e-04,2.053983880603280077e-02
1.880166019798022170e-01,3.285563232234970862e-03,1.560585932926808993e-02,2.804250445966679378e-04,6.514692620817305035e-06,1.063368570932602222e-05,1.451263910308070969e-02,6.755586242062598668e-02,5.252219486974863240e-04,3.335171112007807859e-02
1.855939156163210479e-01,2.628930445129200322e-02,4.292113881528872993e-02,4.503739444720791102e-05,5.917510431449880297e-06,1.070595800969407077e-05,1.356257494720590137e-02,7.759644273840116124e-02,4.370192415922967573e-04,3.948794930527822072e-02
1.258778898459409490e-01,3.908158380178300417e-02,5.920609355503191062e-02,7.510299661579273797e-04,5.222335415583573719e-06,1.051402098589977667e-05,1.249631005031886025e-02,7.620981484863714739e-02,3.455062104373064508e-04,3.328820566372145406e-02
5.665165754561037742e-02,3.073972435139148141e-02,6.366654309035305048e-02,1.237878200249712410e-03,4.452559660074493304e-06,1.006394414143279343e-05,1.160570340702597042e-02,6.975243361985179746e-02,2.508299097072978203e-04,2.355564258272734371e-02
3.683885236406350683e-02,2.048761738425117912e-02,5.323421827366041359e-02,7.771459896444731690e-04,3.632544512061201999e-06,9.368127731026875554e-06,1.076623515101561221e-02,6.659472492747604833e-02,1.533156449502952963e-04,1.953765702903908705e-02
5.418542069296808372e-02,1.986274998744963147e-02,2.193809195225569775e-02,7.075936456784264828e-06,2.786932568240386183e-06,8.444965312559771031e-06,9.854910116364903536e-03,6.494836348679845772e-02,5.345929052020045738e-05,1.837074415361206886e-02
5.213814646380493523e-02,1.490368002597459302e-02,2.458071298762060444e-02,2.025489955790306601e-04,1.939970994415099169e-06,7.318360306058264749e-06,8.924342524178325783e-03,5.925907058437393515e-02,4.808386224040321556e-05,1.302003510392095095e-02
2.771095413044293715e-02,6.291428137584017914e-03,6.177021676302679037e-02,2.521333142805583444e-05,1.114864596729316981e-06,6.017109202327188164e-06,8.033462299830561315e-03,5.334478617181712123e-02,1.505153522930719845e-04,6.794670493686521401e-03
3.556260003749446563e-02,2.798264736866568070e-02,6.665807286576640178e-02,1.272414574844753753e-04,3.331758637069411600e-07,4.574167286471837472e-06,7.160809913467716149e-03,5.551607973127199724e-02,2.529138062926707142e-04,7.280029505849827665e-03
9.272633944654529170e-02,2.787337050503209401e-02,4.176358230326347037e-02,3.544124438135854858e-05,3.857124604212649087e-07,3.025815557420474251e-06,6.281436645504238220e-03,6.248549618077205853e-02,3.542577910114940104e-04,9.399957613158937270e-03
1.512863871812426819e-01,7.040416509910582370e-03,7.749640863139960027e-03,7.226744666253792052e-06,1.025058772474767778e-06,1.410749866116005126e-06,5.408473899874304859e-03,5.982917582555404012e-02,4.534509977041989784e-04,7.867181948922365164e-05
1.752989130671623874e-01,1.732982456141034244e-02,2.232656312703566043e-02,3.855509852189800950e-05,1.571136880075531870e-06,2.308848930109929274e-07,4.557642089138204400e-03,4.030069186846878954e-02,5.493495687155220243e-04,2.094292635243585887e-02
1.761673441796749451e-01,3.261622247393754226e-02,4.845352799149733186e-02,6.088175431663036646e-05,2.013514716451454045e-06,1.858491462375465800e-06,3.727284332541029414e-03,1.251008094243687488e-02,6.407907637011537715e-04,3.852785000336481774e-02
1.604321161249480099e-01,3.299694890185993906e-02,6.622405759036589790e-02,4.008993550545728176e-05,2.345231930573805533e-06,3.432023057540656493e-06,2.914656793514714718e-03,1.044958822322613126e-02,7.266220687970004416e-04,4.142018458701383909e-02
1.143467980944301854e-01,1.830787816039187652e-02,6.224196416426645145e-02,2.854213653789400659e-05,2.562873747497815463e-06,4.912967614933751181e-06,2.125384412880150335e-03,2.259957586391624085e-02,8.057301090767792374e-04,3.551760332084864108e-02
5.901069650690475565e-02,2.095774614061214104e-03,3.572107071737860157e-02,3.636631149807777652e-05,2.666541480135407027e-06,6.265289287581582737e-06,1.365847941502740465e-03,2.407986836439688499e-02,8.770687668193670634e-04,3.533950202738182778e-02
4.140372350783276534e-02,1.855181131349093945e-02,8.237099689050675355e-03,3.945550012619798388e-05,2.659722997738696178e-06,7.456304199186979733e-06,6.385567083838489515e-04,1.717565446661833278e-02,9.396858071169689620e-04,4.515083384033327651e-02
4.318228252624864427e-02,3.348815125797676567e-02,3.305980246928354530e-03,3.305628548854867794e-05,2.549069236860909547e-06,8.457469201281650633e-06,5.445298491764567761e-05,6.872012042526321265e-03,9.927473334407014693e-04,5.344990658298946762e-02
1.151398678742986473e-02,5.116092949146735375e-02,7.435581192525422822e-03,2.867264098333331831e-05,2.344085401297454269e-06,9.245064627801810193e-06,7.095199035612670749e-04,3.938052974412978302e-04,1.035559507500090695e-03,4.835727607872662703e-02
1.251890267860331363e-01,6.259574413135994553e-02,1.559085889346506840e-02,2.892832099165296085e-05,2.056747769426060217e-06,9.800754748260118737e-06,1.323031460639599718e-03,1.396113210923292328e-03,1.067587043859539097e-03,3.151074030359402034e-02
2.033387810426171838e-01,5.678946673801432699e-02,1.978292636058069653e-02,2.870241874626301037e-05,1.701058950360402212e-06,1.011201271577389629e-05,1.892529456623211030e-03,5.238380274299118088e-03,1.088468041377401059e-03,1.215615027207967054e-02
1.926281507593566866e-01,3.884693037072624311e-02,1.192833565092088315e-02,2.690756584091170164e-05,1.292555954856401147e-06,1.017240021136867387e-05,2.416035326321634615e-03,4.452118705003857077e-03,1.098024797326211093e-03,3.627846780683051300e-03
1.405159023641037175e-01,2.158419660350192545e-02,3.621937131367972910e-03,2.609675015390964443e-05,8.477865352401122682e-07,9.981695615765308192e-06,2.891609636090421067e-03,3.714807877159538672e-04,1.096270358664845320e-03,1.234253153608510373e-02
9.544067100514670721e-02,8.096175198597978934e-03,6.949568666231786471e-03,2.693906853319392842e-05,3.837698757921680006e-07,9.545868303721151416e-06,3.317736181517563516e-03,7.672084878448989353e-04,1.083410668553491359e-03,1.095197428250065629e-02
5.594149400731843191e-02,1.658324793182407858e-03,1.327285680354711901e-02,2.833314646770028104e-05,8.254213061798379738e-08,8.876900460516444518e-06,3.693592721890688602e-03,6.784116612060807176e-03,1.059842264543827675e-03,1.569002569626150832e-03
3.949740564679488780e-02,2.634318340804387391e-03,6.408121041680578389e-03,2.999328596368397535e-05,5.347871004295911310e-07,7.992461571396693233e-06,4.018919028481057060e-03,1.525089899920577079e-02,1.026145588393365506e-03,7.390188319721037631e-03
9.302475376135664609e-02,2.877509540535476071e-02,1.522157512370833979e-02,3.242730348116252929e-05,9.576827249018185798e-07,6.915444340515275775e-06,4.293916856312708294e-03,1.821095941139847657e-02,9.830740728585536225e-04,8.685128462486715883e-03
2.046005635492405828e-01,6.173883147874615479e-02,3.817186961520716015e-02,3.572596661317896507e-05,1.337471736363371704e-06,5.673374168020947195e-06,4.519321972743833155e-03,1.989153737873411432e-02,9.315392696705136755e-04,2.163026360264472953e-03
2.894277911515077406e-01,7.552208986934012824e-02,4.826997031253237036e-02,3.956053895169846300e-05,1.662308916259478696e-06,4.297707370446284511e-06,4.696446214129896927e-03,2.784837914213979596e-02,8.725923732340980839e-04,7.537628832131063050e-03
2.876388747721098094e-01,6.374713563333794797e-02,4.313926927440206449e-02,4.375279229127084288e-05,1.922579711396382420e-06,2.823035996699923269e-06,4.827121666043585058e-03,4.055986786780223924e-02,8.074025771517441812e-04,1.595001722039194117e-02
2.226442141785275330e-01,4.361618204295497625e-02,3.545305497512712956e-02,4.828747286626855538e-05,2.111142227935134507e-06,1.286219305927877695e-06,4.913641326853518919e-03,4.928231288074833016e-02,7.372327734594056724e-04,2.009427403105320739e-02
1.560963428803830988e-01,3.036239535183270222e-02,4.155370149973799249e-02,5.305092968857186991e-05,2.223486786706754658e-06,2.745363180525519419e-07,4.958730185239707856e-03,4.906553701261386069e-02,6.634131645163236996e-04,1.758188445507099726e-02
1.167709990471831882e-01,2.073431448091361470e-02,6.071318022234666045e-02,5.782834542372444363e-05,2.257809775981835908e-06,1.820626077751088283e-06,4.965504288163534626e-03,4.225284719007067064e-02,5.873134035211768737e-04,7.749983405895550896e-03
8.151110423440649511e-02,3.906320005484794494e-03,6.945965647003858601e-02,6.243305407628494373e-05,2.215001153309785593e-06,3.314000568286542245e-06,4.937403066609025518e-03,3.374252596137061744e-02,5.103139112537817199e-04,6.135662466982224651e-03
2.368956500376627819e-02,2.088473393635301850e-02,4.737708962436008864e-02,6.671689018283024307e-05,2.098547549709082102e-06,4.718101139579372003e-06,4.878116561432933179e-03,2.681499299381053317e-02,4.337770331967050327e-04,1.817502824366514988e-02
3.897858209163072157e-02,4.385779853296811054e-02,6.355793814495877200e-03,7.051753176138898023e-05,1.914355441679233897e-06,5.998753846149851703e-06,4.791516903799412919e-03,2.194449415887354121e-02,3.590187020846746422e-04,2.457184971717826447e-02
7.318874314406421944e-02,5.795020831143632423e-02,2.076928145825896951e-02,7.366085673175648389e-05,1.670501206778893452e-06,7.125000150653579394e-06,4.681586400287544164e-03,1.804912938641302020e-02,2.872812562285619845e-04,2.648790028394037294e-02
7.949860581121270808e-02,6.420763997240186427e-02,1.903464739033621650e-02,7.599332789684319764e-05,1.376916999695769635e-06,8.069844214365047368e-06,4.552340237555702745e-03,1.528408684796667139e-02,2.197080342281795807e-04,2.802550020946082548e-02
7.099739580660734128e-02,6.305068826434256923e-02,1.297668125039644522e-03,7.738861934552755315e-05,1.045023217788571362e-06,8.810898763834550709e-06,4.407749909981794646e-03,1.485217900335743593e-02,1.573203226999506012e-04,3.139730324794958588e-02
3.681852467668123019e-02,4.962243059199167999e-02,1.622582090525404031e-02,7.773929155593135713e-05,6.873198167905096551e-07,9.330914112347084714e-06,4.251670914549098707e-03,1.522187318043652024e-02,1.009971764401271525e-04,3.366914806558271578e-02
2.782910588826605428e-02,2.345244796703737505e-02,2.638608783935899801e-02,7.695957438346509984e-05,3.169498477349612935e-07,9.618177871650805447e-06,4.087774371295958137e-03,1.284759726808248383e-02,5.145856142314096248e-05,2.988855925378775674e-02
8.683615040020634113e-02,3.326411568195472481e-03,2.269377256692198599e-02,7.499434151904316897e-05,5.275071446226170797e-08,9.666776139011248894e-06,3.919483251713602734e-03,8.939311401498083176e-03,9.252191896560665874e-06,2.104448108613173052e-02
9.776886290818068148e-02,1.422108636065885084e-02,2.085637842176494769e-03,7.182186545923281912e-05,4.087025094921178269e-07,9.476710405442309370e-06,3.749915547065297509e-03,9.731014838802872283e-03,2.525565452576598500e-05,1.514740224823180742e-02
6.275254637555421899e-02,4.551391865917698773e-03,2.309150528335343622e-02,6.745238449067098149e-05,7.385175186131421841e-07,9.053868016612996749e-06,3.581836016014509731e-03,1.633715945389389163e-02,5.188515339206204130e-05,1.668697155932798853e-02
2.044464608427809527e-02,1.380826215149399787e-02,3.341810118309779254e-02,6.192823219041990678e-05,1.030905389992028167e-06,8.409847639426143177e-06,3.417617092241795763e-03,2.046520367634700049e-02,7.064368865991225250e-05,1.943976351237236208e-02
2.404459963248546314e-03,2.513521206566396091e-02,2.307889629004448648e-02,5.532459852569557258e-05,1.276038766643505284e-06,7.561644755158472648e-06,3.259209528981153042e-03,1.457672745719592634e-02,8.172235290310580070e-05,1.450045265455624649e-02
1.591654935547574118e-02,2.548532179518772645e-02,1.232230795421719767e-03,4.774820592909161370e-05,1.465866389540388346e-06,6.531205626640733108e-06,3.108123509093391103e-03,1.874988716328449857e-03,8.548829721655436557e-05,1.694422995664599495e-03
4.824654211930377856e-02,2.348761280807822732e-02,2.151184959661390020e-02,3.933432833927638097e-05,1.594364448314367735e-06,5.344861388452647178e-06,2.965420588650717441e-03,6.759627385048878889e-03,8.247313113122090728e-05,1.097943527610316383e-02
1.085230779231574211e-01,2.636789457560339764e-02,3.580115640575534663e-02,3.024349315741362975e-05,1.657718631260829139e-06,4.032656807681667623e-06,2.831716390620321860e-03,3.434779391657427627e-03,7.335766329842357441e-05,1.638584818427186660e-02
1.622852117480904077e-01,2.815809724887617313e-02,3.025953666245378634e-02,2.065778062282949516e-05,1.654431525067032174e-06,2.627590788463322878e-06,2.707193750464615897e-03,9.923081489678572259e-03,5.895335695229332845e-05,1.413778919444176781e-02
1.496631132646635831e-01,1.520263760542636330e-02,1.140047080678664206e-03,1.077622402532974364e-05,1.585352366553037868e-06,1.164787785832454347e-06,2.591625854483711831e-03,2.418536937620507574e-02,4.018094831805804406e-05,8.862175857607498819e-03
4.907709443413117018e-02,1.600941901303529549e-02,3.703181080862814195e-02,8.095065219513203651e-07,1.453628583200336814e-06,3.193790961018442189e-07,2.484408657591927107e-03,3.189534351925365357e-02,1.804673953140118094e-05,3.512856188451079359e-03
8.486525815322785993e-02,5.140249976825334716e-02,6.230664361735516882e-02,9.025623090752228086e-06,1.264581003542553134e-06,1.788191457314063635e-06,2.384601609481544742e-03,3.263677454011987972e-02,6.382871142722703803e-06,4.191067241965596574e-03
1.710354851270776966e-01,7.251940013658457473e-02,6.577356052860203195e-02,1.851209408959842562e-05,1.025506999665412826e-06,3.205492997156059003e-06,2.290975535228337995e-03,2.981746945896219386e-02,3.200802107881532471e-05,1.582192511311091010e-02
1.759359939063287748e-01,7.190417098302646914e-02,5.396775625730770160e-02,2.743839020196646553e-05,7.454180711373866308e-07,4.536578552996675741e-06,2.202066380208189070e-03,2.507342794763801896e-02,5.772255251808815343e-05,2.521332891382168512e-02
1.199304986457047917e-01,5.298875434460870171e-02,3.528605837893394881e-02,3.560438314622730346e-05,4.347204257079459790e-07,5.749042946117464908e-06,2.116233407008350983e-03,1.796620094518772831e-02,8.244108549708929951e-05,2.371663410459023610e-02
3.581593334939862927e-02,2.268775556059097337e-02,1.308511618738190940e-02,4.282689898620120866e-05,1.048488960550324929e-07,6.813568897199473309e-06,2.031720328535244029e-03,9.550561659035065182e-03,1.051253662198840561e-04,1.158969581340389167e-02
5.181733334131688462e-02,9.786637744140881667e-03,9.067436405851107828e-03,4.894486573577568853e-05,2.321339995607352310e-07,7.704634878194297067e-06,1.946717798342589671e-03,2.825064862436390059e-03,1.248092826413368798e-04,2.135717204984327339e-03
1.177339686273985719e-01,3.171252157551456702e-02,2.329271324940526688e-02,5.382392454618311803e-05,5.639609357158979326e-07,8.401125835839830342e-06,1.859425683678792018e-03,1.303056213538322794e-03,1.406219730444084289e-04,1.119428843475393093e-02
1.293438275762245904e-01,3.244394466773907471e-02,2.376772331911911409e-02,5.736036940973546688e-05,8.785909640682833335e-07,8.886832201288481217e-06,1.768113604378189615e-03,5.619472070394144862e-03,1.518085005433323623e-04,1.795881675532241470e-02
6.530533109110214784e-02,1.248994349578774234e-02,1.652169285147250116e-02,5.948428622828910532e-05,1.164635068884379035e-06,9.150825427124246742e-06,1.671178259400413636e-03,1.202396751492589358e-02,1.577476255718655417e-04,2.554769327424243064e-02
5.153336699676833166e-02,1.566704162175973011e-02,1.451452517111588569e-02,6.016179748086440801e-05,1.411762282807400438e-06,9.187701396056938949e-06,1.567196096285000239e-03,1.754943572050714565e-02,1.579662780957671430e-04,2.837173137385723409e-02
1.547713931356859696e-01,3.885211772660484425e-02,1.750629472442047016e-02,5.939634801708231382e-05,1.611073097504017053e-06,8.997686346934000861e-06,1.454970062465937245e-03,1.747681854038191790e-02,1.521504098592563008e-04,1.767217436686535983e-02
1.865664872722908041e-01,5.383847130219999999e-02,8.324768222089209621e-03,5.722898655206736277e-05,1.755427856676293758e-06,8.586603381020083538e-06,1.333569484232631584e-03,1.120296390606085463e-02,1.401519925777147972e-04,3.467617431404036287e-03
1.428740480592000095e-01,6.283654564909767204e-02,2.096659294035278440e-02,5.373762191229868853e-05,1.839719151930555110e-06,7.965701059918761764e-06,1.202362203170616621e-03,2.843283323631634347e-03,1.219920186117772062e-04,2.088668706011477527e-02
6.088665430870971590e-02,6.245934178225423516e-02,5.320043368760709462e-02,4.903526410128534308e-05,1.861078916900930102e-06,7.151349000854255083e-06,1.061037994387984632e-03,3.312046608792982086e-03,9.785945418387105392e-05,2.889372131722166281e-02
2.041319901022893568e-02,4.724247615210810242e-02,6.831783297319339587e-02,4.326728943034835153e-05,1.819012883404827443e-06,6.164608631842397870e-06,9.096227223036063708e-04,5.771146228230871270e-03,6.810618945343784318e-05,3.688539614128327065e-02
7.787360606764905102e-02,2.313275757309475947e-02,6.707024193532638845e-02,3.660779457656809929e-05,1.715457268026658800e-06,5.030690308898114920e-06,7.484835917070122545e-04,4.532977268358488743e-03,3.323812257147793338e-05,5.046507841222383495e-02
1.020529093240770124e-01,5.733232962901848098e-03,6.135712181732209947e-02,2.925512931021547616e-05,1.554754933971767889e-06,3.778310745934193284e-06,5.783256531840129302e-04,5.281871598570400976e-04,6.097395947322015742e-06,5.948576867425390408e-02
9.618269659368350322e-02,2.174316339647248617e-03,5.455667725724467482e-02,2.142672156697997209e-05,1.343550751549464034e-06,2.438967099026423239e-06,4.001785056588981113e-04,8.807627514068305449e-03,4.912744860900887392e-05,5.311744573142420517e-02
7.755968405472417337e-02,3.116195262050769094e-03,4.246942519004997391e-02,1.335332921572014943e-05,1.090608388122320371e-06,1.046146023010169908e-06,2.153732444578464753e-04,1.791521837107203433e-02,9.497238010175403837e-05,3.514432283987065087e-02
7.249254822590114888e-02,3.238470833410293705e-03,2.443633809409726312e-02,5.272869465065036498e-06,8.065532204255986527e-07,3.655124668082177093e-07,2.551302397399256164e-05,2.443208396164636004e-02,1.426671174563875198e-04,1.632414722311936392e-02
9.735170527268538487e-02,1.452820034136421273e-02,4.675243375255169753e-03,2.576010347167033135e-06,5.035484053253272137e-07,1.761075476827122529e-06,1.675610124755586082e-04,2.540287477678417408e-02,1.911844723860116324e-04,9.721870453179334414e-04
1.346311072016015964e-01,1.801929322098110714e-02,1.267605998330888564e-02,9.960448083461847677e-06,1.949132988655031777e-07,3.106180711316149989e-06,3.618132107543991214e-04,1.990406423601366950e-02,2.394598729446217249e-04,1.161303374015825590e-02
1.389454285400352762e-01,1.038270251653836650e-02,2.553306927223028891e-02,1.665979167765910547e-05,1.053046875735420543e-07,4.367881622889707071e-06,5.550672452898642835e-04,1.063595842331607928e-02,2.864169405713610887e-04,1.982028113601517691e-02
8.518050995912719581e-02,4.139441762271602390e-03,3.454725143878776411e-02,2.247175777558634794e-05,3.827921194843003643e-07,5.515453473625106143e-06,7.450567711856518130e-04,3.280788169033921602e-03,3.309933111424134496e-04,2.160499798936764068e-02
1.708032924960563390e-03,8.249599804716950882e-03,4.317303266216243607e-02,2.721815391326408765e-05,6.234515626265435899e-07,6.521140608737815720e-06,9.294667518692577117e-04,2.189334239902232006e-03,3.721660951822812198e-04,2.006693571206617788e-02
6.498841142124568704e-02,1.285817087291100773e-02,5.284608779285200619e-02,3.075000413373847889e-05,8.138888803848278776e-07,7.360826791110025546e-06,1.105990213948863671e-03,6.094630453491305458e-03,4.089763829132722931e-04,2.118637211851133462e-02
1.049502100555725626e-01,4.732136652879785459e-03,5.762727646923184593e-02,3.295193251276610548e-05,9.418906986438881518e-07,8.014612431689546000e-06,1.272409986709264378e-03,9.152587822231533082e-03,4.405522240476074857e-04,2.715731620035705118e-02
1.363531387593531763e-01,1.153536199666932438e-02,4.930349280233876225e-02,3.374567772864721279e-05,9.968769892486052288e-07,8.467284926696655770e-06,1.426648553426680763e-03,6.885787037434381100e-03,4.661295495383832458e-04,3.457857636610183610e-02
1.588422751846818026e-01,2.001003229354803709e-02,3.023745148323168236e-02,3.309263406786092066e-05,9.703142304496756069e-07,8.708671017207568333e-06,1.566759896835673467e-03,4.978827735166058577e-04,4.850705519933400773e-04,3.801182104903708808e-02
1.500249589980180154e-01,1.316979836890918784e-02,1.453265081326165012e-02,3.099533952965048580e-05,8.560755499678772062e-07,8.733863051715337370e-06,1.690980036853697958e-03,4.835743337765582850e-03,4.968791019327835953e-04,3.483164971720252578e-02
9.993129762017771700e-02,3.918563543345213347e-03,9.220002958311587782e-03,2.749785934241298857e-05,6.507356206856183345e-07,8.543314183293704758e-06,1.797891245651548828e-03,5.143499189604250864e-03,5.012128471063292132e-04,2.734975403367415764e-02
2.453672383604405677e-02,2.116599691532901339e-02,2.574815457239477447e-04,2.268504251377719764e-05,3.537898254546340230e-07,8.142800791369063479e-06,1.886448647245273207e-03,1.225686963370544065e-03,4.978917200250050938e-04,1.888742678851163329e-02
4.584646779159914226e-02,2.908293030589361589e-02,2.904148718888858657e-02,1.668065922385044417e-05,3.221071033910117333e-08,7.543253702932423431e-06,1.955742128694901421e-03,2.843289511786121875e-03,4.869026628932037024e-04,9.153560138620559297e-03
8.162217610822453118e-02,2.393125180710104632e-02,6.887627500666496094e-02,9.644457132761177347e-06,5.016142585816120404e-07,6.760463018121270770e-06,2.005024313465055778e-03,5.322790367911810379e-03,4.684004672839334996e-04,2.053766214275178602e-03
7.542783399991391524e-02,1.136354412573041886e-02,9.053046676126713654e-02,1.768204201853613292e-06,1.045717265656040836e-06,5.814664441034102041e-06,2.034287770060141595e-03,8.591863456158829390e-03,4.427047161483399929e-04,9.448852658315371605e-03
5.361827568321109877e-02,1.433790633963302752e-03,8.249751581906615561e-02,6.729186374486593113e-06,1.652907515291347710e-06,4.730017902665093194e-06,2.044263892238572678e-03,1.286186752627254716e-02,4.102929060037606565e-04,7.879999616313507552e-03
4.729372226111559080e-02,3.260340610014068365e-04,6.050625195941808365e-02,1.560732782783108574e-05,2.308899643596143599e-06,3.533991868759207174e-06,2.035208426363383557e-03,1.277158022421513196e-02,3.717899153283234725e-04,7.266826560785289400e-04
5.353991873819921588e-02,4.276754639408150357e-03,4.223397670289526229e-02,2.461068407065425813e-05,2.997058206090388449e-06,2.256668988228903962e-06,2.006864911543827096e-03,5.188818376056151919e-03,3.279540692838269237e-04,5.252878956606795401e-03
4.542779518975233188e-02,9.494688307478193340e-03,2.990145235779365779e-02,3.347538349484097261e-05,3.698800824882499572e-06,9.299906033504521479e-07,1.961025013461935047e-03,4.794595726374862622e-03,2.796601289726726456e-04,1.053350540218660203e-02
1.617814701629596494e-02,1.126615105910652032e-02,1.828065484505462385e-02,4.193634438507647929e-05,4.394071445969982810e-06,4.130409328565431593e-07,1.901616946561356060e-03,1.093012493876461579e-02,2.278796037335843164e-04,1.857316879914554936e-02
8.512580078269754019e-03,1.136316146635686121e-02,4.683464730850062790e-03,4.973452375939727785e-05,5.061871486364125792e-06,1.739182236897026259e-06,1.829160903728498750e-03,1.358191269520666287e-02,1.736588459036552106e-04,2.300572726907194887e-02
3.824971997757643360e-03,1.462139141909812520e-02,1.118067284252700216e-02,5.662409612380273663e-05,5.680834716591962563e-06,3.015770823369396712e-06,1.740336212561837152e-03,1.600261822173542833e-02,1.180954376498073450e-04,1.230377611360271121e-02
2.712760541386388669e-02,2.210227210518734761e-02,2.667773473778920976e-02,6.237936842351723282e-05,6.229830166196327415e-06,4.211528682736182490e-06,1.639694077764119063e-03,1.767253380845638239e-02,6.231341778040841060e-05,1.091146365011359289e-02
6.697362200740743232e-02,3.096190509054081927e-02,3.461035980457397021e-02,6.680124244306995978e-05,6.688576208276084345e-06,5.297327760210486829e-06,1.540755743185884350e-03,1.525925205428258109e-02,7.437922042167054051e-06,2.882650718153638436e-02
1.097556669345986641e-01,4.031956498840100905e-02,3.052897764865143693e-02,6.972304596658424080e-05,7.038248312555696528e-06,6.246898623456451704e-06,1.440883746418925807e-03,7.595660778804702758e-03,4.543017726332252749e-05,2.993905127134645003e-02
1.578622612194348351e-01,5.139366950579469379e-02,2.113912577833825315e-02,7.101556893815338120e-05,7.262062780941662177e-06,7.037465099479272087e-06,1.318129535039822475e-03,2.476420667635335481e-03,9.523904769152862415e-05,1.917392583587913465e-02
1.958222484964802779e-01,6.086286998661050857e-02,1.797700822632977355e-02,7.059116030813154482e-05,7.345819107451952216e-06,7.650289571628304279e-06,1.184662121235162272e-03,1.018064846856300658e-02,1.410095190746302207e-04,5.728090500498163665e-03
1.854044514322750470e-01,6.057165089325933227e-02,2.404178700878788211e-02,6.840676473982227127e-05,7.278384434164200434e-06,8.071115906902612283e-06,1.094744456538072896e-03,1.258885436969660841e-02,1.818570096370560225e-04,5.583027979025321705e-03
1.091220605290560697e-01,4.909987072839418903e-02,3.267116376004340628e-02,6.446580529624135279e-05,7.052104890608430067e-06,8.290499573713909552e-06,1.030678108876161275e-03,1.088247547385752870e-02,2.170112536133266554e-04,1.051750081864266315e-02
1.404036916355796971e-02,3.889569268207872244e-02,3.746966351899995440e-02,5.881884794518905837e-05,6.663130376115999326e-06,8.304017345519838683e-06,8.825132626314204348e-04,7.778489271323374768e-03,2.458333797514848044e-04,6.628748310067820657e-03
2.411216161527034163e-02,4.319747437818859809e-02,3.791470955321885744e-02,5.156301544989645605e-05,6.111641530069306509e-06,8.112351995139710530e-06,6.909538256435143961e-04,3.761323875295078615e-03,2.678299519108863513e-04,2.991552004622188778e-04
9.709560896078734543e-03,5.764855663766407096e-02,3.652794238094153600e-02,4.284015112934189330e-05,5.401970178613846618e-06,7.721250492991357689e-06,6.998139603719223710e-04,9.996168426161244902e-04,2.826636535960593824e-04,2.146074334697386544e-03
5.192329640419660053e-02,6.346935627481922748e-02,3.525865262013574974e-02,3.283376621575736154e-05,4.542607382221929643e-06,7.141357352740322274e-06,8.424228642932859263e-04,3.728591238795692271e-03,2.901603760698760054e-04,7.087928490695743870e-04
4.445188000908451009e-02,4.909016336453434631e-02,3.495272483928645035e-02,2.176483722869932598e-05,3.546096261454667922e-06,6.387927842558194984e-06,5.575271357735348205e-04,3.297598516890771179e-03,2.903125528607613842e-04,3.934683237635115162e-03
7.927697156342250820e-04,2.242927972708169335e-02,3.501680467515110029e-02,9.886551053303312895e-06,2.428809966142229416e-06,5.480428723709234431e-06,2.780345256494817069e-04,3.786801788589519435e-03,2.832786701029544967e-04,1.197354069094091686e-02
3.381668134284744609e-02,1.772940010463836154e-04,3.291403046833031587e-02,2.521875586044924619e-06,1.210618388842877721e-06,4.442036918483602742e-06,7.963897777791097751e-04,8.230148735976886704e-03,2.693789702342973312e-04,1.768615416815596739e-02
5.521371266179018328e-02,1.061981393920820305e-02,2.698887743278530205e-02,1.516214961395518840e-05,8.554958288014392923e-08,3.299048979889618792e-06,3.578694978317552831e-04,1.339678017384093693e-02,2.490874541020216600e-04,1.879259296322121839e-02
8.964766015203973204e-02,1.478071249808074125e-02,2.045467303895697614e-02,2.772445322901002793e-05,1.434238418961574025e-06,2.080216376301359617e-06,4.037114905465051203e-04,1.531740079151030706e-02,2.230203714899475981e-04,1.922850091922855692e-02
1.231511450827837695e-01,1.401829827750941670e-02,1.925197366210322156e-02,3.989540105318637814e-05,2.808080205155269542e-06,8.160233641437756349e-07,6.151475461748861584e-04,1.423539005214171684e-02,1.919214705394335153e-04,1.985301914449772928e-02
1.012729671737509773e-01,9.105971681555710337e-04,2.465527305177880532e-02,5.136619731245610352e-05,4.178475567636860235e-06,4.620744409566710062e-07,3.884411540216124161e-04,1.082782413270463005e-02,1.566443506569884989e-04,1.678277837717776638e-02
1.889413287572159345e-02,2.434972073407857401e-02,3.043919667324525291e-02,6.184077996052393244e-05,5.516323861289304178e-06,1.722431800334251235e-06,2.915223107128724284e-04,4.242912038624153080e-03,1.181323295974939916e-04,9.026450277572862363e-03
4.473736222787095401e-02,4.100653957599968702e-02,2.860012223723977509e-02,7.104373660509428004e-05,6.792783499706750701e-06,2.933996490966437449e-06,4.133831721301480487e-04,3.511026127391373916e-03,7.739629198349567930e-05,7.251919284737837808e-04
2.428972360348436929e-02,2.749933237176816966e-02,1.710651763373136763e-02,7.872778071110590487e-05,7.980042084170600505e-06,4.067073512432608568e-06,4.979673219973723263e-04,7.980290436986461899e-03,3.549103228800154643e-05,5.152862167079633356e-03
4.221569769690231011e-02,8.849350666268190543e-03,2.277137184152757537e-03,8.468058579069132692e-05,9.052075308628730445e-06,5.094052075554327974e-06,4.571804917878558375e-04,9.001171625048666122e-03,6.509360760703215065e-06,9.706232722623270651e-03
7.877865667065375721e-02,4.025353997854108634e-02,6.262625370432964647e-03,8.873078992114406534e-05,9.985373505778169235e-06,5.990077595091411563e-06,4.255012457593381229e-04,1.067512513375035166e-02,4.753651005821295797e-05,1.379440200740188541e-02
8.305979105350530523e-02,5.604760091654784060e-02,4.442953835577386282e-03,9.075300264393382200e-05,1.075961516816623386e-05,6.733652352061598311e-06,5.230315048535016421e-04,1.364052325706236954e-02,8.655256972436030686e-05,1.611724012447098703e-02
1.002282208912020911e-01,6.944263209712847607e-02,2.291254616194618281e-03,9.067167069942813802e-05,1.135826782441689047e-05,7.307150330982338971e-06,6.472838618432958562e-04,1.388754988167410775e-02,1.225742868324068886e-04,1.654356790645038558e-02
1.261493312942581213e-01,8.539728313882788413e-02,5.321771065628524630e-03,8.846368751673842868e-05,1.176909825513530401e-05,7.697233926297623031e-06,5.673977028584410200e-04,1.046312878655120994e-02,1.546957517544414885e-04,1.681674935461054121e-02
1.203347684589369526e-01,8.827266440293464467e-02,1.460204593021717772e-03,8.415966303140246451e-05,1.198457616116246158e-05,7.895162694747095562e-06,4.061943829426946113e-04,8.189774814562837679e-03,1.821093143707847083e-04,1.740897028686337611e-02
8.751496259249395837e-02,6.884538932542703937e-02,7.009014814685410322e-03,7.784380450942749428e-05,1.200215799893606918e-05,7.896987043771313769e-06,6.518671346075025378e-04,1.020060751098796938e-02,2.041241861149175035e-04,1.721256557638807874e-02
6.966047011063045136e-02,4.241382166178369467e-02,1.728611709888814435e-02,6.965239510247037027e-05,1.182444071010351452e-05,7.703622622131322644e-06,1.071060871111425596e-03,1.262230761948649263e-02,2.201823015230263282e-04,1.606791455361400445e-02
7.069457044463738071e-02,3.033375053159287696e-02,2.776555543051679661e-02,5.977089379349934838e-05,1.145917842001117192e-05,7.320804145955491667e-06,2.997609232967977846e-04,1.063998624461526786e-02,2.298710763900027306e-04,1.465460797182457225e-02
5.084179103725211535e-02,3.523765760369491906e-02,3.813920074590164411e-02,4.842971648698773414e-05,1.091915877734797243e-05,6.758920377705994662e-06,2.132794509268611145e-03,6.218654150708439327e-03,2.329327713421148127e-04,1.245201618783371537e-02
2.668934871769617842e-03,4.273051983003893495e-02,4.935177065733195589e-02,3.589879254787400951e-05,1.022193936079245180e-05,6.032734903298895845e-06,4.124071585114914840e-03,4.445076306773776582e-03,2.292702479735848409e-04,8.240442505237234594e-03
4.561540957711181926e-02,4.270906937930448594e-02,6.022857120739762149e-02,2.248102482793796103e-05,9.389448386846181065e-06,5.161000151773814178e-06,3.359358449538993058e-03,5.025695244367869852e-03,2.189489878631038235e-04,2.507853115302027900e-03
3.535733434939348357e-02,4.018408787432713875e-02,6.517519138986516136e-02,8.504812756781681370e-06,8.447457714613588694e-06,4.165974703957382535e-06,7.092115334684314949e-04,4.001400523865159160e-03,2.021953308810996847e-04,2.184107198466529905e-03
8.626578726080776430e-03,4.262977246405896814e-02,5.913129009502512967e-02,5.684176963227429309e-06,7.424939759035714051e-06,3.072856278153209043e-06,9.950497869687083188e-04,1.811666315756722823e-03,1.793909762480325025e-04,3.643644313076878360e-03
2.863318512320606191e-02,4.523822052608358207e-02,4.404992002535055434e-02,1.973178889817326978e-05,6.353323291795420381e-06,1.909144805406897549e-06,8.539274235196987880e-04,2.272606453749359198e-03,1.510638758160859417e-04,2.189274926844934736e-03
3.157220260575608044e-03,3.814131946627904307e-02,2.825666012290085904e-02,3.328448419899951416e-05,5.265666125801148412e-06,7.039516658215542542e-07,2.804840883637698670e-04,4.663384086245082709e-03,1.178757320538889624e-04,2.031303553214785541e-04
2.735600430417499049e-02,2.260870382683905638e-02,1.933769894571055192e-02,4.599853258480512405e-05,4.195765261538803380e-06,5.127275885285461220e-07,2.695993787046701944e-04,4.035963001867943351e-03,8.060639131813393673e-05,2.184712656138780140e-03
1.615211075775364880e-02,7.839387978445595123e-03,1.754040391993953729e-02,5.754905158690637148e-05,3.177227161813766153e-06,1.710758878406090366e-06,4.415613199009674607e-04,1.028663977211533020e-03,4.013549441131992335e-05,3.452319359505449416e-03
2.796799234508887469e-02,3.451904510898461988e-03,1.628418968040994119e-02,6.763866936333010906e-05,2.242522343248368240e-06,2.860615096295310308e-06,3.577765590480487643e-04,6.881172032223389391e-03,2.578190481578066771e-06,3.803078242724662085e-03
5.503700575719871341e-02,1.306902826740690207e-02,9.430611691556898754e-03,7.600558313366035203e-05,1.422049341880236900e-06,3.934103036891007250e-06,1.809097030047859887e-04,1.007935019289043534e-02,4.651927405586119522e-05,3.236901681086785856e-03
3.389189968969503336e-02,1.798666199293273704e-02,2.875811220872073488e-03,8.243076753044380547e-05,7.432333083228682612e-07,4.905053882632910693e-06,1.167077662557034661e-04,9.488383370149539031e-03,9.063957058365460829e-05,2.388575020158856775e-03
2.837478330953029440e-02,1.704977338444694027e-02,1.539894373643003328e-02,8.674413058381917044e-05,2.296840769205226292e-07,5.749960352768986662e-06,9.580569316163466652e-05,4.835222191801514906e-03,1.338826898891949961e-04,1.833680375063451076e-03
1.037122696948103995e-01,1.756178097255989279e-02,2.305385292737273384e-02,8.882950703861018052e-05,9.956249779947679002e-08,6.448545022218633832e-06,2.640592730849748135e-05,2.652201574364343277e-03,1.752088277100221519e-04,1.499692589130305689e-03
1.497058134790856254e-01,2.159254114026376570e-02,2.467653424585784794e-02,8.862835825788046673e-05,2.306979848260986475e-07,6.984246090578583735e-06,6.220294753996909306e-05,9.534933660149728929e-03,2.136191808737658777e-04,1.190085942375497530e-03
1.296166508535521733e-01,1.765229478432887161e-02,2.312815263355859699e-02,8.614193617773083743e-05,1.556701777394994913e-07,7.344608986382012007e-06,1.317688503710007101e-04,1.311718627953440720e-02,2.481794222138980770e-04,9.938730707890080542e-04
5.404516559188758673e-02,1.539957236064821555e-03,2.263957904325216916e-02,8.143180794588209979e-05,1.274293662018197080e-07,7.521574573639147448e-06,1.851152400794404507e-04,1.377740882654606043e-02,2.780416916230534006e-04,8.917234100326755378e-04
2.927706460751271222e-02,2.532321397339625316e-02,2.468669683527698056e-02,7.461898947871705671e-05,6.141325340101541660e-07,7.511657326615171236e-06,2.231356179804919041e-04,1.236671700941723885e-02,3.024645936134407473e-04,6.744367915159212110e-04
9.404234941448740004e-02,3.816782186156453260e-02,2.540112276581499642e-02,6.588176544451990332e-05,1.293525940055633394e-06,7.316009589513154451e-06,2.607889222019208093e-04,7.969311409171926999e-03,3.208307374492217813e-04,5.548119836554790078e-04
1.395822529082151875e-01,3.495711900077332068e-02,2.025452149933404389e-02,5.545164025501439227e-05,2.148350779489453658e-06,6.940370871546310389e-06,3.296436306228767415e-04,1.194163684506220624e-03,3.326614122962532824e-04,9.765551012189288994e-04
1.522990096470304422e-01,2.002144636660748225e-02,1.295067446879352366e-02,4.360733714472536356e-05,3.155272006822241121e-06,6.394903974392497894e-06,3.847435691665928160e-04,3.571866113170917879e-03,3.376280556164210555e-04,1.350484204780837789e-03
1.248264541458258409e-01,3.450779114525358987e-03,1.288117971791023254e-02,3.066824961840736348e-05,4.285314567317638499e-06,5.693922537830334261e-06,3.381265489950289159e-04,3.212891654835021114e-03,3.355602467174967937e-04,3.409080884624967776e-04
9.013322535967302485e-02,2.532952353026466340e-03,1.981834385548116723e-02,1.698789802136463914e-05,5.504458647969521541e-06,4.855517251813047800e-06,2.869687904845910544e-04,2.527915168719277851e-04,3.264500372738995092e-04,1.647550613443407629e-03
7.372190072914086567e-02,3.246367186288260428e-03,2.069508528983970974e-02,2.944856853472402596e-06,6.774378496213613894e-06,3.901090454127776726e-06,4.292586106843787868e-04,1.574726121813093283e-03,3.104525149342238026e-04,2.076317354463613242e-03
4.684170750935746225e-02,5.075943286628048848e-03,8.925136639571052549e-03,1.106954288718491904e-05,8.053308030473011310e-06,2.854811051935966462e-06,5.581970455152531017e-04,2.963562136276566734e-03,2.878825829009314542e-04,1.097062020261730764e-04
1.093870677868681411e-02,8.323082177911479695e-03,2.912897399334893073e-03,2.466070364615744473e-05,9.297019501677727580e-06,1.743003619220573073e-06,2.282434605876114972e-04,6.116282754737653246e-03,2.592080256206750989e-04,2.326541443650840570e-03
4.783013419097008334e-02,2.271168077983735240e-02,7.189315991153430755e-04,3.743509015203749725e-05,1.045989260572860310e-05,5.934870845963267189e-07,1.063650812477571410e-04,8.330365126108685292e-03,2.250390164614188011e-04,1.684412549256630344e-03
7.131604509353260679e-03,1.610456101775610202e-02,7.777872189143144634e-03,4.901145491616544275e-05,1.149603430211054611e-05,5.651204019255075780e-07,8.496652807309087790e-04,3.116315543537096118e-03,1.861143055079869375e-04,9.565472184167400724e-04
7.758610633269030776e-02,7.178238932617568221e-03,1.903331103240408270e-03,5.904350159481394639e-05,1.236041926452187887e-05,1.704113076016034670e-06,3.031940471866872728e-03,1.118665547064759402e-02,1.432844024909244655e-04,2.207652043312723685e-03
1.183568744170888504e-01,2.074281807159139221e-02,2.100205922970677791e-02,6.722753975097099459e-05,1.301005084184790204e-05,2.795407966493140725e-06,4.221689813612675320e-03,2.667086151931945259e-02,9.749213960464066741e-05,6.979621209067662577e-04
8.286549742186544165e-02,1.315013455115795517e-02,4.024891549418285058e-02,7.328393472911024463e-05,1.340511771993467227e-05,3.812236541878222389e-06,2.937403444408885015e-03,3.304137690105871106e-02,4.975105996031063411e-05,1.565600163326414350e-03
1.971421314616914749e-02,5.018431925665487250e-04,4.190528049377634234e-02,7.696775949353380243e-05,1.351005430357385252e-05,4.729800580547471276e-06,6.626819393873373742e-04,2.900649086106794547e-02,1.122128244946258820e-06,2.389737376714181835e-03
1.553494247315379689e-02,7.209281459732247389e-04,3.652962908650554674e-02,7.813327207053403568e-05,1.329446360842033720e-05,5.525876212919280203e-06,3.812392149778554094e-04,2.265521829406548157e-02,4.731070036159341940e-05,1.958345587350663556e-03
2.087152550255342090e-02,1.225182075636946713e-02,3.804109944794005493e-02,7.673386650979769686e-05,1.273400842811692702e-05,6.181351440447367063e-06,1.276983232054700198e-04,2.038351531712663534e-02,9.446548974979918447e-05,1.568013413859114776e-03
3.270286779938614413e-02,2.022614062089955755e-02,4.192015742102195991e-02,7.270124079535038211e-05,1.181127652708163786e-05,6.680684149570074601e-06,1.294277830368116534e-04,1.986397526870538680e-02,1.392873333680502159e-04,1.541792202513951951e-03
7.848913577317813417e-02,1.236857940121647258e-02,3.586624569482859543e-02,6.595458889845498345e-05,1.051631598491086193e-05,7.012269665204130857e-06,6.266535296632605900e-05,1.484932204447620904e-02,1.807727870523091187e-04,1.411743043243976134e-03
1.513020046672771124e-01,1.062956661224053953e-02,1.910424135141998089e-02,5.666613784771742170e-05,8.846751351569400926e-06,7.168709176331826755e-06,2.558747276327327769e-04,3.346907187063498032e-03,2.179931579059731937e-04,1.072791644712963594e-03
2.118094194356589521e-01,3.422281536996099605e-02,7.211554520090522743e-04,4.525045352679213254e-05,6.808069074855496002e-06,7.146972857946807963e-06,2.415827459134112839e-04,9.829393832338382750e-03,2.501161082887867803e-04,7.950186085254823745e-04
2.182950070243368512e-01,4.406261949440021947e-02,1.279586385345620782e-02,3.179373437634056693e-05,4.414232833056857942e-06,6.948454146555717932e-06,2.191732640130672103e-04,1.691287773503363095e-02,2.764250718301077361e-04,5.666520744263866659e-04
1.759847961681993977e-01,4.343595245936313076e-02,2.094326110200936397e-02,1.605309891557789762e-05,1.687344737584953858e-06,6.578914334837810802e-06,2.866273502700080042e-04,1.438276428426346100e-02,2.963360279009650297e-04,1.629390449946053381e-04
1.400122053200566763e-01,4.682419660756041019e-02,2.510656963946078860e-02,1.338433291076297685e-06,1.344040581772147505e-06,6.048319367632136267e-06,3.509279899525397659e-04,7.094899472199316104e-03,3.094112410495567758e-04,2.476386546681837077e-04
1.434379336669470983e-01,5.544684219516208407e-02,2.640638445741441687e-02,1.885765232512116177e-05,4.645217755084643304e-06,5.370573378942211153e-06,3.642218911331670085e-04,2.987504251738370368e-03,3.153696411701622333e-04,3.073601996684769680e-04
1.540489513120387455e-01,5.529151671993902395e-02,2.618494481318138500e-02,3.668728192602760407e-05,8.173322508052955726e-06,4.563156042677212359e-06,3.688029955462534507e-04,4.279589055969390890e-03,3.140935970659672945e-04,4.005524463259796841e-04
1.368522036113483109e-01,4.204884354371436761e-02,2.598292104186831694e-02,5.684123434287481050e-05,1.187879125489819493e-05,3.646673156321871027e-06,3.871558498295625994e-04,8.124763638047744971e-03,3.056319188334489980e-04,1.205610309810464147e-03
1.162985186439563223e-01,2.976522615461373034e-02,2.660228917252067601e-02,7.765376140617455663e-05,1.571237005640440182e-05,2.644331979472901347e-06,3.995500689154070535e-04,1.357466489145191073e-02,2.901990112519241879e-04,1.854701344316183687e-03
1.252945717971339634e-01,3.000168525768851652e-02,2.735836525887589896e-02,9.340089223575307451e-05,1.962532764873514866e-05,1.581354657307215000e-06,3.952481161460361016e-04,2.015021995720849349e-02,2.681701891223396716e-04,8.222739672160199421e-04
1.295478658686610995e-01,3.809813875507004483e-02,2.698065695109494455e-02,1.060940952859205021e-04,2.355803135749773831e-05,4.843445291812336301e-07,3.836147505781752997e-04,2.165548508550003276e-02,2.400732542286325476e-04,3.480875126880172196e-05
6.818453078107987453e-02,4.473517638220291665e-02,2.625581316570349891e-02,1.266317398991483121e-04,2.744303980207328004e-05,6.193787801165971024e-07,3.702625638670632301e-04,1.180106392352360881e-02,2.065765202522482731e-04,4.267585391266006528e-03
4.614043492813352243e-02,4.855941747007167658e-02,2.779488858994923900e-02,1.496774169400732840e-04,3.123363992820405219e-05,1.702458889868736108e-06,3.515415196781053182e-04,4.265309095743264126e-03,1.684735545564942157e-04,1.334343161547607570e-02
1.310889291682687530e-01,5.128156116190212693e-02,3.014020643640239264e-02,1.505793161020588309e-04,3.490215778077967172e-05,2.738179931760662731e-06,3.256202970919828943e-04,1.405647544893696109e-02,1.266649823606198983e-04,1.979417275606182997e-02
1.367645236365346018e-01,4.886624635841309294e-02,2.555556465858291326e-02,1.389733897606977011e-04,3.838314811035429820e-05,3.701124808694434259e-06,2.951774198860262132e-04,1.320000473945087509e-02,8.213776766361559388e-05,1.883336883843337792e-02
8.940741677617497496e-02,3.717249124339402216e-02,1.000636240969015114e-02,1.667964682995567733e-04,4.157959798266625543e-05,4.567798243025083397e-06,2.622180747170920400e-04,7.668531991427403847e-03,3.594244474713244862e-05,1.528178757881341887e-02
3.317987886404184794e-02,2.324889542358025626e-02,7.895775065443696311e-03,2.140378575293108634e-04,4.448828739627557220e-05,5.317199358750853303e-06,2.267213945016270985e-04,2.255102258755106032e-03,1.083117721188821842e-05,1.537616057271846276e-02
1.875640037812040944e-02,1.926759791984264739e-02,1.574592583791927999e-02,1.685333937467843168e-04,4.719337723141637896e-05,5.931329860883828663e-06,1.890204040204369277e-04,3.342391752151617143e-03,5.707927711009474505e-05,1.729218323422556866e-02
6.548905233461718711e-02,2.425941729103091998e-02,1.181322109958787663e-02,6.943757526801104909e-05,4.960168077736118230e-05,6.395625532719445315e-06,1.504334722885320959e-04,8.507050213385233470e-03,1.017096691888181941e-04,1.542996707080514056e-02
9.224914891107209580e-02,2.482353922255554901e-02,2.888693520153930681e-03,1.596492233682302324e-04,5.145212240052982403e-05,6.699300725480565358e-06,1.121268466791000437e-04,1.120495011547638538e-02,1.436672407586180305e-04,9.387114834711758268e-03
8.448502251442790989e-02,1.669977975471246059e-02,7.357053486790521638e-03,3.711166357125051003e-04,5.288345334346388534e-05,6.835597715166354419e-06,7.477527085995217166e-05,1.216403270679955462e-02,1.819585896474848865e-04,3.435730245746337463e-03
5.187139499690708588e-02,1.044435547459223249e-02,1.859286750591950324e-02,1.408651017558238197e-04,5.443034651981705762e-05,6.801935192840142985e-06,3.906228683090692605e-05,1.192425720356243488e-02,2.156752874239471079e-04,2.714317057913744925e-04
2.103941568621538541e-02,1.099760994079407826e-02,2.695681132645943653e-02,6.539149160026538421e-04,5.581167368478401569e-05,6.599952677019010475e-06,5.819349197093393825e-06,6.898698065922374313e-03,2.440152245487768037e-04,7.708436786240779447e-04
6.702136327647177649e-03,8.426051793281551933e-03,2.784671373921531953e-02,1.143096017827121853e-03,5.590733233494244169e-05,6.235450227285650668e-06,2.422986529601436334e-05,4.253454013083755696e-03,2.663015363844609194e-04,1.167838381206481131e-03
6.946614349673209052e-04,4.224353275634702698e-03,2.269688865966520627e-02,6.880027595013823083e-04,5.534481862288311477e-05,5.718225432332390636e-06,5.055761048672304040e-05,1.483318573117601603e-02,2.819986634976448937e-04,1.553149347914988682e-03
9.964649149155213256e-03,1.932292160074381218e-02,1.539080845102893357e-02,7.351480990640077591e-05,5.661489035476261785e-05,5.061812179167972348e-06,7.272971882570836274e-05,1.782915724003956634e-02,2.907251647103045646e-04,1.966973608367154729e-03
2.256073712724585706e-02,2.688619686352383686e-02,6.250366362387410266e-03,2.721347504973871032e-04,5.854862650375211841e-05,4.283128120755655094e-06,9.037552346657350144e-05,1.454097532750745284e-02,2.922629754276002923e-04,2.360122355213803771e-03
