3.940590603620069965e-02,1.272539418753667641e-02,6.041049648269982558e-03,2.907194502535088727e-03,4.447916908653321640e-04,5.912735678716646820e-06,1.361351954092133217e-03,4.058933481353283607e-02,1.044446086303932840e-03,3.091110576668511939e-02
6.294610943130111991e-02,9.347359452533064370e-03,5.845151240184670582e-02,2.639238332340740779e-03,5.784844212615845209e-04,3.539544355389106413e-07,1.302729929118416402e-03,4.691701906674001360e-02,1.031377378764898340e-03,3.329029954502207150e-02
3.463792679760958199e-02,3.944521363107500109e-03,9.040559813532916822e-02,2.310303793193971104e-03,7.022969997170962556e-04,6.580120428857092198e-06,1.218884688254566560e-03,5.152183239983363500e-02,1.008410895376081386e-03,3.571678921706681470e-02
1.959433020610849840e-02,1.480879101371203668e-02,8.593849502352439440e-02,1.928488720939150513e-03,8.133550358207427286e-04,1.261320545439727231e-05,1.112335656115917993e-03,5.540699017531026255e-02,9.759162995642012024e-04,3.821735202395835224e-02
5.649847148729732205e-02,1.586854407270323411e-02,6.148157017289188064e-02,1.503206785750091498e-03,9.090881678802196619e-04,1.830616499053363966e-05,9.861219966490033031e-04,6.051934328212892761e-02,9.344123672621157091e-04,4.079885599531859336e-02
6.965574062554583112e-02,1.532409718721126912e-02,5.087526484085724832e-02,1.044958221217442279e-03,9.872927225195392807e-04,2.352104972649262499e-05,8.437236668803865238e-04,6.593312176473771491e-02,8.845526923996992457e-04,4.346864138075253597e-02
8.439732691190808545e-02,2.363949297532035726e-02,6.892638962744387920e-02,5.650730199091827301e-04,1.046185349089206800e-03,2.813234685011015103e-05,6.889722758035161368e-04,6.749412587504821648e-02,8.271086171735096823e-04,4.627773865667423464e-02
1.056081450295018181e-01,3.501004399248250354e-02,9.470826949852635679e-02,7.543284237504090215e-05,1.084446299436168763e-03,3.202999891586589843e-05,5.259542644748752948e-04,6.327080699277244646e-02,7.629497979943688970e-04,4.927656734886624867e-02
1.052131062797377337e-01,3.541029965039569488e-02,1.011882389168410057e-01,4.118215678380747241e-04,1.101251278393415231e-03,3.512202780119473003e-05,3.589088853418156066e-04,5.614260832873805424e-02,6.930228684822716196e-04,5.241957359747497630e-02
6.683794941834143855e-02,2.557834998872941107e-02,9.084275435604584337e-02,8.845902905165879855e-04,1.096291071920408753e-03,3.733670132654590623e-05,1.921228987557931512e-04,4.939454581444240044e-02,6.183287006730975787e-04,5.565548415025743656e-02
1.511250673985989335e-02,1.995039481830246722e-02,8.399436567174407842e-02,1.331114079166907400e-03,1.069778461230748434e-03,3.862419166367927321e-05,2.982438891389170988e-05,4.457758443092221107e-02,5.398987941343430562e-04,5.913155609527713519e-02
7.165077083300359397e-03,2.459750025442219989e-02,8.406879932994783255e-02,1.740266754579781550e-03,1.022442245062425790e-03,3.895768739610074710e-05,1.239204602795634252e-04,4.358336610174157189e-02,4.587713396607289210e-04,6.300457306542850411e-02
1.895530904404731445e-02,3.119380388806181764e-02,7.666312987972855042e-02,2.101832899355611343e-03,9.555085107453591868e-04,3.833393470645169067e-05,2.653047483402979929e-04,4.569417233049957727e-02,3.759675088593028938e-04,6.699801854729416084e-02
6.686419782877184304e-02,3.063250888108741757e-02,5.487184436795102677e-02,2.406763948783465119e-03,8.706696100443838456e-04,3.677319730941394670e-05,3.908727700473433350e-04,4.423632517843238687e-02,2.924685126283860215e-04,7.079133274222750016e-02
8.909642099228427814e-02,2.085681519701629641e-02,2.640916866844535832e-02,2.647406282301184317e-03,7.700416001180442971e-04,3.431863907525185077e-05,4.976052021438124619e-04,3.464356767669599102e-02,2.091939515232277107e-04,7.497771749637685557e-02
7.387835419852657737e-02,5.032668455312022150e-03,5.254716386977062795e-04,2.817695587885482751e-03,6.561111958115555757e-04,3.103514744575314063e-05,5.829898432109322957e-04,2.326181395472888547e-02,1.269819510362193635e-04,8.029523455859495507e-02
5.749307499831537993e-02,1.002824910400526050e-02,2.508065298295011902e-02,2.913312583237887606e-03,5.316735398217405616e-04,2.700762938429546485e-05,6.450741633507180812e-04,2.014018934337330480e-02,4.657153353043307509e-05,8.554484641935927725e-02
6.508817815846718036e-02,1.828236617140457931e-02,4.788560944938986125e-02,2.931796113014660966e-03,3.997623255814427320e-04,2.233882439275974437e-05,6.825106616023879965e-04,2.579436920993647894e-02,3.141237582363362406e-05,8.832474083760688544e-02
7.108901337211760707e-02,2.166074334646318766e-02,6.627696970891393258e-02,2.872610677930991126e-03,2.635739983425252047e-04,1.714669076027702639e-05,6.945988658885373507e-04,3.068817988740482963e-02,1.064709736354948479e-04,8.691670782664764894e-02
3.974465022936057162e-02,2.840686736916076677e-02,7.795814454208592481e-02,2.737166564233982531e-03,1.263879081452162756e-04,1.156143140260123177e-05,6.812971897875472020e-04,2.516160510412229073e-02,1.782403599654202924e-04,7.648332272406506427e-02
2.397883675202930331e-02,4.189918577342559292e-02,8.247752860579640743e-02,2.528791903753685455e-03,8.515609556259629768e-06,5.722234163265645177e-06,6.431934812454031397e-04,7.604972251119297005e-03,2.464968736338343487e-04,4.649776360031541989e-02
8.303417345849778419e-02,5.478757983370969448e-02,7.540920778535319113e-02,2.252657176927974365e-03,1.379371964559086470e-04,2.261919218472212758e-07,5.814900679862034091e-04,1.412048566235175884e-02,3.111588670708109478e-04,6.293526712983653695e-03
1.111864694430719086e-01,5.740346824536929349e-02,5.111296113561757115e-02,1.915653844572829008e-03,2.588384446719799604e-04,6.137198299538242164e-06,4.980286771633569325e-04,2.930750469913115386e-02,3.722848940405177947e-04,6.270390510880960444e-02
1.156900596709767581e-01,5.032347721908438792e-02,1.761648488571915597e-02,1.526229930092825931e-03,3.684178951502124788e-04,1.186580795917762083e-05,3.952379648760056424e-04,3.447909814465324740e-02,4.300683390534246349e-04,9.233135547350354577e-02
1.181657999466250442e-01,4.381755035902858142e-02,4.073564099608318126e-03,1.094186444711441096e-03,4.641811716008603997e-04,1.727226705198087073e-05,2.759487849173337471e-04,3.426518970720898727e-02,4.848285800731626542e-04,8.321616035036739911e-02
1.172623273290149121e-01,4.440333836076544582e-02,3.189779356494228460e-03,6.304395269528349907e-04,5.440035031621182418e-04,2.222545015605598389e-05,1.433296520469417863e-04,3.226357035932686523e-02,5.369989060016911071e-04,5.340145082689852496e-02
8.551370613701833601e-02,4.700765789036430442e-02,1.133043047094949365e-02,1.467540284838122577e-04,6.061830750922256707e-04,2.660603630994489764e-05,1.070600662539165731e-06,2.764017106502313775e-02,5.871115197089609491e-04,3.159152703388756755e-02
1.117329732629222111e-02,4.216511375100796127e-02,2.863775719448742596e-02,3.445449988379042732e-04,6.494838716837928166e-04,3.030937898829113230e-05,1.467150745893369928e-04,2.030861093632465447e-02,6.357799109332292918e-04,2.764296267752918909e-02
7.351889833384107897e-02,2.797144437237411227e-02,4.621565180832790110e-02,8.308758911165158804e-04,6.731669337629085734e-04,3.324800109990308435e-05,2.961528101087102503e-04,1.158342651638290428e-02,6.836788600093461361e-04,2.476070061739351486e-02
1.197755713155937429e-01,1.311659859648063413e-02,5.692991574801917198e-02,1.299711614562348762e-03,6.770092382512507686e-04,3.535365564725271540e-05,4.437002718801790662e-04,2.650388335656885582e-03,7.315226217882275350e-04,8.395970781350875489e-03
1.112335800709977757e-01,7.113557005223536400e-03,4.368092532222188351e-02,1.738891029570963087e-03,6.613097123283535363e-04,3.657890365422740935e-05,5.850343887376509115e-04,7.892536762494125474e-04,7.800420609177077238e-04,2.757724134520712737e-03
7.693856334629269045e-02,7.809822218281218739e-03,8.546055812685530734e-04,2.136922521043432659e-03,6.268822122297172455e-04,3.689817306925221235e-05,7.151260358577347064e-04,1.919881376224549796e-02,8.299610349169837375e-04,2.284055960899270682e-02
5.619783136124330974e-02,3.516674137548627451e-03,5.760152686803463040e-02,2.483272492705347351e-03,5.750356188348985801e-04,3.630827528083360181e-05,8.309200006267941554e-04,5.808330772296074751e-02,8.819719389442949847e-04,7.866520655542261209e-02
5.570302583107428207e-02,9.969059574700865622e-03,9.504332704168089174e-02,2.768631561812347208e-03,5.075415209948317199e-04,3.482836932042938113e-05,9.315370878581463992e-04,9.368316960819088324e-02,9.367113995566849491e-04,1.197123454970832057e-01
4.591267038719242660e-02,2.139089539431235712e-02,9.744948379396045635e-02,2.985151831299139025e-03,4.265902651481731319e-04,3.249937744077391577e-05,1.012831281476651293e-03,9.990056988348472444e-02,9.947379837519324409e-04,1.173481689710785952e-01
3.011214371102608617e-04,1.843425127503584698e-02,7.337579533449871405e-02,3.126649323147924660e-03,3.347364385774454941e-04,2.938286921121611002e-05,1.067068555456054208e-03,7.602857586432558434e-02,1.056511518009552782e-03,8.588620623978189539e-02
6.651888020838875315e-02,4.193050786340642155e-03,4.103860832113281204e-02,3.188766459660561346e-03,2.348351165061920336e-04,2.555944423572256577e-05,1.094766122246525674e-03,4.282064706527356074e-02,1.122371637378036897e-03,5.222091742571256801e-02
9.512469855200356150e-02,7.237815949599791035e-03,1.265347172502924791e-02,3.169090407535829143e-03,1.299704336180854797e-04,2.112665575811957936e-05,1.105877242203457496e-03,1.697800287303780076e-02,1.192517910962325031e-03,2.627239933469720928e-02
4.640546090177889715e-02,8.445751680397796737e-03,1.099145910551618810e-02,3.067224245299586972e-03,2.337823276024068641e-05,1.619652847842966681e-05,1.094689720431132321e-03,1.612835430674169901e-03,1.266998123673482995e-03,5.907608082985744101e-03
4.519326366516745325e-02,5.646154389172423904e-03,3.585961203215772691e-02,2.884809149555654650e-03,8.163530721723448100e-05,1.089273359782821920e-05,1.036750810147947337e-03,1.466336378933168205e-03,1.345701172731515217e-03,7.129890113215843657e-03
1.028206719603332736e-01,6.803977143666591759e-03,6.014493164853339929e-02,2.625496842377180329e-03,1.817770600742243405e-04,5.347492206717890007e-06,9.424617943558567150e-04,1.309590015338816041e-02,1.428341565677149509e-03,3.064130838080802652e-03
9.750797307676471737e-02,7.900064506135404466e-03,6.726666307437201286e-02,2.294872583115033574e-03,2.738502996978379057e-04,3.017155600087995261e-07,8.650712000939369964e-04,4.097268817712835381e-02,1.514443683911436246e-03,2.576908311608876179e-02
6.851084508930804784e-02,2.241741687982226096e-03,4.681842910313400302e-02,1.900330530759761216e-03,3.548359465392523734e-04,5.915553800120268377e-06,7.863947376195413400e-04,6.392604986484239082e-02,1.603354544929692276e-03,6.980791282927423236e-02
5.086273182302765428e-02,2.433502428488815844e-02,1.591053678195579121e-02,1.450904879908491161e-03,4.219697013798353528e-04,1.135626240776923606e-05,5.965616197467400478e-04,6.798573386168328681e-02,1.694268878969561925e-03,1.036365822517869434e-01
3.023118015573201742e-02,4.446621707165027138e-02,1.759453085222911642e-03,9.570605951018575780e-04,4.728131529375763278e-04,1.649103251066533817e-05,3.374263026803246430e-04,5.727624156038781805e-02,1.786204997272190613e-03,1.113217558177057864e-01
1.337816194679540202e-02,5.078170029746387898e-02,8.678111973937370494e-03,4.304477120871124003e-04,5.053170912823416305e-04,2.119524317445395807e-05,2.549338940712698120e-04,4.558919074815988293e-02,1.877964428717824458e-03,1.045443906697309105e-01
5.588393925254227235e-02,4.727785220351558848e-02,1.970141130183536080e-02,1.163744837239308457e-04,5.178754483200381006e-04,2.535548059419931137e-05,2.843624765155305109e-04,4.186247709059681688e-02,1.968207348727619727e-03,1.039010033681157380e-01
5.560489245590672508e-02,4.440055493850335322e-02,3.026807732104081633e-02,6.702344413529880314e-04,5.093685151231136044e-04,2.887226673407101220e-05,1.337372435048618741e-04,4.356903452143794792e-02,2.055576352880682939e-03,1.078564636213214523e-01
1.478141928654682150e-02,4.128969844100803532e-02,2.931886199075672134e-02,1.217659981769562624e-03,4.791943480454652847e-04,3.166243188189704199e-05,1.118555969312255271e-03,3.972356171904505018e-02,2.138584164795111816e-03,9.659103552802227044e-02
1.974635637345359407e-02,3.015106571933275775e-02,2.808258000611289773e-02,1.745201800045467202e-03,4.272875649442078871e-04,3.366107466191503930e-05,1.796316488177408929e-03,2.528502722152617399e-02,2.215400987613618672e-03,6.525428580317867155e-02
1.756010048466275300e-02,1.706122559985169887e-02,4.300617152361357193e-02,2.239759431706250196e-03,3.541250423393110412e-04,3.482306346597908314e-05,1.524700500581728990e-03,1.168890606314322914e-02,2.284151326808346767e-03,3.445847553136122121e-02
6.232233985840365288e-03,1.996789099920587285e-02,6.293229225220733913e-02,2.688891258016965543e-03,2.607183463675186576e-04,3.512404475807596641e-05,9.380453384483443098e-04,1.269112350660754271e-02,2.343445092387916751e-03,2.237931548566721857e-02
2.687581902620243823e-02,4.168586132548664225e-02,6.331063397870836940e-02,3.081103694021489117e-03,1.485930570009353355e-04,3.456093599156021950e-05,9.024628336816757027e-04,2.424085287076880452e-02,2.391832010772711268e-03,2.222330083162623454e-02
4.387288809686899771e-02,6.343355950988065206e-02,4.341871547182354907e-02,3.406134616817938637e-03,1.975546815284947715e-05,3.315189364737920871e-05,1.291450329289965063e-03,3.203364307512639175e-02,2.426731307049683102e-03,1.637396791088616826e-02
7.222233917712578277e-02,7.000720991304157370e-02,2.404696523554712348e-02,3.655218515214343853e-03,1.233525419902682793e-04,3.093575983873579605e-05,1.538534206199869284e-03,3.273694265931377523e-02,2.445649183081004176e-03,1.742692982244132063e-03
1.181756339918109272e-01,6.406189345188120776e-02,1.476439826860166324e-02,3.821279053748150370e-03,2.779093835003900391e-04,2.797100371460684243e-05,1.572613103171876256e-03,3.257316405037682244e-02,2.448577033647757282e-03,1.047436531816273858e-02
1.639157624025220084e-01,5.276616726667109070e-02,5.406032724330278767e-03,3.899054549152573129e-03,4.407790170212815494e-04,2.433418621808617594e-05,1.634493652973420226e-03,3.082663814998844870e-02,2.435533334332717903e-03,1.600812009473973410e-02
1.728660700895267022e-01,3.678384777041738413e-02,1.212310782275766510e-02,3.885255160380333798e-03,6.085840196119480378e-04,2.011798831540035138e-05,1.761856253448086315e-03,2.062871964436656727e-02,2.401454286181673760e-03,2.590519200622136073e-02
1.255492433906048311e-01,1.622477806262262109e-02,3.175456963251820086e-02,3.778728241240721705e-03,7.777846734860725808e-04,1.542885332767863474e-05,1.840738568608126695e-03,3.757271325191600172e-03,2.341382090395277560e-03,4.788995164338823857e-02
5.055776005325082062e-02,3.713304598449826757e-03,4.391210753751872281e-02,3.580409151775056607e-03,9.447621462801446051e-04,1.038430321721549022e-05,1.849816701088302434e-03,9.416746572913109459e-03,2.261578009592539202e-03,6.856110653939738453e-02
2.037289299810599377e-03,1.736334422634565333e-02,4.372456251218182627e-02,3.293094511778056881e-03,1.105903728220158097e-03,5.109996383231662134e-06,1.842295856361807942e-03,1.624480206078543834e-02,2.168790790405853916e-03,6.947174206101136562e-02
1.346610346278606651e-02,2.362476183682421862e-02,2.774714874910702220e-02,2.921510756186212598e-03,1.257688038368249628e-03,2.633994724474520166e-07,1.830005720020529743e-03,2.675650205152833513e-02,2.046293394196572763e-03,5.787088562993487895e-02
2.720438684740944871e-03,2.345533434379429988e-02,3.358427797317081048e-03,2.472611520102964595e-03,1.396768110327091268e-03,5.603441680675861142e-06,1.786863201532710305e-03,4.766149740124953765e-02,1.876216941516956407e-03,5.987623214068246713e-02
3.479764268930603255e-02,1.657678575181762218e-02,3.690023313086100709e-02,1.955096338825549566e-03,1.520050317515824184e-03,1.077917417317758075e-05,1.705819066433636282e-03,6.851562411635654659e-02,1.691340589736907256e-03,7.934419906774070608e-02
7.030605756811916796e-02,5.180966861304954832e-03,5.472658855669471079e-02,1.378274218822382168e-03,1.624767198425414822e-03,1.566433605162106797e-05,1.605464566916292579e-03,6.961826598150816503e-02,1.528764975304247467e-03,8.734976932777849257e-02
8.369265531878021525e-02,2.770494734057334530e-03,4.976188360912722070e-02,7.524384987966080971e-04,1.708542390652814094e-03,2.014043863303781681e-05,1.497864510630391712e-03,4.341971499568875181e-02,1.318100498225000536e-03,6.382114128798969943e-02
7.236906494563659364e-02,5.495849335595192828e-05,2.949099395354524283e-02,9.056054515700168129e-05,1.769446075055881471e-03,2.409963607406874925e-05,1.368643363597129084e-03,6.652043960443297654e-03,9.774786964843603602e-04,2.907011009237905896e-02
7.572665154206989491e-02,1.205256909495284329e-02,5.236837401929567148e-03,5.933115087692903810e-04,1.806039563507095321e-03,2.744732012430857191e-05,1.203051645936574748e-03,1.208062319312477005e-02,6.549790296363677735e-04,1.585155072651753608e-02
1.134001594323442996e-01,2.710081755955328145e-02,1.698534576349954028e-02,1.288637882887121947e-03,1.817407930554147460e-03,3.010437668458637703e-05,1.030699419004889967e-03,1.861462557003726488e-04,5.301304989703699809e-04,2.404958270744706611e-02
1.434396687098198064e-01,4.131679399462561547e-02,3.814231718122754883e-02,1.986072117823585708e-03,1.803179884038293764e-03,3.200905046591645076e-05,8.904742300849621903e-04,2.893855157027957342e-02,2.902096669274774766e-04,2.774275232228643265e-02
1.245696858815734942e-01,5.271411911934464900e-02,6.071269118584632363e-02,2.668628268852090910e-03,1.763534383496623758e-03,3.311837393986087771e-05,7.332667443252719863e-04,5.086486697008506946e-02,4.691480953680456155e-04,2.052527683652469528e-02
7.378452156658107941e-02,5.559278182103797455e-02,7.887240724518443380e-02,3.317423816352496786e-03,1.699193840754672580e-03,3.340912769174993310e-05,4.848904353495071774e-04,5.752352039083042518e-02,1.064172797249650143e-03,2.129103008591475346e-02
2.293519868468967340e-02,4.442273478060694558e-02,7.971960158482804815e-02,3.931706696117714776e-03,1.611404070012924152e-03,3.287831096127015375e-05,2.555108354291174577e-04,5.405698381219739557e-02,2.736710569770438675e-04,3.291261272922295367e-02
2.877976781538491707e-02,2.452704285074891466e-02,6.103839397257702915e-02,4.518085922254877311e-03,1.501901485783529002e-03,3.154311328992556290e-05,2.150772597687632365e-04,4.365472561960751646e-02,1.303722214526814712e-03,3.241320534464634667e-02
7.843722720886389665e-02,1.167161233593635473e-02,3.769646956610083616e-02,5.048388036545554784e-03,1.372868360494744694e-03,2.944039049150598501e-05,1.397994414273941166e-04,2.657407582889732139e-02,1.340319995326870808e-03,1.117931264653948022e-02
8.877891074395612148e-02,1.665540749970305379e-02,2.176120571745769963e-02,5.482376818874731654e-03,1.226877243515239789e-03,2.662566031720794217e-05,3.453463613149433068e-04,9.921181815403586068e-03,8.376081082463271519e-04,1.120456715456382910e-02
4.008518323945399475e-02,3.358620807164636873e-02,1.013240477031694502e-02,5.859060773384925681e-03,1.066825918767633132e-03,2.317164490369306537e-05,7.437639735795009135e-04,4.209345551994832409e-03,3.141136190172300752e-03,2.203563887360868168e-02
2.633763623531100787e-02,4.705088197430638136e-02,6.334244374902016708e-04,6.251139992005067675e-03,8.958645286715779914e-04,1.916639808466357348e-05,8.979254852155510534e-05,9.921144366454526242e-03,3.856496589089632599e-03,3.070965183154118761e-02
5.827977939364923504e-02,4.939265269240807055e-02,4.275716299337394867e-03,6.569260856950397305e-03,7.173166769352934792e-04,1.471106564824088894e-05,1.987511675086375655e-03,1.692424658448042629e-02,3.713671121609245663e-03,4.299192731422596392e-02
5.849297091179130742e-02,4.637056071702232163e-02,4.554548973631753622e-03,6.654485354672719927e-03,5.345964435890899688e-04,9.917335392974089965e-06,3.080299328809619607e-03,1.766977930785048473e-02,4.164678973151947697e-03,4.934097958196120848e-02
6.004920528159092552e-02,4.428669740496336826e-02,2.412884835560145935e-02,6.698916635017804905e-03,3.511233738276665819e-04,4.904641165545620245e-06,2.399140065667781235e-03,1.445543546350615965e-02,5.276157522796214375e-03,4.240980315658363781e-02
5.392783291498563086e-02,3.846969337604669997e-02,4.844766968146838743e-02,7.059182892561345797e-03,1.702376224491962203e-04,2.028092195305679651e-07,1.306911484718440743e-03,1.399500905699132061e-02,5.904130936117905036e-03,2.532973283952172361e-02
6.630123322280406274e-03,2.286601517452591451e-02,6.362072415521956292e-02,7.352149809031030200e-03,4.882614042185152471e-06,5.279108305941129778e-06,1.195035877793808017e-03,2.127380364697430484e-02,5.393683990566885272e-03,3.732707197090246939e-03
1.212051436029009249e-01,4.887440741092355725e-03,5.327842768606772667e-02,6.827631663855738414e-03,1.712994426695261445e-04,1.019974955703727626e-05,1.387171276003011872e-03,3.797043298622655022e-02,4.724377694476296873e-03,1.636644679946186454e-02
2.141910744678875156e-01,4.018337755992412198e-03,2.300327440172002941e-02,6.326865902387571877e-03,3.263874612287221300e-04,1.484467788161424040e-05,5.972720012741167001e-04,5.871485704989838628e-02,5.398492758084196506e-03,2.823527086060795971e-02
2.228156680758782981e-01,8.647479406714789901e-03,2.153682870407553837e-03,7.596141627737599579e-03,4.678976916019410228e-04,1.910121546620705652e-05,8.991651116798581251e-04,7.008936362406768816e-02,7.317864009618185034e-03,3.271302713529532225e-02
1.716973860951822584e-01,2.191926465896951171e-02,4.560770706965017358e-03,8.766472476719570917e-03,5.940115733409633307e-04,2.286679169448322288e-05,1.861086226935672154e-03,6.349104855061209196e-02,8.963667446121627302e-03,4.041635737105409021e-02
1.247950065888708132e-01,3.913332575261440488e-02,8.426177013629196702e-03,4.004653400175406212e-03,7.033842425911193252e-04,2.605141110412046394e-05,1.938433620753266754e-03,4.642788305385363995e-02,9.611837003541789937e-03,5.868621812270819610e-02
1.001262975751184697e-01,4.216596085407497974e-02,6.988757744275257699e-03,8.467002141938510806e-03,7.951761564242108013e-04,2.857980009712372883e-05,1.792941731500296903e-03,2.954866447047266309e-02,9.980291071162619709e-03,8.218557634293431613e-02
7.219651123780725099e-02,2.765827981343393915e-02,2.867316122634518821e-02,2.126181523514791144e-02,8.690709735197062538e-04,3.039318130669391350e-05,1.939731355615860204e-03,8.186946401444843147e-03,1.074166692262595348e-02,9.770262549272275276e-02
3.766090318882904520e-02,9.817453915977037565e-03,3.371306487668790375e-02,2.516280240658947537e-02,9.252788187448260327e-04,3.145063392431781595e-05,2.304286758325507431e-03,2.845739160663169481e-02,1.165381051070984129e-02,9.198679071142475128e-02
3.481652599283886762e-02,1.439082567274210626e-03,2.233290455488693219e-02,1.902365822902071096e-02,9.645275111231847547e-04,3.173000866776731917e-05,2.559869572177245461e-03,7.422927684518905445e-02,1.230536726656861896e-02,6.082646612326986918e-02
8.538697904950265372e-02,6.081514439861122889e-03,7.697023138369377473e-03,9.046580938866104898e-03,9.880428407704762005e-04,3.122837716445946756e-05,2.541014412696283257e-03,1.061237888682023123e-01,1.291239356598881081e-02,2.042906012718963618e-02
1.462860953468821945e-01,4.001698303166534992e-03,4.499896311263863399e-03,8.965394197536026609e-04,9.975126067986884310e-04,2.996200705913631461e-05,2.621950811166382390e-03,1.072780062519332889e-01,1.390737005400651156e-02,3.552108319830765172e-04
1.554806466057966352e-01,3.558237010069230724e-03,9.712486137062945404e-03,4.491070103888808798e-03,9.950331874214826157e-04,2.796586584464078420e-05,3.326922376099838725e-03,8.252665950510686133e-02,1.496218899062813634e-02,7.461904598762336693e-03
1.125781366074368461e-01,8.265540520673408942e-03,1.115092733753621484e-03,8.852127226669434523e-03,9.830521381834894917e-04,2.529266797188258723e-05,4.011476427526049215e-03,5.091440651538975404e-02,1.537113868943149400e-02,1.913227725606142515e-02
7.100377055405721061e-02,2.513594729374201732e-03,1.426915768662294880e-02,1.227062813763422910e-02,9.643129838016464232e-04,2.201149093679839232e-05,3.155326969751927162e-03,2.731639600338913593e-02,1.577844258208326023e-02,7.937295849739608999e-03
5.783967667707393123e-02,1.114721734488738868e-02,1.889268726879914442e-02,1.074623335886176236e-02,9.417776092179155683e-04,1.820599649673735980e-05,1.162068449270819157e-03,1.389249460601293257e-02,1.734247358783668966e-02,2.164729759875940601e-02
4.747594002140510111e-02,2.485909020426405394e-02,1.273086235394824475e-02,8.855785503913448427e-04,9.185172873753522354e-04,1.397230268301214955e-05,7.992094496898094220e-04,6.482825407959678411e-03,1.717447598273365988e-02,4.685901156647230559e-02
1.731883765231964287e-02,3.430490724683057935e-02,1.398300222608509467e-02,2.166170492600790615e-02,8.976301424359350726e-04,9.416560621471596563e-06,2.829307220402255130e-03,2.043703172287135959e-03,8.165512282760986271e-03,5.916406239737578843e-02
1.108845318729944664e-02,3.683731886096397456e-02,2.591452771778718356e-02,4.154249620315941804e-02,8.822117325500679558e-04,4.652297149853785543e-06,3.980070279733276956e-03,2.775906413532194892e-03,1.150679654392700903e-02,6.482483953981849067e-02
6.154975483975392778e-03,2.829693009665177825e-02,3.013311524195605787e-02,4.918834035549064787e-02,8.752624269498701214e-04,2.024103350551853296e-07,2.014864186748569191e-03,1.260878863417931421e-02,3.171004315020301001e-02,6.480146747047331457e-02
1.947688268664895736e-02,1.182087420158276121e-02,2.073555427971924756e-02,4.253690490330752638e-02,8.794781918611514759e-04,5.027856581762859588e-06,4.303113684373987614e-04,2.552308873435673447e-02,3.963715132863899343e-02,5.734845664425813200e-02
1.763075019280635480e-02,2.576310015488843773e-03,1.632329737700537881e-02,2.897173452961250562e-02,8.971785155578647320e-04,9.705656478756315698e-06,3.467675843039825265e-04,2.992391658597017348e-02,3.332351668932759942e-02,5.086397081202607279e-02
3.158592080879103065e-02,1.138305416640177439e-02,2.624912600444855373e-02,1.574917278436028384e-02,9.304986947978493347e-04,1.412164582050400770e-05,7.080416312557676756e-04,1.946046061427303409e-02,2.086787251245592403e-02,5.146418133135351181e-02
8.889253280715321559e-02,3.018034923754923243e-02,3.220546237551119573e-02,3.922350996249410020e-03,9.813142501399465742e-04,1.816866384982163365e-05,8.482634361163109583e-05,8.251268611767332076e-03,1.038713002906685792e-02,4.953799391933644963e-02
9.504367809032392145e-02,4.242537934303924202e-02,1.733496912245021532e-02,7.749575414591589224e-03,1.050617778644424545e-03,2.174914984129662555e-05,1.694433233956547241e-03,1.861514216365640559e-02,5.181221649029160020e-03,3.754337015202942329e-02
2.382198287861141822e-02,3.814821383608248823e-02,9.943355972162481668e-03,1.728673155309320975e-02,1.138482919484568902e-03,2.477749089692617330e-05,1.600812278700542747e-03,4.952042346010958329e-02,4.096461277197406547e-03,2.510036050477620906e-02
9.695241529679288206e-02,1.511848593887554076e-02,3.443621313649070786e-02,2.190099293054320953e-02,1.245246976248537288e-03,2.718206454965223253e-05,5.829983738091678008e-04,6.895993143578896256e-02,3.055217045675026090e-03,2.130820633511822798e-02
1.941474728554799800e-01,1.933091864237394472e-02,5.454540914431069143e-02,2.294697751319514298e-02,1.371509231157240624e-03,2.890692754770320276e-05,9.401747880910475003e-04,5.003875537417420971e-02,6.477399522571654139e-04,1.966868967663914364e-02
1.985060837626453634e-01,4.555089345447983773e-02,6.912576017286210794e-02,2.200987850227035386e-02,1.515536390958539684e-03,2.991311112482735051e-05,2.450694720589844094e-03,6.143205001789324438e-03,5.094832702988866431e-03,1.296589056505551701e-02
1.224916509390193420e-01,4.808700964732984251e-02,6.523995140515979896e-02,1.460953994141896140e-02,1.673172140598253423e-03,3.017949292351655575e-05,3.749053378913069778e-03,2.709508399476006149e-02,7.698023977323505129e-03,8.362584015388307979e-03
6.988668130133841860e-02,3.513191333862680094e-02,3.886189087765582612e-02,3.113901389675902305e-03,1.843392819463948642e-03,2.970322628335804867e-05,4.872029790300450025e-03,3.533542996490841165e-02,9.866918109247576826e-03,1.701656127031475271e-02
1.217307516870246714e-01,2.594955200681597560e-02,9.452121994440287889e-03,2.331812607086022199e-02,2.028705764220557501e-03,2.849971857237423365e-05,5.638863443248436254e-03,3.025657430900384817e-02,1.267646696200295901e-02,3.715724814435397011e-02
2.305093615346022473e-01,2.512641567324840758e-02,5.466020530245266351e-03,3.224539081990751566e-02,2.223396979838386956e-03,2.660216135426360281e-05,4.711243905876532148e-03,2.443006492134059196e-02,1.091604921047528189e-02,5.377885530073436837e-02
2.782553565649923955e-01,2.568068630573712083e-02,1.164815299918044861e-02,2.660410328946292632e-02,2.412515510108508877e-03,2.406062617518325500e-05,2.179872050194848511e-03,2.443550769508763196e-02,1.006270190237594855e-03,5.097327232371462458e-02
2.157915771352684198e-01,2.598372133622649932e-02,2.003732023741637905e-02,1.597066340857303951e-02,2.597123670249655916e-03,2.094075035088337913e-05,1.262436737674542679e-04,3.436441213181543747e-02,1.852705156590038829e-02,2.432387372545070925e-02
8.859249360378985971e-02,2.551711650260862774e-02,3.068247332248526943e-02,9.280441668835189006e-03,2.797335434062008311e-03,1.732204708039832404e-05,2.008948111339026957e-03,4.641745956326797512e-02,2.987008325772837550e-02,1.536302344915160129e-02
4.395584235929447109e-02,1.816796011674092284e-02,4.521498324258851204e-02,5.728262138653028752e-03,2.998707489213977683e-03,1.329588326519811402e-05,5.508932157248364742e-03,4.136250450666720258e-02,2.898154183962516062e-02,5.220377888286996393e-02
1.550303521399230833e-01,7.625597146946458058e-03,6.985481654557873510e-02,2.464340528261826837e-04,3.144604911943162540e-03,8.963176354914623203e-06,1.124719853564202024e-02,1.187019424995132411e-02,1.929926774300015288e-02,7.768151793587173282e-02
2.428430084580095183e-01,1.330912623183323935e-02,9.682969761437330847e-02,1.073032517867331462e-02,3.250772452849930595e-03,4.431868183039610827e-06,1.649822456486017483e-02,2.549260378233359631e-02,6.427997410328342015e-03,8.909503916226051146e-02
3.214920886255115962e-01,4.301890777146362421e-02,1.053717059026296893e-01,2.365949432147796544e-02,3.425045244418617116e-03,1.857610582271437071e-07,1.778056454616977478e-02,4.765761273295369971e-02,6.080396588201312374e-03,8.462481750900242850e-02
3.953268997623759495e-01,7.552023326022427874e-02,8.920193727697474373e-02,3.623335583276871691e-02,3.623476717030642801e-03,4.775871945547869874e-06,1.420617956897819202e-02,4.361137105937337721e-02,1.447240709981544894e-02,7.122021203478487439e-02
4.253767084193104120e-01,8.691741569616337482e-02,6.480275194184866028e-02,4.620459027653437550e-02,3.599252563186471250e-03,9.225869343996291494e-06,8.002650809669038454e-03,1.620934050462688111e-02,1.510022646867912113e-02,6.850901201649782502e-02
3.636223461702982052e-01,7.881589149201785605e-02,4.492394873932462757e-02,5.311528277003207260e-02,3.418549891486662596e-03,1.342716135301706332e-05,2.491228053125864664e-03,1.899836326725385868e-02,9.145492530693360642e-03,8.771620297614100836e-02
2.320455067255917103e-01,6.707020985893870357e-02,2.172389818055026414e-02,5.964777539878966112e-02,3.641930446146835441e-03,1.727780615274033079e-05,1.484694612940865108e-04,3.887409201857193464e-02,3.608129907086328209e-03,1.096022257433681146e-01
1.153599408296126921e-01,5.967380650369424194e-02,1.077497529584599267e-02,6.707807541360549797e-02,4.386919869825705795e-03,2.068498231492888275e-05,5.759480986883594141e-04,3.337299401812769684e-02,4.752492796060187041e-03,1.030368151068101895e-01
6.323274272234132021e-02,5.585105866680294129e-02,3.497390634483156513e-02,6.926889617863385418e-02,4.780869297259412488e-03,2.356722279984711392e-05,3.851148134786997954e-03,1.720883723243774033e-02,1.104986053874367977e-02,6.771472634034562954e-02
5.627237949110769355e-02,4.997799978056807757e-02,3.243129823121012473e-02,5.855634593274018640e-02,4.190618682462309876e-03,2.585635896185196691e-05,7.005491907775262053e-03,8.358529947703434784e-03,1.453786764909744712e-02,3.602742535386045664e-02
7.693287411278024179e-02,3.120395376604418250e-02,1.493840544408568324e-02,3.779460936000397786e-02,3.255779755137116777e-03,2.749912827548251320e-05,6.285004041917105488e-03,5.979618816256325464e-03,8.974588426742058714e-03,2.844906250391580557e-02
1.361939031898201369e-01,4.429020874056280137e-03,7.642470814609144195e-03,1.797546938254328264e-02,2.832167184431831804e-03,2.845840798241011776e-05,1.332484596953636578e-03,1.187321367674055344e-03,5.186392276033494411e-03,3.406713625141741947e-02
2.054879842048815686e-01,4.173426236275899759e-02,1.310914406463440166e-02,4.455513345463766456e-03,2.792318441148646923e-03,2.871404623389143713e-05,3.073978973225486959e-03,4.612719160877669193e-03,2.208545013052288369e-02,3.952826624646067072e-02
2.109803210393388362e-01,6.275253974403649515e-02,1.682161513921382606e-02,5.829856493506401990e-03,2.603488137513699802e-03,2.826327232875197010e-05,3.527552640922734361e-03,4.914533702750915195e-03,3.336745719126750498e-02,4.470291337227923906e-02
1.354184659955939563e-01,7.121933092741712656e-02,1.511445439871323890e-02,1.524205657269910898e-02,2.210172076845786510e-03,2.712067807401739392e-05,3.092082557949650361e-03,2.549743963590681353e-03,3.280699886028351497e-02,4.317522973708052408e-02
4.600793456190105379e-02,8.314488802818348345e-02,1.423524378776557311e-02,2.155289422255152881e-02,1.794816829470831073e-03,2.531777286608608620e-05,5.502557328242950116e-03,7.369057729373212906e-03,2.255181025068112022e-02,2.051162435210293622e-02
1.977465433851891344e-03,9.879019384241860546e-02,1.501334854702798122e-02,2.219268276745674923e-02,1.373820461317850662e-03,2.290212554454241532e-05,8.189091390154067812e-03,2.018279434761105495e-02,1.168539424777266869e-02,1.877472186126449144e-02
9.328532662671005365e-03,1.029963943011631688e-01,1.887591727502339889e-02,1.782589757618155760e-02,9.709633460937363864e-04,1.993611615225445436e-05,6.102553498264284143e-03,2.863673890561648644e-02,5.111191023464994876e-03,4.760663361050716802e-02
1.667909549278143166e-02,8.931520774754721226e-02,3.414753768489204450e-02,1.174645423707978802e-02,6.275753002393303671e-04,1.649533019861872276e-05,5.342367204911571861e-05,2.481523823777327664e-02,1.320852986668228637e-03,4.530576565273715384e-02
6.660456780162619939e-02,6.644905045893456652e-02,5.589882256295482243e-02,6.231921149274975702e-03,1.146864156621946927e-04,1.266663663845068263e-05,3.301073956797204254e-03,1.765275903492457416e-02,1.133596716827817499e-02,1.590951119830874561e-02
9.116297017473604103e-02,4.423492674049937790e-02,5.637189130435492357e-02,1.136446415710547523e-03,6.970199556944560839e-04,8.545998339767739663e-06,2.102175617934113130e-03,1.893358806337428965e-02,2.049418380844376941e-02,1.973256972464534215e-02
4.386276163949991841e-02,2.909396644934553536e-02,1.957302310896973790e-02,6.214988883974640515e-04,1.190572966714633675e-03,4.236070139203455806e-06,1.378805864704524785e-02,2.677153310981542425e-02,2.254009657961592028e-02,4.077703006940103236e-02
3.834742480052306252e-02,2.808784105685257701e-02,3.007788170496481645e-02,9.075376874763887644e-03,7.489411298492677695e-04,1.563554751127744451e-07,2.292785385794226735e-02,3.176556248485525036e-02,1.742155041123764209e-02,3.833888702282480659e-02
6.418860154857426725e-02,3.898441592237832098e-02,5.672519483129639245e-02,3.202436252889817592e-02,1.193267757948724778e-04,4.522991571090096948e-06,2.319159758054117892e-02,2.984821112028633594e-02,8.548892062790271890e-03,1.437260548599150062e-02
5.368164772867951851e-03,4.094437761764741640e-02,5.425668252020143106e-02,5.492367314644862331e-02,6.595252527830410254e-04,8.756723522070733963e-06,1.649683248876848002e-02,2.334955055465111687e-02,1.987334890771246584e-03,2.650121945052563710e-02
6.987253992854944307e-02,1.566107576672028448e-02,3.862439268606686349e-02,6.091405167366270579e-02,2.335172702098192027e-03,1.275423369691800843e-05,9.765400104793138178e-03,1.717226824561687848e-02,1.145186221953772496e-02,7.431807215908028952e-02
9.295859845837271818e-02,2.487121265551396274e-02,1.854185756658897899e-02,4.577358659047951750e-02,3.946844915582872239e-03,1.641851984899715981e-05,8.334717244784524415e-03,1.368986171119837385e-02,1.597015816558655654e-02,1.096161965011420297e-01
6.590926766924831703e-02,5.143040585414559995e-02,4.288478528192770853e-03,1.902736129582493357e-02,4.840996582554516099e-03,1.966124589218816237e-05,1.213055677429298630e-02,7.647620596607637364e-03,1.575833051524040684e-02,1.196978597610993816e-01
1.289908484264204284e-02,5.593385195634004159e-02,2.032529938177999110e-02,3.044531847011358681e-03,5.010339782317200542e-03,2.240486817282654464e-05,1.611820532929976457e-02,4.869342276625711514e-03,1.536210871386773681e-02,1.133388979907139216e-01
6.832900438815074640e-02,5.662054045495516774e-02,1.936233815192299132e-02,4.397260198146683147e-03,4.573313794131854751e-03,2.458448614207806740e-05,1.523007539625391774e-02,1.330812445922341207e-02,1.743858962516454600e-02,1.048193671184012438e-01
1.626541205774986176e-01,6.597047285206437961e-02,7.364662972998047702e-03,1.953588108371761417e-02,4.207548093010650588e-03,2.614937335457604212e-05,9.598116255885481493e-03,6.736787555148913108e-03,2.189743337711796273e-02,9.625803633063663434e-02
2.127868123787333421e-01,7.520362464467116037e-02,1.058191946823339342e-03,5.404001077225826372e-02,4.503724826760273706e-03,2.706415278770132120e-05,3.256306462739432320e-03,3.687810997926163712e-03,2.889791484577090494e-02,8.855866028233942699e-02
1.933064213178996849e-01,7.496353127867147470e-02,8.089580553655113804e-03,7.525379892981950980e-02,4.590937616243911598e-03,2.730958938835754558e-05,1.799877684501200153e-03,4.445974506340064818e-04,3.572646111856589424e-02,8.844701721175655951e-02
1.539559233890983314e-01,7.161076122661567955e-02,2.347263800142661977e-02,7.045078370190699379e-02,3.653366126123976185e-03,2.688298228746973542e-05,6.502731169023102248e-03,1.058330482185070379e-02,3.482632827100624190e-02,8.915683182973013765e-02
1.420397224244585865e-01,7.378857522600686114e-02,4.112129155046258949e-02,4.612441449981160430e-02,3.269343431490605908e-03,2.579814903956217161e-05,9.651886320969650310e-03,1.194160715078779710e-02,2.243698979763618026e-02,6.814855590038977617e-02
1.373446675882378509e-01,7.716981780548497205e-02,5.544325875169116291e-02,1.647765988910425763e-02,5.358719308703002032e-03,2.408500430026428078e-05,7.871146709196712513e-03,4.510413441462570935e-03,5.314745523108831485e-03,2.144498646288356056e-02
1.024331180586201540e-01,7.168575736835954004e-02,5.710706005103182575e-02,1.301617463475531616e-02,8.776590283806557161e-03,2.178874530088544575e-05,2.440954124761530487e-03,8.652744198877066048e-04,7.285072039590109912e-03,2.267992676405833005e-02
4.156487809230033359e-02,5.361935077680853035e-02,4.334388912706365476e-02,4.560961275062733189e-02,1.076644400644861596e-02,1.896866607263333323e-05,7.614576978614377972e-04,1.246792648483757617e-03,1.460520169452300676e-02,4.140554546219506193e-02
1.680289765827350235e-02,2.610118956152809172e-02,2.555557235417409839e-02,7.535047168727684874e-02,1.072681073988313374e-02,1.569663137984303092e-05,4.143830753711211755e-04,4.446219781475074274e-03,2.203192103007876185e-02,4.498925524320344926e-02
4.559963383753846272e-02,1.127644590960547770e-03,1.249694603444915716e-02,8.089365194380650215e-02,1.051162712251349843e-02,1.205524952352119840e-05,8.626256587067162359e-04,2.292396458820307806e-02,3.075032914061969630e-02,4.703210699468243772e-02
1.855391986938764726e-02,1.242583666484314495e-02,1.554405591699260791e-03,5.017832399658591486e-02,1.171691830075506993e-02,8.135790376218315036e-06,2.506809569692138983e-03,5.591962214362733441e-02,3.513099597199312307e-02,3.322260959651653078e-02
6.519817454437060178e-02,1.210360605394242284e-03,2.065572072418527666e-02,1.588935122585489156e-03,1.336124645390810925e-02,4.035901034933951994e-06,4.442466422729129429e-04,9.610964240958241867e-02,2.957147981142266291e-02,1.194021394029945102e-02
1.488182226190834512e-01,1.695822040000644071e-02,3.725903365061285222e-02,3.572249338961389770e-02,1.240754122437333525e-02,1.428238116787865927e-07,5.516532777088307103e-03,1.176733550687725782e-01,1.466797279420252106e-02,6.750952482206439009e-02
1.523186153173080593e-01,2.018150040880626120e-02,4.570539062142672110e-02,5.175351771465210027e-02,7.806805873166783663e-03,4.297356421208558069e-06,8.790111445914390240e-03,8.880104621305937029e-02,2.199093406419892587e-03,9.566442459514383490e-02
5.642003664676999153e-02,6.100831452946830352e-03,4.598614988129828829e-02,5.008468823507745971e-02,3.274805079930756882e-03,8.325773274336179130e-06,6.346241110956176400e-03,5.788838002413533058e-03,1.060130285851763714e-02,8.834300299599341655e-02
6.270705638527036829e-02,9.768456730096315016e-03,3.274642448504041375e-02,3.020299344087815085e-02,3.257107417981152699e-03,1.212975267414787708e-05,3.358422388990228713e-03,9.188519227444422177e-02,4.348707879341886032e-03,7.144320908698111039e-02
9.544819441894698830e-02,1.638539097183215609e-02,1.325694114258830353e-03,2.614171345661236816e-03,7.203343277209366645e-03,1.561697153480243075e-05,5.305638941049807197e-03,1.492873185965610805e-01,1.232967735194311076e-02,6.624443004690069858e-02
4.535629360164317864e-03,1.705611968228958747e-02,3.580071000220623467e-02,2.619553060088010768e-02,1.127158081614817314e-02,1.870334300444676908e-05,1.156135756563427854e-02,1.423348916354704174e-01,2.822885056364763876e-02,6.229935098351425254e-02
1.336803815670624673e-01,2.040600619990838582e-02,5.708297668286158727e-02,2.455209722223278615e-02,1.403548756144958574e-02,2.131504076428955579e-05,1.836231543692123588e-02,9.820801074022125765e-02,3.659003857969000267e-02,3.702864555039354910e-02
2.085375624192279398e-01,2.938392931800628757e-02,5.588115499187790852e-02,1.077830819843615846e-02,1.666603004532365637e-02,2.339026135169811396e-05,2.331130737516515575e-02,6.647964087044275217e-02,4.005015049943912164e-02,2.105615276214258848e-03
1.858970176536812458e-01,3.957250374336204746e-02,4.205335988933901759e-02,7.060681743204798994e-03,1.915929642281736373e-02,2.488068252842045848e-05,2.612476430138313196e-02,6.430202906669271745e-02,4.228554182534473987e-02,1.682550744938237849e-02
1.183038695958405634e-01,4.584027123999090403e-02,2.347282995263641134e-02,1.269055903612599165e-02,2.015425897092213564e-02,2.575258338593611361e-05,2.783167004599513064e-02,5.874456040709959137e-02,3.965908158519375337e-02,8.655049040746182198e-03
6.903914786931751590e-02,4.836402439929863434e-02,2.467872746652759880e-03,9.879257273787276500e-03,1.943908294613151677e-02,2.598760035524049354e-05,2.796722907875873187e-02,2.072043933214745906e-02,2.632139666085147461e-02,3.984883617143083340e-02
6.275279693362809108e-02,5.101891487411152476e-02,1.359785464580507731e-02,7.323539916449876494e-03,1.722659452107583658e-02,2.558310235600954138e-05,2.135395747843367442e-02,1.704570895328652233e-02,4.402647520817864514e-03,3.845655911804585908e-02
8.795747539695349115e-02,5.623088393477104763e-02,1.819500958701645785e-02,2.654432673817290825e-02,1.121822195585864095e-02,2.455217775452426314e-05,3.124389883900648840e-03,3.461567796894294939e-03,1.646300630918986693e-02,1.076447838389265818e-02
1.093341179172137023e-01,6.195187878379802837e-02,2.099454650086208379e-02,3.587104138607571241e-02,1.575660606631679346e-03,2.292323536752227314e-05,2.069605554573997197e-02,7.568398806344903140e-02,2.815410576035650911e-02,1.133554926806773847e-02
9.630307039826734028e-02,6.243282793994453517e-02,3.685938319893397597e-02,3.530982555490853880e-02,1.848853705638080908e-02,2.073923121472795233e-05,3.531205156198587158e-02,1.309920168459084433e-01,2.840752910825983246e-02,1.468777435295358195e-02
6.394448354750817409e-02,5.622829411065045913e-02,5.711147565202095988e-02,2.807247725181345049e-02,3.067741395596444015e-02,1.805654185430859214e-05,3.350556992842786824e-02,1.342198991659305229e-01,1.832207946187331196e-02,1.444863546065665999e-02
5.776275976507985743e-02,5.295911263989126067e-02,5.330623322682979948e-02,1.146464466087394538e-02,3.178163267513779006e-02,1.494351371037596756e-05,2.267092930298440778e-02,1.146584323407734973e-01,1.155009094285737881e-03,3.484212147402281079e-02
8.565278905281728528e-02,6.107051049907114698e-02,1.768343343469179832e-02,1.795271972939553248e-02,2.388543236913634460e-02,1.147872561213338826e-05,1.307007469388577620e-02,9.872191382063029430e-02,1.657044063044929225e-02,8.339367606911508857e-02
1.026276430010479301e-01,7.154591417952393950e-02,2.223312989169081225e-02,5.633564420296677255e-02,1.266993699739398481e-02,7.749008622379445336e-06,6.662877451798690683e-03,7.738697545769204766e-02,2.884782594314264439e-02,1.338376877725436787e-01
6.953704149419184799e-02,7.074402602624058067e-02,4.284047138540046651e-02,9.318231128446494149e-02,5.992627396588204487e-04,3.847272975148590230e-06,5.402307600973323479e-04,4.601628462794950247e-02,3.652006545786549985e-02,1.475080659036449027e-01
6.261372598276397465e-03,6.456221854600621701e-02,5.327013851081158213e-02,1.157719782330348252e-01,1.169558092711621596e-02,1.298035671691845938e-07,5.302572515005941726e-03,1.815014892240151764e-02,4.404105188185676589e-02,1.258419842623390295e-01
8.837284360756660073e-02,6.972659691215964128e-02,6.382558667810599162e-02,1.154642483963098654e-01,2.081900435635745256e-02,4.084168491901159995e-06,8.598471049318330561e-03,6.420264019287287224e-03,4.943372880228113359e-02,1.200303861309690578e-01
1.420484605451282911e-01,8.480249434342558568e-02,5.363638419624385673e-02,9.628364795526966891e-02,2.322854146243900908e-02,7.918809294896649107e-06,9.870628809099089157e-03,4.104123928928377074e-02,4.530254656166366606e-02,1.649587402602593067e-01
1.423863151110284220e-01,8.598143182295577003e-02,1.742106342871278021e-03,7.161536409577237694e-02,2.100745236290924370e-02,1.154013081725631740e-05,1.196085114129520101e-02,7.579043511672312050e-02,3.055036761988805943e-02,2.200184669832508100e-01
7.825212571031990583e-02,5.170620832759020846e-02,7.212002798392110059e-02,4.647051418950449986e-02,1.758474498986927620e-02,1.486023696851564305e-05,1.575715066417743282e-02,8.200871336184140103e-02,1.213792788291834235e-02,2.068239032351967266e-01
1.963965027735718738e-02,1.185502341872787455e-02,1.281083761351668182e-01,1.385360981692374330e-02,8.286664549128236815e-03,1.779906127889941845e-05,2.007935341968562770e-02,6.015068591603392467e-02,5.962177676931256637e-03,1.064916856848535515e-01
6.920369531543116293e-02,6.924513498684149726e-02,1.475079269803895587e-01,2.524856307865040034e-02,1.436704573926257840e-02,2.028629470842282183e-05,2.376835412717218099e-02,4.736353009350765392e-02,2.603053604188720546e-02,9.587043817046659450e-03
9.450288286075013769e-03,8.643100667477460197e-02,1.321755285001467717e-01,5.258621803127075389e-02,4.456958132778482407e-02,2.226306437235429299e-05,2.400422686048186635e-02,6.650513063594223895e-02,4.598760274714749907e-02,5.963291361368321108e-02
1.174909605674611252e-01,6.440284345367983110e-02,8.785408319801633892e-02,5.156588448149475312e-02,6.422564572927665083e-02,2.368332318629986569e-05,1.600836086488548887e-02,9.837103787794677923e-02,5.515798213856552834e-02,3.702088288451230169e-02
2.078263283105676595e-01,3.195398538685113865e-02,2.983293920642458852e-02,2.429640425753747113e-02,6.326594167273180691e-02,2.451491772870354689e-05,1.847245176049035339e-04,1.178487211732518330e-01,4.714532689298722018e-02,3.311852638331051757e-03
2.099803539091784632e-01,9.281734667281129475e-03,1.441521865279573981e-02,1.577209191908244754e-02,4.917672548605375032e-02,2.474030968012101779e-05,1.337279786641371211e-02,1.302589121872677058e-01,2.905196755011430626e-02,1.846933452493364908e-02
1.472552854070520445e-01,5.568177112564588402e-03,2.948537672137984539e-02,5.499774155414253324e-02,3.440611022396680707e-02,2.435693482552934235e-05,1.448492634704349677e-02,1.499411829699451304e-01,1.040514002947931851e-02,9.615847098566403586e-03
6.149632831466562977e-02,2.032794956448395751e-02,2.939581340107543656e-02,7.430279457913498142e-02,2.361313364907681803e-02,2.337719258361266176e-05,5.474907908503039503e-03,1.620070906254404419e-01,7.388824597130731579e-03,3.422400972922215803e-03
1.026873981448689875e-03,3.657677858819712025e-02,3.648871506829541589e-02,4.967275988186083818e-02,1.564365490265249084e-02,2.182806813328512123e-05,2.669179511500357517e-03,1.394925238444789939e-01,2.121524342722325499e-02,9.504343215335135306e-03
1.911460185412634100e-02,4.928658978069298813e-02,5.061175914022228439e-02,1.899438966527911346e-02,9.973139419703604125e-03,1.975039821848219884e-05,4.934594039519128901e-03,9.274016096517689878e-02,1.874949829186098316e-02,9.328198977025791219e-03
1.033785120069426466e-01,4.730745113319253375e-02,5.155973461025898513e-02,8.788372070191946550e-02,6.660901426249642675e-03,1.719780040672690155e-05,5.169751024756220718e-03,6.191394659916097526e-02,4.893274990073778578e-03,1.212873229037875894e-02
1.476695568653685342e-01,2.560389955472222936e-02,2.713295221748214872e-02,1.068934828908458673e-01,3.776489744125253230e-03,1.423529374326305938e-05,6.217273472508176406e-03,5.853649546825916150e-02,3.294596424872201640e-02,3.069882153737651248e-02
7.221581881376341883e-02,1.082179853298071912e-03,1.148822805576605287e-02,7.802215392600442279e-02,9.264540691933651796e-04,1.093764618275361043e-05,6.162925142013021655e-03,5.443909170384252788e-02,4.391756785373858440e-02,6.233432233084051921e-02
6.344915038266117635e-02,5.843664143147810595e-03,3.993537679337014895e-02,5.009876572333409050e-02,6.379139441588639603e-03,7.387490715573456007e-06,3.391858363207204529e-03,3.099038806388236880e-02,3.567401523331088786e-02,7.921197887583460162e-02
1.320197976880413959e-01,5.018380528132907435e-03,3.916863108678143163e-02,5.364017660378672669e-02,9.093056716663635089e-03,3.673257579592227236e-06,1.716981570733221336e-03,1.487785404926076326e-03,2.113576501610234248e-02,6.049002643265186108e-02
8.601892328963860190e-02,2.090246213713621223e-02,6.320992745446570027e-03,6.970996546710181430e-02,8.282821520109642094e-03,1.130257681361405364e-07,8.047520152278934968e-03,1.841444943150412350e-02,8.842858643769702792e-03,2.554666752762491805e-02
2.107341013176746922e-02,4.780702343026597273e-02,4.527778626874085638e-02,6.899872283406360829e-02,7.616846579565168460e-03,3.878012251506512621e-06,1.260421590261440010e-02,3.236081142810039862e-02,3.062602187301830935e-04,1.081917871231839051e-02
1.189303698877502979e-01,5.716935269188051089e-02,9.541278373275455249e-02,5.032264419233317687e-02,1.063637491945701799e-02,7.529334042039325716e-06,1.279109632110272607e-02,4.970124899659733586e-02,2.696203348547334538e-03,2.385227267964040374e-02
1.672865881725135728e-01,4.375225349866454505e-02,1.291896526107341736e-01,2.798320040308660550e-02,1.664151830806753080e-02,1.097786614019821583e-05,1.178072196735445790e-02,6.767267790714341646e-02,1.648357411363655413e-03,3.964715749801567962e-02
1.507241564854045479e-01,2.966016431069128795e-02,1.401360374212539672e-01,9.123315338810257524e-03,2.183572953508260139e-02,1.413989926245137708e-05,1.482822019861569467e-02,7.332331290483630470e-02,3.567976488133303790e-03,3.307859227130940244e-02
8.156460524899768194e-02,2.752779439870553166e-02,1.248519140073138384e-01,9.556541857173622874e-04,2.202124362827310999e-02,1.693916912295081732e-05,1.983929286328565619e-02,5.736430614760301000e-02,9.207032593629090739e-03,3.867913906414924188e-03
5.618149386359814167e-03,2.892225963792669982e-02,8.497840512813362168e-02,6.770060557065635427e-03,1.459278592945257788e-02,1.930869298329049413e-05,2.015886929999259614e-02,2.454533035242907613e-02,8.781325221633152350e-03,2.582172952043285466e-02
1.838467010904093826e-02,2.727747979430083375e-02,3.473095684265400246e-02,2.996500287523275186e-02,1.632351392522221525e-03,2.119236931599990410e-05,1.663462977158778125e-02,5.371381786004061909e-03,3.914720829101820190e-03,3.707436866540429060e-02
3.510470236990999304e-02,3.166069471919476935e-02,5.702965199006684339e-03,4.886612809494983445e-02,9.463555624320571166e-03,2.254630245936052279e-05,1.727655670925608636e-02,7.427589572809633126e-03,2.417858478160719513e-02,3.458165225115310271e-02
1.206412915531454022e-01,5.419189430691678799e-02,2.662630450432395754e-02,4.664843236398319437e-02,1.253081308809865686e-02,2.333982107953672629e-05,2.434931832882341468e-02,2.855758404579150991e-02,4.497937385318671183e-02,3.062662933110820926e-02
1.584810617618767070e-01,9.120584719796721862e-02,3.187775507113901896e-02,2.653812915969676334e-02,9.392844913297691833e-03,2.355616692612623795e-05,3.073022852597382878e-02,8.249814983009352842e-02,6.071870809778572714e-02,1.863950651248613352e-02
1.292224382452035747e-01,1.216169184824890254e-01,2.847104182201200262e-02,1.682133088947028281e-03,6.500325492409859789e-03,2.319283857718625806e-05,3.039528632845380982e-02,1.158697443398782334e-01,6.374487306465551062e-02,1.188438355987472481e-02
8.701884818139335454e-02,1.268049837771974553e-01,2.001973834578516312e-02,2.302494202131031772e-02,6.076485384027060545e-03,2.226158341539549504e-05,2.551863717251319150e-02,1.074514959384526291e-01,4.905835961692250197e-02,4.560799605765615550e-02
6.600974947263803239e-02,1.088347525474515215e-01,7.508168237436625876e-03,4.942756294254496696e-02,5.013496747661738175e-03,2.078803974684189382e-05,2.115763947859181787e-02,7.465619143636162414e-02,2.244971823455542762e-02,6.074041398151526494e-02
4.074363012086992808e-02,8.405083805349894410e-02,7.418387491627741366e-03,7.234390224635935118e-02,2.019527638592603404e-03,1.881103955453777285e-05,1.748979807995970637e-02,5.235961913598737028e-02,2.380813726026651846e-03,6.647546372705272211e-02
5.071031239539508170e-03,6.546969666018738476e-02,1.724849985812045017e-02,8.095927193408372635e-02,7.863286607893748073e-04,1.638159065994715234e-05,1.051753864569464521e-02,5.317789566536308687e-02,1.436909441114887255e-02,8.554176163475292471e-02
3.747001599039545550e-02,5.812978039336042652e-02,9.687343342725356077e-03,7.373053297219638036e-02,4.277605081769354604e-03,1.356156484572945392e-05,5.168152627204962955e-04,5.860973346836445552e-02,1.186576886783467788e-02,1.115215037908423301e-01
2.112150565278041181e-02,6.097881016241980118e-02,1.543231224286589938e-02,5.960531791825161158e-02,9.635698126335417654e-03,1.042212558301358204e-05,9.705885995344875131e-03,4.754025361412604622e-02,2.518658841629982728e-03,1.164487481424298365e-01
3.118186855531654422e-02,6.344163670830055279e-02,3.534997228849698359e-02,4.491072618918983544e-02,1.159483764933450650e-02,7.041935236123556479e-06,1.109862538069724194e-02,1.927200531931940602e-02,2.306694022737791443e-03,9.324858262422379418e-02
7.087174496710028915e-02,5.132438096941246974e-02,2.955378137516543116e-02,3.203508652622320818e-02,8.426149930658493811e-03,3.505186838043397548e-06,6.818557106397372947e-03,1.182591100554313684e-02,3.739351063383923677e-03,6.623926866657961487e-02
5.877497761987249270e-02,2.662710801378666628e-02,1.059023450097939384e-02,3.035908902301438089e-02,2.058723221321553248e-03,1.004903822021014040e-07,4.261286295593844954e-03,3.051739853236343919e-02,1.747435901331190547e-02,6.022147283967241305e-02
2.830762030376618877e-03,9.143733820135979337e-03,5.685512273727136648e-03,5.128339789089850220e-02,5.154242135362831038e-03,3.686199678502120559e-06,6.692042307550723212e-03,2.972478560248702217e-02,3.182889610192669860e-02,7.257528257135803518e-02
7.395734945697231277e-02,7.973606787311260727e-03,1.615849265811934374e-02,8.526276705471677597e-02,1.178800325270694394e-02,7.163966062198957307e-06,1.146907408887468637e-02,1.551225168215105560e-02,4.387758992404608427e-02,8.162350113655175710e-02
1.107591843247818092e-01,6.720137847775290232e-03,2.309667413532532493e-02,9.958166593328753036e-02,1.755583903297854020e-02,1.044889231626063087e-05,1.556344705088560931e-02,2.476073538439755098e-03,5.366636423480695972e-02,7.630376586120270199e-02
9.948114858374147718e-02,9.883997405401495628e-03,2.140630640571917348e-02,7.391327183382150057e-02,2.252232561988583293e-02,1.346122897131827192e-05,1.786972256495921937e-02,1.324317484847614516e-03,5.802215908635818820e-02,6.386881711064221201e-02
6.145057652612753718e-02,3.106828238733288713e-02,2.008497590350656614e-02,2.700633650858104071e-02,2.455555311768667717e-02,1.612830783446224500e-05,1.794175034663188922e-02,1.218805582702328465e-02,5.152914957547651692e-02,4.917037111517481851e-02
2.662524199528244415e-02,3.986106760573622509e-02,2.242210009961732170e-02,9.099484149721059900e-03,2.004897670102655238e-02,1.838629225641698702e-05,1.632782908236972419e-02,2.698079686462416527e-02,3.381433847303951662e-02,2.604764863688441984e-02
6.879502472565830230e-03,4.238508390446956570e-02,2.737895570421448529e-02,3.052484503594525209e-02,9.636115366468007634e-03,2.018170204930370658e-05,1.485078489798322132e-02,3.758092141286363541e-02,1.222402725201095913e-02,7.365068218508392592e-03
1.115483300950925218e-03,5.193321582490281058e-02,3.446369297508358742e-02,5.452888303220020105e-02,3.443310697940837276e-04,2.147267670412411958e-05,1.446251252934253363e-02,4.629863563616747751e-02,3.654987790817301133e-03,4.385819418942819153e-02
1.738693675742932973e-02,5.617899775713389166e-02,3.589797553141885200e-02,7.856052425511085568e-02,4.436047941940765224e-03,2.222994715861878186e-05,1.400956246383576811e-02,6.330391939905943843e-02,8.832194297748632850e-03,7.868925671893928220e-02
7.278593429855641228e-02,3.306389064217675477e-02,2.368849062447849971e-02,7.755620478772136395e-02,2.555663456270727482e-03,2.243749366601967954e-05,1.220349858618915637e-02,8.436990549940262540e-02,4.277575024006913251e-03,1.071483659419493889e-01
1.668234762544685001e-01,6.832747375307121444e-03,8.026693070585443415e-03,4.702914969508289328e-02,2.755226669234390503e-03,2.209287513084399977e-05,9.512133257260926844e-03,8.035262547758484364e-02,6.586945728961264915e-03,1.134039598813542382e-01
2.579597139054482513e-01,2.749677980282277945e-02,6.731438807209861631e-03,1.815220398551420714e-02,8.809651165443740245e-03,2.120722341490176782e-05,7.057545674142550948e-03,2.743462342564057660e-02,2.019956986569229618e-02,8.244097042530069974e-02
2.784592636440683666e-01,1.570351080277395533e-02,1.733016353989821901e-02,1.671354507703756709e-02,1.194499299944589560e-02,1.980490437380512132e-05,4.976809619238609615e-03,5.555847611917618528e-02,3.134811114600095927e-02,2.399240688448018438e-02
1.969919949344386412e-01,7.103347438456947271e-03,2.243274477632025907e-02,3.182018808169941038e-02,9.095369451391367710e-03,1.792285555819465230e-05,3.321714421841186898e-03,1.184777778143223659e-01,3.329562101388203188e-02,2.777874801746798086e-02
6.660438502010977702e-02,2.117293912016476529e-02,1.924549735098815550e-02,3.789962626479867480e-02,1.682253911751307139e-03,1.560961840438727772e-05,3.172493748990131389e-03,1.282729596715306841e-01,2.320642280951933437e-02,4.013827264574291315e-02
2.159069403918649488e-02,3.025316933464957531e-02,1.911509665219373461e-02,2.690498841000540584e-02,5.057394779201825237e-03,1.292409015387408699e-05,4.777262035627119312e-03,9.408329226337601436e-02,5.789984620645152215e-03,9.170630540917597967e-03
3.496041909254576918e-02,4.317768717427442060e-02,2.258818110290956860e-02,9.129710841467528551e-03,7.537058059978210024e-03,9.934027500340693916e-06,6.189696693664738236e-03,4.930337320063171019e-02,1.090967802580918716e-02,3.315627276595766587e-02
1.537326442013749184e-02,5.593197496554636050e-02,2.148503164098341384e-02,1.501794799317097626e-03,6.636272696721890602e-03,6.714339903894058352e-06,6.424764154613508971e-03,2.127221203961765852e-02,2.141521670963179858e-02,4.731987894279929968e-02
2.520314235592685179e-03,6.057552711858108646e-02,1.918022398824347635e-02,1.380880178110550959e-03,4.787207323975412390e-03,3.345215493074798882e-06,7.549921968075949501e-03,1.486836336906766955e-02,2.349551374554795236e-02,2.958331328737971028e-02
1.205430947355245336e-02,5.867524366971299532e-02,2.088082030542486034e-02,8.787800791194344541e-03,2.542593903056255752e-03,8.987362162035666319e-08,9.814900506086016510e-03,1.588546529012801675e-02,1.655926136202671983e-02,1.514075166615460287e-02
4.443678603892117079e-02,5.849704212243866247e-02,1.398711605497196010e-02,5.067181106438271854e-03,5.873477768975328504e-04,3.506237064191842136e-06,7.970688237556535286e-03,1.061983644300074948e-02,3.068489672672074058e-03,3.067044505850181901e-02
7.356667046288689615e-02,6.465728631752191979e-02,1.122393025435359029e-02,5.902396355238865092e-03,3.438037948571279808e-03,6.820051876106984983e-06,1.822591340464209484e-03,2.089727709303777596e-03,8.760483348271234233e-03,6.053239721831930875e-02
6.680723872053123680e-02,7.486751662212678959e-02,3.430898962822821752e-02,5.143742206335426368e-04,3.735496412373379843e-03,9.950416858231897726e-06,1.423250436616959637e-02,6.779018522065150595e-04,8.452809828298700826e-03,7.170428266071496304e-02
3.462685894741295012e-02,8.612312863408419505e-02,3.110190195984938871e-02,3.110985725719709813e-02,1.383122467393910768e-03,1.282132528083711480e-05,2.046851402363052130e-02,3.653747964204439973e-03,6.058001204655361592e-03,5.604934043104371766e-02
2.011343562076423758e-02,1.006232410752299355e-01,1.348274453596650692e-02,5.663098772968264832e-02,8.609346566867706564e-04,1.536350791717948139e-05,1.924579251299873145e-02,2.237258873598285073e-03,2.332375896358757431e-02,3.174680534104797752e-02
2.598888503501860583e-02,1.196341165828476300e-01,1.038903587178975109e-02,5.009639893378170505e-02,6.273864111304115754e-04,1.751610177120512731e-05,1.526360503123364368e-02,2.181299847614320137e-02,2.874410629788265448e-02,1.576638538897871811e-02
6.369108099508885568e-03,1.319878105418748893e-01,2.553571494805513195e-02,2.293014772388266703e-02,1.752845350186031919e-03,1.922810436414772162e-05,9.913696202543616914e-03,4.943485068410926470e-02,1.968474694989576224e-02,1.361542460239268185e-02
3.652844906816019033e-02,1.198677138541572040e-01,4.298672646053855462e-02,4.330016896813112387e-03,4.433796127816730555e-03,2.045957890269296917e-05,1.765377025174765099e-03,7.973457282602100515e-02,7.099719130089303908e-03,2.601917948031496480e-02
2.016174004862644753e-02,8.035880721783113245e-02,5.208800043868875435e-02,1.122182060139172285e-03,5.786651236076277745e-03,2.118258193432907501e-05,5.948434564997244142e-03,1.053851996240505462e-01,2.727209318346674079e-03,4.598489673351793816e-02
8.923809786708505887e-02,3.112156392887351075e-02,4.115647874874071854e-02,3.083080154904411976e-03,4.958482485846790917e-03,2.138179204530329692e-05,7.144010161751744928e-03,1.121369011989434145e-01,8.214668938526310110e-03,5.698472665716533547e-02
1.868854500008123865e-01,7.694425240944237181e-03,2.816877658735027646e-03,1.690443587198055264e-02,2.484986686132199460e-03,2.105482559944930502e-05,1.780705350119095873e-03,9.422306118533600727e-02,1.750117507996156244e-02,5.160524655477342904e-02
1.499277868891042975e-01,2.748663446234478683e-02,6.431747799257182818e-02,2.679426410529867769e-02,3.891853993939199631e-04,2.021223326696599065e-05,3.959707533761105437e-03,7.125081584670417412e-02,2.552444682411784960e-02,4.451320667917513935e-02
1.248646911202782976e-02,2.979939588722304439e-02,1.021819605565782441e-01,1.799878888868646637e-02,4.558317681782675444e-04,1.887717895927491543e-05,5.745285166182031826e-03,7.167974030930969465e-02,3.061709668834492609e-02,5.188384812965842613e-02
2.004293305727673780e-01,2.305573241237982712e-02,9.737217963971644963e-02,1.472766059846765049e-03,2.282990365008925361e-03,1.708481057568981540e-05,3.904423173767507943e-03,9.657019838572070136e-02,3.108735293474501268e-02,6.725595610268415847e-02
3.441643322427992424e-01,2.029189000444015997e-02,6.577452523234335324e-02,1.210640697980072157e-02,3.512940055749287985e-03,1.488133948895763197e-05,2.698950360472860636e-05,1.138656087158894520e-01,2.573682637063681028e-02,7.330702736711119938e-02
4.059481246334816773e-01,3.135460957683388478e-02,2.450428158201420695e-02,1.272878931578425021e-02,2.248016207623573532e-03,1.232285276643835413e-05,4.610236117388995421e-03,9.404526020588074853e-02,1.806954216587246254e-02,6.826215516795458571e-02
3.321699858964224927e-01,5.358438729618390101e-02,1.772680621616998936e-02,1.924051034949044586e-02,7.632851794097789654e-04,9.473888570407048334e-06,8.570212196019911036e-03,4.118672446573602014e-02,1.417884163764962513e-02,6.379466019587906600e-02
1.099859583019794640e-01,7.271793501322570963e-02,4.504805786124992106e-02,3.494717464901458959e-02,2.831982049755444372e-03,6.405810849426294326e-06,1.294837082824620844e-02,1.494652381127082805e-02,1.471006340501491982e-02,6.220087355259888706e-02
1.556922100602697034e-01,7.731588216246843004e-02,4.620262069913870506e-02,4.344204346670606925e-02,2.304407683516650901e-03,3.195024187539626559e-06,1.971423849630489500e-02,4.800142190847054430e-02,1.324454847677068205e-02,5.033277812867818779e-02
3.158604537198548834e-01,7.122319259814965942e-02,3.435864703673316423e-02,3.324479756977340855e-02,1.083019165658310372e-04,7.892659315927481336e-08,2.621927218812041688e-02,5.299198452624832856e-02,4.559543657662788047e-03,1.745134849905962543e-02
3.269626746810254669e-01,6.750336977878937383e-02,2.783128312005105770e-02,1.179073956394386183e-02,1.707230346334510668e-03,3.335324864838120096e-06,2.620064167553859055e-02,4.405602361859269067e-02,8.130008106843751928e-03,2.803440272193371760e-02
2.636914137036200367e-01,7.254678264852798542e-02,2.218636235775037907e-02,9.340048970803309369e-03,2.108841791557954353e-03,6.494270004693955299e-06,1.846611385368056302e-02,3.977095081968567980e-02,1.619718617905772234e-02,6.554731153467938110e-02
1.971704768512523298e-01,8.140095171461950163e-02,3.585003823386827271e-03,2.930390678597153201e-02,1.572425878949544132e-03,9.478635684436191084e-06,9.600021804765546118e-03,4.745024798779747671e-02,1.524088610875986433e-02,8.497429971557200756e-02
1.261612501076277704e-01,8.682013120488243918e-02,2.248578024939531031e-02,5.008131570239288122e-02,1.142327103159384736e-03,1.221595069701655589e-05,6.102074645486069843e-03,6.033628494527946279e-02,9.130543598175217337e-03,9.305708979896949729e-02
2.738303045973786501e-02,8.614176616397876962e-02,3.621236238946836522e-02,6.205102745552160126e-02,1.287422435530619037e-03,1.464015650973482959e-05,7.785923525908782818e-03,7.063919433519097457e-02,3.371722782365329379e-03,9.669207124857866209e-02
8.288127751908457019e-02,7.675715574511851602e-02,2.868402717006826239e-02,4.985131555593766417e-02,1.338848423137217010e-03,1.669319897786925030e-05,1.019212198917513953e-02,7.779142478446254838e-02,1.399769621994003971e-03,9.258736103914821935e-02
1.644257019276891829e-01,5.156898413669040032e-02,5.701380350970479058e-03,1.356913445664342799e-02,1.866658184813824715e-04,1.832641592744683556e-05,1.013170671862635361e-02,7.940034210364746436e-02,5.902811540648207622e-03,7.566271878885634516e-02
2.067772995852170115e-01,7.941319306689243948e-03,2.632831843028787117e-02,2.564418375797039920e-02,2.060646591766276351e-03,1.950168750984480895e-05,7.290200649486350271e-03,6.756494346976062160e-02,6.954502451484057164e-03,4.674951276392778216e-02
2.313595567932043851e-01,4.067791204267556110e-02,6.232164668755958009e-02,4.583807459556159258e-02,3.718796543690734702e-03,2.019232221271795560e-05,2.781818206512158206e-03,4.278542284106215399e-02,1.202487129360774176e-03,1.084185983588076621e-02
2.458906734229732161e-01,7.213957123899088220e-02,9.091140357547468354e-02,4.364732418564773453e-02,3.479290055039572626e-03,2.038365803069069161e-05,1.631396717213638541e-03,1.701161583872266153e-02,8.975611097883726824e-03,2.352754309845605726e-02
2.353217493783060776e-01,7.640861807104316894e-02,9.894809027799045253e-02,2.981942753895697878e-02,1.967113715197346159e-03,2.007336538982850376e-05,3.950451796149326809e-03,4.195266811663125178e-03,1.806391182267360826e-02,4.309213836499671546e-02
1.947881711044252284e-01,6.214717039206436866e-02,8.269588393558210959e-02,1.312885476152756553e-02,7.384712790011364143e-04,1.927144580581847510e-05,3.847402385668087510e-03,2.575259287199017921e-02,2.350688585406709649e-02,3.764112788732613957e-02
1.348219683215715337e-01,4.409344487733701801e-02,4.969089169244712140e-02,4.827112576188695436e-03,4.886539601799464285e-04,1.799992775434180735e-05,4.014595108550173333e-03,4.430183082224337099e-02,2.563667576038242829e-02,1.370494439103699634e-02
6.221261047975828323e-02,3.245930009336776834e-02,1.460967766690256589e-02,2.267077614231490304e-02,8.014117477172933834e-04,1.629226865871766420e-05,7.966115031417270870e-03,4.573826199035251755e-02,2.415559430466929919e-02,4.793626197223193990e-03
1.142114795117841683e-02,3.220050170329515765e-02,7.191969754566608294e-03,3.378438966584776382e-02,1.100556817823143988e-03,1.419247907258809705e-05,1.622201974825536464e-02,2.820869709175880674e-02,1.841383355783095949e-02,3.508372009542276310e-03
5.309513314880123791e-02,4.349392725087372624e-02,1.062491009644206744e-02,3.125091005294286517e-02,1.262210159895491533e-03,1.175399187934626824e-05,2.517492422172137867e-02,7.132612076825120898e-03,1.010964848870796531e-02,3.400062911611319988e-02
3.339677344025029915e-02,6.201847266240973627e-02,3.865095285678023587e-03,1.767844816198428301e-02,1.421634781298341090e-03,9.038305481686354409e-06,2.989087628592664025e-02,8.485167043391658379e-03,3.393844989880894728e-03,5.597261849802679518e-02
2.985773627213693382e-02,8.009398508750299739e-02,4.103916923016545995e-03,5.160423075159339609e-03,1.621209251705848630e-03,6.113435365889122071e-06,2.829786840641440246e-02,2.232501426524775845e-02,2.074424681762664178e-03,4.392457745292834698e-02
7.364208561840625278e-02,8.727271157750583763e-02,1.138015088893140278e-02,2.937092483117999687e-03,1.799599295578247242e-03,3.052212966948362650e-06,2.250345594141598890e-02,2.915032282037637035e-02,6.736665969630257350e-03,7.514831231668864242e-03
4.847351393951179060e-02,7.577620780309242410e-02,1.398675398346611864e-02,9.465322208113885472e-03,1.933626398843136824e-03,6.952567495479956474e-08,1.576970339904739532e-02,1.334934532333290069e-02,1.433727003900805985e-02,2.153712914188935651e-02
2.595682996366414572e-02,5.036887431886778732e-02,1.453016611920376899e-03,1.809198306000545792e-02,2.048289470674553164e-03,3.174816471666903139e-06,9.182278131698582910e-03,2.356334432590886235e-02,2.085566774560925971e-02,2.802714583816537375e-02
7.360965368178992718e-02,2.735504435176888682e-02,2.765493697546597338e-02,2.427267833929905999e-02,2.151785636625833890e-03,6.187462674942283884e-06,2.257730241831897716e-03,5.637683681033648503e-02,2.398679775154276966e-02,2.215227781125128984e-02
3.660028131987511091e-02,1.710216402699074600e-02,5.765789107140013858e-02,2.499949246856090351e-02,2.230040437478953211e-03,9.033902469075543883e-06,4.122191346722029436e-03,6.385974925026859095e-02,2.225881432435940568e-02,1.757558156898840485e-02
7.106809471482890272e-02,9.890730214079466315e-03,7.754882922661464340e-02,1.799660848487285789e-02,2.277083792116712559e-03,1.164500304519431807e-05,7.555866234062254445e-03,4.876066655534187777e-02,1.287362944042343312e-02,2.123878650955248956e-02
1.815952078961907412e-01,1.318407717078988982e-02,9.692728476649811742e-02,5.816576152022784503e-03,2.298046249882953942e-03,1.395773745506752909e-05,7.884320879668430329e-03,3.031765167304326103e-02,5.410815752457178406e-03,3.793910514085620245e-02
2.203437037722847103e-01,5.429785001007545603e-02,1.220354579203211526e-01,3.787804616837270148e-03,2.295024625521868353e-03,1.591670362646407138e-05,8.571090617968847927e-03,2.590391532042463432e-02,2.647923771271297466e-02,6.502801038661561173e-02
1.422478084023177380e-01,9.309900102241316922e-02,1.326053573433725874e-01,5.374051524759915557e-03,2.265540561785875980e-03,1.747544898877953696e-05,1.101783018029200804e-02,3.314497474541826250e-02,3.925470901611766150e-02,8.738304000558445861e-02
3.063568334615169447e-02,1.102803768504879989e-01,1.062922861063796687e-01,7.321946735921657998e-04,2.209157568666587565e-03,1.859756910237145823e-05,1.055062467068500209e-02,2.772229431659031795e-02,3.849337766862589993e-02,9.278802316684167661e-02
2.025289328826415658e-01,1.073454431906287337e-01,5.436626389340449422e-02,5.433893543027352654e-03,2.128284392490494351e-03,1.925755438228926003e-05,3.663493176463202862e-03,5.864825264484281424e-03,2.901675782393722119e-02,8.628889816580065375e-02
2.797377163453924620e-01,9.838154551107644585e-02,9.433007578227441819e-03,1.112430593728513072e-02,2.025070347228478951e-03,1.944136531346451940e-05,4.811707565732322237e-03,4.653470684400103086e-02,1.802314944340940514e-02,7.811005740443174861e-02
2.590601641896025376e-01,9.131833433154011581e-02,1.736409040806492082e-02,1.668011105958736723e-02,1.900958709475118746e-03,1.914672331227796812e-05,9.220099837754366576e-03,6.312982678769475664e-02,8.029650960040619206e-03,6.808142829635582816e-02
2.046204834181063470e-01,8.389189782256306627e-02,4.337631743043252747e-02,2.177420824130053140e-02,1.758086933701114322e-03,1.838311143073884945e-05,1.245410683762470175e-02,5.740550044823346937e-02,1.408275484065839561e-03,5.334449031303989397e-02
1.504140300148030240e-01,7.241560797731624866e-02,7.524848746781948039e-02,2.483187649753475917e-02,1.599450437053445608e-03,1.717148625013555633e-05,1.917377604239920569e-02,5.263424527725427127e-02,9.531325567996615233e-03,3.795569321640239469e-02
8.630977883384510774e-02,5.733633952038633824e-02,8.867481015459120763e-02,2.473399057110947999e-02,1.428173708251521479e-03,1.554370939492230106e-05,2.551858547916697681e-02,5.485933378328572418e-02,1.446762150587433890e-02,2.464657095398031447e-02
2.965618200894240553e-02,4.118893393627005156e-02,6.461145513933853890e-02,2.217402219182707315e-02,1.247338536525536418e-03,1.354171394123730385e-05,2.457812230739437817e-02,5.440921753780881415e-02,1.579211279481434679e-02,1.139436693738477870e-02
2.638136731183892553e-02,2.493481156753318134e-02,2.518035617457663536e-02,1.912632475040431865e-02,1.060228248892105141e-03,1.121642743095881383e-05,1.716404625547993806e-02,5.042906904512346050e-02,1.507137665746528625e-02,6.046262184655013666e-04
7.416546468335337428e-02,7.328436518100710576e-03,1.035784091245130906e-02,1.696071309431601559e-02,8.703097140786586082e-04,8.626479075531447871e-06,9.225065926580672607e-03,4.865087434410666350e-02,1.394657017417449789e-02,4.464470388335108758e-03
1.204122319679381825e-01,1.059518861699637431e-02,3.139023152589970334e-02,1.522708799360084422e-02,6.810133954744700732e-04,5.836723902427439979e-06,2.464685906048320885e-03,4.662229312451295765e-02,1.275259641134701694e-02,9.769220484854821557e-03
1.357222679026439116e-01,2.051892700770292788e-02,6.454445734208162644e-02,1.282911173377157370e-02,4.956323560142794453e-04,2.916620937495577998e-06,5.518064902297533172e-03,3.737571150333006409e-02,1.123384628759640722e-02,1.908554884497022999e-02
1.235506057742504771e-01,1.271047092932370975e-02,7.930353039494855705e-02,1.045905003879275472e-02,3.173185146864104886e-04,6.149407404676623589e-08,1.387113551141933715e-02,2.046211334448486477e-02,9.717646427216841687e-03,2.060555059423071003e-02
7.652733414884287100e-02,1.011474632416033657e-02,6.133818490961186892e-02,9.997244360099560162e-03,1.490281933576838649e-04,3.024198505920495021e-06,1.708430996233321897e-02,4.561510165216656719e-03,8.789595170308623848e-03,3.119710507662020425e-03
7.922257167358632418e-03,3.097227889456994482e-02,2.019386094754924144e-02,9.968695551723973439e-03,6.572230382623721855e-06,5.898791011380953773e-06,1.145881102009148680e-02,2.752693379856383394e-03,7.975523362312346778e-03,2.404283145184388237e-02
8.919008518750473624e-02,3.298712631112365318e-02,1.655618622555657740e-02,4.668916946706147889e-03,1.471688504855801121e-04,8.615073526267700318e-06,3.475584439811829629e-05,1.973706048934129736e-02,5.926775337330127819e-03,4.247529433762477213e-02
1.220260866172700048e-01,1.260041769664089345e-02,2.556477278732062139e-02,8.321340879427156084e-03,2.708330476024248777e-04,1.110706348481350148e-05,1.057087236004932047e-02,4.029506856203077247e-02,2.681901235298865017e-03,4.569819711359070918e-02
1.150128679806411564e-01,1.731134455841739153e-02,9.520264071710429765e-03,2.247946452568893791e-02,3.760563863548656814e-04,1.331459453564471123e-05,1.564476049712144878e-02,3.974995972859789173e-02,4.607839425600225277e-04,3.657069866085888715e-02
1.084415071344313197e-01,3.451565761970969842e-02,8.606856955135737397e-03,2.875168558115855436e-02,4.617854970151472841e-04,1.518476697747003704e-05,1.525305650044684116e-02,1.203164374769091077e-02,8.395548077988136855e-04,1.573792158815758707e-02
1.202248078583762758e-01,2.689047623459127345e-02,1.354576854267052627e-02,2.529992342292377086e-02,5.274408766005688311e-04,1.667321300424446561e-05,1.186458643585614620e-02,1.857821741176472405e-02,2.396582066823263902e-03,1.359052112966499352e-02
1.437524745117932934e-01,7.519693710208970663e-03,1.052293092498112967e-02,1.713396052691888022e-02,5.729196180407037601e-04,1.774514655873221536e-05,8.660346800059349689e-03,2.154490688803871110e-02,2.697965158242479535e-03,3.855537287740617991e-02
1.683276047228554340e-01,4.643508527338640821e-04,8.189508411334405630e-03,9.047665520332898170e-03,5.985892047869252218e-04,1.837617302188082426e-05,8.060718632905717121e-03,6.591309098720549153e-03,1.511641184105847087e-03,4.782669004662170459e-02
1.714339605473180483e-01,7.239860532163156295e-03,4.637297272147535704e-03,2.870583001812260313e-03,6.052724677320929806e-04,1.855283997666581005e-05,9.244342232061188852e-03,4.278552871314592054e-02,5.924358227298644761e-04,4.463726977646478161e-02
1.117294491772755638e-01,1.630605467610217810e-02,7.556557039209220276e-04,6.725070026141440668e-04,5.942207733296792777e-04,1.827291672881282267e-05,8.776906714335874424e-03,6.686928963016953997e-02,8.007433586373408812e-04,4.003220990063244278e-02
2.901996829660335661e-02,2.044731349078494215e-02,1.701789815548301410e-03,1.428181608878731227e-03,5.670761577825243673e-04,1.754539698288128615e-05,5.287601670635740797e-03,7.335724049791916834e-02,6.132362016342986352e-04,3.931730022230046223e-02
1.893939860315506096e-01,3.080868795575897323e-02,1.557055645852927633e-02,6.064166243524525806e-04,5.258249509205867788e-04,1.639022589449725103e-05,3.551536362434651187e-04,5.870942795462165409e-02,1.937563301854345558e-03,4.271785737242376341e-02
2.582255383151526029e-01,5.384724956342434171e-02,2.451377047161364120e-02,1.938430892541784505e-04,4.727440801610842446e-04,1.483775948011964512e-05,5.878473999632624451e-03,2.104477943985128691e-02,6.246892125527902725e-03,5.284720868829620444e-02
1.923702924064856212e-01,7.376682193606638738e-02,9.271169439605696574e-03,5.569390151006104340e-04,4.103406624842964568e-04,1.292797089897332623e-05,1.437662235620332761e-02,2.553452241931144714e-02,9.226145462367692576e-03,7.015414585653108326e-02
6.761267358812848849e-02,7.093760833882005457e-02,2.575763455261624590e-02,9.514856649906634073e-04,3.412863736788563566e-04,1.070942426839330943e-05,2.159861541914331190e-02,5.637803964577089988e-02,8.639545259946345909e-03,8.259465405371625712e-02
1.678500694615073924e-02,5.077782915616932402e-02,5.499256037593304447e-02,1.573913266059417688e-03,2.683485780346414867e-04,8.238042284736691039e-06,2.140462850664385380e-02,5.975064006645937342e-02,5.409330366196159721e-03,7.334929173974245875e-02
3.927706492814855843e-02,3.676489010858007001e-02,6.010825535550722021e-02,2.223663725552923152e-03,1.943199291081127193e-04,5.575698862015049380e-06,1.426126854470306099e-02,4.318190631649104771e-02,2.346954021909367603e-03,4.273668557208439023e-02
3.093771181681972265e-02,3.881346056823923446e-02,4.435142977506366380e-02,2.808125850006208939e-03,1.219479774701981423e-04,2.788672151356004947e-06,7.923096541900768314e-03,2.056716848251715843e-02,1.229598507403569831e-03,1.106057197393764402e-02
5.242812892486427984e-03,4.524402574735426202e-02,2.019224469869617539e-02,3.416782763721132928e-03,5.386648923141461207e-05,5.400343189719581233e-08,8.048819504342573372e-03,6.256403365487703261e-03,1.553767616483038398e-03,3.450256898635625184e-03
3.660825591506707694e-02,4.099728789431692638e-02,2.450379900564651423e-03,4.088017544385995697e-03,7.469722367887545009e-06,2.882245246182065633e-06,1.333477346540594584e-02,1.341024661009971274e-02,1.943888510928965755e-03,6.227844259603116522e-04
7.242291472550597964e-02,2.156912145251424148e-02,1.628680885335787032e-02,4.771496989077131899e-03,5.984486448786675427e-05,5.626648314323080575e-06,1.879088043344848483e-02,3.921417714122103770e-02,1.924528257735090651e-03,1.305323299500384462e-02
8.401921069259950248e-02,4.146133783388948960e-03,1.871786993126969140e-02,5.437119456230777789e-03,1.013358602796257934e-04,8.220186611116656248e-06,1.954615163571598799e-02,5.759614654811173740e-02,1.864002216786713600e-03,1.895603140593926650e-02
8.875976335889246283e-02,2.061962694534417995e-02,1.450676823935972623e-02,6.094361290709076132e-03,1.303584320478026596e-04,1.059984809233785105e-05,1.349609475843063962e-02,4.496096412663885822e-02,1.971502366166248341e-03,5.053699451677880899e-03
1.052810962070725442e-01,2.426309853328723759e-02,9.424466519665219977e-03,6.741951403455672884e-03,1.457041960188621658e-04,1.270816362844332553e-05,3.728374271115014998e-03,7.872683031544796400e-03,2.093197717225523530e-03,2.657871847589567821e-02
1.108891392861672404e-01,3.055653882710622493e-02,3.209715194648746044e-03,7.358685530937121751e-03,1.465678407178623327e-04,1.449459279448513220e-05,2.796826863941744620e-03,2.765417256153568371e-02,2.134921109454437395e-03,5.480547174766373097e-02
6.807976719290725898e-02,5.112912004525380083e-02,7.432816725654496637e-03,7.927395202555146542e-03,1.325643852672377088e-04,1.591673315248892223e-05,1.438313031635250067e-03,4.301564006911712257e-02,2.170170857399581800e-03,6.032657077167585813e-02
2.114079585664840888e-02,7.390630378803192402e-02,1.951900671139521204e-02,8.440074165929178918e-03,1.037363296928448133e-04,1.694132414921652126e-05,5.115571002236584362e-03,3.401068544489423140e-02,2.245944892836881403e-03,4.496033320270885481e-02
1.116649207545424849e-01,7.939163204141273800e-02,2.024839772401549123e-02,8.887252279303410260e-03,6.054931867925880955e-05,1.754502192701438873e-05,9.855277717363478476e-03,9.049287623505736233e-03,2.329599259527382130e-03,2.439056728857142559e-02
1.573399961650802648e-01,6.564035538467163922e-02,7.164293776048882563e-05,9.255988755139532217e-03,3.876094090893579514e-06,1.771492707817354410e-05,9.783580182489790694e-03,1.139990624042670417e-02,2.399013650578002681e-03,1.081574837961640258e-02
1.422965582470378243e-01,4.383764373471412540e-02,2.976137495138355890e-02,9.535322633144691779e-03,6.502810930667680272e-05,1.744885352062678477e-05,8.175185300773284494e-03,1.088566202940189492e-02,2.468621422731574408e-03,5.851321916399121123e-03
7.733744908041648158e-02,1.954348207665021139e-02,4.640643017263336445e-02,9.717741871492371550e-03,1.445571371535471104e-04,1.675533308210626013e-05,7.840698076947306278e-03,4.010026364551478283e-03,2.547577498077627841e-03,1.030123301589238585e-03
1.241922536098030716e-02,7.342238509706501028e-03,4.441275287329483901e-02,9.797064058369667899e-03,2.327973491154374333e-04,1.565335689258039018e-05,7.094661421259869372e-03,1.317114239372946076e-02,2.627141627239142508e-03,1.430121751497857516e-02
8.531130830114859454e-02,3.073252048071259401e-02,3.850565418444547999e-02,9.768079479657900896e-03,3.275839030681337253e-04,1.417186114057446946e-05,4.320623902888069863e-03,6.339580426868643773e-03,2.700210912799719254e-03,3.787473490446226915e-02
9.795967270991252918e-02,4.028806387262030136e-02,3.847301588856853749e-02,9.627829224472665356e-03,4.265562820956283509e-04,1.234897098967609869e-05,1.337482944172232666e-03,1.278850468213466388e-02,2.767579363345463572e-03,5.292945333196385355e-02
5.225002978745405674e-02,3.361229708981227499e-02,4.088305707893236801e-02,9.376004326002686934e-03,5.272068262420582857e-04,1.023102232496553968e-05,1.402282923984991304e-04,3.550091554114408188e-02,2.828992589817367481e-03,4.897855493642555569e-02
3.103745137494184209e-04,1.848508503204866413e-02,4.158638377383876150e-02,9.014489708158960821e-03,6.269469143841590719e-04,7.871386362838584649e-06,1.165370086833699510e-03,5.285343390039928119e-02,2.880239617456392589e-03,3.552512521793256550e-02
2.667455506128865034e-02,4.704919399732247418e-03,3.646114304691057406e-02,8.547227243965812085e-03,7.232001319766735280e-04,5.329126882409450896e-06,2.844666394443189084e-03,6.070722368090801513e-02,2.917442602082422239e-03,2.816718177162708461e-02
4.542896121176152185e-02,2.336658325065461232e-03,1.608639986879613695e-02,7.980400025357796065e-03,8.134651443776647495e-04,2.667523809367636598e-06,4.187459491885115251e-03,6.374830130603061085e-02,2.938608705469897015e-03,3.019977853141153981e-02
7.179847609259862318e-02,3.046133574955603440e-03,2.007562410941664266e-02,7.322388945335002973e-03,8.953218125932813206e-04,4.749999023444806435e-08,4.068494519980285148e-03,6.821026480050744467e-02,2.941775743231732874e-03,3.482568565446401976e-02
7.843262714370741184e-02,1.150858967306855538e-03,4.995300379081052400e-02,6.583496868232028253e-03,9.664971435737029206e-04,2.749009641121987559e-06,3.156912288001575279e-03,7.272223497514439250e-02,2.924392443897325198e-03,3.801964202713153246e-02
3.675295021270509610e-02,1.623342031515415118e-03,4.946761412710744266e-02,5.775702259320725229e-03,1.025045694694813429e-03,5.370706610975301832e-06,3.014219841170654671e-03,7.245091463538558263e-02,2.884299780129218494e-03,4.174262379318359473e-02
3.571100338961422094e-02,8.348048421036081274e-03,2.383532407965595692e-02,4.912454408116002924e-03,1.069392151650849386e-03,7.848553935891188768e-06,4.484412876256543140e-03,6.763619501688106217e-02,2.820141820813398988e-03,4.704880365574091311e-02
9.002968940579025858e-02,2.307709043955570583e-02,9.953565193539432900e-04,4.008396136376826506e-03,1.098108484826094619e-03,1.012233852384036567e-05,6.882178161861431456e-03,6.054414787803015507e-02,2.731005317551442498e-03,4.878422892580808884e-02
9.243378069977353784e-02,4.384805845012359343e-02,2.769992893053715814e-03,3.079016705236874932e-03,1.109957216957276754e-03,1.213713246661051006e-05,8.288726036783605408e-03,4.841904801847835005e-02,2.616300109879464691e-03,3.854902364600645143e-02
4.212460877601762604e-02,6.012616173744915471e-02,6.082744272352158359e-03,2.140299356782781291e-03,1.104483795213501455e-03,1.384461794302237432e-05,7.667793555647887949e-03,2.960767610088802307e-02,2.475984878866662256e-03,1.410728968146392204e-02
4.470667243583484329e-02,6.028098710924569004e-02,1.891948892656103096e-02,1.208374882920513517e-03,1.082027548641914614e-03,1.520424380571418052e-05,6.375454988454705256e-03,1.414139060973848214e-02,2.310664240936887662e-03,1.431385547121042517e-02
1.423974712159256084e-01,4.389930042248987863e-02,3.859486305741038209e-02,2.991636753878550940e-04,1.042515304674117033e-03,1.618418622047591179e-05,5.988317382885385669e-03,1.554003551683628796e-02,2.121501569692527556e-03,3.137754480231973869e-02
2.134344463400973391e-01,2.377730145680307869e-02,6.767513125840479704e-02,5.719865056752881233e-04,9.854341142991197410e-04,1.676209066253489305e-05,5.673530632768966978e-03,3.154541761602004668e-02,1.910168468322432115e-03,3.225518878921198457e-02
2.325595218507061634e-01,1.246157326500263798e-02,9.409798383975155611e-02,1.390645969122458747e-03,9.124031607152124045e-04,1.692557804423442798e-05,3.515126818323698228e-03,4.466279495783539999e-02,1.678859811942887484e-03,2.549311212509476968e-02
2.064026055251869107e-01,9.289290390192869729e-03,9.788958237080933045e-02,2.143622425470274873e-03,8.272642010708477697e-04,1.667250361654108086e-05,5.410510258057634175e-04,4.233290764712846488e-02,1.430271970326330890e-03,1.778663486793677709e-02
1.417441973090242113e-01,5.169649675648519890e-03,7.201219176216658302e-02,2.819252160807602867e-03,7.305262010981622162e-04,1.601096340695227862e-05,4.386063573523704164e-03,2.681862139854730362e-02,1.167530625749614408e-03,5.395634271677324581e-03
2.974935309989989313e-02,1.473637129883521770e-03,3.192159336169440170e-02,3.407656498374116508e-03,6.189336867232003367e-04,1.495904917732094103e-05,5.985879123078240681e-03,7.917155011433404943e-03,8.941176424051330406e-04,1.234179249297267036e-02
1.019703300708801053e-01,1.808149715694411935e-03,2.073124492564318733e-03,3.900954725436354530e-03,4.972000943004250498e-04,1.354435905374839245e-05,5.425819653590123123e-03,4.398732691105718476e-03,6.138060600139370144e-04,2.237695454569482711e-02
1.756266120023551314e-01,7.127813972298210898e-03,5.398240351972226868e-03,4.293428159565324670e-03,3.790932147596457738e-04,1.180327694587702876e-05,4.458037728681132558e-03,5.098056026870766144e-03,3.305826462147717980e-04,1.332621662378615131e-02
1.468121925220116086e-01,1.296900725423696943e-02,2.199956193091679238e-03,4.581632748206447732e-03,2.622434491399137403e-04,9.780039489175162130e-06,4.207085477833858583e-03,5.965016049697788487e-04,4.855630141193311919e-05,6.933790512113032975e-03
5.942571242748048710e-02,2.962148262138045163e-03,9.427554984234032265e-03,4.764457763056344393e-03,1.249908270960010167e-04,7.525614374905612308e-06,4.529835284644839234e-03,3.557536710019864549e-03,2.281350403729589605e-04,2.168763891486829437e-02
1.099025451554959919e-02,1.931512197290937219e-02,8.665921471684379096e-03,4.843128763610453878e-03,2.008467562261267167e-05,5.096418454683902291e-06,5.315570243068190072e-03,3.619390154125396147e-03,4.954148607315552681e-04,2.682849826713325572e-02
3.876985677427229049e-02,3.976773724090819362e-02,4.941591104595485437e-03,4.821154883564064166e-03,1.182215426587190997e-04,2.552907811636921139e-06,6.075294104163657914e-03,5.564400770757125386e-03,7.493584390118913918e-04,3.048657797384312501e-02
5.710850873354235413e-02,4.943410634862893671e-02,6.302864298034103509e-03,4.704222197905459472e-03,1.867935398912254070e-04,4.192501197012839420e-08,4.602930469878778984e-03,6.546876577612320905e-03,9.862818522722990519e-04,3.590211018032016255e-02
9.650635477356488134e-02,4.927638205344350708e-02,1.161876463293286948e-02,4.500036007004801046e-03,3.355792873231491259e-04,2.624109320087214250e-06,7.677440605475741161e-04,2.293125189183401608e-03,1.202825151878076336e-03,3.582990572112827038e-02
1.312167121736987352e-01,4.575140131492035078e-02,1.017811026390131462e-02,4.218115948906179039e-03,5.233473925303908569e-04,5.130271595239014290e-06,7.651817746263467682e-03,4.797673270581602066e-04,1.396027217381819348e-03,2.604650901269477820e-02
1.099578589778853893e-01,4.476182745205040114e-02,6.808492794490431099e-03,3.869549095653272534e-03,5.054802868874009800e-04,7.499189106920254074e-06,1.152240151219156850e-02,5.984166646527288268e-03,1.563391505277802150e-03,1.740812640284314372e-02
3.599740621522987821e-02,4.586047969628787718e-02,3.704740240841696702e-02,3.466707272573846168e-03,3.487095929484688062e-04,9.673283752222956567e-06,1.085815155676776896e-02,1.454305943545008278e-02,1.702941320087040123e-03,2.508033438036174831e-02
2.182620035447482149e-02,4.165195883613346389e-02,6.949692345711737385e-02,3.022935638018334377e-03,6.151191717843906576e-04,1.160001972258658479e-05,7.658288566728915607e-03,1.133942545016972114e-02,1.813262783253825243e-03,4.573695598945581864e-02
1.284604902332412389e-02,2.632282123288566186e-02,9.189701438159866842e-02,2.552220196035281767e-03,1.427076815256247055e-03,1.323317111441638173e-05,4.173894936371675551e-03,6.801625001748694450e-03,1.893534357299963590e-03,5.794414455991181434e-02
2.921657234009949339e-02,5.163106250372167215e-03,9.617191138945289930e-02,2.068842418210619337e-03,1.914471203062233749e-03,1.453392894541658960e-05,2.112255800545920735e-03,3.227002978629432695e-02,1.943542455457888778e-03,4.906462833204296853e-02
3.141788174318732585e-02,8.732744611138664598e-03,8.264985371924095381e-02,1.587029446989737542e-03,1.439098180162309533e-03,1.547182111709405209e-05,3.156458406621538530e-03,5.439878960279176390e-02,1.963682839049951927e-03,2.924461142971350111e-02
1.498193950837510557e-02,9.879103204307600541e-03,6.092313387393753082e-02,1.120608412015036606e-03,6.397204409309633797e-04,1.602542357362657884e-05,6.817618227450208956e-03,6.196870364643896484e-02,1.954947693466677159e-03,1.545495198217332333e-02
3.670645479042495413e-02,7.536909379773685212e-03,4.158188679783892533e-02,6.826732429329853205e-04,3.869892124066933261e-04,1.618284612976008356e-05,9.094489060196581098e-03,4.862064972187421508e-02,1.918898702811845441e-03,1.307487141801363939e-02
1.166689018749413748e-02,1.254374101253914048e-02,2.603795184537356297e-02,2.852720223895836111e-04,5.590398875228196670e-04,1.594198204515209576e-05,6.426260269463945560e-03,1.919447662869414387e-02,1.857626861173198533e-03,1.529704023426544691e-02
6.544732738665456906e-02,2.249912769118685846e-02,9.519457608877962204e-03,6.087761317894921885e-05,5.942380497282205359e-04,1.531051627037539921e-05,3.847466786204217304e-04,1.388181141568608536e-02,1.773700044768841211e-03,1.372289294742240484e-02
3.843500502072633163e-02,2.662314019081033975e-02,6.507364486805956513e-03,3.466382411795457599e-04,4.262323305979980547e-04,1.430569323605033718e-05,4.148017842927041038e-03,3.679126764563245278e-02,1.670099628665496373e-03,8.915532960161792406e-03
4.413759246008434195e-02,2.019258810461938350e-02,1.323001984521176427e-02,5.646616916459162600e-04,2.999379330459310024e-04,1.295385095493557451e-05,4.987742908570712459e-03,3.645438005730901321e-02,1.550147711012795932e-03,9.974290035008596955e-03
8.918069004175079029e-02,7.582583859522329557e-03,7.844676024013109289e-03,7.095524840320358191e-04,2.567902498993514964e-04,1.128973391275281225e-05,4.155898238308631393e-03,7.747039933147367372e-03,1.417426748421681676e-03,2.049391724244445726e-02
8.274689509938928933e-02,4.660564383374300908e-03,4.049382755014555024e-05,7.779819278917742302e-04,1.871127547423298522e-04,9.355602597894370067e-06,3.758152551845869195e-03,3.658313051233320207e-02,1.275693577098089204e-03,3.033690310257402406e-02
8.432496141633287479e-02,1.217411573351993501e-02,1.302162419934871102e-03,7.687503800233884193e-04,7.352658392506192242e-05,7.200162432562056543e-06,3.588761907325836633e-03,6.977399278118905090e-02,1.128789915502273217e-03,2.764871883857225945e-02
9.192645764616214077e-02,1.278670460578177487e-02,1.468780163377965929e-02,6.827964331874312922e-04,2.932116981404571832e-05,4.877339199824930764e-06,3.282431527280442983e-03,7.077819349037997587e-02,9.805515250650110801e-04,1.345310541413227007e-02
4.092948952261905166e-02,6.400089269224945587e-03,3.384454062864112461e-02,5.231531175601317109e-04,1.090731933601972426e-04,2.444931708846133734e-06,3.549994445578688422e-03,4.348605706309166541e-02,8.347182330659768095e-04,1.040050472878139686e-03
5.291539569519583541e-02,4.117697123470629578e-03,4.833075592169436274e-02,2.948524941667815123e-04,1.877160719178155510e-04,3.682468235465330224e-08,3.819319344446571798e-03,1.512973642964400220e-02,6.948469898814667745e-04,6.869813275528329974e-03
7.803985802406145089e-02,1.292083560625745774e-02,4.901688061662810153e-02,4.781278141546179208e-06,2.680425983982022658e-04,2.506748027945259030e-06,1.550405282426491407e-03,9.422863278438732212e-03,5.642300475486551007e-04,3.764533698098045979e-03
9.508398339205239788e-03,1.487339277312962199e-02,3.508425801966267438e-02,3.385086822051051837e-04,3.367944983061470655e-04,4.904216425332803651e-06,3.893281685039846635e-03,2.377951435830269120e-02,4.458202130895041961e-04,2.117819068354085364e-03
1.176427626104136759e-01,1.068752653703972794e-02,1.753325420255440886e-02,7.250301558252905936e-04,3.898413207179944086e-04,7.170654255861600630e-06,9.028383146993909300e-03,4.038662057523971505e-02,3.421649494321431467e-04,4.088305972440241590e-03
1.545556611725177887e-01,5.871940940795910766e-03,1.022382924452777328e-02,1.143624631036738041e-03,4.310799062081626114e-04,9.250961638838445722e-06,1.032951727310139206e-02,5.068232851333739908e-02,2.553508723564199565e-04,6.171314254187340240e-05
1.372551426650820139e-01,3.701527943934986194e-03,1.338172199373854551e-02,1.582254076833726399e-03,4.606841424837875140e-04,1.109485225689395761e-05,8.581955748859769820e-03,5.740207959540942484e-02,1.869599304460327718e-04,5.761999998917753489e-03
1.212013905957112225e-01,3.520854596073703761e-03,1.366988497557036254e-02,2.028313024255636900e-03,4.755183944351699336e-04,1.265806711322870611e-05,6.782387963187528832e-03,6.211056007127167822e-02,1.380382637635707132e-04,6.488152645793762718e-03
1.035403116106046184e-01,6.906683503370030820e-03,7.647409280042895101e-03,2.468953165030279666e-03,4.746738491499103807e-04,1.390343496934962032e-05,5.533831485924122461e-03,6.296312109553969805e-02,1.090784226510056396e-04,1.970792748222649493e-04
4.772069031789535898e-02,1.726173469776233135e-02,1.260712500531742386e-02,2.891412394661100997e-03,4.593587996168830038e-04,1.480175410378393868e-05,3.320683681076970484e-03,6.191340151805425213e-02,1.000152981983928554e-04,8.997906480429349041e-03
4.687508005901630526e-02,2.897278605358111214e-02,4.146084834958684018e-02,3.283340156405618101e-03,4.303077653082085685e-04,1.533247452936648277e-05,1.353917205184212449e-04,6.677916759836588501e-02,1.102357789026983388e-04,1.323579902529762112e-02
1.450034367771492472e-01,2.768523900485898512e-02,7.956286046688799962e-02,3.633111072053133925e-03,3.877906520557624650e-04,1.548416479602154143e-05,2.134498390292994402e-03,8.141927841632394525e-02,1.386018122971931828e-04,1.197101291931534743e-02
2.195680744035315990e-01,9.857546498414453823e-03,1.005736408436674612e-01,3.930119170989068537e-03,3.328024065427469930e-04,1.525475286291664332e-05,2.580599256605167497e-03,9.601973751747049091e-02,1.834862239903385498e-04,8.199129842381578867e-03
2.634130029973552611e-01,8.745344864395898990e-03,9.506131088551150743e-02,4.165045541861050853e-03,2.670372094191718619e-04,1.465153611539352988e-05,2.214889897384996007e-03,9.532800723322666647e-02,2.428203375019746466e-04,2.867789029254654183e-03
2.672754758064363467e-01,1.399657907889506440e-02,7.260002145085385494e-02,4.330092917817447706e-03,1.922835765216081110e-04,1.369096128995134119e-05,2.109398768365622172e-03,7.575896803124476664e-02,3.141521540739138346e-04,5.258452988914350847e-03
2.131892630767698305e-01,1.174446273487799765e-02,4.539032677585055214e-02,4.419181549153417508e-03,1.103712657674892647e-04,1.239818071478355150e-05,2.249157072557926573e-03,4.761115560154830645e-02,3.947135991540211427e-04,1.519269311788807100e-02
1.025982578752461100e-01,1.495905647677765044e-02,1.978327711872269676e-02,4.428101694899112470e-03,2.338729847229265927e-05,1.080639673565676405e-05,2.268395919033449910e-03,2.313845185348846478e-02,4.814951275358497979e-04,2.305525741877131191e-02
1.850125884177288363e-02,2.303892403848929391e-02,2.546172248491280262e-03,4.354619152829633175e-03,6.637021886971059372e-05,8.956011344038484898e-06,2.174956545465127518e-03,6.336581711063612489e-03,5.713258072621956981e-04,2.636682322065393019e-02
8.342721320365298343e-02,2.456585267342997758e-02,2.315613861232893034e-02,4.198531418381929933e-03,1.565727466206868026e-04,6.893602731417911876e-06,2.131587803947704307e-03,8.066851437794087323e-03,6.609568774059381389e-04,2.698770501849185460e-02
6.442114525782524637e-02,1.422329529825542421e-02,4.293033162898771821e-02,3.961673287929120407e-03,2.449241244914615069e-04,4.670754647147553716e-06,2.133636741211927292e-03,2.434664667682114730e-02,7.471466995905147153e-04,2.884867340852630135e-02
1.584105923572772662e-04,1.603386686910911879e-03,5.576937081281412717e-02,3.647871970490958009e-03,3.291602353403555469e-04,2.342767937373180152e-06,2.104135913965924243e-03,3.456261597306351657e-02,8.267449992257942543e-04,3.339272036310426267e-02
4.844258085965093275e-02,1.396232915555086114e-02,5.285590827558463156e-02,3.262853013506167993e-03,4.071022739814503808e-04,3.271359331721827602e-08,2.043386068390878364e-03,2.703934097292696320e-02,8.967743202676857744e-04,3.802179353039177034e-02
5.476236048611510254e-02,2.033568102086496382e-02,3.682302229744346261e-02,2.814099552322522815e-03,4.767373972342888919e-04,2.397128892618126611e-06,1.984540640675996545e-03,6.638778856263060149e-03,9.545066959520311783e-04,3.922919467762683160e-02
3.383457250548722872e-02,2.357946866884340700e-02,2.264140379168096476e-02,2.310668530192691496e-03,5.362698119372444599e-04,4.692441720892554081e-06,1.926094922856551751e-03,7.325348794090248174e-03,9.975336652529810579e-04,3.633363940858850422e-02
5.218542136258315887e-03,2.569997588705470737e-02,2.058269092561503325e-02,1.762968578186648906e-03,5.841520818591071666e-04,6.862563589923853017e-06,1.855960111392135131e-03,4.628346964038668535e-03,1.023827937434244970e-03,3.142866300307897709e-02
2.143048912830735828e-02,2.534661500994563749e-02,2.727650097718979302e-02,1.182505167372465207e-03,6.191217857208354373e-04,8.854722731697841311e-06,1.777080538280140622e-03,8.270675020585913084e-03,1.031795220562695126e-03,2.731100850231114527e-02
4.179765165546042022e-02,1.911171935864654226e-02,3.499879644899255016e-02,5.815994267503206546e-04,6.402377609124918585e-04,1.062074572431423574e-05,1.687562640402061982e-03,2.246257232539296614e-02,1.020314978819990585e-03,2.612104718106606285e-02
5.484752148658552512e-02,4.478687137343622879e-03,4.011117667137776427e-02,2.691235880149852461e-05,6.469028862676625379e-04,1.211822069013820334e-05,1.581617702704157021e-03,3.299004303348079814e-02,9.887691616150963252e-04,2.681841483128068193e-02
5.102350708943448332e-02,1.472451546186751004e-02,4.160847702588151703e-02,6.299911104314218123e-04,6.388751225260035690e-04,1.331151402223439412e-05,1.478214096981216507e-03,3.313956105116290518e-02,9.370582479151621938e-04,2.352476100994196906e-02
1.395765338391694033e-02,2.770293005338347533e-02,3.943587348751664834e-02,1.214711456132956755e-03,6.162723329006040670e-04,1.417261631110723525e-05,1.393275281307003325e-03,1.818089940127020840e-02,8.656042644051650413e-04,1.130954778637169832e-02
3.481169756515151148e-02,2.780004394742780632e-02,3.540381989602778973e-02,1.768574579416178853e-03,5.795696045255232208e-04,1.468179744071123812e-05,1.283813676189548766e-03,4.263266467820932965e-03,7.753407582592548777e-04,5.684313406373707987e-03
2.500670426374687616e-02,2.071024990867414636e-02,3.177262592440604355e-02,2.279809746222607840e-03,5.295864097064041870e-04,1.482805559265879535e-05,1.118233081590318864e-03,1.845383286391221248e-02,6.676900265228198281e-04,1.720332324747722921e-02
7.652967326818765903e-02,1.544838405738763187e-02,2.898704716581521068e-02,2.737657149691821983e-03,4.674649526143547580e-04,1.460935002146774781e-05,9.946679012783901045e-04,1.611634979129090289e-02,5.445282164855908078e-04,1.841187496602436635e-02
2.013308623691910104e-01,1.293813281534388938e-02,2.631094245368609252e-02,3.132625200977865853e-03,3.946417061684275984e-04,1.403261281431472379e-05,9.879436174890640285e-04,2.263558660384757011e-03,4.081392073452112758e-04,1.379482994309737427e-02
2.537372420712997734e-01,8.890149840552493896e-03,2.352953907269753064e-02,3.456716049515392523e-03,3.128114359747429310e-04,1.311354029384032725e-05,8.936652652487128354e-04,1.286043643236810946e-02,2.611584557271031315e-04,9.936815143293593888e-03
2.187641474326402491e-01,1.879998291727516839e-03,2.096955494407853893e-02,3.703613921158221446e-03,2.238836335701387603e-04,1.187617012808943817e-05,5.507285710842368693e-04,2.352198300124965988e-02,1.065082296609533719e-04,8.897750104244808375e-03
1.507835214260433154e-01,4.862180676777687512e-03,1.873021999137106791e-02,3.868831797062768744e-03,1.299352213555586338e-04,1.035225544521080450e-05,4.011621217319216270e-04,3.142587613096525789e-02,5.267413839248093741e-05,8.955176222005050216e-03
9.126716689791784798e-02,6.101855206823253615e-03,1.665265898349766599e-02,3.949812996584870645e-03,3.316191203620185400e-05,8.580452184420245685e-06,8.278761893857598548e-04,4.075837049579152799e-02,2.131131838183453555e-04,8.399418717615597663e-03
5.181501879580998476e-02,1.021061924944647323e-03,1.467786140456272571e-02,3.945985347822374145e-03,6.417632258449122717e-05,6.605340429185576561e-06,8.376083939760949060e-04,4.989552151570790517e-02,3.714755115460711445e-04,7.110897897950354402e-03
5.747686606102652557e-02,1.419367352457848175e-02,1.286612663414573449e-02,3.858766801939153557e-03,1.598165665034255391e-04,4.476304454656509917e-06,9.817739300492763291e-04,5.008377275121422834e-02,5.244512786246102514e-04,5.750618125670651712e-03
1.416586035808678479e-01,2.838976270627422208e-02,1.123015483090876801e-02,3.691522543061116941e-03,2.515473590003918826e-04,2.246299583506706822e-06,3.729017530314382954e-03,3.591370670894750150e-02,6.688349456216710143e-04,4.990470655977465378e-03
2.815275906698759267e-01,3.874977073308569220e-02,9.724296327580737170e-03,3.449474834909838864e-03,3.372499508943763375e-04,2.946339724265406931e-08,4.570673668473163032e-03,1.524949021280922259e-02,8.016033108067388687e-04,5.255731225690053916e-03
3.883972608958814465e-01,4.133795095065997266e-02,8.323018166590624711e-03,3.139567999283231475e-03,4.149512895178803103e-04,2.294883613404984660e-06,2.636461046976978397e-03,3.024201620329546210e-03,9.199889157618383780e-04,5.284846089199617472e-03
3.967812774416022426e-01,3.712981176806793432e-02,7.027367928311161957e-03,2.770292011847398216e-03,4.828984620320176226e-04,4.494351546479106297e-06,2.436957948355217177e-04,5.115740481786148000e-03,1.021547032379932756e-03,1.425137439197008121e-03
3.306351846460945931e-01,3.357013727888299298e-02,5.828788587902784292e-03,2.351469200991615841e-03,5.395978128756125829e-04,6.574112562755900586e-06,5.057571104013061690e-04,1.401108655087321755e-02,1.104214605983539887e-03,7.542797696416681658e-03
2.526878765166831742e-01,3.484749945182999409e-02,4.706141960684449149e-03,1.894009421563378056e-03,5.837928770202780934e-04,8.483579133058991590e-06,8.690921924038737777e-05,2.082508402980280324e-02,1.166359733297984026e-03,1.491325188588564846e-02
1.831140887486709112e-01,3.438543531303130119e-02,3.643119525376230586e-03,1.409639825891141575e-03,6.144984451899660523e-04,1.017655974828412979e-05,1.401914202588741283e-04,2.504989475856065836e-02,1.206820492072737099e-03,1.185159647958690908e-02
1.005922080044866218e-01,2.394855434940575123e-02,2.630308803609667997e-03,9.106159517803667953e-04,6.311461969120372040e-04,1.161237471584529045e-05,4.456621341091865005e-05,3.045676954942846265e-02,1.224932205274984701e-03,3.000316763324500880e-04
1.267612535981456692e-03,5.621502896316094705e-03,1.657452084647981346e-03,4.094212771312391629e-04,6.335904964358055058e-04,1.275683192444718910e-05,1.556649910277294632e-04,3.739171820583022526e-02,1.220542510333099805e-03,1.052874846378930307e-02
8.949250763157989841e-02,1.042856155269465158e-02,7.127786142839453911e-04,8.153735636547902559e-05,6.218476741486054539e-04,1.358303921502032187e-05,9.200634805738365474e-05,4.270302474384388147e-02,1.194013905737906830e-03,1.154445489716631607e-02
1.250284545585652884e-01,1.697725199978097552e-02,2.129422252409684906e-04,5.502309777977841153e-04,5.961012686970516188e-04,1.407203410432996269e-05,7.168156880052259925e-05,4.424296070243614182e-02,1.146213755950178199e-03,5.799004066778063078e-03
1.127089628349785544e-01,1.657763256544493927e-02,1.125764170670211272e-03,9.852990205694552375e-04,5.572571652140537223e-04,1.421321617154461427e-05,1.419917995259537468e-04,4.301412641143837617e-02,1.078492043411864287e-03,1.163433090830287911e-03
1.011387056801615891e-01,1.814805507956722061e-02,2.030445101275187535e-03,1.376322088971758048e-03,5.069190269661155279e-04,1.400457232303481327e-05,1.995672812395662174e-04,4.180761650516696265e-02,9.926474559656304174e-04,6.353431025181382683e-03
1.191250163016798896e-01,2.532969605704610272e-02,2.930612695789682788e-03,1.714070357273105678e-03,4.461489630580193436e-04,1.345269027509679929e-05,2.188658512403705901e-04,4.217769392236674769e-02,8.908826818382468461e-04,8.717928949884656831e-03
