2.274163895073668014e-03,1.019972923718667768e-02,4.646983826551731069e-03,2.146029907692524261e-02,3.102961914548377133e-03,2.593851934411493376e-03,5.902525759471598070e-03,2.492954756728585526e-03,1.559695451255459046e-02,4.878128999414545891e-02
2.585669262068363613e-03,3.080598273280901397e-02,4.601014329430441752e-03,9.395832562763273277e-03,7.575142260072927807e-04,5.211316657651113814e-03,1.070888759566283183e-02,2.652105979435670242e-03,1.045850842455700765e-02,1.233172971355146752e-03
2.559681540905202422e-03,5.118895689696918022e-02,5.451989235620612398e-03,4.423242324478710366e-03,5.287614233633677885e-03,4.276279106968036009e-03,1.970038458268086670e-02,1.955137004153915947e-02,4.467493164708434723e-03,3.335575583936617461e-02
8.547943808804316611e-04,6.159939860416154683e-02,6.597305842456858971e-03,6.816209835740683412e-03,7.466503400834253144e-03,1.387730031980466665e-03,1.867018774498414510e-02,4.668825207600226651e-02,6.164575968729049931e-04,4.249808983396523993e-02
1.967385323429904267e-03,5.624058070747200294e-02,7.462522909079801967e-03,1.946110282682112771e-03,5.610456634888037752e-03,2.248831382266108434e-04,1.230643123321134916e-02,6.610116554598736982e-02,7.133734332993549483e-04,3.330683335013114726e-02
3.628035101012414086e-03,3.039174515250914893e-02,8.173520164824607179e-03,1.203429713610039940e-02,1.030316642366353123e-03,5.684784635681250494e-04,6.607200582641764401e-03,6.579432443355802407e-02,4.988506515187595032e-03,1.614639265062679796e-02
2.678330895075659891e-03,1.442177820766563957e-02,8.681911829200389397e-03,1.830592239475870367e-02,2.694372923322536049e-03,4.578612959105248697e-04,1.589997880818012563e-02,6.749690841054316326e-02,1.272812963849675322e-02,1.311636917562602166e-02
2.853555192758349453e-04,6.509056859362584435e-02,8.838979537897072650e-03,2.233770961594226667e-02,2.828901894317307694e-03,2.227124558407071048e-03,5.545679110417379987e-02,1.008802354027292097e-01,2.166026074440786237e-02,3.803358365449484996e-02
3.462898320418623336e-03,1.056422495419963026e-01,9.429990897067110772e-03,2.247098766943083845e-02,3.163562319747701269e-04,8.702271260387620458e-03,1.137858885678310894e-01,1.568401230354243281e-01,2.777448173153089853e-02,7.426563346418421641e-02
5.040741931720995120e-03,1.316960602468085495e-01,1.132022519904204820e-02,1.216163979640990170e-02,4.872906901860455005e-03,1.496192493456934176e-02,1.546281606486841764e-01,1.992216520084316156e-01,2.799056488929058464e-02,9.392890466405492966e-02
4.485151873633787430e-03,1.481510126798030458e-01,1.366518037250710402e-02,1.010404262990984535e-02,9.542083024459659807e-03,1.631263344658778758e-02,1.591484871842907822e-01,2.142832116378205476e-01,2.358990090443089868e-02,9.112993553151479964e-02
3.267935683684100243e-03,1.535641521085696626e-01,1.478691014960191973e-02,3.689291799726573950e-02,1.338291338625634957e-02,1.329530373091748763e-02,1.433464738167216923e-01,2.138725479856077305e-01,1.968978181723992846e-02,7.877572160802889800e-02
3.294645847489630248e-03,1.394257242315032619e-01,1.481557016596138886e-02,5.945946015863554091e-02,1.576186405160141107e-02,9.315858847640242496e-03,1.254635987997993474e-01,1.993223371908123542e-01,1.996047407511525665e-02,6.013163221026994465e-02
4.468905995929947465e-03,1.089421799186368056e-01,1.586144068619520231e-02,7.388782840865765200e-02,1.729563874596261666e-02,5.683070517312123829e-03,1.027066835634284359e-01,1.594976495707954300e-01,2.227550971194660473e-02,2.473295178119719329e-02
5.279214042307594015e-03,8.436827491900221465e-02,1.916786168191235082e-02,7.930748271973583896e-02,1.857689324178322596e-02,2.200309564550756956e-03,6.984480175907895050e-02,1.007639711965161444e-01,2.098664246858503862e-02,2.194886584858317738e-02
5.697987439030999766e-03,8.602095101232573593e-02,2.327470207942510319e-02,7.492651093656092776e-02,1.807712471210333807e-02,1.801020436560802880e-04,3.634763728889776890e-02,4.863991459272772738e-02,1.362886315738933048e-02,4.514141668036601024e-02
7.070364531010821241e-03,1.100073127165359654e-01,2.608254185067717876e-02,6.075542573840611582e-02,1.404435942225837168e-02,1.737038844831388434e-04,1.305325641726342786e-02,2.022859651479844839e-02,4.243227883472660937e-03,1.818482070620872776e-02
8.870938935968172845e-03,1.344827319572795832e-01,2.797720003066695924e-02,3.990194965415527067e-02,8.172031488912462338e-03,1.645945033381201236e-03,2.541233879012429198e-03,1.232014907448320332e-02,8.891561986775213706e-05,3.852414245752434213e-02
8.869643906305650291e-03,1.430349381596836555e-01,3.080667640408004532e-02,1.873845188578839721e-02,4.406350277976643290e-03,3.156924105213187309e-03,1.869545238952769611e-02,1.304575531749923439e-02,4.722889410316863032e-03,8.169309903404951834e-02
7.305038347411841292e-03,1.353076214831323010e-01,3.426347143737092787e-02,3.781248082061981850e-03,3.978793114261093208e-03,2.947081494883128667e-03,3.496866299717524967e-02,1.626336344315015142e-02,1.576889862053659080e-02,9.862771630347343110e-02
6.898219731290052524e-03,1.199276772787834372e-01,3.698042270377663310e-02,1.784018456820094835e-03,4.282709418612015706e-03,1.507155384871480428e-03,4.127049705806654784e-02,2.652099608630990868e-02,2.361727447875872771e-02,1.075699937184921989e-01
7.493707019028230873e-03,1.050598563569616894e-01,4.069558161436474808e-02,1.136272221664993455e-03,2.911408151664824674e-03,9.569719412844080939e-05,3.156941564733221212e-02,4.798881449180497638e-02,1.983825817767177757e-02,1.142533873465994415e-01
5.368188074027858796e-03,9.360526065956874253e-02,4.674385879129123317e-02,8.464458923057551626e-03,2.810577338550907661e-04,2.057743727589910962e-03,1.545133287110774314e-02,6.827628179140578235e-02,5.709881816547262949e-03,1.036983059792227491e-01
2.793810887317503414e-04,8.150053714523633475e-02,4.808936487396134329e-02,1.523454584403095141e-02,2.036546181091345234e-03,5.202538974576830302e-03,9.133485055703686670e-03,6.587855850164396621e-02,1.101551307316054815e-02,7.553185364608951124e-02
4.961193228180787659e-03,6.253765240204280096e-02,3.466930530062003329e-02,2.019116054568190557e-02,3.401694672659884636e-03,8.898049660453511214e-03,1.594467531456774181e-02,3.670362799446606067e-02,2.714723574639368864e-02,5.498137684181000212e-02
5.291211930756182721e-03,3.927871699577755588e-02,9.302343045545537203e-03,2.667960285279325980e-02,4.129791920671705384e-03,1.117865655497261163e-02,2.519777339633712601e-02,7.510022717437444401e-04,4.393412534644895728e-02,5.820188746373273353e-02
3.477805943476891710e-03,2.515716723148284095e-02,1.194953895826609234e-02,3.538832093132762702e-02,4.529433006852334048e-03,1.070473717067486549e-02,2.781917873303810934e-02,2.903592348896698316e-02,5.793078137259393551e-02,6.864247041034070296e-02
3.270718174019133888e-03,2.901845238645368863e-02,1.751645374130568825e-02,3.998380378002923397e-02,4.278486548714220510e-03,7.255892394176360720e-03,2.184993078697924224e-02,4.695827809051884849e-02,6.202041466185299889e-02,6.123862260166529348e-02
4.948835458036393055e-03,4.056781631149127682e-02,8.287312295302363963e-03,3.395107123235685531e-02,3.190068496701329269e-03,1.117121919767724006e-03,6.817973362173692688e-03,5.766602297657977272e-02,5.450819903548992373e-02,3.597699453868782177e-02
6.330061310235246888e-03,4.076462478448830695e-02,1.004927563616922134e-02,1.706913711692533558e-02,2.508481637906259838e-03,6.352029419831106000e-03,1.547387676119121695e-02,5.436623264768807029e-02,3.969668682905874019e-02,1.394869293875580091e-02
6.340384923019355516e-03,2.798456070738412557e-02,2.776224265213740952e-02,6.013009811602423871e-03,3.597718699229356890e-03,1.239668060342072678e-02,3.752385742665145796e-02,2.945889150068269763e-02,2.212217186807484068e-02,8.196910587968423909e-03
5.826294914474831020e-03,2.192393789361079051e-02,2.725438884818601193e-02,2.591077090391631990e-02,4.875813412924115582e-03,1.491670592239412868e-02,5.127067000025319760e-02,5.197414885322958200e-03,5.864093063147795062e-03,9.926003127786697106e-03
5.812494193766370651e-03,3.460809967763145423e-02,1.768558338150115049e-03,2.850919512665592639e-02,2.731868618925679948e-03,1.438544887090567256e-02,5.452455994051474963e-02,2.164346335760371220e-02,4.812857210015104512e-03,8.477560300987232837e-04
6.196489748226191412e-03,5.176351760033971738e-02,4.285754607517835296e-02,6.487479233114375014e-03,3.384730150389944712e-03,1.246925715756829443e-02,4.991840300695070398e-02,7.337143339507842810e-03,9.274147905530032848e-03,2.508969097751478916e-02
6.361205194503990155e-03,5.488953163563548704e-02,6.681507715774635814e-02,2.872868318929390832e-02,9.547226696145497821e-03,9.543980037017349774e-03,4.070038917360850605e-02,1.653540690573983979e-02,1.128981090886726005e-02,5.040969743756301691e-02
6.175167964814606315e-03,4.597402138717578135e-02,6.577877589303827988e-02,5.603877083164088974e-02,1.214354481799989269e-02,4.977408980617546372e-03,2.891205711952483937e-02,1.979451192935273440e-02,1.373057795609104736e-02,5.107874896385188740e-02
5.412935900748721933e-03,3.575609843984596525e-02,5.704096610250622423e-02,6.452555361770916098e-02,1.118854229757150313e-02,8.323265674664179171e-04,1.628164904751395678e-02,2.642313997633599729e-04,1.731387100817535427e-02,3.065277723822153882e-02
3.295310672473190927e-03,2.276512573580706175e-02,5.378907992811166050e-02,5.739520867214213673e-02,8.129312093385987828e-03,6.151354875034015235e-03,4.915420590337163040e-03,1.914669055682506615e-02,2.395630501915779406e-02,1.911931545555027936e-02
1.151998846590768081e-04,1.791253284136370277e-03,5.041853596104519525e-02,4.122120455716381249e-02,3.778304768635988749e-03,9.572339923774816212e-03,5.597880368632831248e-03,1.531668983490138899e-02,3.214690963329452922e-02,2.681982891122445048e-02
2.320392451758413344e-03,3.904055806706281662e-02,3.990848528675004780e-02,2.045752425221480930e-02,6.086074473775775250e-04,1.120702824850236534e-02,1.968163524076027224e-02,1.197425248416452565e-02,2.962639571752985479e-02,2.988258265087292281e-02
3.406245564759961472e-03,8.065134889753561298e-02,2.790151353830616285e-02,1.393480581326025404e-04,3.232976573747314234e-03,1.202201658111275162e-02,3.824891972237581816e-02,4.770196259660728494e-02,4.940602502513997962e-03,1.748594557595608071e-02
4.453400608133663806e-03,1.140241472997992195e-01,2.213981453931130119e-02,1.465259896286529549e-02,3.748632252924182905e-03,1.238049004139952364e-02,5.236938994829317545e-02,7.369094345852530981e-02,3.172959711089612389e-02,1.596247272261655178e-02
5.596100188554827687e-03,1.270618637686412866e-01,2.159306936778100997e-02,2.414466707619311245e-02,3.451114052932204544e-03,1.173508815058528151e-02,5.247164683908857319e-02,8.116531192082966639e-02,5.519188073311813436e-02,4.551842639637350418e-02
5.469905955646467074e-03,1.169952298397615720e-01,2.222460622957215040e-02,3.403612402656480684e-02,3.310185059403006162e-03,9.598210638187673963e-03,4.099305363431837712e-02,7.459229937149708389e-02,5.516436772261742311e-02,8.736429158290864860e-02
4.711347141548986352e-03,9.519463107218054110e-02,2.288836353473135132e-02,4.672632330287031927e-02,3.390626543613171721e-03,6.399628586576231251e-03,2.993571477802525402e-02,6.350895016521665437e-02,4.409532070544877613e-02,1.131713632670237890e-01
5.573722120063838784e-03,7.366944779081396888e-02,2.333909548206161699e-02,5.476566059873335529e-02,3.781063822317023808e-03,3.399353123615950299e-03,2.894846099626535718e-02,5.563550960759402336e-02,3.452007874247321750e-02,1.203991840512121242e-01
7.539318076805514787e-03,5.136487791367407019e-02,2.503771904563936029e-02,4.768656432325566602e-02,4.278948912391356343e-03,1.529573935082994759e-03,3.650896307979522443e-02,5.430587610338853677e-02,2.461381949392070848e-02,1.214175145370096076e-01
7.430463710045184973e-03,2.858621772851789242e-02,3.232521623072592137e-02,2.479057734500969903e-02,3.697902357724273687e-03,5.908585092823868653e-04,4.113073088620560619e-02,5.648451297957052947e-02,9.074460774773642283e-03,1.187493615217330989e-01
3.941340404018703683e-03,2.293051961208858805e-02,4.566080802754655249e-02,2.561752705788025719e-03,1.561015268326602272e-03,5.686797762284723353e-04,3.682084369816664843e-02,6.076439013041715076e-02,7.724170216457295485e-03,1.106907494976203943e-01
1.267884137674589115e-03,4.629785645749714268e-02,5.649577169844490626e-02,2.045607415503928814e-02,8.976706431460034028e-05,2.438862568296489269e-03,3.400593328392131909e-02,7.513135854174377015e-02,1.533454497020590203e-02,1.048493430236267093e-01
6.195917443610311250e-03,7.965195217607042022e-02,5.448924935096475380e-02,2.166974635875700689e-02,1.060885792466403823e-03,5.663895932147781226e-03,4.259384082865391025e-02,1.015022458855457388e-01,9.634529123334978698e-03,1.032053976794170824e-01
9.651463806715413971e-03,9.723283868649754136e-02,3.899816992745208655e-02,8.262799315999259236e-03,4.131025120561682140e-03,7.249375999915296138e-03,5.331259001997713104e-02,1.211004140464514017e-01,3.135734457314515514e-03,8.830715285625537203e-02
1.109424438037328459e-02,1.018180617980055935e-01,2.093281140559605236e-02,1.141961649443236533e-02,6.295195983445080537e-03,5.995437329997859062e-03,5.374452717989842282e-02,1.162264985917762367e-01,1.419111988655468760e-02,4.763600225027254942e-02
1.129605648385182369e-02,1.142825362365783998e-01,1.267164316719702685e-02,2.955827734749937388e-02,6.744249832593157516e-03,4.659379494447639034e-03,5.034338187448032798e-02,9.901934107271326280e-02,1.991225468125570192e-02,1.084799437075165129e-03
1.193113599222300585e-02,1.432798654452035469e-01,1.642376820561809031e-02,4.430780032105611360e-02,6.874007509231734592e-03,5.189642563197515053e-03,5.477804890501591223e-02,9.780878368263296041e-02,2.091246693468816129e-02,2.683364185451516531e-02
1.323511773494799940e-02,1.816507652856092225e-01,2.339842211881042883e-02,5.753612755638887188e-02,7.446133872900388868e-03,5.480034917814017442e-03,6.147180085349606554e-02,1.172622724151000800e-01,1.750766587049222209e-02,1.613258520623269548e-02
1.339992166832851099e-02,2.202274908466177461e-01,2.330799291321450015e-02,6.797760227424312629e-02,8.103719061895798062e-03,3.693300721184879232e-03,5.802787269729553499e-02,1.310257792827686507e-01,8.014349372541411387e-03,2.231776866965778233e-02
1.131755556068009087e-02,2.537470469046521071e-01,1.185687289953426746e-02,6.955670130985774913e-02,8.924900941508879040e-03,2.201071348345102086e-03,4.818341904635075473e-02,1.197287434382608706e-01,9.392163095341283727e-03,7.107868738665282238e-02
8.448169815143655864e-03,2.793627097483886157e-01,8.455482557468405047e-03,5.726798177453308603e-02,1.001355746254657328e-02,4.117340368295027871e-03,4.775472843965458680e-02,9.919248596340955737e-02,3.132209196742279100e-02,1.155492854752478565e-01
6.710870895306651589e-03,2.954433795803660390e-01,2.854768608224749621e-02,3.398059317132109958e-02,1.010066457705979803e-02,8.321616606897820623e-03,6.100623937241739930e-02,9.495630204090811655e-02,4.592538436282447845e-02,1.492866896505238017e-01
5.754941886246276415e-03,3.030746689335773181e-01,3.622681191247235227e-02,1.109945140932992041e-02,8.009636128273654385e-03,1.078259605566825319e-02,7.202826472693507620e-02,1.011197330736835348e-01,4.201499805064198151e-02,1.681364973210381919e-01
3.727533457003127937e-03,3.077879006742811896e-01,2.829952088700544988e-02,9.082431809056927541e-04,5.277362524777765365e-03,9.808089776867708054e-03,6.296867346275687727e-02,8.849861523926771945e-02,2.398429150230091400e-02,1.615692137263629313e-01
2.176409386639400426e-05,3.133642160928643006e-01,1.788784334012449156e-02,6.976385171894132486e-03,4.790593095454096124e-03,7.514644139510241044e-03,3.657475650667374456e-02,4.975966817078501803e-02,1.030144389459863516e-02,1.257519766528913119e-01
4.240106533982887851e-03,3.111996179645223348e-01,2.024097235421869895e-02,2.289802180679926732e-02,6.710693017363530098e-03,6.282878185506129975e-03,1.396876279807160275e-02,1.188124513134517814e-02,1.350035279251505724e-02,8.268196390160047204e-02
7.513927256066547412e-03,2.833325500520364471e-01,3.289372832972967120e-02,3.879925489347551409e-02,8.321298549118342353e-03,6.448847111489456295e-03,1.161617980626007685e-02,2.692166335191854484e-03,2.704945641637212031e-02,6.175420501464952416e-02
9.956095998595593244e-03,2.221499914341476256e-01,4.100100200424770802e-02,4.605666315330357585e-02,8.315405575404530986e-03,7.828007326990992984e-03,2.836819562796359315e-02,2.510307270020915860e-02,3.535326158154183246e-02,6.547127700519327076e-02
1.271652865620466304e-02,1.472302295769923330e-01,4.066633294939508286e-02,3.922322386107518488e-02,8.421401330296340859e-03,1.018598733581976834e-02,5.114580529964497108e-02,6.230831836307344773e-02,3.284439599045931024e-02,7.612844646655661518e-02
1.578275381504051778e-02,9.636689789548179286e-02,4.258483401634089588e-02,1.980810230419319598e-02,9.597622093622948033e-03,1.141249305224202246e-02,6.424979619230899996e-02,8.989787505545543400e-02,2.691182918483550623e-02,8.318888903129938173e-02
1.756224804311503490e-02,8.366643564710912750e-02,5.104991789652606887e-02,2.697436350683670141e-03,9.266030566241053798e-03,8.893819240683591837e-03,6.065782213832594805e-02,8.780313896314093092e-02,2.126435903704706337e-02,7.918545117489758645e-02
1.749662382833319652e-02,6.800192822785079694e-02,5.483153612668082572e-02,1.787734206588207503e-02,4.706997874021275584e-03,3.479780980979476062e-03,5.046183889073142109e-02,5.473132095907750488e-02,7.364110856487952710e-03,4.640671614207687867e-02
1.691297745893058022e-02,6.137939864600296114e-04,4.507860163277960935e-02,2.196243157195839832e-02,2.070901608462293562e-03,1.466116748959694341e-03,4.501267252639296057e-02,5.373376558637722039e-03,1.814703447234269212e-02,2.275751274550859293e-02
1.593386892469016158e-02,9.753526604926075760e-02,2.928142326911770815e-02,1.754540854244310277e-02,5.677906595702914005e-03,4.996155096301379585e-03,3.364704778231612792e-02,4.813159907906475882e-02,3.866868024057067837e-02,9.928614568187349443e-02
1.256560710990011279e-02,1.425076083621298062e-01,1.882945566729451667e-02,9.441760837731556430e-03,4.043623649836049216e-03,8.926232322236686209e-03,2.124884153935063108e-04,9.805963265482364744e-02,3.616956280305549248e-02,1.359616505440739143e-01
6.564343603462784345e-03,1.155880953191298771e-01,1.326600606188358192e-02,2.964084274037184080e-03,1.321256684778296170e-03,1.366243452563822326e-02,4.023722681804573625e-02,1.295837941661814041e-01,1.775811261267343927e-02,1.197946164813492587e-01
8.934818203899182231e-04,8.305336891795093990e-02,6.473892562590429292e-03,3.051468001394183269e-03,2.556131628513508280e-03,1.719010563395598559e-02,5.322062701620912384e-02,1.296452985252250500e-01,8.043730091768067775e-03,9.406112043590079963e-02
2.439771447178418727e-03,8.905437613529776364e-02,4.936143161538408125e-04,1.111216121193215299e-02,7.583230606105419158e-03,1.808609656021956114e-02,3.419029060074327275e-02,1.065513776484327130e-01,1.767876067564148890e-02,1.134723654603562309e-01
4.880570698689298131e-03,1.065063947965107505e-01,2.927356951903496013e-03,2.251685980043701199e-02,1.220711447965270452e-02,1.677339775813243769e-02,1.465305281364994057e-02,8.060736988584009388e-02,3.322437127542104268e-02,1.796118826796480605e-01
8.150167044499615626e-03,1.241714464582766575e-01,2.634320650342631201e-03,3.035780384172000884e-02,1.359328637084063728e-02,1.373008626313119984e-02,1.489142792085087867e-02,5.574676094385107306e-02,3.923557203796668863e-02,2.382050994156623136e-01
1.153667822362423878e-02,1.865555467651723032e-01,5.649059970025982827e-03,3.283368479025726427e-02,1.236869852770703000e-02,8.593936285471087677e-03,1.982146150761558354e-02,2.068483957161231998e-02,3.720028272832451299e-02,2.435411341167677268e-01
1.368521491351109252e-02,2.975008753490321900e-01,1.225500404472519740e-02,3.354628471136614221e-02,1.036877029584804336e-02,1.484695644537825524e-03,9.886544973922295823e-03,2.328576448144016597e-02,3.676930984510432682e-02,2.045862358852909013e-01
1.426493922688402104e-02,3.679372597971992676e-01,1.523520140881365857e-02,3.342895196408894598e-02,8.009203405550538793e-03,6.107719748654676616e-03,1.042173988616924320e-02,5.997800616705067922e-02,3.950065481758471136e-02,1.570829677142096259e-01
1.286258015929838371e-02,3.176166399904861160e-01,8.161222491138295926e-03,2.729379909557800785e-02,4.206031116525221596e-03,1.225486118411222083e-02,2.583990732982999888e-02,8.278911324326090893e-02,3.938732012533880528e-02,1.151115257624758942e-01
9.182985054042937939e-03,1.725296671017754746e-01,7.816398853524907445e-03,1.182824067455668857e-02,1.391703877596856508e-03,1.552210150979744727e-02,3.016094023073150054e-02,9.545225149847642865e-02,3.178085214625100269e-02,7.533659320560681660e-02
5.034726847897807306e-03,2.363328076762056043e-02,2.673985855413623519e-02,6.250886807279133935e-03,6.641416131384207146e-03,1.462269633957317093e-02,2.293432260596216937e-02,9.177868876030052803e-02,1.687824866350107547e-02,4.987151792163566077e-02
2.977760940929743277e-03,6.585548864208372322e-02,4.528279586626276360e-02,1.582137305252233339e-02,8.296326959073759347e-03,8.645482223234449495e-03,3.118080311292416827e-03,6.111182662090261508e-02,3.311552483732395878e-04,5.851365065196174886e-02
2.524105320217256369e-03,9.322996868659000347e-02,6.409131831492707876e-02,1.552057064001906989e-02,5.697077296509461125e-03,1.090917150754941358e-03,2.681285270886763286e-02,1.049335492004505564e-02,9.587413754082263137e-03,9.395513743108946381e-02
9.300458524746097865e-04,9.702164571724894437e-02,8.135321122901634228e-02,1.541327237565416272e-02,2.458384458819068766e-03,1.045220211913310340e-02,5.727441172177313855e-02,3.548794933726046735e-02,1.119859893882294705e-02,1.263709102616817626e-01
1.790159368592516903e-03,1.179616513514354370e-01,8.986248726865979364e-02,2.181537453684247521e-02,3.068158877390170583e-03,1.503096266700227474e-02,7.310207412239416724e-02,5.199245174844645268e-02,1.263933939700485898e-02,1.404136408730522756e-01
2.144491793972561414e-03,1.599743211938159937e-01,8.476831714862625988e-02,2.836389786446363859e-02,7.514175114239139523e-03,1.295428583397880730e-02,6.260800358941538690e-02,3.127170218335859064e-02,2.085394506846810839e-02,1.425529919970575654e-01
1.531032251589363154e-03,1.923978663321091187e-01,6.988046341928928762e-02,2.602683837024371422e-02,1.114926643661409179e-02,5.149239512650814060e-03,3.165585007191838718e-02,7.133817360859099309e-03,3.184310571327726713e-02,1.377745919513177486e-01
6.305797109218351515e-03,1.909677956176247249e-01,5.065473926585450232e-02,1.455524174652875723e-02,1.082463294487136241e-02,5.646560172911018090e-03,1.456700316277122990e-03,3.311910076343269060e-02,3.602990389551884859e-02,1.246778828846244330e-01
8.552478747272050305e-03,1.597052482618788183e-01,2.785427664281116614e-02,5.900201476732079911e-04,8.575579412475114668e-03,1.524017964382746310e-02,1.181929353954868853e-02,3.519834640927456404e-02,3.030635306028673162e-02,1.078118755567680082e-01
7.781427404339424404e-03,1.203736920908640845e-01,6.140889043052066322e-03,9.331406124981431877e-03,7.637533981041578005e-03,1.926173762330247660e-02,5.153006938063667448e-03,1.425617832098024368e-02,2.198673192901515194e-02,9.005395330881581228e-02
5.346615022640738117e-03,8.640591260780706995e-02,2.153965543639356495e-03,1.064180492043882535e-02,7.958168859205052431e-03,1.633108412977726104e-02,1.859124523896800441e-02,3.401827013193055305e-02,2.036835516278253516e-02,6.004918004701288725e-02
1.999934392325910561e-03,2.607231640155922153e-02,4.535790458100193677e-03,1.301562274275003565e-03,7.787810337607314545e-03,8.997385061862324396e-03,4.938919076900728788e-02,9.571995449457078309e-02,2.518310292114267837e-02,1.154104668253978609e-02
1.730196679728070522e-03,1.206352318845740346e-01,5.530523531028249014e-03,1.330345682201035731e-02,6.680395616505418327e-03,2.555485874292248109e-04,7.120897875646246822e-02,1.304205050278228750e-01,2.713434673439969053e-02,3.513481067734642443e-02
4.737848079126211025e-03,3.364315785837498352e-01,1.891871018810984545e-02,1.912537181287541146e-02,4.661133143674708011e-03,8.888328876802773643e-03,8.159388663822121635e-02,1.282563364189300004e-01,2.068062138889026694e-02,5.635610190388021939e-02
6.598149079685982840e-03,4.872472445871465219e-01,6.074679695569801252e-02,6.255596517731974032e-03,9.965556743086472109e-04,1.692313990694602893e-02,9.480159642771618378e-02,1.314767082258082587e-01,1.094801933578910119e-02,6.015150615993007654e-02
8.112257844985648614e-03,4.635837003743445983e-01,9.311329157044366533e-02,1.658352197681260340e-02,3.776460438324761616e-03,1.962401454776389539e-02,1.111143145712225888e-01,1.619658396200004402e-01,6.091002917752121569e-03,7.406213386347150485e-02
9.031314771389770124e-03,3.132646792585316309e-01,9.904698102224010481e-02,2.983023432881280051e-02,6.840622756260016611e-03,1.415184844176585466e-02,1.075173766005295267e-01,1.837361319741081245e-01,7.075344114518479673e-03,1.052982352921750658e-01
7.227789546878996170e-03,1.640090040844449926e-01,8.319314395654470173e-02,2.717690833853967161e-02,7.158124116940828632e-03,5.451816936981790720e-03,7.716206427622343544e-02,1.714006371169713716e-01,7.292125195981020470e-03,1.322362118616302595e-01
2.259483175290280619e-03,7.394770162308475503e-02,6.341376105775045624e-02,2.190711023691048823e-02,8.420081054792079994e-03,4.300185451268191857e-03,5.225463960252962892e-02,1.558063376534530586e-01,1.455060053343932560e-03,1.329781398104358248e-01
2.306516203167368554e-03,3.791236959291714725e-02,5.685108842579252725e-02,2.648778990849501302e-02,1.428994478433776895e-02,1.596574803429211264e-02,6.555837090207411455e-02,1.679909827058789495e-01,6.753187253414514105e-03,1.118568123381068341e-01
2.646651058578831754e-03,7.707841235346711561e-02,6.781820209008437850e-02,3.667777600984626490e-02,2.257649015013209540e-02,3.337553547392927561e-02,1.087800967997078899e-01,1.904303183161765445e-01,8.644722516416982611e-03,9.582004109272801440e-02
5.732528823251534841e-04,2.148673268176408968e-01,8.433757560547178178e-02,4.044963007239357061e-02,2.742484732828148752e-02,4.452936551414811428e-02,1.483390616587627331e-01,1.952449147145872421e-01,1.620798128620174524e-03,1.025743037364293120e-01
3.394232395086490932e-03,3.972248055187215243e-01,8.858282869132975967e-02,3.263959124025728881e-02,2.590710985160832661e-02,4.493983866453649806e-02,1.662016171649220442e-01,1.892525971332052748e-01,8.135466178807402096e-03,1.149817284419955982e-01
3.879260521152508995e-03,5.270311305280529490e-01,7.255259743589448362e-02,1.588335685501374162e-02,2.058823495347952837e-02,4.006045810377743821e-02,1.674264471259931109e-01,1.939233002632601011e-01,1.420035183277834796e-02,1.004061292898722479e-01
3.968335378164168301e-03,5.547041075039012004e-01,4.419580658698830933e-02,3.848634151041651491e-03,1.629974852477181907e-02,3.624071552875562929e-02,1.587369299635783548e-01,2.082124664071214326e-01,1.668736767369009832e-02,5.673251500203712466e-02
5.571246020255104202e-03,4.863311222239843357e-01,1.939172198220323953e-02,1.815480993072111915e-02,1.476329267301034961e-02,3.278276187153249949e-02,1.380749980358981222e-01,2.101892451384788918e-01,1.985228361079181131e-02,2.027455798412313923e-02
7.328775535494537648e-03,3.516837531048750409e-01,7.877806244459412133e-03,1.979127107372573996e-02,1.301622179477276119e-02,2.527171817414246985e-02,1.049247353546714223e-01,1.832873509574380610e-01,2.620772850877393229e-02,1.962228073237759149e-02
7.028483406526067449e-03,2.046981736441838839e-01,7.526104415014212706e-03,8.787637918473461401e-03,8.341764220453344592e-03,1.400695009420085436e-02,6.801411049549796473e-02,1.331654314119803950e-01,3.368348345565971846e-02,4.042327488159264820e-02
4.960557400988667605e-03,1.074164532829531282e-01,1.179339311242676679e-02,7.653610558732938315e-03,2.856364295754032934e-03,4.168206771318296380e-03,3.598343404202956203e-02,7.910962040234904846e-02,3.678335385587633288e-02,5.206984344620960853e-02
2.541292449692944457e-03,7.684159896315573279e-02,1.600869792839267752e-02,2.046875392109636510e-02,3.504438428731310781e-04,1.724881662370455516e-03,7.055790844810571477e-03,3.094642624099479961e-02,3.119095272990262888e-02,5.280550037289202803e-02
1.840861893585572892e-04,7.053824957001743334e-02,1.426469227046383431e-02,2.330165694654013145e-02,6.209042228052432527e-04,6.136651598668292802e-03,2.261816503769052689e-02,1.497517377994611598e-02,1.960112304374637959e-02,6.372610347420305799e-02
3.231941383299827102e-03,4.531233841974042359e-02,1.237648122741687520e-03,1.555565220523782814e-02,5.292719588439402222e-04,1.047625855460623638e-02,4.448559285383905937e-02,5.688359090392804823e-02,1.172055128434925514e-02,8.895599826723601944e-02
5.225400989507651868e-03,1.491316332931413163e-02,1.823539922710947642e-02,2.387220505790691241e-03,1.240411984724242109e-03,1.225333613660171614e-02,4.565408265388919834e-02,8.502229994567030158e-02,1.447433353982177477e-02,1.105561795291127858e-01
5.415326082602117674e-03,2.058916580360443602e-02,3.239510970478792773e-02,9.585709644015739592e-03,4.000907577682531746e-03,1.075006256493741402e-02,3.169746272314688529e-02,1.009435865423590900e-01,2.249423140256897810e-02,1.160078460985463494e-01
4.784723107821248732e-03,5.474070728971999755e-02,3.791901996884666781e-02,1.650328142451232272e-02,7.059366958894581004e-03,1.024740766599604655e-02,2.383096412382214660e-02,1.148840682729451446e-01,2.296404808998329244e-02,1.029532050715128016e-01
3.942065836665266387e-03,6.737939976181443746e-02,3.922302626069951170e-02,1.747252341320959176e-02,8.274773144914801537e-03,1.391722657703736536e-02,2.926670502856835651e-02,1.223551025472622844e-01,1.022673031904156558e-02,6.853955923810030326e-02
2.546975521289997213e-03,4.776727587728040597e-02,3.121700618288308915e-02,1.169959975870052404e-02,4.192890973557186589e-03,1.904949613419485224e-02,3.516136538632859410e-02,1.150862962297860698e-01,9.649650320602852493e-03,2.509524034682965657e-02
1.090284139561912332e-03,3.075813162121163180e-02,1.018588747521249720e-03,2.175706620644181355e-03,4.252393434033251325e-03,2.185651227226218310e-02,3.810086806479399957e-02,1.148619377048037404e-01,2.895021262596918915e-02,6.515855642303693823e-03
5.065786867612898049e-04,1.680657567859455623e-02,4.564097864684999589e-02,2.074063207631779079e-02,1.013606339210531074e-02,2.241946731452041514e-02,5.067167386044393873e-02,1.476557629883075706e-01,4.515908546858327793e-02,1.724866363264886820e-02
2.632090286086641914e-04,4.307966670136732790e-02,7.784949051152570410e-02,3.324420425848823718e-02,8.785386133178203771e-03,2.123506754935452698e-02,6.561461173274624192e-02,1.767936246442828596e-01,5.543549849255209605e-02,2.937472256058934472e-03
7.790621342951480977e-04,1.652350254324225221e-01,7.206311287366226614e-02,3.156836289527797934e-02,3.691548962382927915e-03,1.564459041707115181e-02,4.965754612746498681e-02,1.283514343531576285e-01,5.368160408330179684e-02,1.071387156502627974e-01
2.148716698495711959e-03,2.848424762044463043e-01,3.818136014297510150e-02,2.051745822554595228e-02,6.856462875406659071e-04,4.487459756941209431e-03,4.153620747136255002e-03,3.586067213760465999e-03,3.965759203267391064e-02,2.486259371401377816e-01
2.457285305234441480e-03,3.141418080309707483e-01,3.775039294607292120e-03,1.155836546031223031e-02,5.156638090623305581e-04,7.165595754475108554e-03,5.338713289698707870e-02,1.062908471782172543e-01,2.418244987421179493e-02,3.211394476941462073e-01
1.715504857493484929e-03,2.325778424388965093e-01,1.444654507508617153e-02,8.692699420594933793e-03,7.673496072413588283e-04,1.256243899571253021e-02,5.827432243297284847e-02,1.375232810968408659e-01,1.817985432967030024e-02,2.830101225861986203e-01
1.031566634405127860e-03,1.013484180619679959e-01,1.639974186717778337e-02,5.703647420946136512e-03,1.178821181543768769e-03,1.061006229924278503e-02,2.537179004239893676e-02,1.125552495807902870e-01,2.090349035252620641e-02,1.844366026811265769e-01
5.670956329215948990e-04,2.211429675224760652e-03,1.067779477591255556e-02,4.396635670406092052e-03,3.028527344326728196e-03,6.050382584464024036e-03,1.315264884278271977e-02,7.440563804648606117e-02,2.362195626861690601e-02,8.721409643085180352e-02
1.814535206609948809e-04,4.016223895511715491e-02,1.037290666421413973e-02,2.112753680206028162e-02,5.402533385198035956e-03,4.202570007244617323e-03,3.344629752048437765e-02,3.906994966302377442e-02,2.064502652118786752e-02,1.742498436784850613e-02
6.626607360191371591e-04,1.200881008577102046e-02,2.593406385092066752e-02,3.768351072212632741e-02,5.448446366895991037e-03,6.856617410493476630e-03,2.867256540631751838e-02,1.685094771400910338e-02,1.343257375874373771e-02,1.571421447638447766e-02
1.075423188658965179e-04,6.466820963598082783e-02,5.241553931032866265e-02,4.759262630035911851e-02,2.049731658437406977e-03,1.179705800607486026e-02,8.580567301017801712e-03,1.726136620916389128e-02,6.789949191694854419e-03,1.175186353301101161e-02
1.880900986028094047e-03,1.632558452009381100e-01,7.119534437607537292e-02,4.810477673950757510e-02,2.862072621559588748e-03,1.518306569048023802e-02,7.414524461107795637e-03,3.101994792048585331e-02,3.133385699669519187e-03,8.780611468836015815e-03
3.683583240687538299e-03,2.607721944840535322e-01,7.206518914388650165e-02,3.839754420273811669e-02,7.038483967282094592e-03,1.420497336286734823e-02,6.884946244573170171e-03,4.294998345940180540e-02,8.342699481928318728e-04,1.684537934953219893e-02
4.916697430975546304e-03,3.446433557828986749e-01,6.507663518587138152e-02,1.922577564344644246e-02,1.010390085902177978e-02,8.077302996806191154e-03,8.640995532233406926e-03,5.045984356521227704e-02,1.547211811369466131e-03,8.393684681760223143e-04
5.147870292265857919e-03,3.961589600685283541e-01,6.288717334906412937e-02,4.020519867134585666e-03,1.231677235138056367e-02,1.869206605475447550e-03,3.181889144435470079e-02,5.089226672753180414e-02,2.490364112650125458e-03,3.240135923661729284e-02
4.361363617913169462e-03,3.825263937044190987e-01,6.262961076143112871e-02,2.243162553200540865e-02,1.330713910964210697e-02,1.255502618868652165e-02,5.640479065451127483e-02,3.185959402197101331e-02,1.382965130685095880e-03,7.515217636190373030e-02
3.692049484009699706e-03,2.885054343395762055e-01,5.530181275750182396e-02,3.014642244829168066e-02,1.306313364418295805e-02,2.058743325389806797e-02,7.837042740833002896e-02,1.281027114832589305e-02,5.295333027376678339e-04,1.240757045089451588e-01
4.252524385691531378e-03,1.479113930526625431e-01,4.254491388220111442e-02,2.636122022333702020e-02,1.234752661695194022e-02,2.392659605001316511e-02,9.606322639475160796e-02,7.149068326362567616e-02,3.659090097830317891e-04,1.666766309446142125e-01
5.286802337319505829e-03,2.373575349648686730e-02,3.379879022091740459e-02,1.076668306137841709e-02,1.183724550843084054e-02,2.269234194903415117e-02,1.099013150298720209e-01,1.239249410776019356e-01,5.571530701366369381e-03,1.745312256644954152e-01
4.936741898589360605e-03,3.994742117581753793e-02,3.506766916093348452e-02,1.601245392569417350e-02,1.207031478887521728e-02,1.877254028161135999e-02,1.212552269655616521e-01,1.545010198773690835e-01,1.376703530817903129e-02,1.253860723198079175e-01
2.689994551014232745e-03,3.590505055184796401e-02,4.731066777716058658e-02,4.387272773947351739e-02,1.270352380306368281e-02,1.395761320529861904e-02,1.278795527957057310e-01,1.561380592345615881e-01,1.527362812499869632e-02,3.173000764285326819e-02
4.814490983577768702e-05,2.414448890315565310e-02,6.598140871597971135e-02,5.339593473782282274e-02,1.082895200177592249e-02,8.431986448230260889e-03,1.198930528313382343e-01,1.304285822894368785e-01,7.976867417398312426e-03,6.404117041263053534e-02
1.814277541581759247e-03,1.194634144357282907e-01,7.562205556913423332e-02,3.546627364776510499e-02,3.364200981802414891e-03,2.329501662291187051e-03,9.145513570907944090e-02,9.334258185785371253e-02,6.831721614756260455e-03,1.209242638398546205e-01
2.757043950372045638e-03,2.090123612531152308e-01,5.645087216645326006e-02,7.512063679331409949e-03,7.768298712415311509e-03,1.848618324129166005e-03,5.949677605382859558e-02,7.538341949869388492e-02,2.418669607753758458e-02,1.185713720477679645e-01
4.195285165332416147e-03,2.455475892767265966e-01,5.950231774757870108e-03,2.248082125375698744e-03,1.621922232643252179e-02,4.438443306151057012e-04,5.422934412572650437e-02,1.002175930513613533e-01,4.863245556101950667e-02,5.862676510808589869e-02
6.839770702148213061e-03,2.266133524318513504e-01,5.378234291193577377e-02,1.287760961896475612e-02,1.740397307650686648e-02,7.848119867356678422e-03,8.413650122107532714e-02,1.613372894881379416e-01,5.790671224803688871e-02,3.420385032168071077e-02
9.728294716010195756e-03,1.985646852251067851e-01,9.681904307291765155e-02,3.167103759394874346e-02,1.209602894996097099e-02,2.050570989711550038e-02,1.259328871227193281e-01,2.301334877552728420e-01,4.626872704879635839e-02,1.205439758190627320e-01
1.095874177604918079e-02,1.828699985800456285e-01,1.134581883898219540e-01,3.181118285567449688e-02,4.725925012006916906e-03,3.229722998615455060e-02,1.554758757955522763e-01,2.838554249623930215e-01,2.579688432189112396e-02,1.776891894049371368e-01
9.523595461344087215e-03,1.465538264559716197e-01,1.063108999430647933e-01,1.392926537233476689e-02,8.703649727458428499e-04,3.808498509457138720e-02,1.713135570450904366e-01,3.122555061737205540e-01,6.595134587542374020e-03,2.142907965080901589e-01
6.392233660226593651e-03,7.808417014703883385e-02,8.002393930473437889e-02,4.444672805918708711e-03,4.518181665173298840e-03,3.632524380679392345e-02,1.778097906346109147e-01,3.016252837596662961e-01,1.076525105311059577e-02,2.281666869171903311e-01
3.573374294788590928e-03,3.170202530484741987e-02,4.280982395838311277e-02,1.190069325137531331e-02,7.896887605862535492e-03,2.956901310328535412e-02,1.641841599821826647e-01,2.365487305978503374e-01,2.577492810780511456e-02,1.735723508873776855e-01
2.025192083982861341e-03,5.512321740525366609e-02,6.449606489045695522e-03,1.299361566854194058e-02,1.039833081764405219e-02,2.111218641517283862e-02,1.217624479277102378e-01,1.287005681953174718e-01,3.329045597527890282e-02,2.572143346292011731e-02
7.872272838877535182e-04,1.244811280516469193e-01,2.395232450796635354e-02,1.695052189543001103e-02,9.939884272077722724e-03,1.328570913536373035e-02,7.220663453732120707e-02,2.884953065455943960e-02,3.053053958573089671e-02,1.385765659563331920e-01
1.386022379947908631e-03,1.800567265788711735e-01,5.086074214284959372e-02,2.469420281303592521e-02,7.588043003541608891e-03,8.943405486137919608e-03,5.344106666742981515e-02,7.037303357775345769e-03,2.206088994673586351e-02,1.959226697624807390e-01
3.821179268977743793e-03,1.813081387094100660e-01,7.028800779167343471e-02,3.102362088989122496e-02,7.521981182926346446e-03,1.100014825498474638e-02,7.811132642773584156e-02,3.638960226570143314e-02,1.573256327321372050e-02,1.159893456845276088e-01
4.539186001803729650e-03,1.156000748179194099e-01,7.092814107663736323e-02,3.389264691210182312e-02,1.182022678621881887e-02,1.985724474552351404e-02,1.262353360569097305e-01,1.274779785544041810e-01,1.656291761545889904e-02,9.744784803780402738e-03
3.404522122874330172e-03,3.901468245640828808e-03,5.323257236030565220e-02,3.507888617073083581e-02,1.793064390554961057e-02,3.283442514488211367e-02,1.739381774973783046e-01,2.187075061428198075e-01,2.474598016029191938e-02,8.458626716534908829e-02
2.976988628163716212e-03,9.312815555164488668e-02,3.265096524706086883e-02,3.562625172208415403e-02,2.184556097465698010e-02,4.448846988210313630e-02,2.035499728945385500e-01,2.716662006525970008e-01,3.726554016500883970e-02,9.994161584908810292e-02
4.848736625045950085e-03,1.205949245794635805e-01,1.687329369497329867e-02,3.654951328015328821e-02,2.217730265102543091e-02,4.770801091693063767e-02,1.928060876393915268e-01,2.629641182927110465e-01,5.013968944244195924e-02,9.275766103601155999e-02
6.713202589674844255e-03,8.471638089298902385e-02,1.462386321786683869e-03,3.920126770918780368e-02,2.055381165853121389e-02,3.952971405517603093e-02,1.307635219955266548e-01,1.948881769673888043e-01,5.955716301550838948e-02,6.402522660126958032e-02
5.236756095422059540e-03,2.804421083792544428e-02,2.155865027549554516e-02,4.045560216910960849e-02,1.879555351683733985e-02,2.580280094259697690e-02,4.508398534248747591e-02,1.045978989718332197e-01,6.299159426973666154e-02,4.555037958849350241e-03
6.305152388580957407e-04,3.488782950197676785e-02,2.533383557930019014e-02,3.518883034481604111e-02,1.646284093230138829e-02,1.468714248348364226e-02,1.982602960478136583e-02,3.838185396217703993e-02,6.114946261503910463e-02,8.380968588060110080e-02
4.017669185619333894e-03,1.094047466857640122e-01,5.099944826946580141e-03,2.707244187938595559e-02,1.152301083732469589e-02,7.487264974046045629e-03,5.072218816276510833e-02,1.048666131596139202e-02,5.772112433351453409e-02,1.132010832416479179e-01
6.903763380746441580e-03,1.633927687210462165e-01,1.712159674107042312e-02,2.588520091393327685e-02,3.525218726702859448e-03,1.788744590373255589e-03,6.312342200654111335e-02,5.402287966630853894e-03,5.421583290677222527e-02,7.242387406077857581e-02
8.451092320108490388e-03,1.426055817550627713e-01,1.555043556315938505e-02,2.984911723753328958e-02,4.268526250915347445e-03,5.854476256897359239e-04,6.290938085492836507e-02,1.507295459569530857e-02,4.554690994039004709e-02,8.625612040705749051e-03
8.868819000117083434e-03,4.897987267960484531e-02,4.964166786764106012e-03,2.286314259016619319e-02,6.763660090390536533e-03,3.486261826873792574e-03,4.347816001338328934e-02,4.728273728470213516e-02,2.622861671677039277e-02,9.285089153440211074e-02
7.667922300509297760e-03,5.421169516917927894e-02,1.726459714122823355e-02,5.186875996237358746e-03,1.832491270619956026e-03,1.062286511345946795e-02,1.137815768223645815e-02,9.904321785615441409e-02,2.348332932443552342e-03,1.573295241663735800e-01
5.839857764799486275e-03,1.227257105795675346e-01,7.025786566690350905e-03,4.443977768716115412e-02,6.438081711890161415e-03,1.255047205605326795e-02,9.584378055770208932e-03,1.387572625699433904e-01,1.040881296679823168e-02,1.917668240964078841e-01
5.776416507800453959e-03,1.639434452920565943e-01,1.478622463404779749e-02,7.406589221088547004e-02,9.977065151151241068e-03,3.826049532642052196e-03,6.779516958960453768e-03,1.165507194855558565e-01,5.489079853033160608e-03,1.928165269192261555e-01
7.842735966902153813e-03,1.893338848515587758e-01,2.837079168182035302e-02,7.912223961164722985e-02,3.786141852683722053e-03,1.412188981291646536e-02,6.943828220102278570e-02,5.845435557350136049e-03,3.889164532826466618e-03,1.517961890984894924e-01
9.242209214918936308e-03,1.855152537581824523e-01,2.302532172453191847e-02,6.057765537245480419e-02,8.678053925450280454e-03,3.314077946635123756e-02,1.478052556912287652e-01,1.489630475026535728e-01,1.011731286473636134e-03,6.099401444833164876e-02
7.728985319826532294e-03,1.371675876816305373e-01,3.154191419534883162e-03,3.553052366960540026e-02,1.835365241298332617e-02,4.281957311440209857e-02,1.852805516147638942e-01,2.531992468553745379e-01,2.217956702681360068e-02,5.346786724446563055e-02
4.331564464323923482e-03,5.296053685894481361e-02,1.659507380018434425e-02,2.621172545972638712e-02,1.920616489766529059e-02,3.951967284509935036e-02,1.596263171552079752e-01,2.553172301685148748e-01,4.259328490665681421e-02,1.310969518062720385e-01
9.077475624838038729e-04,2.714225565854027494e-02,2.257397570207665682e-02,4.283898192879719707e-02,1.272428005507374345e-02,2.937061801102511596e-02,1.048394983905803629e-01,1.879535865850267551e-01,4.624576554470673229e-02,1.311322986066545127e-01
2.409096453072347762e-03,4.934108475548229511e-02,1.137324910127085476e-02,7.264782603124669835e-02,4.247694032031174363e-03,1.853095276617924142e-02,5.111129980002535739e-02,9.949390926372066180e-02,3.482887214311336521e-02,6.752075469621693360e-02
5.440955656945787623e-03,6.360558943189022207e-03,5.719063988723445055e-03,8.662338759240342800e-02,2.072934884057537480e-03,6.129097897422151366e-03,1.361150500827118005e-02,1.420761485465888829e-03,2.239017784834719180e-02,1.772202894497333647e-02
6.577266309593209591e-03,9.587386509455188277e-02,5.386558763175859806e-03,6.646234525336784660e-02,4.360054028833964222e-03,7.323188913560886235e-03,8.706862413890928409e-02,8.374330072502676747e-02,1.852853927852365218e-02,8.530225218892499572e-02
5.339951228731666319e-03,1.499236224090380598e-01,2.809930136735702688e-02,2.627239595011729087e-02,3.085745205073474676e-03,1.273135853966692738e-02,1.090464650989417666e-01,9.074022843343110267e-02,2.105026074006905584e-02,9.683425144179130806e-02
3.685072056291619109e-03,1.401352432576311036e-01,7.839323395549986639e-02,4.862004960070163626e-03,1.069048783847680300e-03,2.745141522856799944e-03,3.093695327147791621e-02,1.195746267937576254e-02,2.219107994001554354e-02,2.476507361334360363e-02
3.316715457971124159e-03,8.985691078183041802e-02,1.051751092753424044e-01,1.883497461078550636e-02,1.678998101763575336e-04,1.739055582666495375e-02,1.073545244997905629e-01,1.641125400924475786e-01,1.672013229774464010e-02,1.114526976268505470e-01
4.112983218817358073e-03,2.907068476534424573e-02,8.712247111964133151e-02,3.056966952814358165e-02,3.933928983223382650e-03,3.669280890498615583e-02,2.203730089985943275e-01,2.827698590644336929e-01,4.696132042933229452e-03,2.430263501337438514e-01
5.408778332112899184e-03,3.575138679957684529e-02,4.793160150023773741e-02,5.045353383351607046e-02,1.394459278883599350e-02,4.897213199213212159e-02,2.629243724157039330e-01,3.390050973515337240e-01,8.444277793469045709e-03,3.027965547778314614e-01
6.568917560196518152e-03,1.006002370548337715e-01,2.981413558811518705e-02,7.166842202551883256e-02,2.684828604751162903e-02,5.214680069505074622e-02,2.411480307597603789e-01,3.371994002484604014e-01,1.449350351047556593e-02,2.685033442928292380e-01
6.809478514841918982e-03,1.353719471728978552e-01,4.738535106032953220e-02,8.110946758509555987e-02,3.443381391074374492e-02,4.597827248505875763e-02,1.841340105555972773e-01,2.860817192289582533e-01,9.459701765582355371e-03,1.669079928994700868e-01
6.002543287555195742e-03,1.055382951995880308e-01,7.863844279278967009e-02,7.287709608680720264e-02,3.348118468622644089e-02,3.391444844136930897e-02,1.278608103155786657e-01,2.134570252457170803e-01,1.863729152146544228e-03,5.841298922513147446e-02
4.786353854290804899e-03,1.899623392550351883e-02,9.654003454861985467e-02,5.164907043659455049e-02,2.811730653095308521e-02,2.118408253726554447e-02,8.990254603706807068e-02,1.531545092604056357e-01,9.652667308295533391e-03,2.619356082129713388e-03
3.499175289041242098e-03,8.015039235550452945e-02,9.414671648122341363e-02,2.646510643338456301e-02,2.249999417792149584e-02,1.217754832619267862e-02,6.192908895983842421e-02,1.171987196848378598e-01,7.342607604746610554e-03,1.286242598357625021e-02
2.357099050050112145e-03,1.602033394763867358e-01,7.900329986636610291e-02,5.370467999944004631e-03,1.726911136932119534e-02,1.309465087366582133e-02,5.316293481454459346e-02,1.162237811821380806e-01,1.175397138046789828e-03,3.026027665419709495e-03
2.254399139542136339e-03,2.092741340283956752e-01,5.959744595258744532e-02,3.582787642290821695e-03,1.311036045191285929e-02,2.989669501975649596e-02,1.043005501236707599e-01,1.721723277036192601e-01,2.102095358410780226e-03,5.685451969822690604e-02
3.657456273572261100e-03,2.130917701703449463e-01,4.288104110132628932e-02,4.984715794478147138e-03,1.139647375971067182e-02,5.813171785442375339e-02,2.240839179659300517e-01,2.759233858264220074e-01,1.491310349546142409e-02,1.768280587803866544e-01
5.302474749628821420e-03,1.733913522903715310e-01,3.359983211332599751e-02,2.495100522607660715e-02,1.084176580538287471e-02,8.140073934133512656e-02,3.516192135570921362e-01,3.701301824405307528e-01,4.248480952820664347e-02,3.219407096635531484e-01
5.463790748566023023e-03,1.295384749075961517e-01,2.941677789232673146e-02,3.868730219281302923e-02,8.500894770895141284e-03,8.523107103717825206e-02,4.123864246783042198e-01,4.003861756667481675e-01,5.987233604520628832e-02,3.881549786845883698e-01
3.915630255117326375e-03,1.210062495826377260e-01,2.277966273767944444e-02,3.171464281415897757e-02,4.539674515502464987e-03,6.998140917146108975e-02,3.870887433592457572e-01,3.611971127717734098e-01,5.331894096894510687e-02,3.226172045569383195e-01
1.848742582178715182e-03,1.485094867983703104e-01,1.176291433323574040e-02,7.328556909054679581e-03,2.503365807604116845e-03,4.842910784813117542e-02,3.126101253765743437e-01,2.843239334125928774e-01,3.007049970064188879e-02,1.894580262955243288e-01
4.681311816052354012e-04,1.934179193049375134e-01,4.187798518161737864e-03,1.555095430094930592e-02,4.078740135014865577e-03,3.218673725244741018e-02,2.346870422196068451e-01,1.996992572327554449e-01,1.258697125335123991e-02,9.782613998225044016e-02
1.366372930745353431e-05,2.441902100450437652e-01,7.071778145521128052e-03,2.094054590231429064e-02,6.088010813832401245e-03,2.247019403851508931e-02,1.723649737812616989e-01,1.182485407364112645e-01,1.835217093221050422e-02,8.454182867191442630e-02
1.801347866794186358e-06,2.873756703678986280e-01,1.565442232300195968e-02,1.143106776497185284e-02,4.173400312968245790e-03,1.473830831707422656e-02,1.237691140132013562e-01,5.169869940869351033e-02,4.371969687095043910e-02,9.947959438174584779e-02
3.118632539170120965e-04,3.012940256693127372e-01,1.780340868120264958e-02,3.600372036154157480e-03,2.102404780772065915e-03,7.932801133584771458e-03,8.897769588304169086e-02,3.166046449393662005e-02,6.894885099137446072e-02,9.944162115396358581e-02
1.344025057673427226e-03,2.754919819967285854e-01,7.992163307630584246e-03,8.853905463988339525e-03,9.117236304592138754e-03,4.020098552947719457e-03,7.029500224739168579e-02,8.029065993420081426e-02,7.795709855889228213e-02,9.995516395681600108e-02
2.707306298023598456e-03,2.236528035503211054e-01,8.045787980874226017e-03,2.006731367361417467e-02,1.250994374162557252e-02,1.685725632773470671e-03,5.766195840667808631e-02,1.617547144450076912e-01,6.931124058514277764e-02,1.151483785258523573e-01
3.057005543280807286e-03,1.674972890156258831e-01,2.205304699059957088e-02,1.796561366734680462e-02,1.000187016329747922e-02,3.202196733089551772e-03,3.320698838050183122e-02,1.980159612622218734e-01,5.190830629625394627e-02,1.087162120853491232e-01
1.594082842963003574e-03,1.154903354937928811e-01,3.144300979764484000e-02,7.100285605921544292e-03,3.270741637552636305e-03,1.204711260398941622e-02,1.144631654938356793e-02,1.456034092759467546e-01,3.636064824638132048e-02,4.288888552484390604e-02
1.257623719348431980e-03,6.707711470518999686e-02,3.979245707654492648e-02,4.141808096307201398e-02,2.554213923039976974e-03,2.233399969117700126e-02,7.161829062688969405e-02,3.136831687278909819e-02,2.766214168688911970e-02,6.717704110955217967e-02
4.347465229049464301e-03,2.796051119182504235e-02,5.359451674192541176e-02,6.094358315797764047e-02,3.440135515792630810e-03,3.057502414077206687e-02,1.336911836815272703e-01,8.748518659366147365e-02,2.194416799530519643e-02,1.764452320635924443e-01
6.028906738108149796e-03,3.033109911401182801e-03,7.454190992645355618e-02,5.559451173684535480e-02,2.382764976909177953e-04,3.409276745254836982e-02,1.753275784930199144e-01,1.649307051863337925e-01,1.202320329667662911e-02,2.542573285174023479e-01
5.020058605222911703e-03,1.704786592376824131e-02,9.175812371638289444e-02,3.435243368673661368e-02,3.508120385969714511e-03,3.148432164339533962e-02,1.758091457391104395e-01,1.724289932424291905e-01,3.775195945883530208e-03,2.851298668943684778e-01
1.988446865894421319e-03,4.166877807108103349e-02,9.138290906962701077e-02,9.597434074838977203e-03,5.901390832718249671e-03,2.358329333252733723e-02,1.370178975305443858e-01,1.074240827444203905e-01,2.121145322365163705e-02,2.547706231590373682e-01
9.702093141527431876e-04,6.393431353528131189e-02,7.755933865956674000e-02,1.541288195169327781e-02,7.473342008997459034e-03,1.400261633552668007e-02,8.657720205598418151e-02,7.169926371697523532e-03,3.793881824697151878e-02,1.680816754048446438e-01
2.615809121876585836e-03,7.845520153156407273e-02,6.862976902453642170e-02,4.235752520551979566e-02,9.730737828182603813e-03,7.522123279293138447e-03,5.410203498553846357e-02,7.059310277361947883e-02,5.683211594186291654e-02,7.265877631300558803e-02
2.874417933122975794e-03,9.742828940361414336e-02,6.864072764424013207e-02,6.632325493418686491e-02,1.385448134185322290e-02,6.844537751814269190e-03,4.872749001285319598e-02,9.083521157452467687e-02,7.835609946509655699e-02,2.978578117155726915e-02
1.587251357555106860e-03,1.245410102299593369e-01,6.354326730960828395e-02,7.516306397887240198e-02,1.916142278845708175e-02,1.108271551823578061e-02,6.229619737995189394e-02,5.600518720491574204e-02,9.437173733889847593e-02,5.846158288412550003e-02
1.126286582322132569e-03,1.321201732673883966e-01,5.002606012199112967e-02,6.364190173883781110e-02,2.303142255346262574e-02,1.783069789264151925e-02,8.720163126211374904e-02,1.607990194985993784e-02,9.651030963644560701e-02,1.351332206480486964e-01
3.923280450617504592e-03,9.395518808111949505e-02,4.282152960192702612e-02,4.234487108151401696e-02,2.340985070229619630e-02,2.519462752648789564e-02,1.212443759034255442e-01,1.072884198340780665e-01,8.689571336302755189e-02,2.343610936355605134e-01
5.275405563041479264e-03,2.865042191818143597e-02,4.742545604653652935e-02,2.612811734327902258e-02,2.032770710265479133e-02,3.088073513824107774e-02,1.574460275301340639e-01,1.928367090691013030e-01,7.258781726916950505e-02,3.248615135880411064e-01
4.924878931949172069e-03,1.625225839057770766e-02,5.130696066599015059e-02,1.944521373491224850e-02,1.520808368072047376e-02,3.216346432261067700e-02,1.828892124779948614e-01,2.465001174383385785e-01,5.516675188986299577e-02,3.487295315187900480e-01
3.385314388824843795e-03,1.675927150047472683e-02,4.924084478053187414e-02,1.905298312133545113e-02,1.081856977940823250e-02,2.903286923582606635e-02,1.908212462769068862e-01,2.608361430219078292e-01,3.604694758291535073e-02,2.723065552905528652e-01
8.787757356752343152e-04,1.035653814500380951e-02,5.379563030607163038e-02,2.269231280772350534e-02,1.054185835870779207e-02,2.488447808977049813e-02,1.830811377636626380e-01,2.462644697457609944e-01,2.522103487162416502e-02,1.465396718354343153e-01
2.451608556202387185e-03,3.735304115806199754e-02,7.147747469755111327e-02,2.706582458174277769e-02,1.435211894400551490e-02,2.203234183015313763e-02,1.605094636109976602e-01,2.123647320668770044e-01,3.105380647851652826e-02,5.598303619218873706e-02
5.960793670924179749e-03,5.472731634880327600e-02,8.617074038538552472e-02,2.375157002892395314e-02,1.665785412317556322e-02,1.931798373933573884e-02,1.253519178987470561e-01,1.700158232941907654e-01,4.448879250433866728e-02,2.274507670031033005e-02
8.357349329777588945e-03,6.853969518169239494e-02,7.688479816981068360e-02,4.345033119803216708e-03,1.139922646677791855e-02,1.613795716642740796e-02,9.371435763446493705e-02,1.431479395146870448e-01,4.629333019699539975e-02,1.194518046109474887e-02
7.972278437513519514e-03,8.191007035659672586e-02,4.276372078352692896e-02,3.122289364955939395e-02,1.098176337715681128e-03,1.540111172195399343e-02,8.750829763155038021e-02,1.506986981414008553e-01,3.074760889893518589e-02,5.778833805068717133e-03
4.254457569758222923e-03,9.082783052866175155e-02,3.225301337657115672e-03,7.145275757082600321e-02,1.410251912776215935e-02,1.941816378176139390e-02,1.080098115171999329e-01,1.813969786291021180e-01,1.216684792445703843e-02,1.887128694541275603e-02
8.326835281982974610e-04,9.549527714433810044e-02,2.142991853091195248e-02,9.794244456046527492e-02,2.068254319108938852e-02,2.560916249917834231e-02,1.320250756324992114e-01,2.076632429071264552e-01,5.154084160603320322e-03,5.754514146966791671e-02
4.726188566889641222e-03,1.025361698265358501e-01,2.431326055235642769e-02,9.763705859973668966e-02,1.885684010374327757e-02,2.976863722729089501e-02,1.408865479663504172e-01,2.168584177016367187e-01,7.042015096960040250e-03,1.052918249594129302e-01
7.367093490216927720e-03,1.122791507757335411e-01,9.891880723005785914e-03,7.215135833614462479e-02,1.136625548470334389e-02,3.120367215192056815e-02,1.392815320925984979e-01,2.124447717603663577e-01,6.557416470542915335e-03,1.413183536049417433e-01
1.004465337585148596e-02,1.152292898421889145e-01,1.541620201119688408e-02,3.275330010971600619e-02,2.413803359660660151e-03,3.080364189799211436e-02,1.357657139384583489e-01,1.947665307802838031e-01,3.727814103422936315e-03,1.490651397649897236e-01
1.199756984535622038e-02,1.062347579192761543e-01,4.486649280894457192e-02,9.822707322661232768e-03,4.597928441784217106e-03,2.671870277711679148e-02,1.197173509821835707e-01,1.574550022105254410e-01,9.489017976514841843e-03,1.124624268325767340e-01
1.137291622240225140e-02,9.274441323812220028e-02,6.583838767979575957e-02,4.520475255875468917e-02,8.304480860677329254e-03,1.712382071649414667e-02,7.688900541897934759e-02,1.002331552582961111e-01,2.566079820809009579e-02,2.579989769824682366e-02
8.888929550003260224e-03,8.465644605934462275e-02,6.422872041287541744e-02,6.106884331320215631e-02,1.000520558519996453e-02,5.643046232905400347e-03,1.930037333297923707e-02,3.696194912610363537e-02,3.810642828720505609e-02,8.678132778205072118e-02
7.249778494956904580e-03,8.336829824157357405e-02,4.018863764632302216e-02,5.331324143612688193e-02,1.107369981750844744e-02,1.281706648287822374e-03,2.240811129514361580e-02,9.862640592683848823e-03,3.449812002509070052e-02,1.753254254975241955e-01
7.385094056698939848e-03,8.451484827883599948e-02,1.117664925601713488e-02,3.456206430428817450e-02,9.290834772049914869e-03,2.128231235756973365e-03,3.280773530105095259e-02,2.341957329040880026e-02,1.828665425788629159e-02,1.994500074170799664e-01
8.017131898600324616e-03,8.638033549267969124e-02,6.204616126060932130e-03,2.088661324289236079e-02,1.458886883250552291e-03,1.105121601682923678e-03,1.988231590932630286e-02,4.066374246992278396e-03,3.099377903548268705e-04,1.575383340091646989e-01
8.255629690773005208e-03,9.076497471081819424e-02,1.040210471364448955e-02,1.336980219449947910e-02,1.009960546769706272e-02,1.142373973209541080e-03,4.223592117841450111e-03,3.422065079272778448e-02,1.312344102476262556e-02,8.044620326123239074e-02
8.238498559086041700e-03,9.632843923301930011e-02,8.475826782223897307e-03,2.887405619960295780e-03,1.851527047722449290e-02,3.438965799137791088e-04,3.264475293244269161e-02,7.783638987707430790e-02,1.993059253033409653e-02,5.803639473035148572e-03
7.819520930705292291e-03,9.665073701907034298e-02,4.820275426671614440e-03,1.096268930130470109e-02,2.029648027545563962e-02,3.120141438775426036e-03,5.855336784137979422e-02,1.171649402610477619e-01,2.054585479750556040e-02,4.273250403313446494e-02
6.431740764326351369e-03,8.870884673025229705e-02,2.880948143305951670e-05,1.619033462752056049e-02,1.779863523827836247e-02,6.486721383505797411e-03,7.542439879718157436e-02,1.375912409185758578e-01,1.977187793235547081e-02,6.429843585653487181e-02
3.946075387817838884e-03,7.835650569324177639e-02,5.439057080209975560e-03,3.687541867576399953e-03,1.386127351402218454e-02,5.947172068992953413e-03,8.207617143931346393e-02,1.227378351209800905e-01,2.221516617663824369e-02,6.966242064885966312e-02
8.177691572508532722e-04,7.163969093320740611e-02,7.678378531886733034e-03,2.073310500249537364e-02,8.231405021203026112e-03,2.325628439620865476e-03,8.119835254445224859e-02,7.577383911366716851e-02,2.498057342540562636e-02,5.973088523634208918e-02
2.182151119937938283e-03,6.624536310468789879e-02,1.574019419686164146e-03,4.355907787973463396e-02,7.586270251388696094e-05,2.511784139557170486e-04,7.508313730495920491e-02,2.644683126144740937e-02,2.027161283418097912e-02,3.262132128726381169e-02
4.108205584732951485e-03,5.847904834417309849e-02,1.090201037897037088e-02,5.885220135557629045e-02,8.318866627376046360e-03,8.088291338032927227e-05,6.408682616651188713e-02,3.840066865539022017e-03,5.761498506460311503e-03,7.652907760057111458e-03
4.506336648133340075e-03,5.173888458491329029e-02,2.003265798713969870e-02,6.819334646736198435e-02,1.189676793348484057e-02,8.403132074973548860e-04,4.604650286379560753e-02,5.279927929012422777e-03,7.625487501178705545e-03,2.780513095146993231e-03
4.203682976933595036e-03,4.929644765764686770e-02,2.577555546356119498e-02,6.858477167871529501e-02,7.645452212868857587e-03,9.842728388074759634e-04,2.019606403665200750e-02,4.105482673747534034e-03,7.288578548839614365e-04,4.572774337325453964e-03
4.417956333996214159e-03,4.582533688666321631e-02,4.400200004957017380e-02,5.369294601279511747e-02,1.359885339432269098e-03,1.825182566364419185e-03,4.720169338798308606e-03,1.126604907631864952e-02,3.234436723408292552e-02,4.083729036473652402e-02
4.941250188120442297e-03,3.604501376987367944e-02,8.152596438846593241e-02,2.715632002051849778e-02,8.599452731465763444e-03,4.580224540188677571e-03,1.369237191271336501e-02,2.089192145303194956e-02,7.062776822470615001e-02,7.747364845017117030e-02
4.752771669181587999e-03,2.486710200985244035e-02,1.191181602140037876e-01,2.901140274443277534e-03,1.074406888051286993e-02,6.523560346853351892e-03,2.778137031130941542e-03,3.538354376025966072e-03,8.772741030416443542e-02,7.254988841637063923e-02
4.412477825024357578e-03,1.907389513187496277e-02,1.332299021704820008e-01,7.453145056760563693e-03,9.359737290552474359e-03,3.964990178962578098e-03,1.367364872819890054e-02,3.077672501776874958e-02,8.127568443494942452e-02,4.599364826088975233e-02
5.632835126694880380e-03,1.649382346372973290e-02,1.208951784216709679e-01,3.125308729975840444e-04,6.627863162197156210e-03,1.998020396204812973e-03,1.816930716859168488e-02,5.217246868234101664e-02,6.620305253843278281e-02,4.509970450997551061e-02
8.122002726186012059e-03,1.246984579279995613e-02,9.442679302110656980e-02,2.103360208378235105e-02,3.220061612311145554e-03,6.357758328369422611e-03,6.630702179672725086e-03,4.619322560152593765e-02,4.913908249790374660e-02,6.264912937425944073e-02
8.936588259208306378e-03,8.103147480175204934e-03,6.532945938799498975e-02,4.494859842983118386e-02,6.945840716867917458e-04,6.476029770575882083e-03,1.362977873630852842e-02,2.388833237221497235e-02,2.705088058395615017e-02,5.804958651561287902e-02
6.004699885654847698e-03,4.271522441807602474e-03,3.941676711976534186e-02,5.527037544685084458e-02,1.445438164855473518e-03,4.656679838318689146e-03,3.640619484665704592e-02,1.059969083807899871e-03,2.285131205532367742e-03,3.786013971832678099e-02
1.069918608221920742e-03,2.830687116992625790e-03,1.883550762322714137e-02,4.633866860551334038e-02,4.748504343173336716e-03,4.600681390237667395e-03,6.067633825625954463e-02,1.833936955037566638e-02,1.652805873351466392e-02,4.785368740229479362e-02
2.405750160662929911e-03,1.403122431236993733e-02,5.059393670905681407e-03,3.001124065609182476e-02,6.825005048842086933e-03,7.051823937850640496e-03,8.318807910553450979e-02,3.461246766418530491e-02,2.333117789202456341e-02,9.084544119040172117e-02
3.483218690417805123e-03,2.385866748329331863e-02,2.538624239398299537e-04,1.905950342424518607e-02,6.086657346851006775e-03,9.420619551427878921e-03,9.380896832548867026e-02,3.919724833911489292e-02,1.669679252914854639e-02,1.100511654100516934e-01
3.630482804272621572e-03,2.868193234485703902e-02,1.510609086685051061e-03,9.124014166748423832e-03,4.406702148854557341e-03,9.255780531445803941e-03,8.406686952041123040e-02,2.206905313839879409e-02,2.282246426890486429e-04,6.454604520358976638e-02
3.154730140760488456e-03,3.073517420578150347e-02,6.178221386201420903e-03,1.166509338998506298e-02,2.778964475256035134e-03,6.965394440902090631e-03,5.899822435486615224e-02,9.457710741888373032e-03,1.537097298188944833e-02,1.930483611873149569e-02
9.722846298910908010e-04,3.168747674750120591e-02,1.153621842015323425e-02,4.099155883918159660e-02,2.587593055671620753e-04,4.622299905532824792e-03,3.531786477145989339e-02,3.386693473365992579e-02,1.987597849208428899e-02,8.819635593817590213e-02
2.415261619508270348e-03,2.841419713964192517e-02,1.587261391372450647e-02,6.488868836126630846e-02,2.447992542619656202e-03,3.816882160292303476e-03,2.717645462990162658e-02,3.995714167543860246e-02,1.537178927874244087e-02,1.238662457651811821e-01
4.976217890424110106e-03,1.861571361699252553e-02,1.565170700254587405e-02,7.809415429181632007e-02,2.822900918203750595e-03,5.584246349681951105e-03,3.589256456908346271e-02,3.450071699731678543e-02,1.171883508910972517e-02,1.395242729993757536e-01
6.043993513436186904e-03,7.766050088078878429e-03,1.360153572000460248e-02,8.635206635897479943e-02,6.851822032591799953e-04,1.006849478800389899e-02,5.122879844124444970e-02,2.535131980331550849e-02,1.175872854938096908e-02,1.345647262085014617e-01
6.581518293899486088e-03,6.285205276795101034e-03,2.090279332079397756e-02,9.043958117772432637e-02,7.625892097745885822e-04,1.501624935831089545e-02,5.953836748203684276e-02,1.434650901696939151e-02,1.136370271081285285e-02,9.391755121252012839e-02
7.023577884641842017e-03,1.881648275044249877e-02,4.013978030834463445e-02,8.339767522010718692e-02,1.275378690254839152e-03,1.707525896465717993e-02,5.484183396936700289e-02,5.697793844352252654e-03,1.004423812174350290e-02,3.058107997419208524e-02
6.971332004750716536e-03,3.950214405358105918e-02,5.577307516954710387e-02,6.431789485215497204e-02,6.168118708732539882e-03,1.575747757216475892e-02,4.643405679902844890e-02,6.486501059648763778e-04,8.739413865146192228e-03,1.847989634878525328e-02
6.539053348371469225e-03,5.939024671207805001e-02,5.269854091214352942e-02,4.188399749592987970e-02,1.092997139761357588e-02,1.377918936844717279e-02,4.982416771890631896e-02,2.230784811740587140e-02,1.923528495906833263e-03,4.704568125368441961e-02
6.354149044999180505e-03,7.355514569173529638e-02,3.489798643180027499e-02,2.308010964496881590e-02,1.335318507339461683e-02,1.278519997852721295e-02,6.486400823083772471e-02,7.417673374493340133e-02,1.362744426090950478e-02,8.144489843643412663e-02
6.411605597773818201e-03,7.920665470044238599e-02,1.657787525225104530e-02,9.384798055021601609e-03,1.339023640973714853e-02,1.142722493298380451e-02,7.242184543317778389e-02,1.358148212720538262e-01,2.687330694414896345e-02,1.230386642777495931e-01
6.072468397033826092e-03,7.567391910057687243e-02,5.663052570328692276e-03,4.678488560335682112e-03,1.149067746814514540e-02,8.518348075842636230e-03,6.117458578455910873e-02,1.681723085130178430e-01,2.387401370288411498e-02,1.462746933378492042e-01
5.253880469397533698e-03,7.014419428131177248e-02,5.846471029464993599e-03,1.555801398378849065e-02,7.345823085625750870e-03,5.377212526500873419e-03,4.506296340287540420e-02,1.610299521918956422e-01,6.347486898870068062e-03,1.555099468527020301e-01
4.678880559667557802e-03,7.292234284155750534e-02,2.234778816116541819e-02,3.987569180683803172e-02,1.796062695275374996e-03,3.693853048488702617e-03,4.154272687778833711e-02,1.355430852911999606e-01,1.390939156114830849e-02,1.782003394132732343e-01
4.758147979053572486e-03,8.248379596447415196e-02,5.127591540910754475e-02,6.230354461833496893e-02,1.855731127048332579e-03,3.091965309756817756e-03,4.553202777782737465e-02,1.065163995540662628e-01,3.162843687093652018e-02,2.010541465904361058e-01
5.072461289628649520e-03,8.571675639319081830e-02,7.294438093288641012e-02,6.607097711195633605e-02,6.989502813085378191e-04,2.237307359328833626e-03,4.050222915078378894e-02,7.388197794467850354e-02,4.568984122218779781e-02,1.812511482123260464e-01
4.908470769922234321e-03,7.600965583878434295e-02,7.044831329768135031e-02,4.683234687088931592e-02,4.374355256567746125e-03,1.059865663885366065e-03,2.587489876518290349e-02,4.813244174516566332e-02,4.868539768536225831e-02,1.230616620259395028e-01
3.627607667025566432e-03,6.060667365445240179e-02,4.831319580796977764e-02,1.471846584921355540e-02,9.256103289203718165e-03,5.556707514158230887e-04,1.897581222960616903e-02,5.413023016462793074e-02,3.387836972639190342e-02,8.199809726320396452e-02
1.104577444287137711e-03,4.814510819768808708e-02,2.264691001852710273e-02,1.365967532896569109e-02,1.055852018277678508e-02,1.010550366739574289e-03,3.293920714090903257e-02,1.013691804292582571e-01,7.776847610892912571e-03,8.995725237916872563e-02
1.868489773463558046e-03,3.865842156787396150e-02,1.280311817379535706e-03,2.607340268493515620e-02,9.112263958142996154e-03,1.525336274770278978e-03,6.033636214275196752e-02,1.644058719787066247e-01,1.554577801413036149e-02,1.221951852979113462e-01
4.564117233494502726e-03,2.823981945737110213e-02,1.695205580917182389e-02,2.183402482759371974e-02,8.646874146088430121e-03,1.399577054589082542e-03,8.031866690767894279e-02,2.032995905895240429e-01,2.891427176869796126e-02,1.384995531393263812e-01
7.248725140133502158e-03,1.637287357546663574e-02,3.116909738810674790e-02,8.178229048428915793e-03,9.717893095671071776e-03,1.327522801897534953e-03,8.128690340054628427e-02,2.019435989310534585e-01,3.301040337253925705e-02,1.244212245174010495e-01
9.898269750571656381e-03,5.650372899405496988e-03,3.702464060306973753e-02,1.086010490344803403e-02,7.465072293516896232e-03,2.483604020480271492e-03,7.099841843232156113e-02,1.771443159916095134e-01,2.798968842262530149e-02,9.008068614595365897e-02
1.117003045618455981e-02,1.937685456676998055e-03,3.367727714065651273e-02,3.748717580063970489e-02,1.426310012941973092e-03,4.549818249219645533e-03,6.043787913500253683e-02,1.486717210802527001e-01,1.343074447795688901e-02,4.812720562032378468e-02
1.012021434440048967e-02,6.007301066879876250e-03,2.594485512032367741e-02,6.978545538718550212e-02,1.242565457765724621e-02,5.856071520966291827e-03,4.834705552406971807e-02,1.160399614686805497e-01,4.908526273996128599e-03,3.048353781342006893e-03
7.605254184836289164e-03,6.968873957046432116e-03,2.021425567006381388e-02,9.428339226169746290e-02,1.780719725387669081e-02,5.636496742948088855e-03,3.127866498091570052e-02,7.404506853714601378e-02,1.589192463658883545e-02,3.866529476474034333e-02
4.812121166882540706e-03,6.137629208671450259e-03,2.046491430422222799e-02,9.573588645331075619e-02,1.509229806027378301e-02,4.661611561925201215e-03,1.702816219419272387e-02,3.393255115579796310e-02,1.190707943234477727e-02,6.069281892300631975e-02
1.915481041059914494e-03,5.682623431700020711e-03,2.685499793412535890e-02,7.267297817920830016e-02,7.701008152259666319e-03,3.627009826900728928e-03,1.428767856019813078e-02,1.270128162272500180e-02,5.753424333169653362e-03,5.346044253216587772e-02
9.636233918310110370e-04,6.416156151848683917e-03,3.671850491207601097e-02,3.758547801969820690e-02,6.602146762798590494e-05,2.580488372186631914e-03,1.840835311818860009e-02,1.397238633758630597e-02,2.918448701865755321e-02,2.788197301520697544e-02
3.051525757092440633e-03,6.049165840412287082e-03,4.698372804640116307e-02,3.193577351170949485e-03,5.035369166250171225e-03,1.742754510397536089e-03,2.098857704509785038e-02,3.384888994179902078e-02,5.000001740700300151e-02,4.953022217914134287e-03
3.966755723504547700e-03,2.403876584030671150e-03,5.521464565235890964e-02,2.589967138052442358e-02,6.628377020059425008e-03,1.416626170514025248e-03,2.455785479671950336e-02,7.122205335193151909e-02,6.624213561074893120e-02,5.004479656094196899e-02
4.324071493063130767e-03,1.928055015413394219e-03,5.914034741837552456e-02,5.001602117972808736e-02,5.746531084469619702e-03,1.362521055613730636e-03,3.417245714975505194e-02,1.168604520123219109e-01,8.292328695807825445e-02,1.013740691509435049e-01
4.571716785262879869e-03,2.332545344243427271e-03,5.784496001433091922e-02,6.936496086730707666e-02,4.886337337702583924e-03,1.156518306664460361e-03,4.300625283298004087e-02,1.466898773568369174e-01,9.978643281059483561e-02,1.237949832184671584e-01
3.924660519739753793e-03,6.479186058884660662e-04,5.346666286826325110e-02,8.175438487221910189e-02,5.553335925450624509e-03,7.790075413775172149e-04,3.995626124506884702e-02,1.423114590923223177e-01,1.019749726751103952e-01,9.298251359821364803e-02
1.514238618322911968e-03,2.362338251014546239e-03,4.892772984666841213e-02,8.208610122758064342e-02,5.813930726275924957e-03,4.204548423273062226e-04,2.567078846936163283e-02,1.092036302894023037e-01,7.520996346084060646e-02,3.154073471738710194e-02
1.527090522024162006e-03,1.716993193924906506e-03,4.423460102298530650e-02,6.699326485880363613e-02,1.648426052993033500e-03,1.057103064136915823e-04,1.009965149093795984e-02,6.505919183249958548e-02,2.863444636656810663e-02,2.146877784451022703e-02
2.751986919800712261e-03,1.228710930049546103e-03,3.804781411823100756e-02,4.232376964228595773e-02,7.573699100488980561e-03,2.441282482853115044e-04,1.781777930138500957e-03,2.009278993353159209e-02,1.042047344005709100e-02,5.699807371145716728e-02
1.798484811889019706e-03,3.641125429697158328e-04,3.194854607459068907e-02,2.155892230891639713e-02,1.619737813439777949e-02,6.321895722013884996e-04,1.332832967546691491e-02,2.370178870943102228e-02,2.393434974827162581e-02,9.114298477789826991e-02
1.187850114282553533e-03,3.529798948927407795e-03,2.920331627398697200e-02,1.442324958438153011e-02,1.742022127632042450e-02,1.011532343345764029e-03,2.748051122867474494e-02,6.374508042911447570e-02,1.690310162494206014e-02,1.312078202091330192e-01
2.617891833692103428e-03,8.217568580789598454e-03,2.981502911846800608e-02,2.047704528619540693e-02,1.066053996333283030e-02,1.369818434164282294e-03,4.151641043207084797e-02,9.677170436331114511e-02,6.219405101566355051e-03,1.667108401227081205e-01
4.635688312732907934e-03,8.386388018278881709e-03,3.041430252738934470e-02,3.404731807276978328e-02,1.669178417741767721e-03,1.718612668292720646e-03,5.140673334610475903e-02,1.234764843005858592e-01,2.641743258116974191e-03,1.877696235327506458e-01
5.312177431014840530e-03,4.246094513817012112e-03,2.873281555309783325e-02,5.034214333532595342e-02,3.921804925509144238e-03,2.053842598841321750e-03,5.737948643143470778e-02,1.468122803900694384e-01,5.067578751273588145e-03,1.975910591166926411e-01
4.751849154219224894e-03,1.179882183004439880e-03,2.552043083998822848e-02,6.513407682426398948e-02,5.239001467122938495e-03,2.360554725367054133e-03,6.276476713480609593e-02,1.675227178760396729e-01,1.053197251172668415e-02,2.049672451644779236e-01
3.633323583561151159e-03,1.452207881978832479e-03,2.255975866207973052e-02,7.343120211327343327e-02,4.834958352698487047e-03,2.631706985617623690e-03,6.874880283604184461e-02,1.850539322848886725e-01,2.175209560451278612e-02,2.137257779881687469e-01
1.901265778709403890e-03,2.440663029688648275e-03,2.061404634724941717e-02,7.214940447188049333e-02,4.745213888641569913e-03,2.866374085393412485e-03,7.284896161320157659e-02,1.993260920364383348e-01,3.850586530247246397e-02,2.230348938227898759e-01
5.909277081131205918e-05,2.121006156358026286e-03,1.910282397696518031e-02,6.179083305345012267e-02,4.890051344463389529e-03,3.061106385376995143e-03,7.286720751073248736e-02,2.074256213439683305e-01,5.124935517306365707e-02,2.287504148899379697e-01
6.409799868040626887e-04,1.261910532034201836e-03,1.724487643838439749e-02,4.436946344277628573e-02,4.238453250608780788e-03,3.210818155052421255e-03,7.022939020299835688e-02,2.043118633271287510e-01,5.319469398959646156e-02,2.212529712341425314e-01
1.039821809348966987e-06,7.789602876034800762e-04,1.534198883530174355e-02,2.286141972299222946e-02,1.640365414571715898e-03,3.312967476193597136e-03,6.811486761490553876e-02,1.926935106853377988e-01,4.991184966116402055e-02,1.945539354357854744e-01
1.134302576972351416e-03,3.463423935348626005e-04,1.415396830207310032e-02,2.496948196377198059e-03,4.011965418075272467e-03,3.367280660812734232e-03,6.724865019114013853e-02,1.834556187196007271e-01,4.833403665590592369e-02,1.593035518017262842e-01
2.630611424196082921e-03,4.552616359006008296e-04,1.337058604841060566e-02,1.093294125801286959e-02,1.204980925244943622e-02,3.373845166869997737e-03,6.490134803855011902e-02,1.779667356563473246e-01,4.476623005815239670e-02,1.303796621706259373e-01
4.711558953077184253e-03,1.464035373971276505e-03,1.212663011173529745e-02,1.417497749634905393e-02,1.846418503331323513e-02,3.333231839031779685e-03,5.868648017661353550e-02,1.623649783447523864e-01,3.203406521350235514e-02,1.035514088728759219e-01
6.044783112788928124e-03,2.462565636384159238e-03,1.052454230768468287e-02,7.341679705310891549e-03,1.849871808454896238e-02,3.247368566005351571e-03,5.090084728637464528e-02,1.305442418897104773e-01,1.272570682274983336e-02,6.505478949942625211e-02
4.715606332210649405e-03,3.500814913361676318e-03,9.173265222472928859e-03,6.561209392117095876e-03,1.155540469593359897e-02,3.119436188055409089e-03,4.667929984163159129e-02,9.680461408908344612e-02,2.632866725747997922e-03,1.855259587576440355e-02
1.417592488014028998e-03,4.654666402076562161e-03,7.834704214669096362e-03,2.300780857870768359e-02,2.334898356988712211e-03,2.953365436338490843e-03,4.604973366695445242e-02,7.121946755426586395e-02,8.784791551335234538e-03,1.993810928103651597e-02
4.818814719200239767e-04,5.872300748362892057e-03,6.052842597902771682e-03,3.857395348787356903e-02,3.611091597428795104e-03,2.753754058195280376e-03,4.105771169945821031e-02,4.062002298806269285e-02,1.090026734171430783e-02,4.479749234610658215e-02
1.092685436224677831e-03,7.085992308117134396e-03,4.547730959917978266e-03,5.152935466301270667e-02,5.031282749157679236e-03,2.525946340362597315e-03,2.534072879563415565e-02,6.958855131506111458e-03,1.650778244818132401e-02,5.748320748845217598e-02
4.278542359314910053e-03,8.286080215017475534e-03,3.947172441566147889e-03,5.832851726108901486e-02,4.688885901724270180e-03,2.275892256225455629e-03,4.134371588572309346e-03,5.522825293954422565e-02,2.667387803905194033e-02,5.381538509930028358e-02
5.778558744029600562e-03,9.470231715711107529e-03,2.482414837899115170e-03,5.116779512321674439e-02,4.397463601140350932e-03,2.009906835338043200e-03,1.076664914435885093e-02,7.881270907080362154e-02,3.523395257146769849e-02,3.432222569847070970e-02
5.193787593234360130e-03,1.060891277756919812e-02,1.948462064737769596e-03,2.394313099077349447e-02,3.015090291981262303e-03,1.734515535949945723e-03,1.368931650697095825e-02,7.709305509913444432e-02,3.453888289131899769e-02,1.291775541266253907e-02
4.825449938076237233e-03,1.166945456483049412e-02,7.285132725565652417e-03,1.677538538529136508e-02,8.886348013533254021e-05,1.456336874410416819e-03,7.604997821939142241e-03,6.795934110275746176e-02,2.319049113681231206e-02,2.425072397688396442e-04
5.257231400234167219e-03,1.263323488539622348e-02,8.984888374873789899e-03,5.160717315389086457e-02,1.818837611152479767e-03,1.181920419392667662e-03,2.136977480818154362e-03,5.888080069652889409e-02,8.155168931940504767e-03,8.998200762978178502e-03
4.305420400290797811e-03,1.348531061117072029e-02,6.733574622474708914e-03,6.469840364022247381e-02,5.236594814301487799e-04,9.175677679487286888e-04,1.127852814306241555e-02,4.446202994939797010e-02,3.219763032103631871e-03,1.497263337539099688e-02
1.255999483813308691e-03,1.420689482042380471e-02,5.080940733116072125e-03,5.716764417648342173e-02,2.370912683131763156e-03,6.691809312214386241e-04,1.760559395618897099e-02,2.390615417869614012e-02,1.107818691241666161e-02,1.139240451640372714e-02
