3.907643904840587580e-04,5.613903927330152069e-04,6.169474107281236724e-04,2.587733452073031292e-04,1.113418365151506496e-04,4.539826377923374080e-04,3.795092818680731624e-03,8.095340688715858130e-03,2.358758762814087365e-03,4.803386330977115924e-04
3.574248618795584573e-04,3.782243309237365227e-04,2.315047200386862792e-04,2.558700197073312545e-04,8.954862329038306866e-05,6.071625815110062978e-04,4.506378281616913936e-03,1.138942041277036382e-02,2.154259965896857237e-03,5.497410559605138587e-04
3.297361252135240809e-04,1.875275639209748532e-04,4.924541711641939549e-04,2.467525381689291103e-04,7.996829945839800053e-06,6.071065679378348338e-04,5.291048063966513962e-03,1.219706324784852747e-02,1.896878808273374725e-03,6.044833496096779649e-04
3.173141440832925701e-04,5.892382915552636137e-06,6.672522303249255960e-04,2.316540661766886423e-04,9.966230570471955015e-05,3.627747087329408313e-04,5.179899207703607747e-03,9.369251099928158077e-03,1.593451844063234956e-03,6.432937903527942468e-04
3.033801126038169083e-04,1.972297013561176513e-04,3.060817741962742946e-04,2.109545618539882884e-04,3.205268879653181508e-04,4.297770196842271777e-04,1.610178406965133337e-03,8.914083668188646503e-03,1.252718795405967324e-03,6.653052454280306959e-04
2.839487209594622821e-04,3.817942497009896188e-04,1.364076489023854759e-05,1.851706452830743064e-04,1.120252971909352715e-04,1.046626914795455035e-03,4.387542778719309006e-03,1.317239731860626872e-02,8.826459745243814834e-04,6.700860279403363182e-04
2.679146960166297578e-04,5.550039845219128729e-04,1.034063651765383196e-04,1.549429148903276761e-04,6.602008403657706791e-04,9.276133539589640105e-04,6.358019825767020211e-03,1.158176340356662989e-02,4.901017389955713904e-04,6.576454833080294443e-04
2.572560287788460374e-04,7.125040945422588760e-04,2.668503021170638505e-04,1.210197733914406394e-04,1.128394727355347188e-03,1.286278167540743506e-03,8.046543047445467878e-04,3.209138100927723045e-03,8.592772473026369525e-05,6.284032638221242291e-04
2.468819824078055062e-04,8.505352314722312759e-04,9.589813677560659689e-05,8.423833927345626867e-05,6.494173050080803223e-04,4.433634336985912798e-03,6.990582924847225238e-03,2.081211013698828702e-02,3.149263465306363120e-04,5.831781069929491742e-04
2.369644686489544316e-04,9.660153966157595216e-04,9.934445491113564394e-04,4.550351849710213383e-05,1.383874100403113447e-04,5.724522247259031943e-03,1.108301813085997740e-02,2.895056822045393580e-02,7.049569768798562676e-04,5.232213933462267217e-04
2.329330773251882454e-04,1.056052189816759131e-03,1.533878884000367069e-03,5.765700516322659717e-06,3.632422025546113787e-04,4.215131197281251664e-03,1.323491376435771520e-02,3.266039996765800896e-02,1.085442765217624556e-03,4.501780079767358340e-04
2.331295016644014772e-04,1.118014389125935541e-03,1.129000456608648039e-03,3.400264459875088595e-05,1.499565167022381235e-04,1.609740037040232989e-03,1.677470188864760639e-02,4.121139559611262937e-02,1.442550517156431737e-03,3.659193256673626293e-04
2.289546889517597001e-04,1.150791149137250259e-03,4.251771830406403689e-04,7.283088821825031212e-05,6.150194657456820534e-05,1.390465626910583629e-04,1.875253298342870190e-02,4.625369897705219890e-02,1.744587817477976938e-03,2.725003738523970750e-04
2.246821903242844913e-04,1.154839086269732413e-03,2.663304281131072000e-04,1.097739708435301959e-04,1.609475036389919095e-04,5.971366314287687108e-04,1.554011357354389243e-02,3.303859404325135835e-02,1.993654032082172074e-03,1.723688787182475258e-04
2.373615786270572448e-04,1.129609001389887289e-03,5.231846998419547841e-04,1.439353069993672357e-04,2.072640016096105836e-04,4.424883256197982648e-04,1.049598190420297089e-02,8.337858099727951666e-03,2.233502275781418592e-03,6.829510330902589408e-05
2.575701662409364242e-04,1.073437896854962043e-03,6.429835651141318879e-04,1.744883597947529514e-04,1.723695549669587430e-04,3.177340220017756903e-04,9.338572091474079892e-03,3.021218373150610665e-03,2.440003734259521290e-03,3.725975613571747848e-05
2.487818336386949151e-04,9.890453297894488162e-04,5.594697607247128704e-04,2.006964901727703381e-04,1.635212422318838791e-04,3.286217542455134003e-04,1.178575394098203312e-02,1.009304722556012002e-02,2.501862830778294779e-03,1.422050408388991956e-04
2.297575964383217757e-04,8.838551795958070985e-04,5.100663623823768105e-04,2.219306067831033479e-04,1.761951097392506756e-04,3.232343312580197555e-04,1.271837028109142065e-02,3.334833718617950110e-02,2.454430858034691108e-03,2.436747171447908021e-04
2.779650842347909895e-04,7.581593553181111998e-04,5.329663795060941454e-04,2.376839200968333665e-04,1.680079675256156342e-04,2.614332274722087554e-04,9.245531902393747808e-03,4.739471448814133736e-02,2.530080746809609468e-03,3.380689738689684489e-04
3.542664891065685595e-04,6.039639107569042507e-04,5.191595083205747000e-04,2.475833953815525894e-04,1.812368724960057120e-04,2.091297396341994371e-04,3.484121811566215018e-03,4.607088828593337848e-02,2.664110981342897484e-03,4.237016541866522922e-04
2.908400533617871032e-04,4.300319005152651022e-04,4.503625475219408670e-04,2.513982342072571658e-04,2.203019203195571930e-04,1.861902891916962836e-04,6.193059084437600031e-04,3.532948468782143303e-02,2.318107767104013797e-03,5.009709732241111055e-04
1.675993600843994917e-04,2.647545477462171643e-04,3.788981814921802424e-04,2.490453593474293474e-04,1.778466789456773260e-04,1.633802399816829880e-04,2.046612438802363973e-03,2.551121928707083403e-02,1.377571035017293279e-03,5.668871820616036084e-04
3.572531557571960166e-04,1.024610540489070672e-04,3.159935163436888156e-04,2.405905239234498163e-04,8.186032377951394778e-05,1.327297762384594380e-04,4.032362876975304281e-03,2.297860261618946826e-02,6.824839309519510578e-04,6.147246523797288836e-04
6.775121859747862581e-04,1.044303683690123239e-04,2.397222514712728616e-04,2.262446427705063195e-04,1.732879798142183904e-04,1.089703957486713097e-04,9.331084314549339606e-03,2.289780880773045757e-02,8.517777591016280868e-04,6.458376134975215730e-04
9.206451542536752547e-06,3.312788149400363062e-04,1.473402963374719583e-04,2.063581451436645215e-04,3.889870544028245112e-04,9.568783762128260379e-05,1.504701602103557592e-02,1.319643461508105894e-02,1.279912515517277107e-03,6.708246374166922229e-04
2.190815909439865466e-03,4.616895327187534861e-04,5.213911772665184900e-05,1.814144238730849823e-04,1.659244722800629773e-04,8.622458532939696442e-05,1.561964677538894841e-02,1.302704301739200654e-02,1.139956134328198867e-03,6.844106885024729041e-04
4.381687782292617399e-03,5.310883391111247956e-04,4.117473630447264970e-05,1.520168392489932609e-04,6.207572166619552967e-04,8.161473265734799326e-05,1.024606779477062191e-02,5.090846763353131660e-02,5.587879500578692236e-04,6.623609331289551485e-04
4.370360372066901811e-03,7.780388849793061935e-04,1.353883748464311423e-04,1.188675011941597544e-04,1.099314225923534545e-03,8.613189603606794041e-05,3.471892008073336131e-03,8.348279932974661532e-02,8.621464742661080164e-05,6.150692754270935562e-04
2.162258947858979475e-03,1.129622767509057659e-03,2.293244587171066869e-04,8.275052558594223257e-05,6.314205850676634204e-04,9.425219191529232449e-05,3.930487391141774763e-04,8.796005342462746845e-02,2.029452933851111297e-04,5.955482506004391606e-04
5.050818233252727567e-05,1.020142938800118731e-03,3.182956240326106478e-04,4.452501513832602238e-05,1.397824744474511320e-04,1.015134485146927407e-04,4.097785070931580110e-05,5.702212060750967704e-02,5.324809611644818787e-04,5.851494891529609521e-04
7.405639672103440062e-04,3.264055354772667922e-04,3.995572965823180949e-04,5.102100807062817547e-06,3.465520210992080181e-04,1.207737286695939328e-04,3.372369539306119789e-03,1.452204605181891747e-02,9.309112470197429632e-04,4.733196069600102327e-04
4.464429336923888322e-04,8.496379027971747290e-05,4.722414667930089033e-04,3.460437156573459050e-05,1.232761668211904507e-04,1.585207299699720488e-04,6.600292828312941465e-03,8.484128250773721736e-03,1.282033511545932264e-03,3.010281916575962657e-04
2.616247844497317492e-04,4.177538416023961546e-04,5.348766995114027879e-04,7.369738605631011188e-05,2.856530560714876739e-05,1.851063146587685092e-04,6.718285478897963875e-03,1.239575465753612639e-02,1.558862279342580152e-03,3.131445335610154204e-04
3.778442863059212008e-04,1.198116672073563840e-03,5.854524796002093506e-04,1.112611597589207370e-04,1.064972723557069370e-04,1.851103832232476177e-04,5.051773016003891642e-03,2.040994115854811650e-02,1.804417452453800771e-03,4.436903710486190784e-04
4.749583472442007754e-04,1.397737686824240735e-03,6.226366937774168971e-04,1.463878974201637817e-04,1.241693213849804332e-04,2.196851891254288406e-04,5.981238155832039813e-03,3.364068554092415619e-02,2.022207800081785804e-03,1.318129036623309227e-04
4.532348295522499763e-04,1.135526866754914136e-03,6.458124127154256941e-04,1.783224520688826990e-04,9.466093883781824276e-05,3.204080433554892826e-04,1.061584157709214056e-02,2.824047291669388310e-02,2.184057716533323659e-03,7.431821988272941477e-04
3.680903361962556842e-04,9.517992116657127610e-04,6.545477524584940657e-04,2.064737660968808523e-04,1.103595845461117152e-04,3.544987466412502573e-04,1.462515422285978577e-02,4.518800502635892877e-05,2.281669514443974457e-03,1.309113446411945591e-03
2.978003842531518411e-04,9.267365870007616361e-04,6.485850033545648066e-04,2.301663286975567132e-04,7.915411243587532921e-05,2.480587003442801843e-04,1.428430541302379980e-02,2.774823858110480462e-02,2.323736023804692883e-03,9.253646831770672440e-04
4.079947724455127290e-04,8.723080513771923469e-04,6.280911851679686327e-04,2.486632083648188216e-04,1.189235950713567056e-05,2.821461130614681657e-04,1.195395652217038675e-02,4.632859257395784830e-02,2.311858997168742946e-03,2.280074083708446685e-04
6.118149202611070309e-04,7.326405943779171160e-04,5.936869222797824461e-04,2.617439659393853263e-04,7.019351673820655585e-05,6.305511656761654147e-04,1.222008361055745146e-02,6.989127634782396625e-02,2.241654290317677059e-03,8.479125581799368239e-05
3.825468063729652469e-04,5.113033423020202318e-04,5.463334469129227681e-04,2.697085330126423918e-04,2.815978150083921759e-04,6.610808820660187294e-04,1.457974200259091503e-02,9.152187696729092992e-02,2.114038326210831726e-03,3.708128458245394093e-04
3.931407336701799949e-04,2.712170374834454675e-04,4.872428045738263266e-04,2.721716813808651761e-04,6.412737162922854792e-05,3.133075129859455793e-04,1.468458581993438948e-02,7.779373241006631856e-02,1.934795065832063980e-03,5.213376220629987404e-04
8.618442693763004106e-04,2.071910838891907758e-04,4.178500298271105545e-04,2.680417988484426950e-04,7.166090028681989469e-04,1.546582666636946071e-03,1.210109824933533820e-02,2.262250962749795882e-02,1.709183727149640600e-03,4.669292395965193160e-04
3.895118696344792740e-04,2.453808818441174889e-04,3.399069391877764402e-04,2.581029573076851799e-04,1.193277263994474684e-03,1.531220671495633640e-03,1.148754936234338241e-02,3.168990657630255808e-02,1.441927586223086749e-03,4.495084610711920698e-04
3.936784876024209583e-04,1.487932481466298820e-04,2.555281513647538307e-04,2.451250780873931142e-04,7.223379368859090014e-04,2.676512387446988587e-04,1.532287189142235093e-02,4.310905048216123747e-02,1.139548622561583225e-03,5.076791610720723762e-04
6.204900000272803870e-04,1.089253407953573146e-03,1.668675063182832661e-04,2.283394604983374166e-04,5.910229231031556487e-05,7.357528085203971164e-04,2.000853263858104469e-02,1.183990245627176453e-02,8.101739859689809087e-04,5.291638760134739208e-04
4.106908528229476912e-04,1.713498703799407356e-03,7.582149725125683073e-05,2.030362445949992828e-04,2.787452204078538082e-04,7.321336714160752357e-04,2.033046669477953095e-02,3.309578536447641689e-02,4.621817454505928948e-04,4.942747109420476959e-04
3.265352201538925425e-04,1.381951910596569254e-03,1.544820623607141158e-05,1.723195299181214156e-04,5.900809565049127927e-05,4.077516618769603911e-04,1.448066544800196385e-02,6.373104736081652844e-02,1.039913831901007719e-04,4.556951863505977608e-04
4.379070870516416861e-04,7.242544712190998948e-04,1.040131915077213785e-04,1.482325700457679809e-04,3.586741819949503348e-05,3.941154098882956717e-04,4.394174882167352879e-03,6.721924950069366189e-02,2.556060222900050929e-04,4.242090502036599043e-04
5.026419690749950146e-04,6.060654220642705016e-04,1.874498163748204065e-04,1.266337559870152763e-04,6.250594861691746544e-05,5.168660219109979127e-04,5.923060013908267724e-03,5.126421608812330860e-02,6.076573605408255472e-04,3.766807006864787330e-04
4.810743541553294750e-04,9.043597452531115886e-04,2.651235797636077030e-04,8.408269615041181078e-05,1.106554015988367765e-04,4.944268863652738879e-04,1.246176568407349368e-02,3.605183403591748215e-02,9.435189817556895089e-04,3.096166646968005016e-04
4.848394862876510272e-04,1.054740565174839845e-03,3.356742699165034260e-04,3.135507194635056360e-05,6.915694712407023897e-05,4.002390156573282860e-04,1.395674562615393556e-02,3.102062946803589225e-02,1.255073565525505327e-03,2.360354306468795925e-04
5.334449153765795457e-04,9.866881422896595435e-04,3.943609257023674201e-04,2.143137472226907178e-05,5.021805779933510090e-05,3.668709499370811878e-04,1.275111488242274688e-02,2.718500349788991258e-02,1.534808594687735606e-03,1.602896878078060813e-04
5.749266829448830638e-04,9.422025524165620952e-04,4.385088963640102486e-04,3.534488178553419030e-05,7.364379304022731793e-05,3.627956975349671360e-04,1.203276636352327775e-02,1.503091661600868684e-02,1.775992531522626802e-03,7.915664580992212663e-05
6.002108278946822811e-04,9.610967632439409644e-04,4.734547617081572663e-04,3.805736700020915847e-05,8.704126848910252821e-05,3.268007936292388529e-04,1.253921652707151724e-02,4.112659451422604438e-03,1.972890486141867360e-03,6.432915095453686175e-06
6.327362760291436149e-04,9.322027915102100524e-04,5.011806839991937062e-04,1.589306497794755035e-04,8.034283267587204430e-05,2.741051050032683066e-04,1.248255516221694582e-02,2.479952232089097097e-02,2.120902129089240629e-03,9.183962304106573307e-05
6.744840532186226938e-04,8.368136392457034079e-04,5.074113004561453533e-04,8.401710708115532253e-05,7.781096946319010716e-05,2.348129842584007626e-04,1.026902248271997081e-02,4.040309690092844935e-02,2.216642516171063795e-03,1.742928893180604273e-04
7.148109425653003009e-04,7.290015427766500774e-04,4.856169232380207765e-04,1.192113690755962374e-04,8.432241694654266388e-05,2.036288035157778086e-04,6.684207029763404584e-03,4.218549291412897195e-02,2.258016773516357146e-03,2.528306049151600129e-04
7.566133321000434843e-04,6.213196381718468072e-04,4.652391004353149538e-04,1.114348133998128678e-04,8.845592241000350096e-05,1.679008461645830242e-04,4.499499390552289847e-03,3.267195625225986777e-02,2.244276430532172323e-03,3.257647645973884209e-04
8.026612005147988615e-04,4.924765773476449992e-04,4.611813288209722561e-04,8.989926829903123516e-04,8.768471523792641705e-05,1.310713945684629914e-04,6.138068513617343097e-03,3.497741230340458557e-02,2.176031358153825319e-03,3.907527677014616617e-04
8.412840404909891195e-04,3.408465657032940595e-04,4.121955968122845084e-04,1.374598546021832011e-03,8.724129351689062972e-05,1.000512781503255615e-04,1.131463043457610861e-02,6.670896384179915428e-02,2.055221839078167061e-03,4.460532742572516948e-04
8.736211299323069822e-04,1.814163830645788627e-04,2.871098461628151816e-04,8.992868278886495710e-04,8.830944558857073163e-05,7.492325583685769460e-05,1.645579494203964696e-02,1.075609461430789421e-01,1.885063324766505545e-03,4.905689995155067479e-04
9.253034787389578060e-04,2.056475772222943134e-05,2.192642056595101670e-04,1.089412169209010408e-04,8.841251025410178143e-05,5.418160915736056906e-05,1.699613647918012463e-02,1.183126466159610812e-01,1.669963382752130340e-03,5.233111123906906579e-04
9.890976552947231947e-04,1.429520404935979592e-04,2.832169395033549758e-04,1.252497649208726205e-04,8.694779750260803923e-05,3.772018040864691569e-05,1.188059438946383224e-02,9.373361325543137779e-02,1.415407541371217206e-03,5.434144318443969238e-04
1.007563681229180002e-03,3.063207606581950225e-04,1.988093623477744660e-04,7.920980325026860669e-05,8.507397378692420126e-05,2.544841189702364790e-05,5.595094440383223053e-03,7.027653383768286965e-02,1.127817868548273593e-03,5.504190694058557539e-04
9.948597036675817327e-04,4.631364151303684544e-04,2.066109250655892907e-04,1.571112695628472573e-04,8.311887224824261375e-05,1.988069038050966006e-05,2.920927325092900761e-03,7.388449905924839023e-02,8.143904751670941623e-04,5.442856238816515648e-04
1.075302758268594601e-03,6.090202098885074463e-04,2.995754786686325127e-04,2.948577830973838468e-05,8.059748539980265568e-05,2.465373327063868290e-05,1.934533327455498046e-03,8.584805590786062646e-02,4.829156633028730159e-04,5.252701906700007204e-04
1.230663841360176954e-03,7.416036515716231204e-04,6.083312088260327873e-04,5.524706199285271332e-05,7.742302673448086094e-05,3.463905333744553565e-05,3.307089585676565874e-03,7.386305256100415828e-02,1.415840086288718599e-04,4.939101928547051526e-04
1.163974028688355639e-03,8.580258249123916487e-04,1.772548224725615379e-03,3.290419179576543570e-05,7.391664427585731625e-05,4.087724473116846499e-05,1.265220990370108031e-02,3.565367025800825207e-02,2.012166351847463727e-04,4.510652286189588390e-04
6.337773316338321311e-04,9.550375596804798559e-04,1.687087365701294426e-03,2.472520492283894283e-05,7.024209721734669053e-05,5.385507589040080753e-05,1.794408011593046082e-02,4.919202984110320268e-03,5.371076195198658471e-04,3.978952714951627750e-04
3.686363579098666599e-04,1.030281033231834247e-03,3.539280289099271766e-04,1.019146963672688079e-04,6.638097031975595216e-05,9.265297444848070735e-05,1.373810169450814800e-02,3.053041148811396974e-02,8.579244637818479215e-04,3.358017536230106684e-04
1.907060417852699625e-03,1.082322901970190956e-03,7.170270787119330941e-04,1.916197663700349471e-04,6.238565081587824665e-05,1.340058215977678487e-04,4.977208991404222932e-03,4.016736854914061683e-02,1.155915554522716788e-03,2.663880383920783058e-04
3.873482959119369570e-03,1.110116066638247405e-03,7.774413215298646082e-04,1.710215352412749275e-04,5.841341261263685195e-05,1.346055280852870230e-04,4.518874484843585834e-04,3.289667576543908040e-02,1.423929720510918283e-03,1.914293490635824411e-04
5.282460072728630517e-03,1.113067706702487898e-03,5.121929521244708095e-04,1.028161371807152053e-04,5.462352307794096244e-05,1.409744527691806639e-04,2.374830925611518505e-03,5.940496256893967875e-03,1.655588026161175161e-03,1.128270995990810941e-04
4.788974283455639698e-03,1.091333911750164620e-03,5.515359996502130005e-04,2.340066732563391425e-04,5.110847339381599497e-05,2.445639145882018807e-04,5.394384837390906948e-03,2.665848314020721060e-02,1.845435675481509573e-03,3.255365482921052756e-05
2.372640204571225923e-03,1.045703544287728427e-03,7.199876985318949280e-04,4.843234254423559775e-04,4.789654824443441916e-05,3.456331134079286397e-04,9.387935325283560534e-03,3.955822002495186507e-02,1.989070475499336420e-03,4.739888174013700899e-05
2.859997610927077888e-04,9.774034995637054593e-04,7.350126578615461112e-04,2.875278708988620734e-04,4.508162255079883288e-05,2.428534225308864869e-04,1.006188041058641951e-02,2.995803830510629026e-02,2.083244838050391391e-03,1.250666504368777641e-04
1.584849441677901871e-03,8.883052413792688271e-04,6.693365705559803673e-04,4.746270487190917299e-04,4.291030396599609855e-05,1.428398769373485488e-04,6.019266782185016956e-03,1.904311165159415162e-02,2.125938940799446120e-03,1.985632903459276825e-04
1.535646729953540641e-03,7.810424222356928282e-04,6.550526576091069688e-04,9.316536769699949871e-04,4.150495060533788923e-05,4.917049138286029922e-04,3.879575049940218318e-04,1.283028821890155532e-02,2.116403417406744359e-03,2.661283039786629034e-04
1.153243829235453717e-03,6.584240368815591233e-04,6.602868671887077243e-04,4.483014071270145177e-04,4.061782743589251589e-05,8.344836765843222180e-04,6.211474907073892375e-03,5.282305794982216501e-03,2.055170712986882902e-03,3.261706308233611878e-04
1.101377330598653009e-03,5.230866957209320085e-04,6.236544233619392176e-04,3.364757089156903986e-04,4.020655981572160534e-05,1.250222134402284601e-04,7.774140147725816519e-03,3.370899721077123823e-02,1.944034999386710623e-03,3.773067504773030731e-04
1.390419355790872835e-03,3.785323630697187670e-04,5.606410972397268648e-04,5.544683006839703620e-04,4.098960464573809045e-05,2.322073356061166247e-03,1.412154393198474314e-03,4.097264030323829326e-02,1.786001309943073762e-03,4.183936522685559301e-04
1.601471968068366065e-03,2.296119386517197537e-04,5.019717823550366937e-04,3.287957070352933212e-04,4.322860154142643213e-05,3.536819363515125193e-03,1.088437616563363124e-02,1.338120419948645931e-02,1.585205309791724946e-03,4.485557115504822763e-04
1.200757094526939874e-03,8.005500880501995075e-05,4.427482229324782742e-04,2.211264407297560048e-04,4.549647963743492542e-05,2.287564026115421201e-03,1.993821613024719663e-02,1.577925383712210430e-02,1.346805831533556602e-03,4.672042515456129334e-04
4.073917082956968368e-04,6.888555462703707525e-05,3.706345656261431478e-04,3.003795243739135180e-04,4.724197358704339283e-05,5.841779607580001353e-05,1.864152342666981418e-02,9.461218888082687656e-03,1.076852958149201794e-03,4.740494288810622164e-04
2.380236732291038881e-04,2.134799139675821252e-04,2.905007433689167835e-04,3.268064046980283049e-04,5.149032326012036921e-05,9.309405552958033726e-04,1.022154632948831660e-02,2.256837273414202816e-02,7.821350170885640624e-04,4.691044872649826757e-04
7.642786683314311755e-04,3.447972185628828384e-04,2.114682924562151175e-04,2.605859873899800264e-04,5.943685868119098943e-05,6.174592005387623522e-04,2.663222457521407290e-03,4.339449539307837361e-02,4.700083484859530971e-04,4.526823108755279978e-04
6.471398913102008018e-04,4.594991749360780877e-04,1.339860205672077685e-04,2.089887803168270623e-04,6.453674744210310412e-05,2.950388129030412300e-04,1.581614174034969011e-03,4.228707994401884052e-02,1.482141113356860598e-04,4.253843056059251199e-04
5.048855559721932527e-04,5.662066357138443922e-04,5.562076527264654165e-05,1.949408681625241840e-04,6.389846048494426055e-05,4.125522289816350887e-04,4.934501750025433245e-03,3.744273666365094400e-02,1.753133155234705171e-04,3.880819748519540708e-04
1.242456922245615235e-03,6.628670610143306673e-04,2.042041204138636659e-05,1.783658485665908454e-04,7.120718681120476808e-05,5.258046187577562368e-04,8.009321158042325556e-03,3.724852605655655513e-02,4.926416006221667363e-04,3.418917890164596815e-04
7.636737361665273463e-04,7.227970257159444141e-04,8.780639889149698769e-05,1.451651156644215594e-04,9.273405027149457839e-05,4.390119885900033180e-04,9.962766425467665943e-03,3.304737278023654051e-02,7.960345945481109818e-04,2.881440479541115996e-04
3.316451946506889729e-05,7.428498382972773678e-04,1.464456798474390712e-04,9.609816893211870110e-05,9.911486436734728302e-05,3.481309085285407999e-04,1.175769901206735225e-02,2.575834375452452918e-02,1.078140585706788626e-03,2.283465594317212561e-04
3.165755532631354843e-04,7.746412568762576362e-04,2.019699332725240443e-04,4.682154666001242765e-05,7.585544553664270626e-05,3.283405607504774008e-04,1.361169307784725058e-02,2.918750930167144861e-02,1.332170101261925853e-03,1.641441128724148576e-04
8.081899888326446284e-04,8.226171599543113944e-04,2.501493199062701143e-04,3.896867997307319233e-05,8.493284621234903234e-05,2.980187709724420753e-04,1.331036553707558648e-02,4.780987396747438806e-02,1.552058958885102436e-03,9.727483821419314117e-05
1.384051079810903404e-03,7.747760440768650114e-04,2.756671663095583576e-04,5.098171474346472286e-05,1.585480303142389126e-04,2.628731781867840148e-04,1.138869052861915011e-02,7.327500761221499015e-02,1.732612659906452310e-03,2.952459570965365764e-05
1.067403967649259086e-03,6.185957972566540281e-04,2.834383575999844065e-04,2.325893167122570251e-05,1.646629018478151124e-04,2.466360401995028534e-04,1.292923854488892653e-02,9.965373802786435531e-02,1.869628693014315120e-03,3.731942263452180049e-05
3.388344065832427565e-04,5.948801010172107603e-04,3.030577266189490057e-04,1.427513893534471231e-04,3.026088629862592292e-05,1.608723894062245516e-04,1.989687514822187711e-02,1.239029436465358125e-01,1.959993877588719294e-03,1.015146828051217737e-04
1.885742598039120326e-03,7.407347053521690875e-04,3.230581366102488658e-04,6.657164154428793241e-05,3.724215854552065218e-05,2.602238308857272105e-05,2.658352308264436484e-02,1.363529019258500896e-01,2.001754502831007421e-03,1.614077108237535853e-04
2.898066281245350716e-03,5.432987034020485230e-04,2.793056591259378404e-04,1.369356264018441345e-04,3.601563393698131612e-04,7.501283621584124695e-05,2.664865366688785528e-02,1.281121249432781717e-01,1.994157697324480585e-03,2.154757822878072793e-04
3.575510750493417905e-03,1.039384113368717159e-04,1.946647771095047486e-04,9.393854158204627985e-05,3.675418882926552899e-04,2.496557847266990884e-04,2.007391007386617049e-02,1.011025215472137473e-01,1.937663176663124943e-03,2.623648553515706703e-04
4.178648580567464847e-03,2.593042308882348104e-05,2.077469631139722273e-04,8.817662861784883238e-04,6.269494630769187338e-04,7.186767135589095594e-06,9.957986501717131650e-03,5.678087613578481491e-02,1.833925246674128094e-03,3.009228072331463920e-04
4.558773245722958813e-03,1.585037069476017248e-03,2.755839290116468337e-04,1.357186938202044509e-03,1.876683111867815876e-03,8.220269784816662496e-04,2.125038072037196621e-03,8.305991448662106147e-03,1.685745668554280291e-03,3.302271625321736952e-04
4.506126192505096120e-03,3.150726220091023492e-03,1.014194691798776197e-04,8.820793994598233149e-04,1.873642614040795656e-03,1.326894211951785019e-03,1.374104509161149998e-02,7.942765993694274329e-02,1.496998702100250803e-03,3.496066508959013862e-04
3.763126220468759886e-03,2.553868870513646347e-03,2.362601430579827958e-04,9.462085998143434349e-05,6.178678289043137029e-04,8.810227251816972124e-04,1.969193054476175986e-02,1.200222707386854881e-01,1.272530316873271995e-03,3.586560962399674415e-04
2.024267982439419914e-03,4.107847851621148792e-04,5.444019586760763567e-05,1.352148568848791704e-04,3.825448636412618741e-04,1.210920273728236651e-04,1.713418292382582267e-02,1.111106687318955955e-01,1.018034182313115469e-03,3.572443152149222491e-04
2.193285817077927457e-04,9.319681078750956076e-04,7.562826852384655187e-04,6.996370043435950060e-05,3.808754509811176588e-04,8.249593275526735431e-05,9.676687655580475111e-03,7.391901593939223525e-02,7.399076015892386456e-04,3.455148850756960548e-04
1.642711390119734735e-03,8.425301926152889247e-04,1.072752756878876581e-03,1.474689040458974335e-04,6.338507134218452385e-05,1.476070783926143788e-04,2.725666371670762596e-03,3.723549215175611660e-02,4.450910271703181851e-04,3.238798259359386270e-04
1.715411589707250498e-03,5.447570721969612886e-04,2.758651143039494730e-04,2.960745552422262725e-05,6.147219395448078245e-05,2.478232962491734017e-04,2.901984725368426596e-03,1.435710745969528968e-03,1.408951775785824661e-04,2.930064244438230310e-04
1.312250280125237074e-03,7.327340970954126240e-04,4.058099769354155161e-04,4.017927750423765006e-05,2.005461236216397403e-04,1.498569533168045897e-04,8.216512069791806483e-03,4.374869088150353663e-02,1.651799442492093929e-04,2.537976004750667472e-04
1.252687648228443303e-03,9.963303729887680420e-04,1.320703655807264724e-04,2.202001972878028132e-05,1.986319348671007005e-04,9.703894606278594729e-05,8.771335456054974930e-03,7.699430188776004713e-02,4.656296564584552593e-04,2.073663812342021182e-04
1.397789092945752199e-03,1.014024869478710907e-03,8.478162540895858943e-04,2.726409742536911479e-05,1.286439046477943463e-04,1.291054311539042911e-04,2.084722525205110963e-03,5.650850479498216450e-02,7.531282894831225214e-04,1.550051941188073160e-04
1.391249036475801113e-03,9.648930283689547338e-04,3.037959700186911721e-04,7.503322420255681370e-05,1.226147006991270866e-04,1.344546651117256748e-04,2.136777829012770011e-02,1.650256685966711850e-02,1.020707472636829451e-03,9.815081709550153031e-05
1.284238496091844083e-03,9.990149865970600167e-04,8.356713212379952588e-04,1.124233928983992985e-04,1.484278831875014790e-04,9.384232269174727918e-05,3.649790793773898673e-02,8.409443194280340206e-02,1.261924683222123179e-03,3.834593001687372672e-05
1.242804403657894134e-03,1.033638607895256837e-03,9.035768721858122984e-04,1.287762423388976081e-04,1.440160657660577589e-04,6.022915167487531869e-05,4.022667183645942807e-02,1.044031251190943033e-01,1.471017987912892578e-03,2.280171020846966825e-05
1.244651151068826549e-03,9.973352975469992106e-04,8.757936216006605200e-05,1.477043555196365647e-04,1.236174243384769735e-04,4.439440732387021210e-05,3.723164213389019289e-02,1.000984411491782633e-01,1.643043266927124131e-03,8.366139523858592982e-05
1.211812055950038051e-03,9.285566433174911611e-04,6.136561044177575022e-04,1.735151542567255653e-04,1.167415052380294725e-04,2.288262148489196010e-05,3.330067246229877209e-02,1.080251831057202072e-01,1.773990661025622723e-03,1.426217921156426387e-04
1.156568945144163200e-03,8.625636679684267746e-04,6.202913931383260396e-05,1.943113765505832932e-04,1.176592846631165985e-04,8.373155003045901643e-06,2.726384761505680140e-02,1.205056136449234316e-01,1.860877508142807493e-03,1.981323760426530504e-04
1.117209560983109876e-03,7.838567946325397662e-04,6.735916818884085536e-04,2.071370714162236622e-04,1.124125367239263104e-04,3.714760510236454516e-05,1.723241856450559786e-02,1.086503108787026800e-01,1.901815627148417676e-03,2.487429065080518217e-04
1.084111015338114258e-03,6.784807601770895388e-04,9.197183825874182678e-04,2.168521994087119177e-04,1.027816366895604121e-04,6.010328980744698537e-05,6.603688678680870103e-03,7.218560295242615332e-02,1.896051446035090099e-03,2.931399439663489757e-04
1.037351645415025402e-03,5.568663010599418867e-04,8.668163084636819685e-04,2.243604181089186352e-04,9.594793365718832720e-05,8.168213427748650425e-05,4.995035512684422360e-04,3.366341672115467920e-02,1.843978144789551032e-03,3.301794895436393476e-04
9.922300410420835555e-04,4.295316599295157965e-04,5.350922814534030429e-04,2.270048727211191914e-04,9.321443559165589051e-05,1.023339306216925929e-04,4.593831179865855326e-03,2.518960250817421729e-03,1.747119672676580989e-03,3.589149385363252080e-04
9.644211156871070577e-04,2.959919339662007705e-04,1.904394083394752809e-04,2.240943274152989062e-04,9.039377340268786695e-05,1.189223410683165583e-04,8.516840529574671789e-03,2.803458116839594588e-02,1.608087188677375604e-03,3.786196668278564567e-04
9.254179514088906825e-04,1.558934043873207143e-04,6.827056514931274887e-04,2.167904846095051021e-04,8.282332500491472102e-05,1.302699921279767200e-04,1.300129165786618676e-02,5.883723638307945814e-02,1.430509145517639335e-03,3.888037142840189333e-04
8.556584208818872024e-04,1.422801605922912146e-05,3.165690787551836329e-04,2.055201675436042590e-04,7.444409409689648773e-05,1.370609076211868585e-04,1.678976077469420541e-02,8.230998575501247139e-02,1.218936875755474106e-03,3.892241868226375186e-04
8.157121623574362101e-04,1.239352412051843643e-04,3.651815903242540103e-04,1.899936321649003240e-04,7.637515286836708025e-05,1.392637849885596261e-04,1.914259787981105465e-02,9.815766919004700886e-02,9.787281273514222661e-04,3.798891650080141505e-04
8.437542528600956541e-04,2.560761212246805141e-04,5.104625320888579385e-04,1.704098014258770516e-04,8.301414000256699571e-05,1.361629178731604817e-04,2.020108092248200371e-02,1.111253245130039979e-01,7.159115218784292082e-04,3.610550773228756328e-04
8.126737153664264452e-04,3.799060083231773841e-04,2.411041670089417925e-04,1.474519796123307288e-04,7.016214110059649492e-05,1.275768836747531493e-04,1.964587023180875899e-02,1.132090313474482940e-01,4.370353585411327702e-04,3.332176662745498191e-04
6.410244127254936678e-04,4.922230680856518829e-04,9.877393474126038497e-05,1.217095782241260198e-04,4.805507704905176316e-05,1.138651298616894441e-04,1.680809802168611172e-02,8.924897728404758424e-02,1.490045508793355817e-04,2.970968407912274968e-04
6.009160811123708933e-04,5.900886142960798299e-04,6.725359853595735688e-05,9.365610003670889617e-05,6.879293488518783398e-05,9.535849031167617908e-05,1.239749140176996979e-02,4.389162632850795998e-02,1.410902479802396067e-04,2.536158647058300007e-04
8.841860950695270335e-04,6.714727649687583658e-04,5.334844859341667016e-05,6.390003429851984305e-05,1.123415415897810796e-04,7.234584438117764844e-05,8.663232414499899559e-03,2.538638195677196847e-03,4.261471074308960318e-04,2.038754745192323202e-04
8.815227091657761591e-04,7.347942568623512527e-04,6.969804358418160185e-05,3.317645815796189533e-05,6.659593300402746625e-05,4.533162012551020421e-05,6.729996178278250044e-03,1.917389509977172543e-02,6.992265808339077210e-04,1.491236464559108851e-04
1.285823057141682511e-04,7.786808274639203187e-04,6.262673423436625187e-05,2.206059466591650043e-06,2.926472484139240935e-05,1.502908676912665132e-05,4.987923208753040037e-03,2.848604598057470627e-02,9.537205196404974303e-04,9.072183990401560074e-05
1.447537762409396075e-03,8.022340742636400275e-04,1.926356549870827744e-04,2.832708943247715569e-05,6.751944346657570554e-05,1.778019949847012797e-05,1.792336031009851647e-03,3.650917629174030288e-02,1.183511838536525961e-03,3.010862903394620165e-05
1.493956946738317576e-03,8.051799810098471920e-04,1.008929406609731768e-03,5.773466937555835911e-05,2.886471253208415977e-04,5.226462402884129565e-05,1.780967178929290708e-03,4.514784291736365779e-02,1.383121374501051874e-03,3.123830531995669651e-05
1.611051045220455698e-04,7.877638516070105228e-04,1.528010278924459269e-03,8.533791945360041432e-05,7.084975353223709480e-05,8.750199301535061306e-05,4.160743624172888455e-03,5.414627958886354675e-02,1.547838320189406838e-03,9.184081693712009900e-05
8.975859242059767290e-04,7.506773728681344219e-04,1.086821333137618370e-03,1.105108832671917654e-04,7.090317674862527684e-04,1.225081340835443300e-04,5.997686517255811436e-03,6.331525924001807359e-02,1.673831133760422633e-03,1.502585540809663403e-04
6.625037911472944283e-04,6.950876120058189014e-04,3.169745566972934927e-04,1.326970698305523718e-04,1.181296559885897492e-03,1.562925684243362601e-04,7.649314615144252316e-03,6.628340973284131687e-02,1.758236322368624026e-03,2.051258419206182493e-04
1.199428196707006419e-04,6.226346719576078851e-04,9.920713759676040230e-05,1.514101129518910743e-04,7.077640315071997848e-04,1.878630719731720514e-04,6.667646309336514032e-03,5.490050227480562650e-02,1.799223052504227496e-03,2.551862358260378622e-04
5.981942882617829593e-04,5.353647153727037616e-04,3.135256513763743248e-04,1.662442977482878471e-04,7.317979747630643872e-05,2.162245846077144465e-04,1.268612750295591190e-03,2.846332406905779239e-02,1.796032143237871141e-03,2.993238627129424191e-04
1.014533536041713592e-03,4.356617854514022170e-04,3.918987846009300237e-04,1.768898802639157751e-04,2.916709449670786577e-04,2.404458209932190389e-04,5.996894461894668356e-03,7.183555012975482990e-03,1.748988633196369184e-03,3.365907589854827539e-04
1.505081493515597873e-03,3.261965795904318605e-04,2.652688708497741646e-04,1.831406619218122140e-04,7.074125078308977584e-05,2.597144822105404058e-04,1.087234820217489878e-02,4.123067267296878780e-02,1.659487763049298514e-03,3.662295249664874151e-04
1.316717825062179185e-03,2.098648092835719142e-04,1.797496609334268199e-04,1.848957575331204313e-04,2.651312283389107064e-05,2.732643439364960416e-04,1.178366893619481326e-02,5.821714747075609070e-02,1.529954866406764945e-03,3.876907439670050225e-04
2.744993014522906899e-04,8.970868599004545082e-05,1.763266693796464168e-04,1.821612534682931408e-04,6.798553808433566766e-05,2.803305584026122028e-04,9.757700609016759993e-03,5.165415493327716462e-02,1.363780297386861648e-03,4.006447558584688273e-04
5.513169579867833710e-04,3.116315269717436924e-05,1.430991274083574306e-04,1.750508099808313481e-04,1.113906544503502519e-04,2.803643294262965317e-04,5.924064737802724016e-03,3.381742569230634932e-02,1.165231127254709237e-03,4.049875263742628521e-04
5.897857109846825919e-04,1.496513472302081764e-04,6.132752510436723266e-05,1.637825133339849775e-04,6.461814551694601051e-05,2.731810723537363367e-04,1.267489432892024859e-03,1.722785222799858365e-02,9.393419008634165289e-04,4.008405103586413251e-04
5.123015100451398579e-04,2.627414618986360223e-04,1.470963467395046038e-05,1.486724647356835595e-04,3.965929300071736484e-05,2.585482958918331083e-04,1.958198685106036108e-03,8.955779110717094430e-04,6.917872427453460905e-04,3.885445656556280221e-04
5.515876526872607677e-04,3.675796137949872608e-04,7.322963581864133469e-05,1.301265405979358763e-04,5.612179651652119707e-05,2.358937575348411027e-04,1.690853049412773326e-03,2.194974678399153056e-02,4.287395307396109270e-04,3.686481301331965481e-04
1.159200748165348048e-04,4.615433477617615762e-04,1.370457557374263878e-04,1.086303660130778190e-04,6.200523344008415769e-05,2.052007747139202129e-04,3.350800835961400713e-04,3.588702321167484832e-02,1.567152019357263663e-04,3.418900234103546768e-04
1.582749207872703907e-03,5.423050964082104953e-04,2.094506192782774438e-04,8.473716152741957164e-05,4.795178110663046906e-05,1.676652096523084006e-04,3.611001480758186267e-03,4.007594547115708727e-02,1.175864865564498971e-04,3.091773733407828201e-04
2.440425054580698441e-03,6.078880263454321340e-04,2.773131340539523523e-04,5.905384111996353394e-05,3.803508485036084552e-05,1.238003310910778133e-04,1.168631126466784624e-02,4.209859328027271141e-02,3.874482567269156401e-04,2.715592916522792518e-04
1.690697297262402313e-03,6.567133869245574563e-04,3.365067783658962390e-04,3.222598710557407530e-05,3.614239455921650334e-05,7.197320682164011962e-05,1.592458173006210814e-02,3.783532855658255922e-02,6.462991190125276161e-04,2.301970301850907196e-04
2.125759888631930208e-04,6.876376239989656202e-04,3.908284428488685981e-04,4.922043292454054948e-06,3.163842661748927129e-05,1.239117019119199444e-05,9.304778211570661692e-03,1.725088864547387468e-02,8.878741772317217881e-04,1.863314362258368135e-04
5.488323748274000951e-04,6.999781814351878090e-04,4.401555482592808192e-04,2.218301576713437772e-05,2.461326393509319526e-05,4.970197930877302199e-05,3.290277294568264184e-03,4.993225476788491941e-03,1.106366047469168040e-03,1.412485903491377253e-04
4.137373423575352923e-04,6.935277071707346115e-04,4.808602209256698486e-04,4.842412692186061763e-05,1.924592466392373012e-05,1.124993143582654062e-04,9.728310219791440686e-03,3.014133262119961156e-03,1.296564236435737141e-03,9.624455140147574394e-05
1.650031744709927397e-04,6.685564934537961083e-04,5.113581167538360428e-04,7.316222991047245726e-05,1.162723320961823994e-05,1.847294865238895752e-04,4.231047967735294610e-03,4.655318238879849191e-02,1.453979140057843136e-03,5.259014986695363468e-05
1.900360692362650854e-04,6.258030325294366893e-04,5.320140793330684677e-04,9.579962351384511032e-05,1.871502561860308569e-06,2.678052526019597773e-04,6.767318539722741791e-03,9.334584930558761928e-02,1.574947718129310727e-03,1.149676256908333517e-05
2.620256624086908189e-04,5.664529389659205905e-04,5.426706396463119170e-04,1.157942452810783356e-04,7.809262774393474531e-07,3.402624608494970483e-04,1.238075898905017895e-02,1.105941391540932045e-01,1.656718365667691172e-03,2.591603113253551497e-05
2.117770987927678730e-04,4.921068943915477695e-04,5.426974252483875811e-04,1.326725308484302292e-04,4.719561047652107303e-06,3.955480454479573158e-04,8.499037816181382113e-03,9.436808726514997470e-02,1.697513024387721113e-03,5.865006777532201222e-05
1.385416981357686782e-04,4.047385165670489829e-04,5.319509965896361200e-04,1.460405337118409483e-04,1.007450527623976192e-05,4.763168117101252872e-04,2.087243023231679945e-04,6.334403015303148587e-02,1.696565145320105914e-03,8.585472712144623245e-05
1.222436192496297253e-04,3.066432359340704556e-04,5.107291698421436267e-04,1.555930445799158621e-04,3.414108349412145818e-05,5.946970878200767740e-04,5.000528447091499851e-03,3.923344098326146667e-02,1.654132711925759011e-03,1.068489004462428550e-04
1.180503794585430069e-04,2.003794639841675342e-04,4.797610826826136749e-04,1.611205050049001504e-04,1.557479797583623021e-05,6.569021527906509063e-04,4.479967274239290628e-03,3.117719533243587873e-02,1.571486147276638344e-03,1.211382466167973279e-04
8.852772706373880575e-05,8.870356598070907120e-05,4.403023114459174501e-04,1.625135580895504920e-04,2.628908956212941270e-05,6.314707124180590856e-04,1.703863458841026711e-03,2.911266766907358999e-02,1.450871543883766861e-03,1.284273113873305751e-04
5.468062034123202136e-05,2.549964486052642873e-05,3.931635518353067556e-04,1.597651346920335945e-04,1.991017990092401968e-05,7.174867799955036594e-04,2.286096443112898419e-03,1.434110040970883702e-02,1.295450255508448674e-03,1.286262242950438940e-04
3.474800107819772535e-05,1.392891270509648153e-04,3.384044211463247309e-04,1.529700371128004570e-04,1.153125979139341128e-04,9.963830561233696145e-04,8.700589655392819768e-03,2.031031241239839372e-02,1.109216462187347964e-03,1.218518331309714883e-04
1.954492840897767124e-05,2.497408662062500966e-04,2.777726577904963577e-04,1.423220446303358688e-04,1.817169550530319048e-05,1.011731917745876562e-03,1.713839193072851097e-02,6.223339984617422965e-02,8.968948489195482324e-04,1.084232843059846133e-04
8.075162889567983606e-07,3.540203840114586201e-04,2.153472885194931648e-04,1.281086240073807479e-04,2.040439864079790315e-04,2.908533238369739892e-04,1.970132220647455301e-02,8.817604662464349763e-02,6.638210123111443857e-04,8.885220460283752995e-05
1.692413823903493397e-05,4.494524360272774679e-04,1.520350845845718131e-04,1.107033853189366023e-04,9.329442523272449180e-06,8.197236256919773539e-04,1.168003866689923398e-02,8.083367791455266238e-02,4.158076166850874613e-04,6.382778192453804117e-05
2.944110536780267695e-05,5.335860887972179072e-04,8.393192179805832823e-05,9.055647825574401324e-05,7.825862039025910377e-04,1.566694310854666213e-03,3.590548726302735666e-03,4.263512841165959660e-02,1.589996521702985866e-04,3.419717599550571721e-05
3.859689465281596315e-05,6.042541671550157728e-04,1.401214231138754205e-05,6.818317347191269124e-05,1.251205213186345339e-03,1.741744657754518751e-03,1.787626753868735291e-02,4.163774407957078136e-03,1.002776055672643588e-04,9.418110747715802771e-07
4.623221263737155111e-05,6.596258627347966353e-04,4.418485942028742031e-05,4.415091615307627010e-05,7.744461717688060250e-04,1.466269922914853344e-03,2.447040117637824114e-02,3.409099426016012901e-02,3.556741765548531451e-04,3.484979152866498378e-05
5.142087302152786453e-05,6.982500219918902741e-04,9.159329654864553226e-05,1.906517454535356119e-05,2.069942331740817179e-05,6.692939065286655602e-04,2.201317096961872763e-02,3.620345857401175566e-02,6.009706763268706344e-04,7.201189569560354159e-05
5.328293539967777500e-05,7.190875782198642230e-04,1.522741791878951391e-04,6.445565998662491011e-06,2.594389738204050844e-04,4.618839612129715857e-04,1.488843084316814926e-02,1.633421797367731743e-02,8.302295407686257700e-04,1.093333346894778788e-04
5.230870890140422729e-05,7.215349868819364351e-04,2.202643716991443544e-04,3.174529382571582151e-05,4.048254420386288461e-05,1.286398794923157042e-03,9.357674066659731407e-03,1.321623022281214616e-02,1.037938503816349285e-03,1.455903391019200941e-04
4.905609789787674155e-05,7.054393243845541363e-04,2.398132316316509149e-04,5.620606715571022273e-05,6.313951078463914666e-05,1.458977783364161706e-03,7.503098997156240971e-03,4.263443738006038319e-02,1.219142866273282807e-03,1.795795279928146405e-04
4.351216729951495280e-05,6.710992223098354503e-04,2.184955513272806508e-04,7.922333553525180163e-05,6.883178581920519038e-05,1.213496739864721678e-03,6.280544025243216255e-03,6.615831224687630796e-02,1.369563387827846517e-03,2.101501838143499297e-04
3.569098394670887863e-05,6.192490353570755503e-04,2.725931354020750879e-04,1.002306150618072520e-04,1.736016809106202938e-04,9.793018602126976439e-04,2.511697743553884931e-03,8.222340071507716619e-02,1.485697003913033542e-03,2.362349562038051432e-04
2.593254511667986175e-05,5.510384371677152279e-04,3.867907109968123981e-04,1.187131634536473863e-04,9.980971342014451314e-05,1.190261800503282768e-03,3.758886209144220950e-03,9.670738327727626538e-02,1.564898004853891925e-03,2.568781867980048962e-04
1.461814133423428685e-05,4.680139890412107805e-04,3.081349626522793977e-04,1.342203271716706681e-04,1.425766593929446094e-06,1.749116977049003548e-03,9.948491672780421929e-03,1.186820848104148257e-01,1.605437805775516763e-03,2.712611154959390560e-04
2.020628693699460729e-06,3.720783129700480684e-04,5.260667748990216865e-05,1.463762667612471615e-04,1.324495594433492090e-04,1.515690695132266945e-03,1.220078263029212955e-02,1.424774442708686417e-01,1.606541969665273382e-03,2.787233161531099657e-04
1.157193132016104745e-05,2.654145479596140477e-04,2.034122778655960480e-04,1.548888075015046259e-04,3.809510318387670071e-04,2.087199636610691873e-04,7.638100618955655924e-03,1.421915780723810863e-01,1.568403709501385926e-03,2.787798141087690002e-04
2.580012341559905010e-05,1.504308306081375351e-04,9.963546451625382699e-04,1.595562093120792945e-04,1.708424101357355830e-04,1.855175272556198887e-03,1.819272380866673519e-03,1.011942424232374904e-01,1.492173674531120696e-03,2.711334563673713097e-04
4.030529939274921385e-05,2.975620987494326166e-05,1.523433427026039564e-03,1.602717015072074370e-04,5.967864820458926517e-04,1.369483693523638372e-03,9.903767256180341649e-03,4.080802911826150042e-02,1.379926406360076734e-03,2.556822344627334310e-04
5.475707534744660241e-05,9.382386950799174357e-05,9.042235028351809428e-04,1.570256831163639667e-04,1.047331729440809491e-03,6.421025970853688584e-04,1.303413666908734628e-02,9.706570904358113872e-04,1.234604418303005555e-03,2.325213965409963200e-04
6.882205116842533116e-05,2.175578484193032951e-04,1.541081991540556285e-04,1.499055467494976276e-04,5.539361133483813437e-04,1.907002889680888729e-03,1.407172978158907108e-02,1.436158949655880722e-02,1.059941392645165088e-03,2.019403253422781097e-04
8.218413486629246164e-05,3.388019103302623543e-04,2.167245154922473657e-04,1.390931419741439396e-04,2.425788522937634450e-04,1.794828824297498796e-03,1.564401871497682339e-02,1.783808927953163537e-02,8.603664920012515840e-04,1.644142987960092446e-04
9.458936400373932612e-05,4.548263761151599303e-04,7.188038181525566173e-04,1.248599514790299557e-04,4.775813452315992558e-04,1.416958539079165918e-03,1.363615647535790405e-02,1.882278941839671954e-02,6.408922308120413571e-04,1.205913861454944026e-04
1.057982995904042348e-04,5.628626618499040033e-04,1.219883128033386359e-03,1.075601085332158281e-04,2.752342815984365324e-04,1.469435679471257526e-03,2.990076462369315076e-03,5.788547251115916913e-03,4.069887404962037433e-04,7.127486127563712240e-05
1.155297433109761903e-04,6.607214187917104763e-04,5.794878696565308740e-04,8.762143607919107484e-05,1.962319077685806810e-04,1.787816095792168049e-03,1.267735796060121857e-02,2.120859337117630625e-02,1.644475777725618016e-04,1.740163283937137882e-05
1.235913641136472901e-04,7.469005240383248811e-04,3.172438683234996221e-04,6.553473498141420346e-05,3.082234595253271255e-04,2.043091214983652759e-03,2.368934785507245677e-02,4.641533335309076802e-02,8.076153711718735086e-05,3.998270523122612993e-05
1.300086229334758859e-04,8.194439344068731599e-04,5.551287901803843424e-04,4.184159036609869391e-05,3.694051113358373098e-04,1.598379404280708769e-03,2.572721362613297758e-02,6.508010869892986994e-02,3.226375124591113544e-04,9.975151189665910879e-05
1.347550108382254924e-04,8.758371774137993331e-04,3.728239930095657339e-04,1.712099965656266586e-05,3.406345048356308508e-04,3.216270453981165292e-04,2.306339306769415731e-02,7.951351680145909984e-02,5.552946018358850691e-04,1.607266664862922140e-04
1.374828587199089785e-04,9.155735932384156776e-04,3.619687402072650577e-04,8.024846976644667417e-06,3.335914922114577340e-04,3.233098043354922738e-03,2.088065151170803713e-02,7.383387604890179201e-02,7.731054627915924342e-04,2.217092582997216193e-04
1.381006761287098734e-04,9.405492975458305815e-04,5.268200895437024234e-04,3.298528409017598172e-05,3.685199106981930589e-04,5.111755955567914671e-03,2.016156848209342545e-02,3.342521895597422993e-02,9.708370846917735615e-04,2.815105651919523827e-04
1.373628471529984439e-04,9.496682456831238850e-04,5.917673127804299075e-04,5.715602635637381590e-05,3.932395206780708429e-04,4.701271050804106504e-03,2.045644428724157152e-02,1.760115078893492377e-02,1.143776307385953274e-03,3.389824844921533070e-04
1.356488470130163789e-04,9.379020784306763480e-04,5.627828690984342311e-04,7.995380030449335555e-05,3.968015965864633474e-04,3.247439987548347319e-03,2.192960737428869059e-02,4.174986443731742991e-02,1.287841925533991750e-03,3.930465985499688973e-04
1.316676365674221991e-04,9.077992147927158809e-04,6.030855172818618253e-04,1.008303980940983443e-04,4.040401027772467157e-04,2.517152181613487201e-03,2.343840868954847126e-02,4.160252532638393508e-02,1.399680718519631531e-03,4.427210979943653132e-04
1.250229472011313281e-04,8.717729113104531399e-04,6.753978845443778462e-04,1.192858148113867589e-04,4.223739324938320184e-04,2.015182940767715376e-03,2.267067080502447110e-02,4.524818513288889066e-02,1.476745153894044871e-03,4.871448472704613202e-04
1.190348244450994150e-04,8.275303051472393317e-04,6.232728968557790057e-04,1.348801547330716886e-04,4.394243212162080915e-04,1.295766364578936113e-04,1.884846625674162918e-02,5.207985812435800971e-02,1.517350972932556127e-03,5.255979575051105074e-04
1.153196544413612494e-04,7.524632043697917962e-04,5.358300496826452026e-04,1.472440234753427787e-04,4.475944550118392934e-04,2.524068117709507043e-03,1.324208738373501906e-02,3.920577836645110226e-02,1.520713368588095735e-03,5.575183289957260724e-04
1.076058339018443977e-04,6.558677065430294599e-04,6.606114215745493255e-04,1.560871611344612545e-04,4.546108218776227479e-04,3.283141073842519176e-03,7.997693114150898966e-03,1.115248653703674112e-02,1.486960996389570522e-03,5.825137368887684268e-04
9.312811710949814477e-05,5.921578404367111668e-04,8.150181464949920627e-04,1.612051154688467092e-04,4.730117712874396386e-04,1.371184730452044455e-03,5.286656370174790814e-03,2.774554688581854986e-03,1.417127604542478591e-03,6.003691559471796601e-04
8.611112201129417784e-05,5.495263414626112754e-04,4.661983246597150980e-04,1.624838027734976293e-04,4.956057555812156323e-04,5.279258345251452208e-04,5.168641161106222841e-03,4.180357154789766938e-03,1.313121617223368762e-03,6.110491505438506166e-04
9.376464808874906769e-05,4.185139242140575758e-04,2.551718984722478275e-04,1.599018561522381067e-04,4.977167701992823252e-04,9.034010013058399230e-05,4.228368554821473196e-03,1.181481400263190151e-02,1.177674541429646424e-03,6.146952905305639713e-04
8.683834858058793536e-05,2.287732580173672779e-04,5.456967668302001697e-04,1.535307151199689674e-04,4.902260845156987661e-04,2.224834124753591325e-03,3.899422042724792498e-04,1.279514118817033121e-02,1.014269579719113794e-03,6.116186884686792809e-04
5.009578943531757273e-05,2.250863586958735875e-04,3.527542037773060551e-04,1.435324655380736201e-04,5.253214401350637377e-04,3.423047833496921898e-03,6.641512225393875896e-03,2.237749510892750315e-02,8.270523063899457451e-04,6.022878854968196022e-04
4.649937002506057627e-05,3.674086901584450995e-04,4.292873290277404762e-04,1.301554934600093077e-04,5.831954735266553893e-04,3.283879825688336678e-03,1.102159142655548263e-02,4.890056959397515168e-02,6.207256917230245937e-04,5.873124390447405493e-04
1.110680041642528331e-04,9.670282415425552561e-05,7.218979307736506350e-04,1.137280692185255301e-04,5.523776589258196697e-04,2.947970848955158187e-03,1.378581767080136120e-02,8.014108907251911440e-02,4.004321276895872472e-04,5.674226818190745503e-04
1.108710966616317724e-04,7.629432719414762582e-04,4.858360866698489388e-04,9.465002774951082934e-05,4.711969397080788269e-04,2.886484868059651862e-03,1.644968794649987257e-02,1.001609952296998451e-01,1.716254103566943552e-04,5.434462233451890778e-04
3.210621136649800805e-05,1.345374103191561725e-03,9.310460807044682713e-05,7.338275653038663191e-05,5.809992025399316699e-04,3.026154450284203670e-03,1.728421881405058785e-02,1.031310216984435146e-01,6.006413787364078068e-05,5.162818511778105796e-04
3.326451477236712649e-05,8.937065427100712982e-04,2.522835369645010854e-04,5.043774253348599695e-05,8.157683735226371096e-04,3.429561438580678093e-03,1.361434882018854910e-02,8.893019178048415518e-02,2.889680742066403057e-04,4.868715597531187420e-04
2.934734001135070919e-04,3.036605268630875303e-05,1.167551468446614604e-04,2.636396331288694961e-05,6.156310425202643835e-04,3.466562195709461079e-03,6.059810388942326806e-03,5.763866085087236690e-02,5.095183709650857266e-04,4.561714867673075124e-04
3.118058483095311958e-04,1.257297062301459937e-04,1.463933784182961891e-04,1.734433970491824654e-06,1.473526921321560127e-04,2.209753430417078345e-03,2.622600666325384730e-03,1.360575782283745747e-02,7.163826987876884119e-04,4.251225614077323140e-04
6.889105178950817891e-04,3.404720489145512041e-04,4.171665433804650641e-05,2.286775932633941869e-05,6.108204901975237229e-04,7.384662001831686666e-04,1.085037643027381669e-02,3.237979858348629530e-02,9.045931748276167701e-04,3.946216694441442721e-04
1.952071982735762443e-03,3.283917841620058171e-04,7.979309444884829464e-04,4.686359779766997603e-05,1.264628442199215187e-04,1.351479761273323942e-03,1.792850399969064118e-02,6.904831208718270608e-02,1.069665472004300687e-03,3.654941325502575615e-04
1.917434453513594279e-03,3.466038054457169196e-04,1.340345792847913789e-03,6.969209653259868318e-05,6.832918900760841675e-04,3.137333196050401136e-03,2.124607548928486578e-02,8.556269395658798460e-02,1.207705438816135662e-03,3.384682746675393900e-04
6.050761074850337503e-04,2.217079109252688602e-04,9.165145848536598600e-04,9.082376095310756760e-05,9.272648573111264047e-04,1.862914088746190754e-03,1.612518668708938854e-02,6.660406010735069049e-02,1.315500700759004906e-03,3.141527742689701700e-04
3.644099861723749901e-04,1.565186512615476420e-03,1.252520661019377386e-04,1.097732092825323246e-04,6.937035663195399238e-04,3.651646171667646389e-03,9.154561032252374244e-04,4.321386245896782080e-03,1.390595095762184319e-03,2.930173980644379286e-04
2.834006901195824154e-04,3.221278790506533225e-03,9.251976900300669924e-05,1.261106589006300179e-04,5.901448748430196617e-04,8.795355453203554039e-03,1.825549556927698672e-02,7.805150955400509682e-02,1.431344227584332648e-03,2.753776531115693731e-04
8.125873871936616858e-05,2.567707982418728635e-03,1.508585517463491548e-04,1.394720035476120965e-04,7.598876022883340039e-04,9.357218471805249863e-03,3.185440404927337987e-02,1.345400232735521062e-01,1.436950891976056157e-03,2.613838454277944093e-04
3.205643055021672539e-04,4.848770103932893510e-04,2.186439620310940833e-04,1.495672438986497029e-04,8.665976846490519537e-04,6.873461729120162664e-03,3.657343199870115996e-02,1.392040069950969683e-01,1.407479628884668191e-03,2.510148421420293758e-04
2.620332074517516354e-04,5.809498421598411960e-04,5.381703095234822493e-05,1.561870751728022420e-04,7.068438373599236638e-04,4.951157466004198204e-03,3.633935491090150433e-02,1.042164005139238764e-01,1.343850167720179708e-03,2.440765803334887828e-04
4.991358365932389634e-04,4.791745853812974347e-04,2.141546991516388014e-05,1.592074811396980384e-04,5.911434616277122132e-04,3.705088348125864985e-03,3.410853369938730839e-02,5.144776942132500003e-02,1.247810049089182827e-03,2.402053849824086992e-04
1.018147586265765597e-03,6.574949884369467703e-04,1.247044262274968232e-04,1.585922330120673120e-04,9.186497429254347194e-04,1.572091833770199870e-03,2.873357685524635663e-02,7.618162500493749247e-03,1.121887212816129317e-03,2.388763004902976102e-04
5.263928944600019264e-04,7.970782508508913837e-04,6.296245005956354886e-06,1.543932430538376465e-04,1.174721212475945140e-03,8.082918769318026084e-05,2.119228233751495674e-02,5.379006442051173509e-02,9.693238262096825000e-04,2.394161943001257929e-04
2.999676800115677220e-04,3.045896822395687334e-04,2.814179583504751556e-04,1.467487750356634532e-04,5.490936710041994655e-05,2.362932069434660158e-03,1.745401449035395569e-02,5.483586290221503790e-02,7.939930767129803682e-04,2.410206709235695154e-04
5.313135671895444093e-04,1.421793617903864548e-03,1.221228513903761218e-04,1.358795656587943727e-04,3.329142959701498605e-03,7.899640571454487337e-03,2.116814822034361263e-02,2.666191448249212101e-03,6.003010585173026818e-04,2.427743770625874964e-04
3.160828969953850603e-04,5.927015003448080684e-04,6.083553264254552275e-04,1.220829614848566310e-04,7.048451242258560283e-03,1.253959447611908973e-02,2.819530891732784789e-02,6.665007507215003901e-02,3.930762337920819011e-04,2.436754642394211028e-04
2.412829483912537932e-04,5.287084338952667420e-04,1.021278630553626486e-03,1.057252235399038133e-04,8.664322691122503320e-03,1.353219019044748367e-02,3.265559660230103051e-02,1.111985771674197099e-01,1.774492376484768400e-04,2.426635158662965698e-04
3.443626199238001401e-04,1.118384144114910371e-03,4.986124257633467276e-04,8.723219546553361860e-05,7.049976376357784680e-03,1.177235841953917610e-02,3.371276574211084370e-02,1.221490211449340058e-01,4.127398485559685129e-05,2.386473866053539930e-04
3.789891655120271926e-04,4.019228823578735281e-03,3.180851894087709632e-04,6.707856982602296617e-05,3.402288195848896402e-03,9.147576427320893225e-03,3.212309873981547548e-02,1.108953179548882728e-01,2.577425763777704219e-04,2.305322065796328837e-04
3.605612143132891942e-04,3.856537904682510922e-03,6.071029900972341143e-04,4.577602003348412536e-05,5.694544213812372489e-05,6.038199593158534613e-03,2.558102896826214626e-02,8.094402760537813823e-02,4.666914986468476438e-04,2.172508020334728608e-04
3.866115269333705016e-04,6.042956768279160061e-04,4.758658216254933477e-04,2.386049156077221491e-05,1.373006168160990307e-03,2.183346683459575464e-03,1.289276035505272297e-02,3.057021509821739383e-02,6.630694073436473827e-04,1.977988330538053060e-04
3.642619757356669067e-04,1.719717672952086798e-03,3.756349668161127527e-04,1.878965074208359379e-06,9.170168551455727245e-04,1.458317305055042848e-03,9.421161939407788049e-04,2.897806774271283886e-02,8.421605688993940653e-04,1.712599298121303610e-04
2.798778630818687680e-04,1.476926553335954247e-03,4.101695199761639559e-04,1.962398459779275380e-05,1.669034405593814948e-04,3.208298936114426046e-03,8.894581013134389771e-03,7.381849329714915142e-02,9.996978812919559906e-04,1.368194929616957075e-04
3.657613957237860797e-04,6.564423713300274101e-04,5.779274015253472573e-04,4.011950637737796973e-05,5.514000025778863223e-04,2.914889111716353117e-03,1.027384607778828764e-02,8.842574870433114742e-02,1.131964295291539545e-03,9.379403242704610502e-05
5.744747574719206388e-04,7.047134828505930999e-04,7.720368540812466230e-04,5.910734502020594943e-05,3.342823544798186356e-05,2.349250331987251268e-03,1.132095904144025771e-02,8.065921578059223607e-02,1.235880231520189920e-03,4.167735276878373576e-05
3.502166760091156381e-04,1.002608044994574791e-03,5.412115812999871963e-04,7.612795700832578766e-05,7.536867909739975021e-04,2.842377539896551175e-03,1.630346419295015947e-02,6.882490040593756964e-02,1.309074944464214216e-03,1.985581042843497835e-05
4.308789545315910201e-04,8.927464866331578496e-04,2.186243924441224728e-04,9.077357972765519702e-05,8.985318481299264717e-04,3.781527323320505157e-03,2.120518393258597270e-02,5.616653241765822563e-02,1.349940188195246924e-03,9.099482164436536861e-05
9.061747577532496207e-04,6.458498453839476216e-04,6.900764488312209665e-04,1.026979902269316167e-04,6.822716635363877550e-04,4.107738872243807231e-03,1.993536042611684933e-02,3.064861915807146758e-02,1.357664979881465644e-03,1.717616222072861662e-04
4.551506586156146600e-04,5.756506430094351185e-04,2.443838837443036835e-04,1.116247228865627575e-04,5.959261209692464333e-04,3.934251156304846390e-03,1.424298899499495952e-02,8.244233249122165721e-03,1.332250725214232951e-03,2.618874343610067793e-04
2.955389238744933218e-04,5.657604309417008396e-04,5.049188193115294616e-04,1.173535536887256324e-04,6.663577905689751016e-04,3.906719897388079982e-03,1.144971702995812440e-02,3.738198107782711443e-02,1.274506453060916594e-03,3.608654585657347907e-04
5.245467715213277026e-04,4.669544079162436996e-04,6.934449852885889816e-04,1.197651017160155366e-04,6.832965369395443793e-04,4.101655413920847308e-03,1.362804793442306921e-02,3.120316241004152807e-02,1.186024393106453138e-03,4.682193878282491406e-04
3.343244781471204686e-04,3.280713486391153904e-04,4.336780529198931353e-04,1.188234450572131534e-04,6.234678616163413702e-04,4.234320847746229736e-03,1.584816320758238029e-02,1.283828202887285670e-02,1.069136608081433558e-03,5.834168563600232709e-04
1.805822343843759893e-04,2.314391462807396959e-04,2.873200672482047061e-04,1.145766969007326331e-04,5.860862917007006890e-04,4.249991872215113341e-03,1.428477975872098280e-02,6.928891262828694442e-02,9.268538497925648189e-04,7.053273953900942054e-04
1.725056395106582311e-04,1.737851942017429882e-04,3.289330859811851198e-04,1.071555368265290437e-04,5.924415915864074400e-04,4.284131606266757333e-03,9.608463168897280957e-03,1.004609602012360992e-01,7.627882345353086298e-04,8.324405901205424304e-04
3.033354621589078319e-04,1.018509557723840434e-04,3.180904168411906731e-04,9.676974185940934712e-05,5.926825987447476582e-04,4.385185137337533484e-03,4.258698247796847275e-03,8.967331370122431922e-02,5.810617183708469786e-04,9.640893840557115003e-04
4.630886081693593370e-04,1.356426072900188639e-05,2.144338995053250002e-04,8.370281104505988042e-05,5.575136824588607315e-04,4.480031610059845293e-03,2.107990301094145400e-03,6.461511479445782025e-02,3.862026870560276710e-04,1.100087063378367685e-03
2.149991017044499081e-04,1.077471274062918394e-04,1.307486694475581816e-04,6.830482308045237509e-05,5.180142225763160113e-04,4.497975935821720873e-03,6.996661067941281446e-03,6.644763178757558120e-02,1.830332512808804425e-04,1.238185299031233089e-03
5.375893429958993617e-04,9.198708731956435180e-05,8.944207564359005355e-05,5.098370660976278367e-05,5.290519054583363474e-04,4.491852706945014852e-03,1.633266000646456037e-02,9.166402611543995882e-02,2.344995107809466921e-05,1.374870054824545119e-03
1.006335527218128224e-03,7.129957722483309967e-05,4.012460609628534721e-05,3.219514023831150900e-05,5.610298744683348731e-04,4.598401564230205317e-03,2.161331576859536890e-02,9.656778373240297586e-02,2.281985024918716659e-04,1.510902610606610361e-03
5.769547159174387950e-04,2.425197804597367007e-04,2.639819558425196691e-05,1.243133583392286924e-05,5.007182957013015922e-04,4.764658226218305981e-03,1.997322908034870892e-02,6.422312630218605933e-02,4.262354910063473573e-04,1.649858124930909508e-03
1.990491564438679221e-04,3.934070852611869142e-04,8.494107709907113110e-05,7.791015065007355996e-06,3.919558709388750936e-04,4.666890351746136485e-03,1.852071452162024762e-02,2.693072395712508074e-02,6.127763260036819381e-04,1.786347326583852604e-03
4.888353640200380351e-04,7.796842169193395847e-05,1.289977079676432755e-04,2.794334230487980118e-05,4.779890614636652193e-04,4.144464915871997647e-03,2.271419931426564218e-02,1.314030102748550352e-02,7.833441555340207212e-04,1.908920779818752472e-03
2.717688850494846321e-04,2.470672267773264754e-04,1.682496817572427090e-04,4.749804546123012231e-05,6.884028348128065156e-04,3.509415913234390557e-03,2.720137817552539111e-02,1.089090960785474120e-02,9.338771053606649119e-04,2.025383966878854282e-03
3.646502621084127466e-05,7.126384457255126271e-04,2.046759243930017886e-04,6.594126485594457398e-05,4.603299823306802223e-04,3.224060201087730181e-03,2.321293473652571646e-02,2.582953253068245858e-03,1.060824775812979973e-03,2.157333019234119065e-03
1.393342317085205528e-04,2.889090950444784915e-03,2.334697764563120170e-04,8.278525109501820546e-05,3.281051255040210520e-04,3.511553806958339283e-03,1.062055780168747431e-02,2.294042521424942763e-02,1.161231709666768691e-03,2.286016196534746466e-03
5.115163784917397399e-04,4.064646777750539203e-03,2.522443877031830270e-04,9.758006259620313424e-05,8.084072441934453315e-04,4.250857463710855551e-03,1.642575143627378505e-03,2.706351879966303886e-02,1.232805875444608745e-03,2.362647436310432933e-03
4.776147566811264058e-04,2.763675465256862276e-03,2.606637294497208494e-04,1.099243455030560288e-04,3.433479159251184420e-04,4.951525441632974138e-03,5.385385700742014239e-03,8.768703633268828956e-03,1.273970587348210353e-03,2.424345269083622197e-03
5.336907307880676141e-04,4.676452725903794535e-04,2.604536394925164580e-04,1.194748834342731927e-04,4.316911607614129140e-04,5.085200943626492706e-03,7.999768552358036029e-04,9.027480205725475770e-03,1.283898696039612562e-03,2.575165848819277806e-03
1.750122592069669556e-03,6.134347512273198751e-04,2.558502261748637346e-04,1.259546176066174937e-04,6.483075201740145241e-04,4.749413010005887684e-03,5.487905141827177993e-03,1.403013310474720415e-03,1.262528323392661566e-03,2.737877445666550211e-03
1.723525450257394143e-03,4.074261540012383146e-04,2.443984236152517637e-04,1.291590686602149931e-04,4.230721946664401712e-04,4.505965019471025283e-03,8.775760751577460494e-03,2.846204971397088557e-02,1.210559868287392664e-03,2.687708650309271734e-03
4.751963990085600743e-04,1.827812286430804045e-04,2.158084017013855657e-04,1.289611742474976977e-04,3.161731199479316293e-04,4.199587403964941644e-03,1.083716288432884367e-02,5.341583842067208765e-02,1.129434468364506807e-03,2.586085325830631259e-03
5.269329786155997185e-04,4.013344192324323962e-04,1.758650447136966778e-04,1.253141849622682797e-04,4.094715887059428372e-04,2.962093792267682726e-03,1.452299448229547874e-02,5.393507570182880240e-02,1.021294553215754087e-03,2.932052031117517946e-03
5.639416835633417674e-04,6.670193748124988867e-04,1.494841676938309832e-04,1.182522056635004905e-04,4.664723256954449540e-04,1.166384463188211438e-03,1.668304354705366435e-02,3.995643538508466402e-02,8.889275568258696693e-04,3.373064402033250711e-03
2.763002610863030703e-04,7.506787432559405837e-04,1.276634919632615517e-04,1.078889004066067175e-04,4.186892569314259798e-04,7.597048550680355174e-04,1.181572987812614696e-02,3.540981661997576191e-02,7.356942607813575074e-04,2.507155905032253194e-03
2.425193531717744996e-04,7.371870075800336479e-04,5.946756137178951286e-05,9.441516630827143130e-05,3.637282017938610920e-04,2.464889110042887618e-03,1.727836034311533387e-03,4.376361701112828351e-02,5.654436051616861707e-04,1.816581400081433045e-04
3.643796499974465077e-04,7.622576509303399198e-04,3.401004778266792652e-05,7.809474627450374270e-05,3.834721597819677578e-04,4.657401610783678224e-03,4.816332886255602318e-03,4.307986524279718704e-02,3.824161224630399317e-04,1.154681279774787822e-03
4.717872497696488530e-04,9.779797349191974611e-04,3.947584579842497443e-05,5.925623312564870531e-05,4.580453838281696292e-04,5.928376343525450232e-03,2.979438022224683083e-03,1.638342435262907931e-02,1.911384139052436687e-04,4.792204318009773349e-04
4.938792260566088896e-04,1.268653013754146922e-03,5.187525401593240718e-06,3.828396201867540014e-05,4.455710091741085961e-04,6.175467670291272596e-03,2.528078682473300105e-03,2.697003792929201366e-02,3.688709057167997201e-06,3.078135231249519606e-03
2.805757373663815796e-04,1.105943125009865380e-03,1.415286100044373476e-04,1.561162787967187646e-05,2.974190254879344013e-04,4.727594513701610657e-03,3.741441878151463302e-03,5.936267785548689224e-02,1.973056568421711443e-04,2.754011236330170063e-03
1.479068767792983646e-04,3.859380473183479199e-04,4.101546479093402505e-04,8.286020333780396774e-06,3.005372546978801089e-04,5.283959550790928239e-04,2.209024030964479648e-03,5.621159695265530443e-02,3.850102360143681257e-04,9.899283474275569379e-04
6.150549219005689832e-04,2.758259408006517887e-05,2.363071005602635931e-04,3.291103675033230054e-05,6.182859668855641196e-04,5.280041562352815430e-03,1.151518014864915708e-02,1.715574378682677148e-02,5.622717333756846545e-04,4.425359158057147468e-03
1.155067968510534865e-03,4.986337292969715085e-04,5.042173934177093808e-04,5.775918687769402468e-05,6.168583042403506540e-04,9.394853584268428662e-03,1.747503400278444669e-02,2.865242452210400165e-02,7.248401455926100495e-04,4.183951770101483440e-03
1.630442183619521240e-03,1.305208551563083810e-03,9.426392216794437888e-04,8.231850307408838919e-05,3.847671838168706306e-04,9.252479316215417651e-03,1.588751304264439737e-02,4.761210576708590353e-02,8.688479250363584502e-04,8.741234622028711161e-04
1.408993697072931589e-03,1.514126101063561136e-03,4.415390796758798418e-04,1.060705726602994219e-04,1.638645439135797376e-03,5.010970036568399358e-03,9.342387937829536859e-03,3.315414311915917261e-02,9.909018106557378278e-04,2.444473300150226246e-03
3.812605618984167576e-04,1.309128547834005922e-03,3.600989023384537331e-04,1.285313680722665740e-04,1.639013192512342367e-03,3.325442242263814329e-04,5.630084776881864005e-03,6.169061558120577521e-03,1.088162568817916970e-03,3.963616812065738106e-03
5.106940697999885021e-04,1.282909736151013023e-03,5.919588886645032718e-04,1.492866374098365757e-04,3.864071011137782275e-04,2.555249147062382993e-03,9.837392274937172346e-03,1.010630490754005871e-02,1.158410776545399073e-03,3.995974142664818554e-03
5.949628492579177742e-04,1.370275032597855630e-03,3.767861367428616023e-04,1.679411788583169208e-04,6.120746018678734600e-04,1.175167440403337028e-04,1.902923057142576202e-02,1.041420836526898465e-02,1.200097130644028594e-03,3.328905917730354009e-03
3.139835455615244426e-04,1.260545326410064410e-03,2.776249054477348795e-04,1.840751074473460393e-04,6.100366226886986707e-04,4.815801297570170524e-03,2.591751922338987255e-02,9.094748004626215798e-03,1.212376152040126618e-03,2.938478843844431840e-03
2.571704520275488342e-04,1.206971976213161348e-03,3.627275743473067191e-04,1.973810498425446691e-04,2.937310309947631089e-04,7.618458232772610909e-03,2.653803796933501893e-02,2.193284535069114916e-02,1.195122565616997751e-03,4.075936878185150089e-03
3.627578124470462267e-04,1.492259487143283948e-03,3.895081600029505031e-04,2.077872524489835057e-04,2.945349862799399301e-04,8.731268710369109384e-03,2.333282670157469166e-02,4.235272229822825002e-02,1.148930061801932325e-03,5.403398936039030369e-03
3.702910617046325831e-04,1.486043857912410643e-03,3.192309683651624623e-04,2.151894411337548123e-04,4.371232047846143240e-04,1.107215224856701249e-02,2.105629723525883137e-02,4.335377483111257230e-02,1.075092576642924314e-03,1.902118936367937349e-03
3.005469321436237415e-04,4.623275962685424690e-04,2.646022879456639068e-04,2.191975697418932262e-04,4.393840580472928498e-04,1.467897746753066973e-02,2.119682724324046391e-02,1.023094106571466669e-02,9.755686516233916467e-04,8.765452773188900024e-03
2.752086018541469625e-04,7.953924214987220104e-04,2.462824915605886316e-04,2.197131545824100390e-04,3.762369176042084447e-04,1.655397266009967644e-02,2.185153418523573879e-02,3.731658710757379538e-02,8.529298426983604117e-04,2.079396289508101542e-02
2.867957319458884014e-04,7.741185805619600147e-04,2.130187235232778697e-04,2.174908764448791080e-04,3.801543769982652400e-04,1.548062055069124657e-02,2.129296435227470696e-02,6.548193581555160347e-02,7.102945301627165567e-04,2.612394627137077513e-02
2.787339389921239942e-04,4.357594952381301000e-04,1.558816826097249504e-04,2.129202330784066061e-04,4.144816769277079706e-04,1.316906088915968491e-02,1.899283370126300663e-02,6.308614874968963837e-02,5.512488278442825504e-04,2.356574100345350600e-02
2.541337459158108086e-04,1.358396828662243204e-03,1.003589638863446591e-04,2.047886573519100656e-04,4.159055891685373044e-04,1.099785060561592719e-02,1.450430592509786148e-02,4.755260336124280535e-02,3.797565935299355142e-04,1.772647886025097846e-02
2.400896056303011155e-04,1.456748846412361971e-03,5.272565365223341505e-05,1.928399391229720027e-04,4.082315295869930216e-04,8.484393846837929437e-03,7.863788379041669607e-03,3.831476242210538063e-02,2.000607953696748043e-04,1.193048330758523894e-02
2.362704225087571062e-04,1.348372739694573630e-03,2.840094736116717425e-06,1.804660422187990979e-04,4.236779241022717714e-04,4.909155949294353311e-03,2.591068870246460588e-04,3.736727954839312582e-02,1.657868542503457688e-05,6.465338234459691406e-03
2.301240156483452034e-04,1.171715796513706376e-03,5.074476989655061967e-05,1.692922539217579737e-04,4.358380666258410445e-04,9.926396122071981520e-04,7.132061116080395599e-03,3.722976199437955103e-02,1.662066328922397695e-04,1.525666034737784005e-03
2.211632623706685362e-04,6.434090020540923077e-04,1.013844309682060315e-04,1.532616615382188937e-04,4.240996117383846590e-04,1.454817846699818073e-03,1.401755080704391448e-02,3.676667705187939422e-02,3.438555849260959557e-04,1.553979880054066551e-03
2.159977219081083235e-04,2.048822008354721756e-04,1.461588469954682205e-04,1.300157634831674831e-04,4.339028057186024669e-04,1.663980560302741503e-03,2.034478053465244712e-02,4.059105170291674863e-02,5.120797871509996831e-04,1.763156093280703572e-03
2.168639033193939768e-04,5.334726112896651584e-04,1.867222225484958863e-04,1.137927620915965728e-04,4.874088055601658747e-04,1.177842232277674867e-03,2.609742783206319902e-02,4.459304257363777557e-02,6.668453846939825097e-04,1.794410959315945013e-04
2.198296491750320613e-04,1.457285839558818954e-03,2.238295178753805061e-04,1.114252191570337864e-04,4.925254371709993301e-04,1.908336215233471947e-03,3.077489775902023106e-02,3.320528566350568200e-02,8.044695780797846011e-04,4.530186501166880413e-04
2.201018526307522961e-04,2.110923303887629263e-03,2.548878268182890473e-04,9.413213683805427402e-05,4.099344812923777330e-04,3.321075729466870310e-03,3.118473644580310039e-02,1.633090356561238236e-04,9.217080341730203488e-04,1.233780632601395172e-03
2.214234798973247571e-04,1.271111108843441320e-03,2.764481659827694058e-04,4.800758798243384934e-05,4.355715374197671025e-04,3.232530203135383900e-03,2.250089479323873556e-02,3.668268861459330482e-02,1.015831112115536498e-03,3.571399532724676279e-03
2.340061262822437042e-04,2.170578751900755898e-03,2.897211349703621977e-04,3.555074965938590209e-05,6.623680752502816849e-04,1.414431234149280108e-03,5.168836011943919381e-03,4.944722251421984627e-02,1.084687119727380331e-03,4.378989023466014520e-03
2.519774586072069688e-04,7.113066573871078616e-03,2.997673191496168276e-04,8.941093482248602163e-05,6.321846618467492169e-04,3.684472878087782658e-04,1.152295319514392777e-02,3.877340291328511962e-02,1.126751142126281285e-03,3.798953349343453349e-03
2.529581730806827202e-04,9.385589333356734315e-03,3.037184784207387026e-04,7.803688307641479108e-05,1.176639316306880693e-04,1.798349031618861910e-03,1.677452393049227650e-02,3.703720542667283261e-02,1.141158344027145503e-03,3.436914244188354981e-03
2.473116998829900004e-04,6.085245375402966936e-03,2.902079050895337649e-04,7.108046569892259819e-05,9.524791211861932411e-04,4.284820618019328370e-03,8.587615944442322791e-03,6.648298337710885353e-02,1.127721031352889617e-03,3.808902910071566145e-03
2.823572359021522577e-04,8.942931044660996139e-05,2.645106074818617706e-04,7.578660016691345005e-05,5.099065534748240978e-04,5.662210808701516329e-03,5.449026344944522642e-03,1.026393343596622432e-01,1.086929156926084473e-03,3.819424836862380258e-03
3.368251013420204025e-04,3.288611041047555857e-03,2.513626971152857817e-04,2.384708054189536841e-04,1.126690088710396087e-03,5.747133584355184656e-03,1.636481371713556510e-02,1.023527373886245345e-01,1.019934359318858856e-03,2.627713452852653217e-03
3.080452636017108896e-04,3.078785973546942830e-03,2.413497013829523643e-04,2.405418121383807290e-04,1.458749717447580582e-03,5.209598775318504890e-03,1.993702376230761103e-02,6.393012496651724608e-02,9.285180235544804447e-04,1.191348088951266117e-03
2.372437947308761788e-04,2.351955390709138411e-03,1.830112760714573477e-04,7.553089188963237229e-04,1.488019105030608273e-03,3.783455211787402524e-03,1.601784112114916503e-02,3.050039416580695162e-02,8.150442375931115377e-04,1.094439422321455803e-03
3.461586997203089312e-04,2.679347902819345217e-03,9.708302404104013307e-05,2.002742795719548476e-03,5.497994590386671813e-03,1.375730878212498304e-03,6.587644390050544953e-03,3.007125966121561994e-02,6.823988801228567233e-04,2.241445798062438512e-03
5.606723834696246671e-04,2.969287007052852801e-03,9.662782734072973383e-05,1.994970532344367362e-03,6.166959647448876265e-03,6.551078012291525112e-04,4.172466412505743648e-03,4.243199608169542086e-02,5.339164044760009260e-04,3.089677629263328819e-03
3.614246564541908659e-04,2.853727907950933968e-03,1.435396345381744008e-04,7.316066502303103384e-04,2.879806212661441787e-03,7.966109344008452230e-04,1.083434789677883633e-02,3.817454918622039534e-02,3.732961727000981577e-04,2.938875810948242667e-03
3.619774209009112183e-04,3.330850571894058802e-03,3.880082644636865077e-06,2.814509881384186750e-04,5.082073879492776235e-04,9.234210312356479732e-04,9.808272754011190114e-03,2.210357679170911818e-02,2.045104361595200730e-04,2.494190883813604195e-03
8.341594831968803013e-04,3.831575527914788965e-03,2.762542106245009419e-04,2.959514922878313486e-04,1.285727650217042932e-03,3.204468064802199877e-03,2.106389504469566125e-03,1.412935183971021982e-02,3.170624893292789816e-05,2.367507674569490576e-03
4.477468308193780899e-04,1.845099602615543621e-03,1.092014683647604955e-04,7.487794487568634103e-06,6.140870283429086720e-04,4.779212799372969424e-03,6.417594857320710507e-03,9.928194887795555382e-03,1.408962665756047987e-04,2.377046290182960406e-03
3.610232126654718508e-04,3.513233465453070338e-03,6.215411396899518572e-04,4.539493993283201263e-06,3.785601566482822982e-04,4.939561746665141473e-03,9.376181642751675593e-03,7.815184693425042406e-03,3.091068088544610213e-04,2.251668645735015444e-03
8.041018511743546230e-04,9.800035698514428933e-03,1.047317968753977077e-03,1.682562628394568337e-04,6.565142949593481478e-04,3.487103671264129862e-03,6.371491697378731979e-03,3.512344613601971199e-02,4.688664358548723420e-04,2.069340847273430477e-03
5.430262143871880708e-04,1.359679781109086362e-02,5.309092287223286018e-04,1.962442168663179674e-04,8.228005204337883460e-04,1.287691984444378109e-03,2.855622174418963148e-03,5.388699862806237140e-02,6.163452958547380829e-04,1.958258106083979322e-03
3.315327957309612081e-04,1.279812904014880799e-02,2.884327797880805485e-04,1.366339554017494855e-04,7.703256547102444417e-04,2.217910537890365298e-04,2.471431976153371304e-03,5.853304499580014308e-02,7.480342013464434930e-04,1.884852963388121243e-03
1.393227535357399174e-03,7.495844847494687914e-03,5.400708907671163432e-04,1.308167570008441326e-04,5.862361168007534928e-04,1.199008896404068266e-03,4.237956809184808757e-03,5.101894274090874870e-02,8.608278608444741445e-04,1.789807034757993605e-03
2.131238041992737121e-03,6.240868570520660772e-04,3.463825229336745578e-04,1.982026306548006231e-04,4.586277091763507532e-04,3.078785035374836422e-03,7.582743004425695349e-03,2.612087463702598977e-02,9.520977997022751597e-04,1.688634961279069204e-03
2.401124348443300395e-03,3.731523087943889195e-03,2.699977233541593505e-04,2.564417742609803553e-04,7.780509258542863240e-04,4.404284383078817429e-03,1.261987992447804498e-02,1.594018766156011721e-02,1.019753263666783698e-03,1.609196826450236826e-03
2.213762999635334339e-03,4.187892065550780432e-03,3.787195290985861961e-04,2.074734205422793963e-04,1.196090694770351190e-03,4.529550346566724346e-03,1.467588593490240859e-02,5.442383502300267989e-02,1.062288701308017943e-03,1.544671261096038084e-03
1.426040615943028516e-03,2.988629567943052422e-03,4.295024126349796336e-04,1.194047525137540794e-04,5.204281561376834829e-04,2.964171867512371654e-03,7.745662025928897430e-03,6.522430934681087977e-02,1.078816756041759382e-03,1.482447572271181199e-03
2.734254822750061638e-04,2.853583871371615736e-03,3.831503057976958838e-04,2.284400809590521808e-04,1.044612581540733855e-03,1.364107734000754039e-04,4.930211341766816552e-03,5.017848337116619095e-02,1.069086056885142555e-03,1.424730400260046815e-03
4.807922035417900989e-04,3.955165929770634685e-03,3.518915288159609736e-04,4.524165719829962586e-04,1.447367353797551336e-03,1.840132381325827000e-03,1.298359964272243275e-02,3.330633788931715994e-02,1.033483470492123097e-03,1.374798112272878270e-03
5.030335567998855560e-04,3.971107024156692034e-03,3.559050600828896202e-04,2.308317349973229864e-04,4.340493460759716361e-04,1.754173588611249949e-03,1.261390164751032342e-02,2.622494389687645561e-02,9.730208562460542073e-04,1.331003411942659762e-03
2.710044444716161243e-04,1.440872742581261832e-03,3.435231527898097051e-04,5.529827377144416571e-04,6.526651380146640145e-04,8.999097017883741102e-04,8.674911988316047484e-03,1.931627855135066921e-02,8.893067419956452368e-04,1.294300001110664910e-03
2.351474743661449197e-04,1.132967906626813036e-03,3.054737629419955578e-04,1.030473182428049079e-03,2.906095736225594844e-03,1.565776436791515127e-04,3.810985051872371656e-03,1.348551135273980128e-02,7.845037013071437396e-04,1.263115888853069907e-03
3.114449847028658187e-04,3.017590921296705057e-04,2.668575508549479833e-04,5.663333372965697167e-04,4.127838594810216699e-03,1.207487093513040987e-03,3.258065137395719894e-03,2.584042590367983949e-02,6.612725551315767414e-04,1.227177331913443647e-03
3.032528367755713081e-04,2.222022983350765979e-03,2.335332823663756308e-04,2.018358996463590180e-04,2.344934947388015167e-03,2.493886130648781570e-03,9.153476371986249763e-03,4.854461633696083300e-02,5.227048333861930920e-04,1.187034557398101422e-03
2.427757214103193188e-04,1.442970162362340169e-03,1.951889890582907551e-04,4.058855366381194474e-04,2.623791630510126632e-04,1.773910659958518026e-03,7.472953903325914131e-03,4.386436184615789130e-02,3.722452077262247824e-04,1.163306216045852017e-03
2.220149371285225746e-04,2.539698739102307524e-03,1.504518908489386032e-04,1.689313379716426554e-04,1.116801435852371720e-03,9.903495867263995760e-05,1.802343056658563779e-04,2.650133751696982700e-03,2.136058392811745186e-04,1.151223184702558199e-03
2.276819030442741286e-04,4.134077692706170093e-03,1.057159696679399642e-04,5.380317327387249059e-05,6.152433865864545982e-04,1.949098399531343901e-04,2.749929235116232822e-03,3.377488892464276110e-02,5.067476898605306713e-05,1.101878229805909907e-03
2.170361837402482634e-04,9.210858261239091710e-04,6.332801700442202764e-05,1.291580387597222781e-04,3.378534962728587917e-04,1.726440701115244513e-03,3.126880884633893333e-03,3.415672663375149409e-02,1.125793907950437938e-04,1.020742306524864782e-03
1.961675519833906841e-04,3.140423958070754501e-03,2.196268725022500830e-05,1.528789557721568760e-04,5.453767124605327131e-04,3.099344319541580232e-03,1.130482202586369916e-02,1.987472547915232132e-02,2.722041292170405621e-04,1.009413212548195210e-03
1.854908755357450201e-04,3.896203458975043728e-03,1.787296421725979509e-05,8.618932239821295519e-05,6.511453573244460743e-04,2.648379827338521661e-03,1.349246864628472244e-02,2.475828180170069198e-02,4.243587219980782450e-04,1.058111235387731910e-03
1.826682915720201697e-04,1.894147762077521635e-03,5.400763286387651109e-05,4.147388667582040681e-05,5.352272076797109836e-04,1.422673141076516521e-03,8.020039762942894265e-03,4.959903246493757578e-02,5.654066149190122622e-04,9.552376121038008618e-04
1.783142037152118822e-04,4.202845988056198791e-04,8.523926397322975114e-05,3.905940374378100892e-05,4.648179660341041292e-04,3.416067354956225173e-04,8.257346369914271133e-04,7.363306979933380292e-02,6.920022868343196892e-04,6.757766550976359709e-04
1.735309611937867278e-04,1.132063533584963316e-03,1.112782000284269284e-04,2.729969378712931665e-05,4.991265141080820792e-04,7.820358480274535330e-04,7.043388834715324023e-03,8.095130712594093836e-02,8.011705211504704634e-04,4.384780826197818508e-04
1.727447926513199993e-04,2.480657183781309009e-03,1.315065640274851286e-04,3.282159396366861175e-06,5.139384847820156624e-04,1.749238950386597076e-03,7.416266895767465762e-03,6.939203119858207425e-02,8.903762118984868360e-04,9.398414896649576861e-05
1.754340773031461988e-04,2.288664910004781748e-03,1.451104029205639633e-04,2.795921185686404701e-05,4.792884462588894025e-04,1.479126136240053188e-03,4.440837181480174201e-03,5.240294963509278120e-02,9.575830718671429027e-04,1.626736150797603074e-03
1.794318392006355749e-04,1.031389697768555352e-03,1.517665856966068656e-04,4.140128601632062528e-05,4.535072819992263453e-04,1.649143472143406127e-04,2.895536780129732285e-03,4.454309996663900068e-02,1.001299889632563779e-03,3.398911617873621310e-03
1.847849645904542078e-04,8.715794409641209424e-04,1.514068315289002404e-04,5.461217024307888257e-05,4.533639544838319541e-04,1.562298852236634721e-03,3.289824054823738218e-03,3.938661128705294584e-02,1.020613292697370757e-03,3.328804171659712798e-03
1.921564020123782423e-04,2.099204519378208757e-03,1.437221828607722232e-04,6.970959809570209415e-05,4.509438684524016082e-04,1.493210186019750625e-03,1.937345652667768177e-03,2.277038992331508957e-02,1.015206307610639269e-03,1.151792756949588086e-03
2.011252970971692637e-04,3.099107138707334931e-03,1.286922020355391711e-04,8.106852596653448982e-05,4.339346192628921821e-04,8.360553593109167850e-04,2.882975572785102195e-03,4.607225134849362094e-03,9.853623566379895830e-04,7.636357422219428991e-04
2.111468566637115943e-04,3.275574610342798284e-03,1.072212167294189799e-04,8.736042410143745750e-05,4.170344735503988642e-04,9.438048593796439633e-04,7.443734384855692915e-03,8.153691849580344680e-03,9.319546857381136740e-04,6.830758525154389952e-04
2.221190928570037759e-04,3.198457369829195082e-03,8.000454684365511740e-05,9.116315154966126951e-05,4.151245285844531226e-04,1.284935915184677894e-03,4.993565680981160507e-03,3.117264502403271909e-02,8.564215716258425856e-04,5.933226328060876636e-04
2.334655898129034618e-04,2.285302708508069394e-03,4.632849298653002421e-05,9.288062195663371551e-05,4.179621193526769597e-04,3.442141217621210104e-05,7.796888215480629949e-03,4.534880866276844863e-02,7.607279980197125500e-04,1.520137972051115779e-03
2.443929069393733339e-04,8.940511748527624593e-04,6.438614837591157844e-06,9.086059212492661279e-05,3.992289901955872614e-04,3.555349701104496690e-03,2.520898093026758061e-02,3.470082357900153291e-02,6.473148145578347737e-04,1.568199999043526230e-03
2.553857764037732584e-04,5.850357270041187802e-03,3.597479085812359603e-05,8.518906402264246678e-05,3.703484747005229209e-04,7.305526818265468091e-03,3.621501049363825414e-02,1.619882233681552153e-02,5.190366886076087146e-04,1.105694429313010653e-03
2.670292104091925725e-04,9.823347571556104163e-03,7.882761840973484763e-05,7.768861755368847665e-05,3.848523954991876338e-04,8.776993501474367534e-03,3.659145945391294175e-02,2.024187919831104202e-02,3.790904232760226346e-04,8.352253738477750976e-04
2.770350527740610743e-04,1.065652758013445681e-02,1.270980908928690456e-04,6.811710865005729271e-05,4.240499956416152877e-04,7.378217668617485445e-03,3.333856939606236885e-02,5.995559515011810586e-02,2.309354381926488706e-04,1.145137089947182362e-03
2.830341909611277032e-04,8.574291230902017502e-03,1.822481980862855817e-04,5.404210800585518374e-05,3.741651342519546389e-04,4.470954250754840577e-03,3.435765728888266757e-02,1.199202228724679242e-01,7.820838794004794517e-05,1.510075777783155635e-03
2.889249408931611539e-04,4.967634454230500721e-03,2.303914610336425339e-04,3.692229418613498951e-05,2.695471686370949291e-04,1.725711581399568028e-03,3.850297434010354486e-02,1.691927667807879287e-01,7.536597767430226866e-05,1.216156234449282392e-03
2.989456967063249069e-04,1.083406711859229415e-03,2.646566885919738005e-04,2.249848712763463036e-05,3.556357702612715737e-04,5.204981686567457851e-05,3.901824879073791108e-02,1.839117652773157863e-01,2.260655297866132453e-04,5.635234860912851891e-04
3.040304487796303750e-04,1.879502706012603974e-03,3.111119360290449465e-04,8.737332590980329707e-06,5.753268451177476206e-04,4.874306429047251844e-04,3.269019635818173203e-02,1.594762104494482913e-01,3.702608471845134281e-04,3.373147761498544728e-04
2.942043401943545702e-04,3.092003223386705687e-03,3.817605375272823190e-04,1.532598438391172857e-05,3.602461367574858624e-04,4.129124117299053575e-04,2.210046459168049995e-02,1.065092485336803646e-01,5.045024970400210007e-04,5.518812961215386909e-04
2.880442603345150085e-04,2.929971675733664301e-03,4.180342470612442005e-04,4.434114362839559572e-05,4.371950994487008250e-04,3.078634710432977001e-04,1.158440873743042665e-02,4.317146278344670407e-02,6.256034150308713987e-04,6.888223896976334963e-04
3.069602553473098675e-04,2.486388519169333792e-03,3.897788450673336769e-04,5.355710689783517025e-05,9.371562811433882707e-04,3.421824879410915142e-04,4.219223848879032415e-03,1.059368856134876649e-02,7.307144222585632226e-04,6.168882082044687548e-04
3.116200291565767583e-04,2.364825203580907861e-03,4.185952552182043308e-04,5.248434625171771484e-05,4.487683979666778921e-04,3.924001613944263036e-04,8.670978692639371398e-04,4.396334092712968905e-02,8.173910950929269082e-04,5.570356809221177312e-04
2.551104242003633823e-04,2.508318852048367024e-03,5.697214873525667522e-04,9.291299548514634959e-05,3.694739006538078725e-04,4.251092534537792436e-04,7.456530276882850257e-04,6.301044618384760154e-02,8.836504248201071908e-04,5.779725092120144075e-04
2.200848576904161690e-04,2.575626159533987714e-03,5.829707053222576681e-04,1.546401908818584390e-04,5.345556475685701988e-04,4.739076409226139464e-04,4.463282030265185163e-03,7.799253410618960103e-02,9.280159610442982035e-04,5.789146303198894165e-04
3.115664667367781782e-04,2.193291145307728080e-03,3.099366291278561158e-04,1.252661109767234872e-04,2.093210783712413242e-04,4.646852956340363490e-04,1.116887072675419590e-02,8.464493247888106586e-02,9.495504197612192332e-04,5.273381607970770678e-04
3.650036503494644147e-04,1.682928258240458733e-03,3.057323865496194815e-04,4.368335438022774022e-05,2.022343341649969722e-04,4.103124535046873871e-04,1.792777590834094756e-02,7.262511537538489381e-02,9.478750469064679005e-04,4.712965008515466060e-04
1.118963422379456389e-04,2.083872144591256571e-03,9.240833467339903918e-04,1.525088736420132901e-04,5.120884283010226391e-04,5.334903737213038660e-04,2.238609589385981424e-02,4.937021357417688966e-02,9.231753532719708501e-04,4.282139523119219077e-04
3.449038569414569506e-04,2.898834812246671704e-03,9.228103158730093175e-04,3.833891226020114812e-04,3.276083446576466725e-04,7.759407413957748788e-04,2.401845361298764192e-02,3.343042087568006554e-02,8.761931686537877042e-04,3.776614460412676703e-04
7.917313932290271934e-04,1.140201532220637545e-03,1.067067185244180341e-03,1.730334581346323170e-04,5.109652740487304837e-04,5.822991828885237591e-04,2.124450612338333114e-02,2.673002627719677296e-02,8.082052939882421617e-04,3.132944323896294037e-04
1.385801854847671039e-03,4.337241683206320003e-03,3.571520686281469056e-03,6.016881408846721634e-04,1.010360604789446032e-03,1.763350916632481027e-04,1.362470528618134856e-02,2.000905000801512720e-02,7.209893528194778484e-04,2.468249596667833031e-04
1.967805280896747257e-03,9.093749439117107189e-03,3.581863250777863120e-03,1.070966019471023770e-03,5.173126860532358375e-04,6.356245872206062316e-04,6.420486463299226662e-03,2.007984469916393108e-02,6.167777497321553669e-04,1.836984581139259871e-04
1.661162178088934757e-03,7.989859753833023978e-03,1.117133952602008314e-03,5.964339106889756737e-04,2.534390354101950099e-04,1.567739392651338486e-04,5.937292080636450906e-03,4.212686305536422066e-02,4.982009244340573732e-04,1.208810743607825701e-04
4.348818547707904701e-04,2.467140237271527557e-03,7.556716042737420154e-04,1.837643814227016346e-04,4.321883690253236075e-04,6.239693627221038061e-04,1.148847770492767394e-02,8.110746984373913560e-02,3.682213398246264569e-04,5.816464082993990183e-05
2.132743897741249273e-04,1.613767729412190046e-03,6.131609760862329625e-04,4.000358410857463801e-04,2.187575610939277012e-04,8.377982173701229362e-04,1.777660369988280642e-02,1.153552732881158449e-01,2.300598583323047145e-04,7.167159150963818472e-07
4.657654195623984247e-04,1.907780427155544422e-03,4.428743486817020574e-05,1.757140549919548834e-04,1.615963030737046580e-04,6.054766184271719682e-04,2.214264588333026904e-02,1.311227951794853297e-01,8.711633713993821083e-05,5.342295670857229953e-05
1.178296453776883591e-03,9.073710028843435041e-04,2.194043128544942119e-04,7.427460631593937781e-05,2.053103822411341689e-04,4.854830510175620691e-04,2.420694939130136128e-02,1.267228862328357020e-01,5.711360190323278799e-05,9.965018375101389911e-05
8.056132016056419569e-04,8.014444090854701492e-04,2.340691539977648962e-04,1.642348615958554795e-04,1.438064396486909730e-04,5.491864802638669885e-04,2.183581296103330460e-02,1.027202971464074854e-01,1.991235988011545461e-04,1.386898681115535895e-04
9.158774187520009563e-06,1.160005380566375916e-03,5.865071045057377230e-04,2.031151066081781189e-04,1.868297685226760361e-04,5.653180405004086745e-04,1.289942594652893938e-02,6.380291550343496210e-02,3.354813137453880635e-04,1.691433498231119284e-04
3.221528096772308895e-04,1.127238707147362826e-03,1.228658118169767251e-03,1.521233938800629990e-04,3.798437169988467307e-04,4.902189402278741290e-04,5.858601452053395107e-04,2.603249855359192691e-02,4.629108581796885242e-04,1.900998668126047640e-04
2.640992931832533436e-04,8.917007599266699213e-04,7.946182713481649397e-04,1.237222201732091650e-04,1.757447515202703342e-04,4.126123426813622084e-04,6.566578696928504488e-03,1.174410207480626467e-02,5.783709205074922047e-04,2.013159244316305618e-04
6.123968466490905128e-05,8.479391373944505537e-04,1.480564585937469411e-05,1.381499221359162454e-04,6.017484405492611738e-04,3.633869057150806731e-04,2.611560016992884280e-03,3.285787332650970394e-02,6.791267561986555085e-04,2.026889913225574298e-04
7.167480004631061321e-04,9.114941582044240598e-04,2.088335186815431480e-04,1.436198550794668359e-04,1.088480021205109893e-03,3.436416355523363433e-04,8.296557813547151064e-03,7.592222126206464583e-02,7.628143486471914174e-04,1.941813746360510529e-04
1.132654016329186783e-03,8.960979896151834156e-04,6.067435635636182724e-05,1.305648572244627788e-04,6.202445094186305897e-04,3.247990096835693947e-04,1.577584465953579818e-02,1.077167116886083437e-01,8.274951804661852131e-04,1.760707860711453092e-04
7.068760505104100360e-04,8.380283957899084361e-04,1.727457410069126772e-04,1.236266023231799647e-04,1.626675504870957602e-04,2.204277357144412823e-04,1.539664902380667721e-02,1.074034536648393184e-01,8.717003402644217741e-04,1.489846729373340661e-04
6.102471005748210140e-05,8.237520593008353705e-04,7.138469544883975764e-05,1.280548451731678653e-04,3.762375418988585457e-04,7.603409210084981196e-05,1.292135084923688726e-02,8.972430678476042698e-02,8.944630996066664117e-04,1.137695462012987095e-04
3.197997087390100314e-04,8.360360431404277159e-04,2.628410278442474762e-05,1.327826600160092300e-04,1.551486163672936023e-04,1.245115917380584022e-04,1.472047017632047497e-02,8.120222279382795227e-02,8.953392791042625838e-04,7.145043289696950738e-05
1.275509256149785276e-04,8.327815515525736813e-04,7.110971086602110359e-05,1.355485202336927509e-04,7.428241167130781957e-05,2.965380488091011826e-04,1.865507818923595185e-02,7.995462679637346803e-02,8.744147119409850137e-04,2.326008960006626915e-05
3.759614932113661582e-05,8.200848604669807662e-04,8.126369853999517302e-05,1.417676780042628943e-04,1.736289196943575886e-04,3.544273528968735614e-05,1.805110966811765069e-02,6.019223213036535569e-02,8.322996339898637488e-04,2.938100636166733246e-05
1.479777470836995468e-04,8.162993491859516773e-04,3.967559722405222399e-05,1.527548520498798513e-04,1.934665240209630362e-04,7.794464674916063438e-04,1.148722231733059415e-02,1.425757866687816025e-02,7.701108133229707777e-04,8.492487619782656248e-05
2.203393062337964377e-04,8.174160911533494712e-04,4.968315808670498678e-06,1.660758556289444710e-04,1.561476803013780372e-04,1.279659304112003423e-03,4.540972449589311850e-03,2.980237706079292420e-02,6.894421021967594813e-04,1.417395349423823485e-04
2.010439547674416276e-04,8.134122736950546951e-04,1.340310320291510307e-05,1.810484905510993670e-04,2.070741241840312120e-04,8.266414652671961105e-04,2.728503182132735721e-03,3.890265857314628706e-02,5.923229339256794656e-04,1.981380220924496612e-04
1.993204712553688844e-04,8.047115714408323165e-04,4.180718729266992703e-05,1.987037956759528845e-04,2.342472874561887710e-04,5.698809560445832747e-05,5.308272990845321754e-03,1.484407888735511487e-02,4.811654409971268150e-04,2.524182663659180052e-04
2.411733687744935435e-04,7.949611677461034193e-04,8.383872882878930504e-05,2.192455091494238402e-04,1.120604650756345735e-04,1.603910626480765760e-04,7.191129774293121037e-03,7.112667606351158120e-03,3.587042289701309413e-04,3.029115584074160107e-04
2.752613147644062774e-04,7.832345537125144815e-04,1.259742508777787263e-04,2.419151658897250969e-04,1.125081156480881256e-04,5.125909866971948794e-05,6.581400134975993327e-03,3.040732977649331266e-03,2.279312352854283579e-04,3.480262288832081542e-04
2.882177180685030504e-04,7.669129445506759745e-04,1.651029477186289761e-04,2.661097642235647439e-04,4.343718888776912520e-04,1.289245234417986819e-04,6.796750090880388992e-03,1.359933690291214789e-02,9.202156366677478709e-05,3.862858666251799762e-04
3.033823645402731746e-04,7.454379409494690020e-04,2.060387058652660261e-04,2.917330248633637213e-04,4.507159255403738580e-04,5.112352402782075142e-06,7.695478620056536018e-03,2.760248043723796674e-02,4.574999367168720832e-05,4.163668229159016992e-04
3.268039494624170758e-04,7.199340977687134630e-04,2.486418578651449353e-04,3.188554653963182671e-04,5.357760424239834491e-04,7.727705160757205585e-05,2.131889275521197530e-03,5.722177852991420371e-02,1.820875313535187407e-04,4.371339123994757189e-04
3.471848963415029212e-04,6.913707930631925527e-04,2.893098212282193432e-04,3.469918469998745330e-04,1.780180227601215132e-03,8.010883803702676298e-05,1.221708993069526260e-02,1.176515511688704663e-01,3.137409672342308747e-04,4.476707185772639368e-04
3.611740863769943920e-04,6.587607258099153042e-04,3.270539400587154960e-04,3.748869706342584083e-04,1.770471975914756149e-03,1.141935116351494583e-04,2.480010106167833753e-02,1.747642669612212984e-01,4.375856062873744639e-04,4.473037478359439645e-04
3.737072541255736439e-04,6.201162258591181751e-04,3.619540615319611103e-04,4.020614953845379680e-04,5.075423532353166888e-04,1.947465692775081716e-04,2.480386723794621856e-02,1.804528602665390058e-01,5.507234164355583788e-04,4.356210411429447594e-04
3.861769112873855150e-04,5.774720529569917545e-04,3.923164571987818473e-04,4.297811774508320882e-04,5.003566228602601999e-04,2.693111696713795366e-04,1.591200411392644509e-02,1.347443236100529240e-01,6.505486169065551700e-04,4.124847346939201388e-04
3.961413097039069705e-04,5.363269242231942339e-04,4.174341248066909169e-04,4.578250380896273469e-04,5.099319361529686557e-04,3.345763112976669548e-04,1.003370550184741472e-02,7.409821956062333237e-02,7.347511300839930154e-04,3.780366393340800317e-04
4.028600106520092788e-04,4.943340833848022375e-04,4.390531947100419392e-04,4.821545302773245925e-04,2.032455379437891332e-04,4.118348019572077006e-04,1.061228753016183260e-02,1.867947343826020790e-02,8.013746343445823841e-04,3.326966614607869150e-04
4.074826872313515509e-04,4.414978999352464455e-04,4.557633724690312378e-04,5.017758256600423836e-04,2.027291465224607936e-04,4.875593934783763314e-04,1.050699918673644179e-02,3.269060879924409052e-02,8.489841089389773068e-04,2.771543087566384167e-04
4.104655916731592461e-04,3.845156093103082500e-04,4.619868026377088512e-04,5.240227959758922589e-04,3.439290274728543746e-04,5.518500809402027791e-04,5.311461497865852671e-03,7.093168511132855181e-02,8.766909793321240327e-04,2.123534268976259235e-04
4.114833987179252438e-04,3.472387563746040474e-04,4.599052501845460762e-04,5.500724210851509885e-04,3.642813326558494175e-04,6.370480678891702817e-04,8.481590610510863007e-04,7.559103154580498751e-02,8.839087639071809823e-04,1.394704351307188555e-04
4.106182791968847052e-04,3.185242389518496689e-04,4.609161055915611191e-04,5.632645455490869774e-04,3.141785144691962208e-04,7.415015622687393679e-04,4.385622668825761745e-03,4.398670460115799985e-02,8.703713437571175982e-04,5.988662603378736634e-05
4.083335634759069203e-04,2.496721072812658928e-04,4.602298663156184047e-04,5.597563408564431263e-04,2.829075968821596855e-04,7.871403296367268524e-04,1.385775338963173876e-02,2.956344413062726023e-03,8.366975150062051780e-04,2.484487253803470468e-05
4.049364808407877056e-04,1.657146459739963730e-04,4.335883945055466079e-04,5.743121574080070927e-04,2.853420588975222284e-04,7.795786936344461680e-04,2.076363053677090717e-02,4.677335294335610572e-02,7.843720309302575728e-04,1.130368169016517040e-04
4.007343623550290411e-04,1.738015385235924847e-04,3.914202227972943563e-04,6.153974298536762574e-04,3.517053112375141764e-04,8.833741677284124606e-04,2.078324393874268761e-02,8.610732828262690486e-02,7.145079752379413689e-04,2.029091068243759829e-04
3.962190834478782281e-04,2.255145063372633325e-04,3.870202652094265408e-04,6.081326575003573797e-04,3.976823934201665668e-04,1.082593773447906599e-03,1.664545899885559385e-02,1.215180572431759920e-01,6.277877057067154888e-04,2.926322631547118610e-04
3.916381626076962763e-04,9.225372893942716964e-05,4.010683680060246094e-04,5.339031004943879449e-04,2.522950645310333855e-04,1.019991509169212909e-03,1.203586411870108050e-02,1.403846192215493227e-01,5.270032347857349711e-04,3.803725642396467823e-04
3.870027993210210532e-04,1.252406522055841227e-04,3.210801619538619514e-04,5.650021264670840879e-04,1.168046301531355390e-04,7.201100556817398605e-04,7.239268870625885713e-03,1.280528689193484448e-01,4.171161712811798138e-04,4.643383923002282303e-04
3.830149483080880234e-04,8.116260881187739671e-05,1.874394696446121189e-04,7.274904930381581678e-04,4.245184285144595697e-04,9.623729660709565972e-04,8.482375986450024427e-04,8.814442190029847524e-02,2.996736213151750651e-04,5.428255220989594782e-04
3.808383961219567303e-04,4.994641496570306110e-04,2.465049279988223551e-04,3.508539496553358516e-04,7.244363717913272858e-04,1.711905887931083805e-03,7.506602000292818093e-03,3.921681821733668388e-02,1.723502572328197496e-04,6.142587363953701512e-04
3.800617246633546109e-04,3.179768727151888858e-04,4.303939489268987528e-04,1.562064730020082523e-03,2.718849355186167983e-04,9.121646825960813597e-04,1.648453879869437103e-02,6.070956822219536995e-03,4.065845078429428783e-05,6.772310434928834836e-04
3.792012042488858339e-04,3.103175039142584690e-03,1.713667732200221071e-04,4.767380447860523722e-03,2.500140447170442690e-03,2.850083795149911843e-03,2.294357381686656927e-02,4.320258252230354395e-02,8.098590353379210788e-05,7.305426986157787655e-04
3.800478814912130326e-04,5.988475935767727243e-03,6.514017460636883873e-04,7.004897916809824619e-03,3.743199638638604245e-03,6.994702224714415689e-03,2.335597730956032181e-02,6.107787154299954696e-02,1.944707228958627990e-04,7.732341176990233014e-04
3.866367546853971180e-04,6.259556712737671287e-03,1.155308031884140583e-03,6.054234469546350937e-03,2.517776377515921517e-03,7.323818750072065391e-03,1.774165964524968692e-02,5.061938223594150688e-02,3.211519474923525772e-04,8.046048465229223940e-04
3.959078145999807069e-04,3.720085349842503636e-03,7.036190242211265693e-04,2.626902595817848154e-03,3.047848281098967916e-04,3.614271360028063415e-03,1.085618306800453965e-02,3.037255394769212274e-02,4.483298755615094944e-04,8.242283640546274647e-04
3.996656305371270169e-04,8.220513643875924405e-04,4.076864709111301989e-05,2.563078602622164944e-04,6.757334169710598696e-04,2.102209553925599357e-04,7.248776033630036433e-03,3.042117284896680290e-02,5.213095425967496140e-04,8.319774742735478639e-04
4.045627104962851986e-04,4.056373956150523610e-04,2.133159948837670032e-04,9.192758050504358167e-04,3.579156516118764809e-04,1.370936894286364695e-03,6.641879781398130067e-03,4.209723471512830800e-02,5.577148543358771693e-04,8.280380123017401549e-04
4.284151805934883757e-04,2.339677722727731741e-04,7.885563706299226030e-06,4.147365874259765898e-04,3.713310783180404475e-05,8.046386613901598600e-04,5.296345674950576378e-03,2.249294868861354338e-02,6.677509350802525358e-04,8.128775114006667581e-04
4.574213934180077087e-04,3.372326962976099829e-05,6.745974438193691469e-05,2.198318205296792799e-04,1.678301131399148063e-04,4.455110427139601331e-04,2.052642557714702250e-04,3.704669073195586415e-02,8.107777435429869934e-04,7.872148146058344492e-04
4.529169253273146478e-04,8.128908230915172302e-05,1.343631570528414494e-05,4.163756923449774884e-04,3.031268906979193620e-04,6.096592131350798147e-04,7.737296992678889020e-03,8.825090156622400483e-02,7.429184394771646931e-04,7.520629140099193560e-04
4.429262901272988206e-04,2.320072149968399416e-04,7.411645738956684759e-05,4.775795417081641139e-04,2.354255349880154122e-04,6.719693227945584607e-04,1.308301415879285258e-02,8.908504515239656918e-02,5.317757639574079240e-04,7.087491277561051200e-04
5.101363146943753858e-04,2.164677269033321767e-04,3.687628300731204050e-05,3.633453756444347186e-04,1.651530411729649084e-04,5.011775670752793149e-04,1.052139610423558601e-02,5.096394576829781087e-02,7.404130970317233549e-04,6.587567402526968473e-04
5.959375845061778846e-04,1.833528210404599464e-04,1.953062363292908978e-04,3.129784676226431334e-04,1.912166385820015884e-04,3.793940326065790240e-04,1.945114518862377500e-03,5.603593721752052684e-03,1.492261739212262734e-03,6.035903683341778143e-04
5.207331890074704851e-04,2.261374768245600947e-04,6.118515752571376408e-05,3.478494078625916919e-04,2.212735522129887357e-04,3.721244619683535351e-04,4.930419478685396997e-03,3.872287823378239152e-02,1.918331669398241814e-03,5.450052782940206309e-04
4.056097559349359301e-04,2.757108435806628717e-04,7.292053738401388808e-04,3.566573095201648939e-04,2.079563883564264706e-04,3.504582601348992963e-04,6.306388339793285967e-03,8.478107141007579228e-02,1.381570502517799224e-03,4.851800955985665926e-04
6.494349848473747163e-04,2.866561915098100595e-04,1.282101957374381712e-03,3.281857605717094432e-04,1.939036942577305588e-04,2.838687517305296041e-04,5.452511959820716125e-03,1.181325043725275081e-01,5.218954188741451979e-04,4.260982660480263544e-04
9.823669128712789276e-04,2.899672631073599792e-04,6.880555642871329959e-04,3.144156136015049648e-04,2.017199160883142268e-04,2.340268209698984797e-04,5.829666415046111036e-03,1.214126219485473779e-01,2.110873439848459177e-04,3.690205139966402405e-04
2.263774480107631900e-04,3.066070071053892754e-04,3.609047115220722713e-04,3.211524101630215526e-04,2.115470967202127029e-04,2.177169613358515953e-04,7.314181688423586694e-03,1.045632407732266234e-01,3.283600000695733418e-04,3.156437520541058393e-04
1.974517957101056247e-03,3.217825631771531903e-04,4.099497137808223723e-04,3.239604510690221760e-04,2.124136992342469474e-04,2.070303309701987588e-04,8.816309586635782958e-03,9.346167686243439521e-02,3.130809084314438158e-04,2.691076080103857286e-04
3.938042867071554418e-03,3.251120516391421407e-04,5.664165800745504928e-04,3.195730727375780842e-04,2.133657645455808442e-04,1.934747419028938671e-04,9.241467559889079281e-03,9.254060959580251433e-02,9.980137449393114771e-05,2.313970504541757974e-04
3.899195600422222623e-03,3.231672481223989471e-04,1.110766945311814080e-03,3.190673350231114391e-04,2.193559783797252344e-04,1.907714423882285145e-04,6.836278327091944128e-03,8.049790180045024446e-02,6.578018324117553960e-05,2.009818553511114785e-04
2.462654981772865147e-03,3.208214108639493591e-04,4.685829088443802816e-04,3.237175338569353339e-04,2.257415950021586059e-04,2.050251692483411547e-04,5.620662176508752503e-04,4.146337552828024270e-02,1.415816755122771900e-04,1.781679184318821316e-04
1.537883508152718777e-03,3.151463658932191869e-04,4.338380885337826567e-04,3.279071810113901790e-04,2.299579624058718547e-04,2.285247630143712183e-04,8.602636712015738346e-03,1.496460968472897342e-02,2.367830076539771016e-04,1.701564999055008129e-04
1.628131199741049114e-03,3.040655946662471900e-04,5.826711986253057564e-04,3.304835042215360655e-04,2.342588238771941341e-04,2.531772986975550175e-04,1.746895467184657325e-02,6.260064411471816248e-02,3.684262693410761207e-04,1.796418679089422754e-04
1.831930681452717665e-03,2.893075329249705785e-04,2.995046235751979043e-04,3.335460963761350400e-04,2.393429342614398310e-04,2.832458556286065977e-04,2.158352411079192401e-02,7.814913484286664658e-02,4.816932455929920668e-04,1.936215597796612316e-04
1.786142711411008773e-03,2.723761745891496245e-04,3.922127515542783564e-04,3.371295347913813491e-04,2.429461601643325764e-04,3.304900573187281756e-04,1.899800090755696808e-02,5.721515910193780696e-02,5.642229076747492383e-04,2.073887790211699467e-04
1.872336700990487497e-03,2.531020855442874234e-04,7.063599579183774775e-04,3.397200745354844536e-04,2.448408384785677396e-04,3.875934175827260887e-04,1.284820096954395439e-02,1.951150238164513218e-02,6.381632548731445845e-04,2.490112927158576748e-04
1.899831736144513014e-03,2.314918958138976535e-04,4.595879761560586166e-04,3.407662189845370973e-04,2.477340922980265318e-04,4.269493425397895368e-04,7.512145910463632024e-03,7.287241596214012913e-03,7.066274316003826397e-04,3.287106013487956988e-04
1.194239146507509184e-03,2.084077251774559523e-04,2.672541502606449906e-04,3.404814639140295415e-04,2.506271103227859114e-04,4.570091753319225117e-04,4.012341250863804554e-03,1.500583864362548328e-02,7.568265551772090493e-04,3.852669715573896008e-04
5.358956028693372879e-05,1.846863335459012802e-04,5.462177917845783236e-04,3.386795759577931105e-04,2.478447658234710386e-04,5.315864283813183898e-04,1.506045409338925729e-03,1.952110343464981065e-02,7.852353028526440175e-04,3.927638799038409446e-04
8.469789615950815229e-04,1.607862637266897396e-04,2.430014805997098904e-04,3.348648950095396639e-04,2.413498823368060179e-04,6.301443038229589955e-04,1.576796420757463910e-04,3.632439763910316755e-02,7.964750455255396573e-04,4.779022399927182366e-04
8.233188378549615924e-04,1.371718733993158477e-04,1.929762047085340632e-04,3.287895940859567653e-04,2.426101219019923894e-04,6.323867561311349991e-04,1.844913461270111191e-03,6.396745389090381650e-02,7.915446836122342397e-04,6.950384693830248886e-04
5.682068707650681514e-04,1.144596475965164203e-04,5.103146079508868917e-04,3.204273267226685870e-04,2.472226346608516088e-04,5.732104863810623743e-04,5.508742713293294721e-03,9.244470641904004027e-02,7.682130725242806470e-04,7.693257714883652279e-04
5.471646926516494100e-04,9.321770890292106423e-05,3.699570202108824150e-04,3.097192098983992466e-04,2.305375085282417383e-04,7.077762916345200486e-04,1.092620392385850597e-02,1.110281229255647567e-01,7.265328219042823743e-04,5.727621859485909324e-04
6.259149417893908156e-04,7.387415030540735292e-05,3.933660746454960299e-04,2.965882403603800643e-04,2.013423671338125795e-04,9.728323229987793875e-04,1.473950979824169977e-02,1.042710248137293100e-01,6.687070645518864527e-04,7.000096893297651701e-04
6.001883230056856552e-04,5.679137983263776696e-05,9.008559796859815297e-04,2.810614088994161015e-04,2.124914226362840789e-04,7.747023225515323012e-04,1.417362933163585602e-02,5.824124298784818382e-02,5.964746793886785024e-04,1.437489068223406653e-03
5.257178303629754090e-04,4.229430518915971586e-05,4.801772613093887665e-04,2.632651809447755960e-04,2.467127463377628100e-04,2.507307362768276262e-05,9.559258845440798263e-03,1.859004540005163367e-02,5.110957565982970734e-04,1.148356864868474263e-03
4.984883915825269853e-04,3.062337920514212155e-05,4.664348216008125034e-04,2.433667302519306895e-04,1.908559102664990868e-04,4.954014637227922846e-04,2.377827617431065802e-03,9.084273872695064478e-02,4.145183312804116903e-04,2.321724799618047393e-03
4.943978931690371469e-04,2.191180023978740323e-05,9.117853401218452107e-04,2.215715803658414276e-04,7.899244829404249092e-05,3.374413740540130075e-05,6.468243608793098655e-03,1.243823796503471663e-01,3.093309715242877978e-04,7.868739968031012583e-03
4.688874543374148838e-04,1.620185007644116059e-05,4.324099147794260097e-04,1.981452096077352158e-04,1.566274796779060956e-04,7.918430589693553059e-04,1.522521812394077648e-02,1.164926137636444065e-01,1.981380899399768454e-04,1.097237017922404918e-02
4.332967375620610747e-04,1.345415417763185352e-05,2.947839033789097229e-04,1.734065557390379315e-04,3.671300577172167652e-04,8.361629469813520532e-04,2.101717524333810566e-02,9.106653140621610854e-02,8.348932313541058666e-05,8.722845912146134570e-03
4.091954708421850664e-04,1.354227455227480537e-05,4.844456671437892829e-04,1.477081757190166242e-04,1.426214384600548325e-04,5.720225371452932438e-04,2.229052566418497985e-02,6.781483884032488141e-02,3.191932710439616532e-05,3.315916698980396048e-03
3.920485295513892140e-04,1.625406890236509323e-05,1.928468565136354511e-04,1.214278742603383196e-04,6.640235923952863845e-04,7.377387198977527821e-04,1.955219848546711423e-02,4.632381948205571004e-02,1.453035928833809544e-04,7.974526202957062191e-04
3.721421278476178028e-04,2.130341824225326193e-05,2.454100740981187372e-05,9.496547823462099492e-05,1.172808960673400432e-03,7.708673416473565141e-04,1.418099523485128605e-02,1.931546814539849763e-02,2.539803229695927517e-04,1.832431299644385293e-03
3.518699251032170552e-04,2.834202426492373326e-05,1.228560127026111161e-04,6.873334989245112028e-05,6.930019413605156354e-04,2.567187160888891582e-04,8.231026915434924707e-03,1.165170740776664236e-02,3.554356848142645143e-04,1.339091495624354427e-03
3.361393400818911978e-04,3.696907393238904447e-05,3.469725766559650826e-04,4.314379099061734207e-05,1.175404669790527197e-04,1.636289377312903333e-03,3.609764935181199522e-03,3.849392307169355321e-02,4.473268035063688143e-04,1.107920912960720780e-03
3.240983279174975036e-04,4.674310494237030088e-05,5.644457079257976344e-05,1.859911501221511352e-05,2.772193804865967547e-04,1.746312042366586883e-03,2.961493817659206882e-04,5.435410069946403078e-02,5.275336086060167717e-04,1.283768091419202955e-03
3.135185324316293732e-04,5.719663631891187453e-05,7.693765119770185068e-04,4.516654420305301731e-06,5.146246353867732091e-05,5.653957106342732183e-04,2.797116655688205653e-03,5.445299861671547975e-02,5.942347795473057383e-04,1.316952954517559751e-03
3.048406446238972455e-04,6.785097858762672652e-05,1.245214117226952017e-03,2.584692978412878148e-05,6.226071808898474909e-05,3.478847237057377173e-04,5.611625212321733405e-03,3.783056836425895825e-02,6.459510277923586610e-04,1.151417246986421832e-03
2.991838309493210276e-04,7.823033746076011588e-05,7.796948571959026308e-04,4.507177694575358561e-05,2.450192626788451670e-04,2.386493578967669219e-04,7.402232967062918369e-03,1.246312995328273041e-02,6.815657196474524939e-04,1.033353222138572386e-03
2.961744849944530867e-04,8.787581028490981530e-05,1.845584632002206422e-05,6.191549819734952357e-05,6.451745999960625583e-05,1.807297310490415035e-04,7.894612989605753750e-03,8.200803319347124698e-03,7.003482842237888700e-04,9.925280188401925437e-04
2.948239207229817358e-04,9.635910347083975573e-05,1.907280374500592559e-04,7.615257862972956500e-05,7.659008051199096747e-04,2.721347244468419729e-04,6.328068867134481468e-03,1.969061716386108149e-02,7.019750768266647947e-04,9.168656850331939048e-04
2.951062429484794256e-04,1.032951173782817832e-04,2.510114848795833427e-05,8.761301037064218704e-05,1.264294135405965745e-03,2.197760950786109774e-04,1.578684933791098385e-03,3.244156430901040666e-02,6.865350827727932301e-04,7.938360319121929611e-04
2.976580267200918664e-04,1.083529368231316519e-04,1.126817827815449879e-04,9.618692368302038745e-05,7.724915152920700141e-04,3.064374513307753858e-04,4.627918016718324604e-03,5.441693095701756466e-02,6.545225012138915091e-04,6.786781032524375748e-04
3.018856978222966381e-04,1.112651429907094688e-04,6.310621163803575910e-06,1.018268825936960415e-04,1.905210910188299793e-05,4.523854588350412773e-04,7.063485750201995567e-03,7.488289143265464132e-02,6.068221775011833734e-04,5.810346204211418912e-04
3.058859624901265968e-04,1.118352503633189869e-04,5.442799324690499702e-05,1.045474442688818016e-04,2.305620377679185051e-04,5.230821291923716618e-04,2.513772227463409274e-03,7.911284141921264002e-02,5.446873740820585945e-04,4.783667979064433170e-04
3.098145327014804732e-04,1.099429717682712921e-04,3.138699141312001654e-05,1.044248147673633746e-04,9.322271585629409254e-06,5.520861673415829998e-04,6.122354668110740333e-03,6.818480156380860024e-02,4.697077753001080024e-04,3.691181084584991656e-04
3.164861551283632175e-04,1.055471524573856892e-04,3.621984765610114011e-05,1.015975119071746999e-04,7.666736158644702577e-05,6.010940913022477057e-04,1.369365732709075176e-02,5.031710382104880031e-02,3.837689410051985019e-04,2.670040265758247050e-04
3.245529737251506191e-04,9.868635572480259762e-05,8.636130382420146982e-05,9.626223862725983259e-05,2.930690681407511073e-05,6.538289189218763784e-04,1.761229087933182183e-02,3.024913801699533403e-02,2.890054906428378293e-04,1.759714763250783652e-04
3.269295820721918240e-04,8.947711633300119930e-05,1.246178558398438078e-04,8.866296989869556350e-05,8.172114808100241524e-05,6.802437565468747067e-04,1.686355641687830101e-02,1.566082075263763515e-02,1.877490052869939543e-04,9.249230465491874587e-05
3.251929531927615102e-04,7.810990966667261614e-05,1.429007314012456162e-04,7.908572862201028019e-05,4.637767476279668316e-05,6.870139747363080427e-04,1.103941040916691686e-02,1.092937931758680356e-02,8.247132882270194032e-05,1.724678247819392391e-05
3.334151844971979472e-04,6.484296488885193683e-05,1.754693791190680449e-04,6.786401002210985041e-05,3.632834588283393205e-05,6.881069927169716294e-04,2.442616857846746647e-03,7.363120387616164768e-03,2.427528195259019570e-05,4.587073737596962319e-05
3.476112122813245203e-04,4.999412787635496816e-05,2.213153977439749403e-04,5.536883912601927579e-05,6.879435009488169299e-05,6.807835308131076789e-04,5.913698837668235342e-03,4.514526728618808993e-03,1.299194358687817555e-04,9.528983526496833095e-05
3.367512137348862775e-04,3.393102739764546983e-05,2.441562925903688016e-04,4.197272138483963086e-05,9.064016134052091248e-05,6.590785961171987967e-04,1.490648104647034934e-02,2.141301316621639639e-02,2.319318777381858710e-04,1.314117240649737559e-04
3.077625757458243871e-04,1.705983733860285732e-05,2.506729715540960868e-04,2.804335276335772885e-05,9.252956700387266744e-05,6.251876754122322492e-04,2.596431973493052228e-02,5.863590066094186842e-02,3.278854242244142597e-04,1.540467715246190896e-04
3.264589300297185588e-04,1.870304004330051713e-07,2.974020309292134509e-04,1.399215244858269253e-05,9.890821272838018127e-05,5.832683744924028676e-04,3.438355993517491077e-02,8.077788269193231230e-02,4.155121363188391263e-04,1.625715719754585592e-04
3.792916067066851873e-04,1.736393507172541230e-05,3.649568961254047775e-04,2.596789725627201808e-07,1.144350081370332543e-04,5.339994309808550159e-04,3.376241837852980709e-02,6.625256525220603321e-02,4.927563256584448822e-04,1.571419523632016388e-04
3.249177928212014640e-04,3.402533414767938864e-05,3.382239980415706836e-04,1.281794601678208138e-05,1.270803408719991211e-04,4.773750225116275879e-04,2.647525415302569990e-02,4.080448250988855802e-02,5.578221665652768977e-04,1.386329268089682724e-04
1.881751672284465919e-04,4.973903856843601474e-05,2.552567050215492623e-04,2.501046252004431768e-05,1.332476036022190629e-04,4.152381797247293592e-04,2.172084823007747884e-02,3.515956867725476831e-02,6.092148456698009626e-04,1.080560979238005619e-04
2.741065289964607116e-04,6.409900964804771182e-05,3.595961730942493330e-04,3.593614351343026850e-05,1.386587813636190429e-04,3.499491423364119234e-04,2.254624175084326762e-02,4.078536825762781731e-02,6.457743107043799769e-04,6.655448589973825117e-05
5.470132200768056856e-04,7.673732513423376625e-05,5.830528457432843526e-04,4.507807001214360224e-05,1.466841342606339761e-04,2.831242216216665972e-04,2.236372975531858431e-02,3.133748267964533291e-02,6.667008504799394001e-04,1.563739277351060790e-05
