7.695250628984753871e-02,1.086073605757874490e-02,5.180873405300871759e-03,6.466394473361179555e-03,2.659907565102934482e-03,6.398742916786106898e-03,6.347919041633486026e-02,2.803226919038599024e-02,1.069645874273889539e-02,2.793633106553077006e-02
6.542828934191260992e-02,5.260518769081149078e-03,6.263609334048000042e-03,6.524343124579134491e-03,2.798264132960670211e-03,5.971991379702697514e-03,7.387066555918131439e-02,2.783199574605690202e-02,1.214838698329701212e-02,2.066902715739305299e-02
6.227508278598656993e-02,6.802766928473478678e-03,7.377638216130294815e-03,6.521344716352982240e-03,2.934545515047295387e-03,9.026603865434358956e-03,7.446904440761722976e-02,2.793062245763069593e-02,1.361558273368740531e-02,2.054938530359807711e-02
7.297645029335968203e-02,1.842744557004223280e-02,8.399777067174301476e-03,6.459589634187805525e-03,3.042886901328251039e-03,1.238667171842127920e-02,6.576419756183800314e-02,2.929179210102624345e-02,1.508804963342753012e-02,2.390843247513646866e-02
8.795134700991724674e-02,2.794031249819590307e-02,9.440961558335099826e-03,6.341216762755536029e-03,3.133534789498894964e-03,1.396856271160388033e-02,5.773511751977579431e-02,3.121683706922422780e-02,1.667556511760219864e-02,2.696436820370134296e-02
9.538067150720856702e-02,1.941001681115377478e-02,1.064960454271100462e-02,6.177153800980081204e-03,3.262576615180109215e-03,1.476597029320128422e-02,5.771726500487637385e-02,3.263799588699444615e-02,1.838191140612737209e-02,3.064523381915305530e-02
9.407803418189404632e-02,4.307966084483694225e-03,1.174651733195817074e-02,5.982889360180715030e-03,3.409346621195898704e-03,1.467968548842670147e-02,5.667571851069692218e-02,3.212370243595086966e-02,1.995094639328162667e-02,3.404540497252845493e-02
9.371428747462544340e-02,2.097302584413186094e-02,1.242011026099084682e-02,5.759002218277527174e-03,3.454307158299609309e-03,1.133965450446173390e-02,4.052915986316715097e-02,2.892622735783469817e-02,2.134762988764065186e-02,3.419645229330238456e-02
1.032562662580675944e-01,1.462611090681717463e-02,1.324905415245270293e-02,5.499108397318868725e-03,3.440252112196705465e-03,4.931073496524392141e-03,1.356861879600201361e-02,2.539305644904165868e-02,2.311180950753127100e-02,3.345309090009321307e-02
1.187322165740032076e-01,7.025470175995618058e-03,1.491256852987346213e-02,5.230998386008819251e-03,3.628270614566611856e-03,6.264713773525575936e-04,6.738108243021422895e-03,2.494184862617366411e-02,2.530159984288493646e-02,3.470413766000161188e-02
1.253628913314235038e-01,2.510987068286284554e-02,1.610039626621974362e-02,5.000027933145560592e-03,3.945189739465007443e-03,3.229774677797249242e-03,1.598428009900025246e-02,2.647409473756318424e-02,2.639712246048091238e-02,2.996737834910004686e-02
1.145004633738624517e-01,3.068296250284317447e-02,1.442096150372683579e-02,4.780061548698517557e-03,3.791428716215540767e-03,4.572174869188859805e-03,2.379053923452900329e-02,2.489979895696606965e-02,2.504037838508942765e-02,9.307768649642181313e-03
9.336268194064935300e-02,2.706641572454186392e-02,1.025161397019761986e-02,4.505697084626123297e-03,3.056675412317571595e-03,5.337246494455006804e-03,3.184226467372964359e-02,1.793873105287847533e-02,2.296940369649200231e-02,1.941478408995619270e-02
7.135048642528103724e-02,1.968479735251721721e-02,6.736240664296366289e-03,4.262491807583546240e-03,2.691943253907241613e-03,3.750578347915236189e-03,3.168527057425776783e-02,8.391927379455738079e-03,2.355513704000188405e-02,3.660912047818651316e-02
4.338609482125369010e-02,1.194348331309985980e-02,5.082317621110075088e-03,4.225229735722159895e-03,3.313503789157090998e-03,2.657739068435805525e-04,2.164196623082056611e-02,7.610980820028597806e-05,2.616707725751663688e-02,3.618616505680515710e-02
1.581723618328960239e-03,5.256823699030578091e-03,3.528939698514532708e-03,4.253204681888390383e-03,4.112044890784953208e-03,1.529045861975922641e-03,8.740710649444288771e-03,5.514069264268475073e-03,2.503486137476168549e-02,2.828815651204212578e-02
4.072408462522423417e-02,2.379442714158143922e-03,1.494692910807548895e-03,3.952240744141332848e-03,4.262874872118720820e-03,5.175195417115821973e-04,3.135581351804303269e-03,7.131246574762555197e-03,1.667082018485627898e-02,1.915842225700702811e-02
5.833990912305164755e-02,1.289822191516431897e-02,7.096003419123098890e-04,3.380707800941175952e-03,4.260098874745411879e-03,3.463373298068797785e-04,1.494372478072503174e-02,5.864749738607805823e-03,5.822115047363969620e-03,6.652782104217404117e-03
4.867074194517832103e-02,2.221472991344072140e-02,2.192854596661293013e-03,3.069893320912221897e-03,4.595470181122337551e-03,3.845084382805713259e-03,2.651621331995869871e-02,3.947023019455943825e-03,4.079897974517245410e-05,4.683030808880170662e-03
3.354984521537750231e-02,2.327738987799900933e-02,5.692096714767962487e-03,3.273672848918994169e-03,4.522209734434943541e-03,8.095951719192601842e-03,3.643288266581205109e-02,1.229000426059905296e-03,4.936581938975405023e-04,3.607379215529877767e-03
2.153174604605877229e-02,1.459312705481050770e-02,1.127820312412798620e-02,4.083183478616278332e-03,3.624272032047737725e-03,7.882133477321315654e-03,4.266961946631243896e-02,4.492648036837959893e-03,4.147456103652115422e-03,8.441166972095646981e-03
5.698443114110293348e-03,2.401055280184541396e-03,1.816134587852922047e-02,5.521209884311438325e-03,2.769955095717078954e-03,2.175091554687913313e-03,3.926866239704239481e-02,1.002047778470947434e-02,8.975907319958618610e-03,1.538930014966408306e-02
5.083504201952375456e-02,3.725047446526472475e-03,2.302519734696291398e-02,6.071665889722296233e-03,1.479755358603705457e-03,6.170691843991011477e-03,1.843189316825365534e-02,4.697119933339120867e-03,1.279030806978598278e-02,1.078905020861469638e-02
6.842310865521092356e-02,3.054903302078530464e-03,2.294997939016494085e-02,3.150285718772617011e-03,2.960795949441817274e-03,1.514697908164315196e-02,1.958446412785104160e-02,1.790642631778045085e-02,1.021894017087625513e-02,7.716807804953215201e-03
1.420556768071619749e-02,2.058908606699024618e-02,1.971946142423956078e-02,2.707535602406365739e-03,1.061734309448762736e-02,2.324057810353362050e-02,6.063708137849686125e-02,4.871221886934489625e-02,1.228611813833607822e-03,1.556629425205171939e-02
8.249598795885472458e-02,3.704143905687855981e-02,1.819184381331736405e-02,6.974151874602820336e-03,1.620976413577508712e-02,2.647381191560307240e-02,8.433148835267643972e-02,6.955826616030315324e-02,1.547882831585903861e-02,2.298644805158069418e-02
1.435490903974055710e-01,4.119802490010293639e-02,2.004891190557891306e-02,6.783334538458541015e-03,1.510467776960005941e-02,2.165284106788025950e-02,8.067929936124683399e-02,7.097963811886909280e-02,2.385629808117600836e-02,1.591486226652306935e-02
1.369642930562289806e-01,3.313167302218091720e-02,2.175138991909714506e-02,4.385342433912708254e-03,9.308007184038982057e-03,1.153707171983247605e-02,5.916041749021835883e-02,5.963563914941335392e-02,2.375439987468327963e-02,9.476792200869590651e-04
1.002189712942449101e-01,2.036023329144674363e-02,1.873111516760941897e-02,3.531619784915391528e-03,4.430337880882558206e-03,2.425938342741464863e-03,3.951362440166587831e-02,4.795853308123219222e-02,1.920306311572364880e-02,1.344706529546801921e-02
7.392055389593325809e-02,6.637018351279748082e-03,8.776647234300414407e-03,5.479597170840754851e-03,3.296266209364327911e-03,2.310379777943901564e-03,3.452936914454413780e-02,4.125346194510186304e-02,1.738588897409374875e-02,1.761153790609379377e-02
6.088120268131396590e-02,8.466382090451691003e-03,7.948013969411986748e-03,8.935539230214161258e-03,4.729166291930946356e-03,3.557069355881135701e-03,4.128711827775946586e-02,3.702214279137391872e-02,2.450806958928079815e-02,1.790615914353268015e-02
5.397982771480969860e-02,2.154663947712957134e-02,2.796078729319363340e-02,1.133509285320880890e-02,6.204919992097826346e-03,2.948756247093790601e-03,4.825732567044591775e-02,3.234402389640858577e-02,3.925900357037583749e-02,1.501237781623682849e-02
6.418789756223501619e-02,2.592139109409142064e-02,4.359929490662899781e-02,1.059983949632716665e-02,5.856599443422274252e-03,9.349729361781966563e-04,5.350504167947819217e-02,2.776266444547053486e-02,5.138283396966523281e-02,7.366012839195123021e-03
1.021051177219693823e-01,2.123068713626236406e-02,4.753793508259043094e-02,7.356654978862531627e-03,3.298213224068027079e-03,1.697189498057035274e-03,6.861634635369018298e-02,2.508057010178767199e-02,5.190405964291323893e-02,1.349019957246626496e-04
1.505258332458488113e-01,1.511696829235763956e-02,3.979927203702572636e-02,4.645324407689393684e-03,2.834721817643512908e-04,2.814503670143632744e-03,9.422318998280260205e-02,2.395333295797139744e-02,4.280609946600222315e-02,1.499167834068984052e-03
1.805689039791920636e-01,1.241864024599232189e-02,2.871685404754571042e-02,4.811172686162557173e-03,2.994008382282511895e-03,1.642033523118920568e-03,1.078057952405997166e-01,2.248248716244634696e-02,3.281900276043343834e-02,7.963605049582699394e-03
1.906614642897492828e-01,9.234476810740081115e-03,2.388413359197898850e-02,7.592792928698783791e-03,3.412292536636238847e-03,1.433565927811029754e-03,9.528066108000782242e-02,2.133114251560612809e-02,2.646403737230488759e-02,1.620363279332454618e-03
2.010864431238089667e-01,1.214422034180709636e-03,2.770482970264321471e-02,1.107858179864110344e-02,1.640759157435507003e-03,5.903210095543954573e-03,7.488448845280853972e-02,2.375477702434556498e-02,2.101029623132863108e-02,2.950762277933228345e-02
2.105636750631462439e-01,9.151150183838134208e-03,3.406000389008834173e-02,1.348874878373277492e-02,3.000940560089327249e-04,1.289778618076894631e-02,6.661792324082017880e-02,2.956711771245730189e-02,1.283770355980241168e-02,7.193585916775610545e-02
1.948657734265672459e-01,1.704996953083433298e-02,3.558945085230271616e-02,1.423018438265106177e-02,4.402372384321416587e-04,1.582152575507363851e-02,5.897484398471049966e-02,3.339077559990422106e-02,3.136209562614225219e-03,9.772020699502038943e-02
1.531431276446409695e-01,2.117630882613258728e-02,3.078505615546298438e-02,1.431691213457734514e-02,6.988797193176871352e-05,1.237118610843757766e-02,3.204963974691922568e-02,3.164721019782957417e-02,4.043670868864465695e-03,9.393830781907630545e-02
1.159374172540760389e-01,2.251405180561731612e-02,2.307429160513681937e-02,1.593744176000515267e-02,3.009003149352830128e-03,7.889534466747217395e-03,2.877566649380561281e-03,2.739772824905327420e-02,7.214718602896384898e-03,7.264980112480545760e-02
9.860703899835671082e-02,2.111457027077876664e-02,1.559370359392593317e-02,2.023131276101461720e-02,1.011201580130156180e-02,8.178445373076258587e-03,1.509398098458175283e-02,2.584913103795900488e-02,8.378242311485116500e-03,5.297718418167085552e-02
8.359626123868313385e-02,1.705488357270783240e-02,8.822668340477499149e-03,2.477558696547671815e-02,1.655110483988148085e-02,1.195398820088374413e-02,1.478286709974187610e-03,2.792246567495195592e-02,9.580073155562137538e-03,4.129347077666509908e-02
5.723013388381613387e-02,1.467780000316121561e-02,1.748875239613327439e-03,2.522405945389949097e-02,1.701628033738338680e-02,1.331151098946440660e-02,2.318941852225033656e-02,3.003469058915620229e-02,1.111584156825379602e-02,3.091650271176797291e-02
3.003252273177487580e-02,2.066917118865081726e-02,5.603677109148230001e-03,2.093014652403746290e-02,1.218637767868684454e-02,1.011475935544115141e-02,3.693358826398239481e-02,2.831562261509963999e-02,1.241912374625097140e-02,1.784047223826546597e-02
1.188105513818802327e-02,3.373869647808042105e-02,1.073304717342241608e-02,1.645671394719824127e-02,7.180862424445995373e-03,5.881442673121422930e-03,5.854710978854649889e-02,2.173144197183456833e-02,1.271893593512054589e-02,1.138380809087523315e-02
1.547800380030002476e-03,4.434284307394114472e-02,1.172223671515676066e-02,1.538328977518966210e-02,4.745337866764355247e-03,3.373080287686999745e-03,9.923402352710648799e-02,1.280670921251685773e-02,1.197856647654534784e-02,2.344085310973665487e-02
7.210107876828585755e-03,5.045463993248609780e-02,1.077814903924549650e-02,1.628232620491314869e-02,3.918382719803293994e-03,1.674470170075997508e-03,1.375710243714399483e-01,6.595410375035280076e-03,1.127504223012101847e-02,4.914242809718130656e-02
1.092974750875843303e-02,6.126753375226210580e-02,9.489240653435693923e-03,1.798643006743044434e-02,5.051695802032779743e-03,1.418881048334226687e-03,1.454268155126713091e-01,6.748825850874889606e-03,8.805838369899669782e-03,6.854264557611136621e-02
5.159582555002251159e-02,7.813626748476198980e-02,3.168982979345858191e-03,2.330936933157662719e-02,1.043579807405075645e-02,6.352668630122680279e-03,1.238199186204337887e-01,1.093065936814532207e-02,1.771143738938123777e-03,6.914241300346105068e-02
8.441452807939671399e-02,8.580374692908958323e-02,1.139672176809166174e-02,3.225646333088263984e-02,1.815504228776379514e-02,1.549563602083691045e-02,9.147532705681434007e-02,1.219309341552478852e-02,2.140596608517440422e-02,5.627259671619873338e-02
8.334364881018051230e-02,7.056607221949522113e-02,2.646519400759652155e-02,3.765006703123204707e-02,2.128296825364254033e-02,2.004252007872142638e-02,5.423830142786126990e-02,5.837106104255055002e-03,3.823782093980398339e-02,4.054366666268772318e-02
5.415877156851860857e-02,3.749056784287681243e-02,3.190598130502968893e-02,3.411414564547632366e-02,1.646844187565014647e-02,1.372181949122575247e-02,8.738166411727936803e-03,6.780055613607396774e-03,4.029246396124745028e-02,2.682100595288222991e-02
1.829100306649924373e-02,5.572782965760589638e-03,2.823753337247647890e-02,2.604721343587484972e-02,8.474055219341166192e-03,1.438398672031559978e-03,3.610587268744025469e-02,2.039463941480910633e-02,3.083322582986751728e-02,1.573997984556298191e-02
1.485798015065695893e-02,8.537653494104371216e-03,2.170870674936808964e-02,2.064590583932690224e-02,3.260349873425175127e-03,7.482952389107226654e-03,6.362540748330919316e-02,2.987310543549446043e-02,2.120926119319712158e-02,5.107019330332956270e-03
4.931851283648738121e-02,3.062375659480101597e-03,1.311584272066904436e-02,1.784834347246713748e-02,7.506981317129905046e-04,1.068587933547107162e-02,7.117593068877588192e-02,3.373249638462665762e-02,1.431789184222690380e-02,9.750341901489774366e-03
8.664414744126934520e-02,7.774489787104158639e-03,3.969815809480094519e-04,1.255975121836966878e-02,2.735309555392556602e-03,1.276925783051783073e-02,7.251015809691566116e-02,3.520935200424854528e-02,5.116131478320818174e-03,2.921216322077251765e-02
1.189254230136747859e-01,6.611496130846612751e-03,1.329164134167213664e-02,3.303098212777522136e-03,7.923111726679686953e-03,1.679999266078507567e-02,7.903820790318152878e-02,3.849248193029889548e-02,6.437448869151812282e-03,4.598922342930178431e-02
1.362873426409306754e-01,1.117623541529078404e-02,2.113490567904973208e-02,5.652829304435259827e-03,1.132336399255999895e-02,2.031411939976238146e-02,8.730836199818549359e-02,4.340141690522757167e-02,1.183808837055762460e-02,5.431114109025285408e-02
1.369159579683597860e-01,3.584815854472436780e-02,1.981546504462223038e-02,9.170192122617229491e-03,9.470083207845404749e-03,1.907423280734153737e-02,8.624883416580814144e-02,4.523332267691872882e-02,4.240438520604902957e-03,5.692792752627266750e-02
1.291912234902248546e-01,5.532081512132452916e-02,1.247482542823994886e-02,6.199063511326314072e-03,2.892185965767875636e-03,1.233923137529697837e-02,7.217692487533240719e-02,4.048467674576421149e-02,1.178532020063264955e-02,5.773222407603341433e-02
1.240953146436692273e-01,6.470600916134942870e-02,5.950438097051379688e-03,6.913097516184456282e-04,4.050354524533128671e-03,4.143116011881939516e-03,5.365963568519515475e-02,3.169144817217604826e-02,2.359913691722075393e-02,5.463282947578557147e-02
1.247402180758174911e-01,6.584844682160924390e-02,5.178841426384920427e-03,1.825618812548057907e-03,7.036889093930890141e-03,4.410706689208387541e-04,4.304819715468553853e-02,2.539753817564809404e-02,2.315720728937839534e-02,4.596633705792398106e-02
1.251596015539322149e-01,6.229804155392365539e-02,9.770399357170096374e-03,1.224440278627367089e-03,5.063126453471065644e-03,1.456093956829089585e-04,4.644956811240018996e-02,2.567572248685863825e-02,1.302145583375003898e-02,3.761912177790302514e-02
1.207072648727375019e-01,5.576796096457681262e-02,1.638309695288273776e-02,8.163136334220621321e-03,2.248123139407498224e-04,2.305249643703077052e-03,6.137674424356965447e-02,3.091141801543988155e-02,2.524804891349160781e-04,3.737752798245205094e-02
1.162967482824465021e-01,4.707947029895298563e-02,2.260474902878012102e-02,1.550214116430174809e-02,6.518335861800695144e-03,4.407487232022430645e-03,8.084412801979555530e-02,3.663458810223420292e-02,1.358965359058500293e-02,4.641324544937269064e-02
1.212709986083335412e-01,4.023698688250726407e-02,2.689994346046003376e-02,2.130580354516300318e-02,1.131684829472284423e-02,6.322800179548949441e-03,9.920297879601817914e-02,4.001378529419185454e-02,2.651636412187476435e-02,6.038796528687839782e-02
1.365418352890522824e-01,4.164505846920045495e-02,2.785045187385827570e-02,2.630692011921481610e-02,1.308343208316844163e-02,9.202604217697585298e-03,1.148235773805214022e-01,4.127482176808985187e-02,3.725339150458116533e-02,7.429864406406222477e-02
1.507589741862521426e-01,5.214954970744548057e-02,2.655638137870287158e-02,3.167264873242579826e-02,1.298311988904468119e-02,1.320455112646538171e-02,1.270924303548526813e-01,4.174960996611941366e-02,4.321561871096202267e-02,8.387115151691577897e-02
1.550753648079363500e-01,6.430124424470695654e-02,2.739020664969542967e-02,3.672996834034056995e-02,1.336812845894688913e-02,1.782801136884177781e-02,1.336997410883827564e-01,4.208374860478569096e-02,4.448284282646854104e-02,8.812114136209184267e-02
1.568274570873838536e-01,7.166047557306078064e-02,3.289001719286883951e-02,3.967292224071015949e-02,1.474552924991316509e-02,2.264747594953419457e-02,1.341314373092667711e-01,4.285976416939625555e-02,4.400732677080076982e-02,9.146064069242551553e-02
1.641592135379355832e-01,7.602355946359262706e-02,3.903592330149439210e-02,3.880877503513451704e-02,1.594717115446246322e-02,2.625221431131332869e-02,1.315241515723889199e-01,4.470697127812957306e-02,4.331388956652571648e-02,9.623232049739952054e-02
1.631538835658646047e-01,8.053745944775282661e-02,3.890292302156996007e-02,3.306114488530920159e-02,1.597965057481366691e-02,2.548812483551555694e-02,1.263644309226067686e-01,4.600402794569347781e-02,4.032291277314961619e-02,9.484815736625074045e-02
1.341079219208050621e-01,8.006832148634447643e-02,3.114423118282373323e-02,2.405308299467997721e-02,1.437687123350753562e-02,1.855036465494541709e-02,1.145366582954902984e-01,4.294318099121920140e-02,3.370606966493223250e-02,7.882727844711912013e-02
8.573339974574890887e-02,6.620604189708631515e-02,2.183809071037666125e-02,1.692920465466144636e-02,1.143744022060420515e-02,8.955920250288506093e-03,9.600708674389232811e-02,3.418492422777745510e-02,2.698951757441123492e-02,5.314517691904817320e-02
4.526227032099214287e-02,4.245546072322900488e-02,1.681985169131553284e-02,1.557690355980851857e-02,8.875406463538102614e-03,3.234743349712412234e-03,7.690701577552869206e-02,2.341689680053451669e-02,2.453091501838532834e-02,3.189560734750609972e-02
1.999401335617710315e-02,2.529757140783399708e-02,1.530258707394754197e-02,1.795098800041178971e-02,8.395000589787458140e-03,3.625356971786767094e-03,6.016761273889469075e-02,1.561260754891070565e-02,2.493649036157326651e-02,2.220912828726314542e-02
2.392442153668274119e-03,2.256359359424657540e-02,1.312064474315119411e-02,1.918580361139803417e-02,9.261956021795447400e-03,5.396267652985120566e-03,4.324526956313188425e-02,1.251514154508201471e-02,2.289790524736357372e-02,1.853862683470199751e-02
2.249968323839198273e-02,1.932906668457733471e-02,8.456035297601683515e-03,1.784588530784790919e-02,9.001145344411855265e-03,2.398200138032294433e-03,2.471694805591335975e-02,1.244257794089943976e-02,1.682751061318916649e-02,8.982280205664638570e-03
2.816914232557224049e-02,1.003041362668778344e-03,8.959385411455682291e-04,1.617821915037071651e-02,6.554101625299886200e-03,6.082592265542908355e-03,4.952970824234469854e-03,1.228467902766250744e-02,9.949233129456823768e-03,1.409427222754260078e-02
2.085005637635017894e-02,2.917052852361834078e-02,1.051228643669220066e-02,1.606053745115285092e-02,3.552316862346976186e-03,1.474993235467630080e-02,1.623492887139723478e-02,9.143561520033623505e-03,4.209192014108348659e-03,4.460883109672787727e-02
1.838901710022367020e-02,4.258430426186340934e-02,2.319096944439848207e-02,1.794922611778943314e-02,2.875003987384965563e-03,1.800310469286916376e-02,3.663786654137532461e-02,2.145421695561312327e-03,1.724648897979364978e-03,6.652338865755069719e-02
3.278315323546480975e-02,4.020866593936987116e-02,3.024765327743387383e-02,2.195989896058529040e-02,6.093952866167478589e-03,1.551346221262282256e-02,5.182592552688014553e-02,7.050402614614848483e-03,8.557289458008571215e-03,7.152640582135673386e-02
6.053796170675426747e-02,4.286074677360605240e-02,2.959987484828116230e-02,2.671666571813935062e-02,1.107260137109863062e-02,1.181253643226582752e-02,6.257746242793077451e-02,1.669628756521163160e-02,1.551250787100395823e-02,6.721996362202230235e-02
9.085435472397211665e-02,6.041148888535612799e-02,2.820211399597577842e-02,2.923662304204227569e-02,1.311839736089390716e-02,1.080511783395566444e-02,7.720298545897551212e-02,2.623795186734859813e-02,2.269625331177561184e-02,6.512627427101792821e-02
1.134377657496769276e-01,8.077613420376127118e-02,3.202155485439402843e-02,2.890680801466305114e-02,1.055694453195120744e-02,1.215836318520603469e-02,1.034615690873377930e-01,3.408798953606225618e-02,2.995672308593217217e-02,6.887349307349879823e-02
1.255152363469076437e-01,9.275962377989677154e-02,3.846295539187136875e-02,2.911411373165150376e-02,7.153686979881492165e-03,1.376503582129433474e-02,1.402483058997686660e-01,3.806994881664642338e-02,3.546221966645407564e-02,7.589116601537880535e-02
1.361145602384908615e-01,9.910906279058824542e-02,4.271523681037871223e-02,3.269164994377397881e-02,6.794681250987441232e-03,1.541149201943956860e-02,1.766837708126501871e-01,3.971782683344435294e-02,3.878412340183606116e-02,8.189241261785805415e-02
1.532528116617176972e-01,1.023103778747914139e-01,4.409098451813982938e-02,3.851509490838150862e-02,8.660030050653430220e-03,1.755295377634053661e-02,1.973265057571115533e-01,4.309328134928662457e-02,4.183880713322042644e-02,8.215531701257702824e-02
1.680856659087760496e-01,9.550124153990187381e-02,4.283740475144443699e-02,4.409095247194279310e-02,1.021680332756872214e-02,1.853567443835701239e-02,1.917486119666618749e-01,4.795075280746961821e-02,4.482175726556872353e-02,7.521522374952456513e-02
1.661768456021763263e-01,7.648577343617672664e-02,3.773380431413068253e-02,4.877811633462943858e-02,1.209270795327009249e-02,1.657844341179327136e-02,1.642175292612121640e-01,4.976447304006696715e-02,4.572610810995551833e-02,6.535745058179887046e-02
1.501849246876982291e-01,5.828998716866210655e-02,2.958348207943978236e-02,5.340990841854934001e-02,1.659194581114502298e-02,1.331673357033181897e-02,1.319911864152664427e-01,4.734520868703713525e-02,4.408010542528144338e-02,5.671769695003225226e-02
1.347790539449131297e-01,5.473805232231162415e-02,2.164073727821722373e-02,5.869777675950735296e-02,2.278309745785250459e-02,1.181697427484734199e-02,1.090553692577774236e-01,4.419084002130603539e-02,4.033911485926146290e-02,4.736482491520165039e-02
1.234812945799679124e-01,6.250303070350700374e-02,1.482264639997961549e-02,6.446808951237016638e-02,2.687992999337333530e-02,1.175697782833244436e-02,9.342549253788444419e-02,4.145737082728509493e-02,3.307356139959569813e-02,3.418091949012055236e-02
1.072043663045036399e-01,6.764379690316539573e-02,7.099483748122630000e-03,6.946284772938413066e-02,2.792562625518211356e-02,9.971237940072019343e-03,7.451921117389424809e-02,3.614258567966473212e-02,2.177072296278779670e-02,2.034152916163155245e-02
8.334149975044130576e-02,6.490129261181902531e-02,1.106817602112917425e-03,7.160913013321831833e-02,2.891006493200729346e-02,5.349416615659529500e-03,4.924793524306959186e-02,2.818732006953202432e-02,1.039051989192655082e-02,1.205933231590163544e-02
6.065301406967607556e-02,5.977374046289129356e-02,5.681404358488350258e-03,6.760643864591270313e-02,2.976329619343293445e-02,1.156986453032917209e-05,2.464625519502460990e-02,2.334427594908857276e-02,3.379951263468060699e-03,9.969804885572169928e-03
4.411802695795800922e-02,5.458305970845415273e-02,5.005609852550219931e-03,5.260208128575970948e-02,2.376304423265984331e-02,4.234110561814850848e-03,6.686188168226867359e-03,2.527712940284562379e-02,2.870639763688305653e-04,8.731268482933207675e-03
2.779152365538499481e-02,4.399594083450213133e-02,3.404173053456865591e-03,2.516751859712769088e-02,6.230794837647998276e-03,7.345009569441118824e-03,6.582203393957014592e-03,2.913250621422532396e-02,5.246697944330411430e-03,3.527959848156309725e-03
6.185560095439943812e-03,2.474337508088159110e-02,5.862277766537162677e-03,5.485815021195672610e-03,1.620861588370222511e-02,9.634741815007012017e-03,1.967380482361754529e-02,2.740402543395184173e-02,1.302626616186778989e-02,6.106867894518336337e-03
1.695395685442160905e-02,7.281740074942012753e-04,1.179158694326686366e-02,2.414296639297392605e-02,3.117023851688526664e-02,1.068734532776878868e-02,3.289554273234943094e-02,1.910803756820423499e-02,2.029575473565049804e-02,1.656642243135085166e-02
3.524324226713576591e-02,2.278280326678307557e-02,1.640722130825405384e-02,2.442134904647969007e-02,3.337717607273545800e-02,1.037296462546595001e-02,4.380032096784769458e-02,9.037630160671029922e-03,2.347205644328021271e-02,2.292637229721933984e-02
4.758862112591815546e-02,4.325697231321023323e-02,1.694113213687030786e-02,1.182158242334983844e-02,2.661061477260369401e-02,9.408473140096591109e-03,5.187895823436332321e-02,9.082190621618364823e-04,2.267030466708746736e-02,2.422607922186793827e-02
5.621169957885120000e-02,5.888713771822343124e-02,1.504977727499959284e-02,7.601480172851365902e-03,1.567160275434590147e-02,8.546914332867087266e-03,5.847574660659751733e-02,5.183763831795001886e-03,2.055643573903613922e-02,2.547525177750428749e-02
6.234424131741317376e-02,6.867787493601647253e-02,1.341672270772083404e-02,2.896010326156508302e-02,3.437202086342337239e-03,7.900955072444541122e-03,6.352233177575872247e-02,1.093016320490214702e-02,1.893207583712965339e-02,3.094082263383470324e-02
6.566836488150741558e-02,7.380649100673848662e-02,1.256711162027704561e-02,3.876723426253920329e-02,5.178880250893485963e-03,7.260205111206141128e-03,6.492401044443432689e-02,1.722160542723240664e-02,1.769381252084589393e-02,3.673323319261272146e-02
6.511631439322830561e-02,7.319210607043841188e-02,1.169595320490115532e-02,2.084581417893733093e-02,4.210449720072626315e-03,6.581461295677593776e-03,6.154196134030742726e-02,2.186451457521545322e-02,1.630876158111869284e-02,3.466204391558069808e-02
6.128293120833863683e-02,6.129868766618636750e-02,1.058532785192719747e-02,2.337975345921724027e-02,6.150968097139380454e-03,5.959953104517263373e-03,5.557730451845631359e-02,2.124320527722486571e-02,1.483499826617101086e-02,2.349233250135503506e-02
5.799918208102284450e-02,3.771297165274757612e-02,9.599330967363860559e-03,7.462203380370760475e-02,1.904196544863878682e-02,5.418420806961747604e-03,5.050469085724600821e-02,1.581675589534684012e-02,1.351817211849584005e-02,1.174110367882302310e-02
5.697120148269060880e-02,1.403077125007351489e-02,8.847742451502653427e-03,1.173325080013221111e-01,2.981511435418030334e-02,4.913860244267107338e-03,4.699820122734321703e-02,1.043489708736130769e-02,1.234055467006280743e-02,8.043371398793630611e-03
5.328327410458032209e-02,3.233623968620761430e-03,8.165190222317514346e-03,1.483353263809401856e-01,3.990189133431862323e-02,4.435250468893057151e-03,4.314862335861033293e-02,7.691758413361013749e-03,1.119352188118541425e-02,1.226820165113933110e-02
4.352530527631254947e-02,6.631624986982807141e-03,7.498901356935785273e-03,1.654905516388646136e-01,4.977007741963372645e-02,4.001728006671458927e-03,3.852159958447488181e-02,5.495290825827106249e-03,1.008862442077047145e-02,1.690422920274906732e-02
3.408231414717252661e-02,1.674208048927278147e-02,6.923605734554283062e-03,1.623650167035610714e-01,5.432212490775444047e-02,3.616898582196551720e-03,3.496137745716459272e-02,2.427388440110454532e-03,9.079702626802939672e-03,1.519757030868630794e-02
3.220919694266795308e-02,2.759462032468638568e-02,6.460426559609702343e-03,1.376267998695932249e-01,4.906290545511359652e-02,3.269189230054792960e-03,3.321154178729097267e-02,8.615039728990445383e-04,8.163185999518192057e-03,8.472745130234360031e-03
3.426112215970194413e-02,3.730780854863924995e-02,6.067825683215554225e-03,1.028475732675751958e-01,3.643551761194176869e-02,2.953320523278468463e-03,3.176222038344505422e-02,3.165079750962627482e-03,7.313339679598951197e-03,4.842306797552514697e-03
3.295441679502188193e-02,4.465466405573052799e-02,5.726485421771769328e-03,7.604448538311858741e-02,2.250010983068184353e-02,2.670498922672879388e-03,2.939677070463673006e-02,7.773646150009460958e-03,6.529417200491385680e-03,8.309906618693907454e-03
3.073003904615941723e-02,4.828269341421435878e-02,5.444831689005375126e-03,6.610992497950368696e-02,1.085228660593841321e-02,2.418475062308399984e-03,2.664576300346211887e-02,1.075166958139324447e-02,5.819813273150512695e-03,1.293452593716217305e-02
3.472924862427014675e-02,4.901387422008639944e-02,5.219645500026797932e-03,6.565872745897213814e-02,3.177406931361327711e-03,2.191454749623240016e-03,2.456078241613939700e-02,1.047170980552536781e-02,5.179906725755387825e-03,1.254674714556825582e-02
4.236029680885395471e-02,4.927319181825712963e-02,5.033320520416484194e-03,6.179953959224930571e-02,1.995864840380061518e-03,1.984884943667885281e-03,2.327514450218600914e-02,9.024282830179712958e-03,4.599357443780560141e-03,1.008715437020848288e-02
4.295374651795617199e-02,4.903136287747263122e-02,4.872625777917709636e-03,5.192752874892735820e-02,7.962660451439531467e-03,1.795691910991857338e-03,2.171543187241502595e-02,8.281683805483360319e-03,4.072745824291840525e-03,1.028314135713510533e-02
3.253062739716903323e-02,4.548825175298262108e-02,4.730590882541993274e-03,4.585402873757665754e-02,1.673681425469217970e-02,1.620183846831092529e-03,1.858795728278453060e-02,6.881085857036565306e-03,3.596485023401723227e-03,1.047169538350947900e-02
1.795722807606055585e-02,3.768338228731573508e-02,4.598125391895489800e-03,5.269494161726556020e-02,2.293206916707570681e-02,1.454053754303855344e-03,1.398497903815381846e-02,3.050411433299410943e-03,3.164019063316062148e-03,7.178207051539957015e-03
7.340246010755263791e-03,2.803479147799759624e-02,4.463416385461640469e-03,6.799021786469439110e-02,2.530854737178503053e-02,1.293497492174754951e-03,9.559070571340828187e-03,1.843309690749188323e-03,2.767441004036989317e-03,3.990774923271113959e-03
3.989871575456547734e-03,1.981022783513509272e-02,4.316219585121841215e-03,7.705574811706486504e-02,2.504469875878082008e-02,1.135354641988722477e-03,6.932124860506411364e-03,4.681440573668444599e-03,2.399999778509665904e-03,4.657267754916552538e-03
8.127816803349809799e-03,1.530827269089547055e-02,4.148550684543107075e-03,7.104459104452570672e-02,2.214178930758414418e-02,9.767048283599473728e-04,6.613019628695825797e-03,3.925537242539637456e-03,2.055613427080393157e-03,6.241221038368156664e-03
1.660778154853893157e-02,1.330552500888485673e-02,3.953015277894316760e-03,5.428997964090728073e-02,1.669579375671298785e-02,8.149017236041607853e-04,8.031495600439746141e-03,4.023167591128419237e-04,1.727925479591818029e-03,5.074931597233070697e-03
2.197525216898484068e-02,8.388509383907687481e-03,3.722761582518926103e-03,3.498558112868718761e-02,1.041608157865218237e-02,6.478517106489081702e-04,9.662391814274218574e-03,3.887315112444201647e-03,1.410747593627964015e-03,1.532001143784372929e-03
1.804974416894402495e-02,1.604645672195170215e-03,3.452517695818297511e-03,1.602311518885875946e-02,4.297609257107279888e-03,4.740728715381232702e-04,9.742773434486677250e-03,6.878479285221419243e-03,1.098717676148712030e-03,3.597832722015766645e-03
5.695189647421808679e-03,1.039873355643548131e-02,3.138835169984581508e-03,2.413294362958332516e-03,2.358028121252143169e-03,2.926174119048785939e-04,7.759316957581844157e-03,7.060481828425077197e-03,7.872910940524496066e-04,9.467036002004020068e-03
9.562823225356243892e-03,1.191817431411522354e-02,2.779763096966966340e-03,1.811258338071926668e-02,9.451950490056853366e-03,1.030748430404769826e-04,4.919254534843304702e-03,4.241108263509539220e-03,4.725978734492208302e-04,1.227278917152125302e-02
2.270274842268256085e-02,9.234513770188516879e-03,2.374831285595039795e-03,2.871429746947754685e-02,1.552070415494557348e-02,9.438094706104419897e-05,2.777610728919379518e-03,3.581556470780977849e-04,1.515816878761736897e-04,8.988489506830357745e-03
3.065448403891582116e-02,9.184164028377867633e-03,1.925246017946642685e-03,3.464748066535943555e-02,1.991826111857306417e-02,2.990030320956925825e-04,1.619114434591225477e-03,1.664747080138387954e-03,1.778269687919795962e-04,2.150513592374242271e-03
3.226106835943250151e-02,1.324622835973726653e-02,1.433884948797314006e-03,3.823475960985841388e-02,2.309115635243048914e-02,5.095247506104231237e-04,5.211940009562162236e-04,1.004012568576413255e-03,5.167034957707190498e-04,3.267484842642906159e-03
2.834524638852171236e-02,1.818966400072958081e-02,9.051318479243813074e-04,4.209260125094373139e-02,2.504082789970307060e-02,7.242059361945733711e-04,1.179536209092798974e-03,3.976688561947505163e-04,8.651757769561323891e-04,4.391276083528614094e-03
2.064226964565056555e-02,2.158964316066091724e-02,3.447472378978276965e-04,4.780179942497182755e-02,2.531652919541254806e-02,9.408777609428125698e-04,3.221863127275631164e-03,7.848453279406655608e-04,1.222430192540142511e-03,3.984026482413660338e-05
1.069786791726770776e-02,2.296846221069135177e-02,2.402384149373478677e-04,5.372399780152297549e-02,2.409759774924041115e-02,1.157007367495482223e-03,5.199989268734792579e-03,4.528387880177822157e-04,1.586728032382949544e-03,9.433171927974324730e-03
7.470586443463420045e-04,2.110130875867333514e-02,8.416963297571396305e-04,5.561726591840517736e-02,2.241721266639955246e-02,1.369777636974251964e-03,7.052635118247956372e-03,8.310667183269381756e-04,1.955475959476729760e-03,1.995542769585675544e-02
1.389912494180889878e-02,1.347770558679405040e-02,1.450624933880629262e-03,5.140884838337863444e-02,2.143928093627958317e-02,1.576169536499413566e-03,8.727846720917998083e-03,3.253998948536285674e-03,2.325325121716832841e-03,2.518954752116669624e-02
2.690116011287534484e-02,5.512074668147224667e-04,2.057381471177979065e-03,4.385848667058539485e-02,2.139191872820860388e-02,1.773046217336450179e-03,1.027737670663111773e-02,7.378908221295732602e-03,2.692275296500003853e-03,2.243059890895478595e-02
3.271877730161946995e-02,1.140027771182526573e-02,2.651916618159408899e-03,3.754352299283854333e-02,2.137463434527456588e-02,1.957241680540739402e-03,1.214142699235451137e-02,9.954938356072489183e-03,3.051792077633254212e-03,1.526926602434286462e-02
2.486524642764601292e-02,1.615131768731852685e-02,3.224026182490827633e-03,3.464878656392555989e-02,2.075866210933692557e-02,2.125651257938186538e-03,1.441438535763931404e-02,7.805007469987199423e-03,3.398944026849276372e-03,8.909862198326411881e-03
6.806385350015754093e-03,1.506777294962051601e-02,3.763612762379561771e-03,3.430192731975417048e-02,2.006897148953946941e-02,2.275319337375177747e-03,1.624963621103068384e-02,2.537619241384749501e-03,3.728551361006360743e-03,4.447912160153645600e-03
1.076564159987757584e-02,1.329877741036080037e-02,4.260941705057802800e-03,3.504439357318766407e-02,1.966144144946109160e-02,2.403522382060629178e-03,1.699031903262106236e-02,1.037744994451490071e-03,4.035337658019099230e-03,3.584996042070455859e-04
2.139002471804603983e-02,1.002282240350901507e-02,4.706885491344284765e-03,3.677010711784758218e-02,1.878662074917828231e-02,2.507846290772313119e-03,1.723393844398583494e-02,1.238183001049359723e-03,4.314082971811599408e-03,6.597922833291121857e-03
2.560247087673583888e-02,7.142931749462184954e-04,5.093154977485189923e-03,3.984080624600178089e-02,1.724687141357865439e-02,2.586256118438408705e-03,1.783220066991487648e-02,5.349425003612362246e-04,4.559776728419408752e-03,1.363685237677320257e-02
2.487426575559474259e-02,1.951336313432119537e-02,5.412511792871275637e-03,4.333850657823497265e-02,1.641356095580876265e-02,2.637155954513316879e-03,1.865877191576359104e-02,2.312022744582329552e-04,4.767765536092701678e-03,2.078120272149478615e-02
1.907912393291071734e-02,3.780183718549116889e-02,5.658954727187969456e-03,4.517010267381067062e-02,1.674295091246287906e-02,2.659437554917812828e-03,1.914157326818785587e-02,1.927398572968171044e-03,4.933891144975080696e-03,2.507291123263085536e-02
9.368620576135156322e-03,4.637645188063285739e-02,5.827875646174912778e-03,4.328943687915536020e-02,1.583664482242519086e-02,2.652516811673672446e-03,1.920182189667270917e-02,7.397300674890652794e-03,5.054615578425139533e-03,2.072670466788064866e-02
7.247323605143794843e-04,4.532283646016593837e-02,5.916182150765854526e-03,3.665858659483158671e-02,1.097335143049513184e-02,2.616357196174105750e-03,1.908008551035640307e-02,1.285171116990204906e-02,5.127130827708072797e-03,6.966524770912967124e-03
3.149214300770791092e-04,4.265723009178805369e-02,5.922384049130320627e-03,2.649394048505929883e-02,2.135493636004670397e-03,2.551479538173129051e-03,1.882010597204611044e-02,1.333670880312381839e-02,5.149450182880153590e-03,7.139402222508452189e-03
1.063276161925937741e-02,4.209107873560530289e-02,5.846641143707578467e-03,1.659345908195935387e-02,8.690441304860255234e-03,2.458957958448527905e-03,1.831661431511087332e-02,8.590680057250239116e-03,5.120478712812105704e-03,1.196741911066765383e-02
2.446369918292825782e-02,3.693521069740340890e-02,5.690771215670202901e-03,1.023872921807759614e-02,1.921811876082916287e-02,2.340402161505977102e-03,1.755939387574930247e-02,3.182514778381649503e-03,5.040061267462028413e-03,7.816122975881998475e-03
3.140676823531710071e-02,2.265278888015116385e-02,5.458218267039070468e-03,6.754960310164449637e-03,2.713716561495739532e-02,2.197926574045967231e-03,1.661503722906997049e-02,4.295946359743660998e-04,4.909006955963627315e-03,1.317093529423050621e-03
2.931902590075282158e-02,9.760926945386813602e-03,5.153981835631306525e-03,3.530082397243345348e-03,3.085055372630270132e-02,2.034107111920915086e-03,1.551209595362213270e-02,3.994853593500473192e-04,4.729089485573703330e-03,4.231417997902568208e-03
2.413447482523186499e-02,1.153078289657008884e-02,4.784509032648923653e-03,8.172104399615512035e-04,3.050039499219798708e-02,1.851926682437271023e-03,1.424770236418313948e-02,8.521373742477005280e-04,4.503023337649210769e-03,9.689143618866264546e-03
1.997352760621737278e-02,2.281709407809917253e-02,4.357551943146066760e-03,1.390840306084566505e-03,2.704059667898843847e-02,1.654710809994963455e-03,1.284085747029889250e-02,1.321075231836841505e-03,4.234416428858074448e-03,1.364519400103842393e-02
1.601643812535778755e-02,2.692579600799317047e-02,3.881993909464986209e-03,5.812483175044389806e-03,2.089784881228660615e-02,1.446054995941790412e-03,1.132927258439955440e-02,2.449402140325618142e-03,3.927700491857690976e-03,1.130657717743604324e-02
1.135994680274331203e-02,2.053065719606031805e-02,3.367648917960599456e-03,1.129983845622999777e-02,1.287009545996080362e-02,1.229745611987396276e-03,9.743564046496835593e-03,4.530534715232278908e-03,3.588040923482986935e-03,1.848662944432265514e-03
6.287984532149725261e-03,1.458905225470153236e-02,2.825038926295118935e-03,1.552880678589637839e-02,5.316808375535095332e-03,1.009676280569547563e-03,8.107614666332276648e-03,5.613748989893841378e-03,3.221228348254032842e-03,7.446276666234400918e-03
3.075322547759283369e-04,1.305818850477942321e-02,2.265154511509940433e-03,1.869107762478377371e-02,6.227018487632978447e-04,7.897617981400082299e-04,6.449846266245765417e-03,3.739047727586465586e-03,2.833554606255431554e-03,8.186978069322376969e-03
6.141969059209278700e-03,8.224770911210838725e-03,1.699204622527254087e-03,2.100674246351620991e-02,1.153298022789239112e-03,5.738517040146814095e-04,4.802172632956727347e-03,3.828357459007062074e-04,2.431676252725296656e-03,4.368677261992752643e-04
1.040682828949520550e-02,3.771415423418350045e-03,1.138361463453651384e-03,2.061838309343436842e-02,1.605050032938779968e-03,3.656455937002059679e-04,3.193609165355762534e-03,1.207526100437963067e-03,2.022468948319435487e-03,1.233246619111885364e-02
1.136956326391107795e-02,1.810480796274660520e-02,5.935066350100358119e-04,1.568157227378672372e-02,1.320284325531911017e-03,1.686122229812271828e-04,1.649973699158106301e-03,1.399008902728519519e-04,1.612876332737711582e-03,2.047831098083262302e-02
1.147908629085247177e-02,3.172553406095830059e-02,7.498462430814809183e-05,7.818826139550453733e-03,3.764486033245704089e-04,1.408565382173297209e-05,1.963832906763320237e-04,3.173933716037776690e-03,1.209757102947676966e-03,2.047220022423404742e-02
1.276346711005228382e-02,4.538248934288036107e-02,4.076304521634909741e-04,1.958965704329761626e-03,3.294962469764172678e-03,1.796589188764876688e-04,1.143791294589295571e-03,5.764638148223783821e-03,8.197340504364770660e-04,1.319148540811117265e-02
1.350765920834361838e-02,5.437387638819968921e-02,8.457492791980401447e-04,1.780881072621307189e-03,6.123389338499212950e-03,3.257506001057888768e-04,2.351648210392171586e-03,5.923291118176712139e-03,4.490487503010604994e-04,6.205538793476920480e-03
1.034284366934956449e-02,4.979424376804850172e-02,1.231957838523411401e-03,5.883227504562831174e-03,8.089317505014322410e-03,4.504838865436870980e-04,3.412077000213288060e-03,3.549891393675058595e-03,1.034254438831453890e-04,6.862736665196086071e-03
2.328094630296892974e-03,3.306892411977781221e-02,1.560179445214178104e-03,9.954684471968478290e-03,8.719003699645094807e-03,5.524985446638049514e-04,4.311236536807901490e-03,1.230531674000323421e-03,2.120525802775660240e-04,1.256555043917003019e-02
6.930927175368436707e-03,1.873979394364570436e-02,1.825804493117705839e-03,1.181033040443459255e-02,6.730869285028659096e-03,6.309749192611356031e-04,5.039012821048538884e-03,1.207763698062175491e-03,4.930511206054221263e-04,1.495005772680628280e-02
1.143138952633016361e-02,1.616449213334822041e-02,2.025784861939449594e-03,1.161835343810731572e-02,1.629729150065601338e-03,6.856450093281850604e-04,5.594298068884770436e-03,2.416928362806255570e-03,7.360751163428089650e-04,1.323124781020820068e-02
9.444716236775273568e-03,1.712368707573688406e-02,2.158690794719964317e-03,8.717585936497823651e-03,4.460781852588456900e-03,7.167904267107259170e-04,5.980342772846316927e-03,2.713718766107641681e-03,9.385384790643134384e-04,1.312693882342256917e-02
7.109734264340618337e-03,9.693790430024853272e-03,2.224728961133960650e-03,2.797148218903647114e-03,8.666953020105472652e-03,7.252273654811493058e-04,6.193998770594523126e-03,2.479301219173620820e-03,1.098812064111780564e-03,1.326209928368483545e-02
1.096059681748484671e-02,3.402086064227645684e-03,2.225721357982386739e-03,2.821515768902231949e-03,1.028079745477368002e-02,7.122790251261601740e-04,6.235281037823154834e-03,3.096515994825231079e-03,1.216248687129815789e-03,5.593222007085957813e-03
1.796666749289066445e-02,9.829111495341803784e-03,2.165045641066768670e-03,4.242555845199257221e-03,1.056924414344759255e-02,6.797362330806487607e-04,6.129987824733010120e-03,3.368824730306179110e-03,1.291184658860209354e-03,9.764310981480346652e-03
1.922395268479410238e-02,5.526465278350750805e-03,2.047538409382755782e-03,2.593458395684398315e-03,1.072822595671920134e-02,6.298072945277410862e-04,5.909182822484581113e-03,1.101268822050799909e-03,1.324917890123819379e-03,2.221549388829167915e-02
1.323290230139407067e-02,1.324527157141375472e-03,1.879363850835839714e-03,2.034065514313166106e-03,1.101762094301228859e-02,5.650583529847302139e-04,5.559508188481261312e-03,2.674661848961617638e-03,1.319663194179641333e-03,2.437810460908153287e-02
7.803158390246015333e-03,2.484994129269834772e-03,1.667850987328374675e-03,3.399455419312842272e-03,1.122410506360093513e-02,4.883457679389748354e-04,5.064534130945879883e-03,4.742023191453590553e-03,1.278485971311804853e-03,1.932908825666964509e-02
7.549148397289060473e-03,2.659143313983620559e-04,1.421303506489637837e-03,3.789041477899786521e-03,1.129696187479654716e-02,4.027422004385131592e-04,4.510524641404825216e-03,4.569602021835351968e-03,1.205215986870241274e-03,1.469268403597187578e-02
7.984566881921860426e-03,3.573733218373912647e-03,1.148786819537215599e-03,1.417158470349798131e-03,1.156363615301190563e-02,3.114582398041529062e-04,3.999328604764512685e-03,4.931439922894139717e-03,1.104343436186250131e-03,1.509013009805055920e-02
4.725280621965130545e-03,1.373113563808026766e-02,8.598975238949339286e-04,1.869862175810071709e-03,1.218202975432916384e-02,2.177615013105100217e-04,3.418406898667720236e-03,7.589805360798979050e-03,9.808999160846058798e-04,1.900498570200473067e-02
2.987001617871106688e-04,1.992057436577324148e-02,5.645208626481996138e-04,2.420716733485151363e-03,1.249530648266146231e-02,1.248951737091548377e-04,2.618803484112194619e-03,1.089645164647490977e-02,8.403272828428351784e-04,2.141209958891516357e-02
1.574860753456147709e-03,1.368882537619148590e-02,2.725820517630674652e-04,1.648092531819234574e-03,1.182365845660078747e-02,3.599799593597292755e-05,1.911965087164781965e-03,1.235736668903581609e-02,6.883376617830321486e-04,2.086700730117201086e-02
1.422841044091849522e-03,5.059210262532160690e-04,6.202516478481563819e-06,8.027882506605072202e-03,1.092850463634008513e-02,4.597240545102041355e-05,1.710377181082723807e-03,1.162960388557328188e-02,5.307680774693336124e-04,2.066318262588121360e-02
8.613207860596896158e-04,1.072833989476864799e-02,2.625681938655218049e-04,1.156827952713384254e-02,1.131316161385490481e-02,1.183109811466905693e-04,1.404428153081937851e-03,9.521838055285926361e-03,3.734332910173789239e-04,2.104887321565278649e-02
3.644469628938364287e-04,1.985217234440062734e-02,4.879332740647184755e-04,8.793799240765693553e-03,1.295989307715190650e-02,1.786298281093228141e-04,1.752730566949145378e-04,5.645173961232320160e-03,2.219804597418036942e-04,1.773026903462476475e-02
2.206331578617003013e-03,2.877146624726742430e-02,6.746129125894663415e-04,1.008660363358699231e-03,1.436107283125607516e-02,2.249143438333620862e-04,2.525719976200630802e-03,4.628110666433684879e-04,8.174917391113448238e-05,1.093379614220927470e-02
2.690932180955331061e-03,3.396851903311709497e-02,8.160106360903523082e-04,7.122606865998080614e-03,1.479563437132007733e-02,2.555696622073093654e-04,3.378422714889051451e-03,6.672858709767261719e-03,4.235972241798345844e-05,6.866391789295302195e-03
9.116497517831698410e-04,3.273467656657808728e-02,9.067828589856621879e-04,1.182337535824274678e-02,1.494774331150152541e-02,2.694563128884481726e-04,1.808925976905800901e-03,9.252302232159760609e-03,1.460033506694746231e-04,7.152952761784859767e-03
9.460224183331936154e-03,2.735178165051492527e-02,9.429724895160083867e-04,1.301468476731279175e-02,1.539320194469791410e-02,2.659143159596519040e-04,2.746833433243008049e-04,6.654874946123459818e-03,2.255011897876594055e-04,5.717597175716670858e-03
1.876889952300779194e-02,2.069865175415391487e-02,9.221084522363500813e-04,1.319677822216738794e-02,1.595412669531225819e-02,2.447752109523838979e-04,6.202189005354622441e-04,1.065708982329311490e-03,2.779221516263539419e-04,5.343023965123563229e-04
2.231089908493620946e-02,1.398993345834340617e-02,8.432687650794110567e-04,1.429122415605599966e-02,1.646230077015745433e-02,2.063618170004048952e-04,7.241454185972025139e-04,3.895870445008425571e-03,3.011522880103004564e-04,5.347182919466094211e-03
2.069297091731417751e-02,6.229238062048178017e-03,7.071057014883277937e-04,1.595470860838629074e-02,1.700675465324701444e-02,1.514758215991543336e-04,1.756738356663177167e-03,6.306855751243709701e-03,2.939415643439768607e-04,2.126247412158707717e-03
2.170822779747740364e-02,5.994025143572392737e-03,5.158325138546905999e-04,1.635896852099108512e-02,1.744010670159042153e-02,8.137359182759074084e-05,9.368962344263726243e-04,6.451346603665430307e-03,2.559286578125726354e-04,5.394490149859400112e-03
2.640863876126550713e-02,2.088134402042676058e-02,2.731720966212928007e-04,1.413033236960998217e-02,1.739845454791741006e-02,2.269113263505048847e-06,1.025798323965465639e-03,5.041811402254270033e-03,1.876432849620630937e-04,7.439064770906979318e-03
2.539232676768120658e-02,2.556223186857172619e-02,1.573118419087555326e-05,9.570383057858344866e-03,1.679552786841473355e-02,9.740258395843796120e-05,2.318414927918058342e-03,2.498018021771326348e-03,9.048612018339351128e-05,5.283387917562551179e-04
1.447623561391673218e-02,9.818289123593679571e-03,3.444343351778261569e-04,4.142164801041639532e-03,1.605482585880638191e-02,2.016575681036996597e-04,2.805187104754051138e-03,1.007848308694162670e-04,3.331308041118564230e-05,1.035727677108284894e-02
2.088081169516053850e-03,1.652002188479093428e-02,7.053501187980180682e-04,7.649788486374070173e-04,1.594501539083117633e-02,3.124072483795771655e-04,3.883676943425931963e-03,1.285777477253639486e-03,1.807579996687361950e-04,1.905260481667732028e-02
4.320484545835821290e-03,3.266530121496714206e-02,1.089929187428253154e-03,4.664575695400437552e-03,1.645747573067592520e-02,4.268352151320112470e-04,5.173956577660700912e-03,1.028330042354983062e-03,3.481672695633766953e-04,2.205461464812688219e-02
6.840907237597296242e-03,3.039456515685670657e-02,1.488865828118047683e-03,8.120405237953431943e-03,1.557900176426594771e-02,5.420077252217183478e-04,3.978042439688577424e-03,9.641545229153971252e-04,5.312728536463989619e-04,1.883518808008118051e-02
7.838430649079939500e-03,1.723532157629849293e-02,1.892322409798978273e-03,1.109186223747182960e-02,1.164987847890794348e-02,6.549484439048426036e-04,5.579851906116523215e-04,2.495174908986732415e-03,7.253327765582504028e-04,1.288809647047823269e-02
4.619867004117960904e-03,2.277655687240867470e-03,2.290166514693077818e-03,1.099939044688840427e-02,7.824187953188942515e-03,7.627138179386818871e-04,5.271574771748814385e-03,5.813355216077663659e-03,9.252553313426397849e-04,9.094986717950897734e-03
2.333709332947118010e-03,9.490998768798372676e-03,2.672214862741617743e-03,5.594796698868222812e-03,9.617583480585011751e-03,8.624672248111191642e-04,6.747291609472213895e-03,1.042882340807570196e-02,1.125731623481893325e-03,8.571507426956108400e-03
6.289183120946255021e-03,1.462043530133259710e-02,3.028479419502799839e-03,2.000184343249742768e-03,1.556370680193051512e-02,9.515500850099208778e-04,4.878731704184077235e-03,1.506710901416809766e-02,1.321373117398411340e-03,9.274004002454237089e-03
3.676360611740755319e-03,1.321787663467675379e-02,3.349410165531763357e-03,6.126675635578557495e-03,1.555773660526525194e-02,1.027548210259923711e-03,1.208673135415710281e-03,1.767091212811643108e-02,1.506850741103822958e-03,1.000378656056591722e-02
3.088538015430248706e-04,1.045941672360785335e-02,3.626126003218296638e-03,5.920679873243139130e-03,2.202940657985959574e-03,1.088351788278805283e-03,3.375411842543422653e-03,1.726358546128468202e-02,1.677032080121931400e-03,1.067165798038491147e-02
1.208422825750820814e-03,1.087460208399659498e-02,3.850627344662985348e-03,2.403208279878940763e-03,2.045094414943035913e-02,1.132207570451805893e-03,7.699486970339172037e-03,1.516552567291911541e-02,1.827113253041758771e-03,1.131043981349634346e-02
7.591781235868360136e-03,1.298498181051705065e-02,4.015991019745620942e-03,9.809020989148462683e-03,4.241388670939575528e-02,1.157762028607443351e-03,9.972720355293399758e-03,1.316451989962145672e-02,1.952742206233472723e-03,1.229412583077831543e-02
1.078418916144317265e-02,1.129031583672164378e-02,4.116544960725961218e-03,3.633328437522965332e-02,5.761918289280772154e-02,1.164094475694562366e-03,9.931515077704931166e-03,1.160307354546427812e-02,2.050130390479135839e-03,1.262496422894403801e-02
3.892157062902575331e-03,3.053521557827450043e-03,4.148006322336114486e-03,6.880773873575701804e-02,6.539217057829609103e-02,1.150739396849785037e-03,9.190967828641833509e-03,1.026244368041881114e-02,2.116150081667818577e-03,9.068698613841193190e-03
1.146085611131879636e-02,7.511035798872083176e-03,4.107574929117024758e-03,8.879587520202802953e-02,6.607439793989761112e-02,1.117697505811706933e-03,8.879224653623660202e-03,9.687909803489715491e-03,2.148414973607506214e-03,6.564411204945633412e-04
2.698680030618777134e-02,1.381265583393239196e-02,3.994005730843942781e-03,8.714292304202912731e-02,5.919873979852455226e-02,1.065435320223518485e-03,8.656952533625236756e-03,1.019386419398769783e-02,2.145342094129767518e-03,8.027766107211828372e-03
3.570310994559349610e-02,1.524564450066129111e-02,3.807669564022288580e-03,7.122248180114036653e-02,4.550904464557916501e-02,9.948733312050003427e-04,8.034204775278316890e-03,1.061554292487207340e-02,2.106193565346469419e-03,1.177195966059350028e-02
3.663834766725504455e-02,1.722442132566500902e-02,3.550545826610449363e-03,5.366780768187663642e-02,2.892030405069751994e-02,9.073631207691237660e-04,7.157161604181456159e-03,9.804775296661100148e-03,2.031097233389051078e-03,1.075989823745460670e-02
3.313383088512746738e-02,2.316230319722709791e-02,3.226122391714599229e-03,4.047080593457611647e-02,1.504296119448728271e-02,8.046540484427328142e-04,6.268649826432786190e-03,8.548096508690750800e-03,1.921045719630917921e-03,8.410909273571069711e-03
2.863375735667072347e-02,2.937795450744769277e-02,2.839321997714250746e-03,3.007393545524388034e-02,6.735904521430797001e-03,6.888503793580775776e-04,5.322496071405352462e-03,7.922036133339705952e-03,1.777873981175941186e-03,5.675341489389668093e-03
2.424680454704931237e-02,2.785386218201972575e-02,2.396513170866050764e-03,1.984473106549226873e-02,1.972343269074431672e-03,5.623599540993613798e-04,4.227293920161122667e-03,6.726214038270078403e-03,1.604216000033368596e-03,1.026522211025483093e-03
2.009499653617817169e-02,1.531970694871360311e-02,1.905357542892015081e-03,1.091797539067324713e-02,2.091995874212056617e-03,4.278357003008325678e-04,3.029700052007364315e-03,3.445458870932453527e-03,1.403441734777348621e-03,5.461707608247207482e-03
1.824904098316409637e-02,1.240760738338527510e-03,1.374370717863154312e-03,6.552711576866378576e-03,3.478602996355743913e-03,2.881114527111365564e-04,1.802115125993747954e-03,1.186304984270989587e-04,1.179575952956050857e-03,1.076261193262091978e-02
2.182939806392051804e-02,7.506936534691126739e-04,8.127334614107205573e-04,7.824462912052135982e-03,3.437515943488062345e-03,1.461336783091467305e-04,5.548112303367805712e-04,6.323085643228557430e-04,9.372010052209399193e-04,1.171096240247530146e-02
2.977926308022959753e-02,1.508060880423791467e-02,2.306418101085522514e-04,1.258682081029671024e-02,1.976658762269753108e-02,4.890793150076719765e-06,7.132731134482754587e-04,4.786641815051261191e-03,6.813459923406088581e-04,9.481820350750180815e-03
3.509934370144381782e-02,2.710157616705417480e-02,3.609285839714736601e-04,1.747565399675388848e-02,3.743895005066580350e-02,1.326581940022063786e-04,1.973499178691067238e-03,7.654528418348436475e-03,4.173651044951396999e-04,9.745881786976249433e-03
3.176002909387268952e-02,2.273886025079975559e-02,9.516738766580752282e-04,1.994788475847502143e-02,4.600840884488249793e-02,2.636539704493716645e-04,3.191563569631658374e-03,6.155577682914653397e-03,1.508081705743675614e-04,1.358669026792000412e-02
2.246814042710422801e-02,8.895117304016758944e-03,1.532226902598328357e-03,1.957520122490459882e-02,4.340019378425891139e-02,3.854044366699786034e-04,4.347783915877811989e-03,3.080544087546550035e-03,1.127133624864659904e-04,1.057196040036217227e-02
1.573691746410615586e-02,2.552790417154245702e-03,2.091809740528484916e-03,1.780841726745733752e-02,3.629225343009109817e-02,4.954478257537030337e-04,5.426832206605000826e-03,2.425148954504491739e-03,3.676616981022125144e-04,8.951799012905945277e-03
1.532095853108049813e-02,8.318646348126991497e-03,2.618349273776069807e-03,1.534539470987798630e-02,3.030317353147662929e-02,5.916099163436514506e-04,6.408744125292123103e-03,3.311072027455355671e-03,6.087058641053445362e-04,3.553487159287969238e-02
1.679329867899327991e-02,1.575536872758791229e-02,3.104215193260520447e-03,1.020554834249910205e-02,2.455042751492268749e-02,6.720539835034272831e-04,7.274223486396370029e-03,1.799803302436312532e-03,8.308495134455336347e-04,4.850264332179614335e-02
1.515766915647523937e-02,1.541610353572836489e-02,3.546806596640444953e-03,6.763229592771386606e-04,1.672893741677027729e-02,7.353223172187361469e-04,8.009594462358092873e-03,2.638534650567749950e-03,1.029550216451293907e-03,4.364222118194662631e-02
1.083407866520344834e-02,7.376702565985580190e-03,3.936942251483934938e-03,1.015436432452409415e-02,8.337549113083294119e-03,7.803683508708505285e-04,8.604911154976349272e-03,6.447230913425253812e-03,1.200827330053772738e-03,3.759010353831757079e-02
5.909339018771208978e-03,4.871176753790962440e-03,4.257864538658125142e-03,1.645821305006680418e-02,1.752373758083544068e-03,8.065786766172466753e-04,9.051748921404737316e-03,7.752164274735216104e-03,1.341355820700488709e-03,4.162969192002956981e-02
9.939025783634552851e-04,1.858861544155309201e-02,4.510484301831287762e-03,1.709765364312740982e-02,4.115534648809843210e-03,8.137844753214861773e-04,9.344213912371402905e-03,8.818709295926331279e-03,1.448543773721473662e-03,4.789435117361208472e-02
1.238141230883815606e-02,2.948716365081168259e-02,4.716549465290919944e-03,1.693146542908526356e-02,1.114476823841363713e-02,8.022621492769552555e-04,9.480685520377413883e-03,1.169080731337615413e-02,1.520591733503507239e-03,4.671824876850442371e-02
2.679431913839576754e-02,3.379148214977185233e-02,4.865092589622243072e-03,1.942206668232422662e-02,1.748899009258075496e-02,7.727232100486883032e-04,9.463706312719828012e-03,1.484715651504452810e-02,1.556532472848323658e-03,4.111276764127946154e-02
3.932675904753350771e-02,3.316022739467070629e-02,4.904430008856878326e-03,2.246649660403214274e-02,1.993503990786365393e-02,7.262937348472683560e-04,9.297990748532623806e-03,1.593427293675448581e-02,1.556250275173746977e-03,3.678347727345585710e-02
4.658481889712130786e-02,3.232992319396085085e-02,4.856383776535183952e-03,2.314152993888135557e-02,1.894000121569120940e-02,6.644839566091805417e-04,8.989648243172150208e-03,1.523491709054461928e-02,1.520479323590960162e-03,3.129871349893054155e-02
4.922617175664285860e-02,3.307273059838369139e-02,4.836423118053735475e-03,2.209180897001854910e-02,1.762234442411579269e-02,5.891487893320843452e-04,8.549203938590974050e-03,1.454375779236214555e-02,1.450781313397061937e-03,2.054897985899710802e-02
4.985667011499739232e-02,3.404002608568327398e-02,4.810091315648363196e-03,2.133912484630349701e-02,1.733889000313412060e-02,5.024403055351827057e-04,7.993051033186334906e-03,1.438893872814659032e-02,1.349502913559231555e-03,6.942696961773802029e-03
5.008311396807473698e-02,3.444657133802837834e-02,4.540445038982147095e-03,2.115613066521966276e-02,1.720316780472117002e-02,4.067533718404998380e-04,7.336568695803362752e-03,1.414227354007701644e-02,1.219714186054075790e-03,4.563867944566504971e-03
5.031815376663605066e-02,3.483338526330070212e-02,4.102583544071077178e-03,2.076278543556683148e-02,1.661226352786200622e-02,3.046658071809952998e-04,6.589651457445402059e-03,1.376881711158203792e-02,1.065129544651481847e-03,1.346192341467093018e-02
5.107242909863115438e-02,3.549784324072751546e-02,4.067428913998715791e-03,2.002669614198687026e-02,1.595247280676734963e-02,1.988745524546502305e-04,5.769926597715868861e-03,1.372023438732549762e-02,8.900132854485165402e-04,2.211251607986334730e-02
5.242468607335605546e-02,3.623311463259126786e-02,4.566423510670318542e-03,1.930619490995084953e-02,1.550884651606643586e-02,9.212942772750452283e-05,4.911407006346732614e-03,1.336379272375176272e-02,6.990720813853070403e-04,2.920161205628633502e-02
5.279899014038003796e-02,3.701848106850682413e-02,4.738526900277943189e-03,1.867062311060638594e-02,1.510577541995704147e-02,1.283389870393672623e-05,4.035166101327735018e-03,1.117397939057453507e-02,4.973370916309049431e-04,3.001159835561717504e-02
5.068589509868020454e-02,3.775956606856103320e-02,3.954362541191932742e-03,1.795852653998724138e-02,1.460846837992559044e-02,1.133600968025941377e-04,3.128592006295909458e-03,7.022016429261361548e-03,2.900386113117154989e-04,2.453105920566769904e-02
4.678792163808462301e-02,3.757428494549713838e-02,2.861044182261630788e-03,1.714222325569615332e-02,1.409785267669380268e-02,2.069379154744246214e-04,2.205941389319212610e-03,2.595229176495779909e-03,8.247647802299038714e-05,1.905919141251372767e-02
4.176464499352500193e-02,3.527307944248461030e-02,2.336875279863572397e-03,1.630509453953155399e-02,1.363818051757220186e-02,2.912599459220532893e-04,1.352759904357565433e-03,1.521379461239660185e-03,1.201105113193526492e-04,1.607803695374537128e-02
3.418980688246350125e-02,3.141942713214716798e-02,2.266738561284848373e-03,1.547052341934153190e-02,1.319233293843035879e-02,3.642769833929312886e-04,5.963047611925354104e-04,6.812154183611734276e-03,3.126731589324978789e-04,1.014984255349468678e-02
2.475343711798483337e-02,2.975885303648968111e-02,2.094659089162676825e-03,1.461026213295683537e-02,1.272964067489844135e-02,4.242457046064353329e-04,1.940786019214012659e-04,1.301714360748034045e-02,4.904753331625041858e-04,9.854556653998078342e-04
1.893640533036064152e-02,3.384157056174556116e-02,1.758702119638653376e-03,1.372442838394623971e-02,1.226691190642163060e-02,4.697685486950562068e-04,1.034064296778090287e-03,1.640882005709710934e-02,6.492088729958811737e-04,9.775021576711633367e-03
1.982966292070170375e-02,4.035957927022749275e-02,1.506829177683074311e-03,1.283833591889958770e-02,1.181849938305507865e-02,4.998248851577350360e-04,1.605155789261605327e-03,1.456588074177617501e-02,7.850969107494845016e-04,9.251243202997160020e-03
2.190011611599478741e-02,4.061720261602858040e-02,1.382053801763317253e-03,1.196475958399719278e-02,1.137653020290217525e-02,5.137927716886310763e-04,1.832393172099228834e-03,9.811805876215440314e-03,8.949840519207017146e-04,2.879425540527168724e-03
1.818258087322055863e-02,3.275233599404644286e-02,1.274752325680998102e-03,1.110471906163946337e-02,1.093409546941896335e-02,5.114608414027044941e-04,2.376724267945798559e-03,5.616328581151771096e-03,9.764117254372896119e-04,6.725707977553411088e-04
9.614022496942778440e-03,2.469835051974206275e-02,1.166060982704864761e-03,1.026489758441293497e-02,1.049483888232227713e-02,4.930300995049898471e-04,3.431710156546066183e-03,3.301698180431281507e-03,1.027674897818179299e-03,2.371775170968583486e-03
9.176646994047727053e-04,1.864698072476263929e-02,1.107617890731987277e-03,9.457206231830769111e-03,1.006225538238254662e-02,4.591056497061909904e-04,3.478056322165649396e-03,4.042707136922842406e-03,1.047857727774011323e-03,8.549325319495999081e-03
7.337210388183853377e-03,4.828534115825474857e-03,1.107281095307085248e-03,8.690380794548504401e-03,9.635102308886187017e-03,4.106786209904273615e-04,1.241444720167347165e-03,9.153546842863347077e-03,1.036851612930595259e-03,1.199647579280144552e-02
1.621609252761281594e-02,1.945564900653820595e-02,1.137167502309332492e-03,7.969903283145330503e-03,9.212385775454514855e-03,3.490988162275441013e-04,1.562530910982854815e-03,1.617898188762526349e-02,9.953577016054134061e-04,1.081433114764967715e-02
2.398420617613784139e-02,3.876926912133543679e-02,1.187354084716343806e-03,7.301705362443507846e-03,8.795599190701056808e-03,2.760388148758271230e-04,2.046337173783008886e-03,1.942293389060064865e-02,9.248648549516836270e-04,9.037407925186471611e-03
2.909669954119590424e-02,3.961789136541288281e-02,1.262880263242837546e-03,6.691937604301013975e-03,8.386421815814008168e-03,1.934504339354786002e-04,1.028560983591953197e-04,1.638562384160426391e-02,8.275982322211004492e-04,1.056877403844882352e-02
3.201761396107699609e-02,2.992551791781952741e-02,1.358661474656529516e-03,6.145092360065501289e-03,7.985628271161948621e-03,1.035146545346916360e-04,2.029296013307785741e-03,1.024660096531499441e-02,7.064589911999650737e-04,1.222492257756077096e-02
3.191797784694155871e-02,2.683894615757392160e-02,1.460808078143833707e-03,5.664210396486919069e-03,7.594159824624690212e-03,8.586339696942335442e-06,3.056393669293420295e-03,5.499739155897547492e-03,5.649688057376730903e-04,7.681538596309488674e-03
2.703768250118298092e-02,3.309952428996704860e-02,1.558785225696571056e-03,5.251615752506249429e-03,7.213670829801979018e-03,8.886486192900177250e-05,3.258260794174534097e-03,4.230513370924399684e-03,4.071800687550247732e-04,2.326667326418915480e-03
1.951293774080618479e-02,3.786396536857111056e-02,1.645206449380281002e-03,4.908218940810359088e-03,6.845983374182910280e-03,1.863160921752580503e-04,3.141614370361150640e-03,6.232751524866817459e-03,2.375270774287280523e-04,1.074418843989199263e-02
1.543657971714187428e-02,3.732942439128008466e-02,1.710136240534268406e-03,4.633226847280181616e-03,6.492710856217514918e-03,2.812538541836937466e-04,3.119271944189904930e-03,9.484945887946445373e-03,6.070786979018583920e-05,1.572548776643875601e-02
1.816122847337982640e-02,3.925536712298078462e-02,1.741490673605387667e-03,4.425648580016231133e-03,6.155522577461765982e-03,3.712357689700070064e-04,3.417172369271537398e-03,1.079884342216391041e-02,1.183404543965437705e-04,2.327851630063521374e-02
2.406707853480788417e-02,4.524675123887698241e-02,1.728728571817731525e-03,4.284345365289279027e-03,5.836451011051392752e-03,4.539499456924534783e-04,3.476232819834442628e-03,8.922072386300794813e-03,2.945542548156110342e-04,3.525810645769789781e-02
2.756323701941182022e-02,4.514036636343093933e-02,1.662992288149190995e-03,4.204911327062632598e-03,5.537607131145606473e-03,5.272711293324536556e-04,2.634745380950626048e-03,6.362753895475975127e-03,4.630735142681935575e-04,4.249645351644975450e-02
2.820324679092731796e-02,3.452713677711815449e-02,1.534290957444157163e-03,4.179999163452478329e-03,5.260598117270509286e-03,5.893124535773357773e-04,1.665478159807982569e-03,5.515265868870489543e-03,6.193963107988288697e-04,3.657847862110421427e-02
2.891935963886512612e-02,2.256475579831836858e-02,1.331841791427213319e-03,4.206285199909024809e-03,5.006819962357376974e-03,6.384703062113660822e-04,2.065141708494247583e-03,4.741485620615572966e-03,7.590605322756076908e-04,2.344977911614107985e-02
2.927600726641242310e-02,1.606535973652090804e-02,1.048779661336259311e-03,4.284149328778039632e-03,4.778481534326496465e-03,6.734608583451062204e-04,3.748191430289718896e-03,1.268522794597757393e-03,8.776756154311300641e-04,1.708760763056628440e-02
2.612692222792651134e-02,9.899597278624834573e-03,6.821939638580281056e-04,4.403172639710753455e-03,4.577951405714397216e-03,6.933501092641310756e-04,5.263612848340768272e-03,4.518046568937849478e-03,9.719510698817889188e-04,2.254779650137881189e-02
2.026066127467690894e-02,9.350895301825892965e-04,2.246125060223487621e-04,4.542945719013546241e-03,4.405464013086900048e-03,6.975776887037471409e-04,6.112755970342663957e-03,1.053363082472312008e-02,1.039972952031402182e-03,3.334466916228921024e-02
1.699736456677990171e-02,4.905105041390755288e-04,3.357627298091333482e-04,4.704536408919613930e-03,4.260286009800893885e-03,6.859681682342175886e-04,6.895837480975013437e-03,1.565426751836375419e-02,1.079293644501880733e-03,4.225503902152390884e-02
1.935172958212422537e-02,1.598022826941752558e-02,9.968760570144301249e-04,4.910043775865013081e-03,4.145499030412230432e-03,6.587275546167798129e-04,7.664902337285769973e-03,1.881048624964073990e-02,1.086525567098568052e-03,4.583276846884204447e-02
2.347703732127998794e-02,4.220635812894173167e-02,1.742532080367886586e-03,5.135879557622579500e-03,4.065536060865734998e-03,6.164372885913847917e-04,8.161814136739189290e-03,1.936413500306350885e-02,1.061593327225581265e-03,4.206590959783353123e-02
2.209062836111926054e-02,5.786034951207022492e-02,2.580783784494630837e-03,5.312492531164091265e-03,4.015811769438298873e-03,5.600507870905553631e-04,9.010426321206988290e-03,1.971908068579319648e-02,1.008840439289397173e-03,3.320575429799206557e-02
1.248825404041032684e-02,5.367249090225112429e-02,3.545426221041466774e-03,5.467345002124287916e-03,3.987619584061470601e-03,4.908667962697304491e-04,1.082278684000689481e-02,2.300991107350630269e-02,9.280471258957318685e-04,2.783682088464673951e-02
1.166718169765281442e-04,3.895878352793289562e-02,4.614154972621888062e-03,5.729693711451164587e-03,3.990333609311061229e-03,4.104692706612166411e-04,1.298497789961391112e-02,2.789738709977312645e-02,8.118426191214096407e-04,3.185330917657069882e-02
8.015660381722144318e-03,2.595678216572492453e-02,5.703366056932867786e-03,6.025529295498600370e-03,4.041491988035357877e-03,3.206902705464966040e-04,1.477096333334538408e-02,3.063916876494584066e-02,6.647706999729372174e-04,3.995154981413273632e-02
1.154279969249403029e-02,1.604358753571149404e-02,6.842989624412443468e-03,6.059223352297151387e-03,4.119093135239082840e-03,2.236217318551051022e-04,1.643745044629352572e-02,3.138803505838075325e-02,5.092056100440040152e-04,4.217760620738990329e-02
1.348204753556974528e-02,5.146097037434020811e-03,8.192491789291777432e-03,5.969866351066549851e-03,4.181391431839675578e-03,1.215591009652782178e-04,1.814379449938994388e-02,3.290480455681073224e-02,3.446260680625306584e-04,3.664795379696405425e-02
1.155558412669290165e-02,4.865254222637652518e-03,9.668366419476400950e-03,6.406438035559908727e-03,4.269300910685383185e-03,1.682200186160366081e-05,1.950349240762622866e-02,3.464182632319099536e-02,1.337036377064250913e-04,3.063747070943981243e-02
1.274541358936402864e-03,8.538330692699672153e-03,1.090076481841734980e-02,7.042625019454675991e-03,4.469750213576260608e-03,8.829578951984728009e-05,2.109864962517340320e-02,3.375415675635497909e-02,1.113450201951615546e-04,2.967852453986873779e-02
1.352713106227523658e-02,7.713906052484204891e-03,1.202854881986958197e-02,5.863156237840111765e-03,4.700020546601485494e-03,1.913192684037424442e-04,2.391858767174474820e-02,3.019054697899288889e-02,2.970943759978690417e-04,3.064686530831893171e-02
2.274632339159993535e-02,9.890335914441546888e-03,1.381340204158544235e-02,1.689211315646166247e-03,4.721809148872160682e-03,2.896591533835917972e-04,2.615184789119968586e-02,2.586463137944126564e-02,4.328391515250945218e-04,2.832588516688289842e-02
2.253321698592149550e-02,1.472987042570941818e-02,1.594439535634043642e-02,3.152779491944359899e-03,4.442328153198542989e-03,3.812352693860713974e-04,2.430789130152233996e-02,2.120050543065415960e-02,7.033874462346812384e-04,2.505780878533378844e-02
1.746008266071154627e-02,1.276652423313838491e-02,1.674739528454253709e-02,4.767976563191515284e-03,4.028616045392650197e-03,4.645250755700203226e-04,1.963426403772619219e-02,1.685535712463496691e-02,1.078380892750461974e-03,2.832199782803760876e-02
1.100019248070979901e-02,9.171055348998263454e-04,1.682055388752343172e-02,2.110806044472873094e-03,4.041127166738311786e-03,5.374004889376051905e-04,1.862384125635776003e-02,1.597127815922626259e-02,1.146466401452414996e-03,3.954603328122803518e-02
1.695944276309502632e-03,1.087294186226039558e-02,1.985161193946485825e-02,1.916556355778165207e-03,5.360941151425188504e-03,5.971483970566635177e-04,2.409426146128723287e-02,2.085527041828721603e-02,9.481533504738982486e-04,5.140510177696779037e-02
1.136509785502881099e-02,1.253628867204006035e-02,2.453395572735344796e-02,3.127970535770981282e-03,7.026581356077220286e-03,6.430937712014867490e-04,3.108987342971831352e-02,2.980230199242292141e-02,1.367185617487590068e-03,5.770806455621851211e-02
2.531616081304705404e-02,4.273790742152442333e-03,1.996947992011634254e-02,9.104632251266413148e-04,3.927510818743489181e-03,6.767434871955583598e-04,3.475195996089255890e-02,3.917334221637656932e-02,2.327710117569212808e-03,5.990760884467023761e-02
3.642059562799095096e-02,8.882137180057290277e-03,1.355355381627982832e-03,9.463402764058144109e-03,8.928468653637260805e-03,6.962852228806495295e-04,3.600858619778599112e-02,4.616945933830077231e-02,1.537218415443712552e-03,6.006495429716322831e-02
4.261738928612471972e-02,2.332303896705236607e-02,2.948529183054285699e-02,1.977541305717155778e-02,2.797955029031065285e-02,6.962096481923274374e-04,3.614986773414658600e-02,4.912732474180422221e-02,2.354290851523864643e-03,5.319261214736047821e-02
4.227711065253705186e-02,3.455234749230718522e-02,4.663180716124019215e-02,2.929101552591652571e-02,4.197468021372583596e-02,6.790958957872800759e-04,3.283188823852029037e-02,4.741554615354825336e-02,6.227849136211700484e-03,3.383158671270192208e-02
3.342561882945926238e-02,3.781669370730955659e-02,4.716707562112441160e-02,3.567112902719590112e-02,4.370373183694001989e-02,6.567461593705827471e-04,2.550268411309338998e-02,4.159567222799103597e-02,5.768808242520119707e-03,7.129307094883729004e-03
1.719810926945524940e-02,3.445789249267772886e-02,3.838609425682343312e-02,3.658469535768985731e-02,3.669406828606550791e-02,6.250389645649818840e-04,1.791918241705743597e-02,3.387687777411665241e-02,1.589804157451660867e-03,1.479811273652701341e-02
4.187943391780160791e-04,2.964396968368289767e-02,2.698279047476690243e-02,3.262057658513440456e-02,2.914473403740221874e-02,5.608159947971206455e-04,1.124868124308942181e-02,2.809933567339123472e-02,1.772499102207733893e-03,2.630484595967129066e-02
9.500426736410281028e-03,2.265363270370591986e-02,1.416501997105020470e-02,2.816481014638897232e-02,2.512921530006914997e-02,4.754460680270774890e-04,1.085063290023545370e-03,2.529745786939817040e-02,2.152506725319159545e-03,3.260866396744330903e-02
1.230754649097647903e-02,9.082788449648767498e-03,6.380052508928661897e-05,2.626516987683953988e-02,2.273894645647453819e-02,4.227934533599846199e-04,1.558499757148718717e-02,1.815328832872838138e-02,1.322900557363880644e-03,4.503298798452353563e-02
1.429885340555770226e-02,7.125371370183018055e-03,1.428980623935395197e-02,2.549586459669736863e-02,1.881028325595114278e-02,3.849202137659142250e-04,3.631131141604823642e-02,3.070124609552831417e-03,1.101145006860534048e-03,7.476399180241503906e-02
1.920224024378972341e-02,1.506058060082472901e-02,2.554413734928870014e-02,2.404265290956372758e-02,1.434201821420135782e-02,2.518278078110540376e-04,5.723299407309202086e-02,3.584911961792786733e-02,1.264616739396786727e-03,1.221594312154970219e-01
2.222497669834872999e-02,1.132297019345947751e-02,3.134429784725865920e-02,2.286586472631901151e-02,1.361018554560057721e-02,6.487489629519577997e-05,7.518950828759926597e-02,6.439023948170062572e-02,1.125152031653415706e-03,1.693423192016040579e-01
1.612555998512820235e-02,3.297454951033204455e-03,3.422707001804953242e-02,2.261420758895966651e-02,1.706342429856699469e-02,6.914816995488615213e-05,8.565917227095577735e-02,7.676012051250440116e-02,7.874398608916431501e-04,1.925320805881630126e-01
2.451686208218814816e-03,2.825208578046718624e-03,3.917148590371626743e-02,2.115926416230529128e-02,1.882703898706934026e-02,1.987135265234177403e-04,8.493452399036773015e-02,7.575745542660994314e-02,5.742445273203872387e-04,1.832578578160280192e-01
8.349030742596880161e-03,8.196992220949873148e-03,4.177778099389867911e-02,1.671522300362927524e-02,1.434999942366503405e-02,1.074082001588510540e-04,7.579670215088780971e-02,7.105206089012629234e-02,4.466807060391066544e-04,1.524237184256604649e-01
9.686979095985990065e-03,1.426312820864745166e-02,2.839535152812527885e-02,1.092213605431295066e-02,6.744525768567303896e-03,9.702013867962445189e-04,6.632154002251518243e-02,6.816089321991783412e-02,2.603257766745122460e-04,1.170522722140555083e-01
6.121733543447549844e-03,1.857611801463116344e-02,3.763024733125102522e-03,6.379101371456462680e-03,1.753305945569294880e-03,1.517927553627993788e-03,6.095242476165359247e-02,6.657783308540711487e-02,3.853388717472094015e-05,8.831279217312014429e-02
4.966478205131181003e-03,2.065727257688182092e-02,3.674914023340936781e-02,2.905627129548534696e-03,2.625530658206809420e-05,1.110552275692991550e-03,5.606077481579772870e-02,6.252193647946903410e-02,1.441165129437957425e-04,6.871132679315927749e-02
5.988508196991552436e-03,2.412036578900411676e-02,5.085130293655443223e-02,1.128123805629665816e-03,1.648667040923594736e-03,3.848501619768142888e-04,4.652464024217429356e-02,5.263283657795591458e-02,2.913266185971796741e-04,5.500858287670094132e-02
3.327274840257056932e-03,2.928992509554508711e-02,4.467722628347121222e-02,5.297183959156922736e-03,4.415297200608001016e-03,2.093753894556388880e-04,3.396579518921106350e-02,3.979854817021226399e-02,4.322439658063291328e-04,4.346643075365281411e-02
5.554699962469136255e-03,3.164786584310497197e-02,3.010508981039329915e-02,7.747952332567444728e-03,6.540146167425634274e-03,4.601085559460118624e-04,2.534373126750489452e-02,3.467427179102888779e-02,5.603212062292169896e-04,3.356397952236267468e-02
1.592858841524970662e-02,3.112457099032512123e-02,1.547618280419954702e-02,8.208928955248138287e-03,6.943354463785769010e-03,5.732550534300407188e-04,2.415781058954803023e-02,4.511811616735308256e-02,6.574323414563862811e-04,2.601375205469220672e-02
2.074549352812870770e-02,3.225296366014510085e-02,6.567644743961235151e-04,8.071145550604402405e-03,6.511632840806799022e-03,4.803501409788648062e-04,2.616005479839112607e-02,6.453583324340529670e-02,7.229011207328520702e-04,1.839744548712054367e-02
1.888145464015485858e-02,3.066536548222316763e-02,1.523952112739926715e-02,8.241590715501493150e-03,6.302943301084080498e-03,4.242932951357737421e-04,2.481340194241062058e-02,7.771206900078952984e-02,7.626459463399800666e-04,6.713854861484550365e-03
1.676491470745420861e-02,1.400124991629599427e-02,2.941855945544245149e-02,8.524255563564196725e-03,6.342846492686115070e-03,4.446500506668307501e-04,1.840586358818022128e-02,7.745096362163471360e-02,7.755132795463590698e-04,7.736383946194757416e-03
2.094906898489097904e-02,1.661117838305523758e-02,4.081978343774725349e-02,8.630208934988788105e-03,6.279120601767422365e-03,4.300643587835841896e-04,1.022115604115815882e-02,6.885449257143613777e-02,7.582265396553312465e-04,1.655176767037442459e-02
3.093751110358134229e-02,4.101591004316467587e-02,5.140913009503469966e-02,8.661044517283425850e-03,6.106233541356930611e-03,3.617078264221809170e-04,4.262021864512535729e-03,5.936333146698136859e-02,7.118527413365595370e-04,1.276133217392705181e-02
3.979506819821707064e-02,4.355018954762419903e-02,5.584709638875859361e-02,8.714732060617839948e-03,5.985921371864845290e-03,2.930419212617358586e-04,2.276928721271352651e-03,5.127481356342590557e-02,6.395447752614124952e-04,3.686542626514001386e-04
4.007020783458084545e-02,2.973005056544374830e-02,4.103747277999535148e-02,8.709704825394260289e-03,5.921586483239073273e-03,2.355296071210883214e-04,2.496736500430239182e-03,4.254702466033095237e-02,5.434407336360223351e-04,8.193520811974585802e-03
2.931016191424393874e-02,1.546758351260502269e-02,6.919410785381511532e-03,8.651192929301044360e-03,5.833819396304552179e-03,1.666014228409177155e-04,3.846954454520953512e-04,3.024697911499797665e-02,4.256136145853427200e-04,4.066367743550289467e-03
1.130116845401465432e-02,1.047673161903693063e-02,2.415568638139102900e-02,8.638223877889797744e-03,5.721825865208279849e-03,8.320573776790948187e-05,7.163778591875570242e-03,1.391714157118725120e-02,2.894425661627086726e-04,1.148980261838671024e-02
7.827566131615143474e-03,1.376490721366038263e-02,3.127986414770841939e-02,8.549203578326586284e-03,5.630996531392258413e-03,1.329314453161385971e-06,1.815291805431127822e-02,3.028521044606852231e-03,1.390724121417418358e-04,3.024327197978554649e-02
2.461341030738289914e-02,1.741689368146471378e-02,1.733654219241730077e-02,8.195595096664893067e-03,5.557384005260553560e-03,8.247805653978295217e-05,2.764107141332804857e-02,1.689123960280446840e-02,2.136499510739353123e-05,4.261655439770906800e-02
3.903917578990786369e-02,1.485113362517513809e-02,1.633873765390716180e-03,7.883854792718327648e-03,5.459507449921251893e-03,1.634279430446937463e-04,3.290259271508698402e-02,2.798216948984764280e-02,1.876513227408577709e-04,4.314599265649389503e-02
5.129316667618231268e-02,8.111067462802054942e-03,1.715767709494140508e-02,8.027370717753881321e-03,5.345131700424310059e-03,2.433481015486787017e-04,3.472966803205444764e-02,3.806807173194858007e-02,3.552705763287395931e-04,3.512105367891282109e-02
5.913600186922516461e-02,3.472112481974885638e-03,3.000770900592853591e-02,7.938815423973642760e-03,5.272755661009353653e-03,3.178286450021660238e-04,3.446079159661234737e-02,4.486204972704945643e-02,5.196143720721080978e-04,2.868203791787125173e-02
5.870903766630502368e-02,1.350496710166312767e-03,4.177373620771235307e-02,6.393224950087484683e-03,5.221796773322784184e-03,3.844493452932601623e-04,3.214028039538512765e-02,4.379639848866946628e-02,6.762472423136291688e-04,3.067144847351235132e-02
4.858742358889650559e-02,1.898263488479048303e-03,5.299160513930184502e-02,4.020286803842386403e-03,5.075302386865235445e-03,4.427078882013441540e-04,2.767690088766385642e-02,3.497910168135395098e-02,8.209762247354063453e-04,3.587592083784563873e-02
3.343106870875050401e-02,5.056679020727892181e-03,6.272467320145816427e-02,3.168714968742929617e-03,4.870802971036911934e-03,4.914716710438820800e-04,2.156221911202941405e-02,2.422602028468753138e-02,9.498844773204314588e-04,3.199287805133541052e-02
2.089885562078780401e-02,4.214267915762735447e-03,6.395657420739311871e-02,4.458165503674971566e-03,4.851521533231198044e-03,5.290332985184995670e-04,1.426927542485630432e-02,1.679364891591044254e-02,1.059446748170648394e-03,1.550895828902975650e-02
1.387674728018444513e-02,1.339106444352782498e-03,4.567089020429243584e-02,5.773281008023855784e-03,4.948269560715345614e-03,5.543491008364845492e-04,6.962083414641427083e-03,1.285516980329427621e-02,1.146649709130793168e-03,2.136448639452505696e-03
1.007947017744436138e-02,2.036359434960406840e-03,5.808151083644225339e-03,5.537695537394943246e-03,4.596062780814892494e-03,5.670635295191714864e-04,2.484491106398158643e-03,1.002027964163400980e-02,1.209057741116102442e-03,7.407147617831968955e-03
9.293741000834509006e-03,6.430702726083283721e-03,4.055649801393782644e-02,4.562126621803983852e-03,3.670869681681588129e-03,5.669545827158687691e-04,3.471706840327883417e-03,8.330132995388591505e-03,1.244856612016649513e-03,2.180568893322012633e-03
1.404679020317889729e-02,9.638882522252282745e-03,6.975979146548434706e-02,4.025042942439236403e-03,3.042184417154446263e-03,5.539299416832667257e-04,9.127613557538841182e-03,9.957602188190433148e-03,1.252900863465094281e-03,1.964119357363617452e-02
2.317528455634152926e-02,1.086954755590507568e-02,6.909946857096574413e-02,3.823134310376497674e-03,3.347914091124210619e-03,5.282899429951966146e-04,1.496831155113431504e-02,1.433661268686284990e-02,1.232748174261782178e-03,3.551977556802128622e-02
3.157085272639906931e-02,1.505304074224803057e-02,5.131577100877831449e-02,3.446752595156120542e-03,3.949434459674531009e-03,4.907249457652397779e-04,1.669352873522071679e-02,1.789553368500849603e-02,1.184667136885653128e-03,4.223228177980688225e-02
3.523921682041573217e-02,2.265276012356980812e-02,4.487521359446104696e-02,2.936437294222118098e-03,3.977013175737877104e-03,4.421737753899531147e-04,1.443500303043733501e-02,1.963563883131113491e-02,1.109625461592630372e-03,3.886099102847113962e-02
3.247082782062935685e-02,2.416723861310493549e-02,6.239221978376188749e-02,2.536443151751955824e-03,3.554156077608860032e-03,3.837946261165378669e-04,1.216729836207782953e-02,2.236569363347376896e-02,1.009265020754828053e-03,3.194579079891101542e-02
2.411326696336586056e-02,1.209109321303873143e-02,8.580956335371991983e-02,2.237520505389486124e-03,3.244687775037915362e-03,3.169929397141862839e-04,1.251364287342496620e-02,2.702638352727955440e-02,8.858611321534244284e-04,2.711995853051986718e-02
1.421745159765087571e-02,5.603747580810216830e-03,9.113935886313585810e-02,1.930761559959664380e-03,3.117667240306300214e-03,2.433888602757847261e-04,1.344916526308622025e-02,3.018440664979006594e-02,7.422642636724392090e-04,2.267219691499263237e-02
4.517200456822101709e-03,1.372629954455474588e-02,7.645559498438096735e-02,1.623530698423907449e-03,2.931365421840657903e-03,1.647499944933214380e-04,1.131159368144442519e-02,2.916946760933174232e-02,5.818271521457171790e-04,1.496600049278934419e-02
8.899638234778680518e-03,9.433478303162675868e-03,5.555983562963646982e-02,1.370105732654116780e-03,2.647937466826914745e-03,8.294611532375152662e-05,6.358808008551677243e-03,2.658631280887501641e-02,4.083205545479285129e-04,6.181420038301909357e-03
2.629432442489325339e-02,3.285562071453933600e-03,3.698803845791962669e-02,1.169669964720995931e-03,2.381060257149548130e-03,8.406188018293832796e-08,3.021627499222303073e-03,2.671457618305003029e-02,2.258390743042606107e-04,1.963460967329783320e-03
3.862596319490841507e-02,1.952223069491059500e-03,2.008873600889667446e-02,9.975119313036704370e-04,2.152429046073232009e-03,8.237909070575045176e-05,3.850339107693570573e-03,2.861553526279989740e-02,3.869878151084470066e-05,3.646986798261227583e-03
3.877701925529696003e-02,8.939661023498496231e-05,1.426466826888188929e-03,8.531766280078327807e-04,1.911686256404924750e-03,1.620080379335652495e-04,6.251304289161334696e-03,2.705289354739495028e-02,1.486704969023209914e-04,7.837699367391271973e-03
3.110037102015590638e-02,8.501492135586324536e-03,2.155225196762158499e-02,7.464812259776555442e-04,1.650646488171068644e-03,2.371172975174890116e-04,7.096501611704893187e-03,2.085472798295062366e-02,3.318352220800406603e-04,1.217773885390693867e-02
2.489191845084862825e-02,1.861344506923560266e-02,4.309621087925612909e-02,6.748635638168773475e-04,1.395809828788603310e-03,3.059719644307124712e-04,7.032814067056171459e-03,1.513371467389205451e-02,5.064679285991899749e-04,1.541137981921631220e-02
2.355312509877784122e-02,1.801336228375868126e-02,4.549289322496919558e-02,6.297472514631409458e-04,1.154722626242205832e-03,3.669965129486626250e-04,7.786224235151687628e-03,1.394569188330324790e-02,6.684541733695094703e-04,1.416192057011333300e-02
2.188335064669896107e-02,2.968585537673078083e-03,1.805061090006742849e-02,6.073449995487775191e-04,9.178198338547153678e-04,4.188129015260276186e-04,8.632112418690177091e-03,1.625676688490393026e-02,8.139939389969486072e-04,7.469101119363625446e-03
1.428423684230881521e-02,1.657907741766085838e-02,2.259885035416244956e-02,6.059514066738000762e-04,6.834933739838897244e-04,4.602725217573005187e-04,8.113586609327035765e-03,1.922717061228875618e-02,9.396949239824351928e-04,1.244307113261004360e-03
6.691999280695722432e-03,2.933663919917425117e-02,4.842505220517177161e-02,6.210110266857065764e-04,4.594943973220530411e-04,4.904816545511116307e-04,6.678207950891341602e-03,1.996165415120557118e-02,1.042655459362411361e-03,8.850773167937238048e-04
1.220374280736456069e-02,3.354972947369891378e-02,5.149818182662004723e-02,6.464999524640438651e-04,2.512292273692049013e-04,5.088211271177740021e-04,5.509086078577926995e-03,1.583080673430795754e-02,1.120535058467607035e-03,4.116707442669867607e-03
3.054526648620701709e-02,3.268082750198369330e-02,4.335611470003708501e-02,6.774361277465130310e-04,5.660002349552526162e-05,5.149595720101299637e-04,4.591057475873303387e-03,8.040584671456064286e-03,1.171610872946898807e-03,6.437573501128533021e-03
4.517055732161219528e-02,2.758262895419532831e-02,3.182120055080669974e-02,7.094523255037393696e-04,1.288945896924201685e-04,5.088594228086337681e-04,3.602948051817275645e-03,2.027595060699167572e-03,1.194818680674335091e-03,7.753838492079792588e-03
4.561402158050686939e-02,1.744771591587255047e-02,1.602308507735506621e-02,7.378052926197366159e-04,3.005310226810626890e-04,4.907756257026840447e-04,3.139841488873839400e-03,1.014541752923512480e-03,1.189777440213910832e-03,9.719528269174992907e-03
3.817466880117959677e-02,4.835021974861066982e-03,2.570713374391227733e-03,7.577492439260081342e-04,4.458259926187691977e-04,4.612474293482561908e-04,3.197072218134048606e-03,2.459101581889333588e-03,1.156796857967559277e-03,1.152638595876454702e-02
3.154182371666258700e-02,3.736061521752117795e-03,1.988105464744594278e-02,7.651807506838109729e-04,5.696340106867230600e-04,4.210834716518789501e-04,1.883324727958081424e-03,2.515952631634431509e-03,1.096867826807533530e-03,1.166803136576567181e-02
2.527186134323624114e-02,3.341322485447326303e-03,3.565299309473489442e-02,7.566342628828237517e-04,6.960382455849927234e-04,3.713404412654802700e-04,1.976464033772292947e-03,5.259797264675057128e-04,1.011636019330317731e-03,1.138376155417190547e-02
1.576672790806779925e-02,4.076202621911254390e-03,4.735986205259585385e-02,7.291257322258893605e-04,8.148129075362897612e-04,3.132958873331135089e-04,6.321564915626789669e-03,2.407415303272666517e-03,9.033593403431121544e-04,1.292127852974965692e-02
5.365682399331696273e-03,1.265053682699223900e-02,4.257735559094312505e-02,6.802782579539670867e-04,8.739768235387912476e-04,2.484159367331572276e-04,8.619846482820351860e-03,6.352153555690577894e-03,7.748503416490674315e-04,1.461168856832672711e-02
2.422587576600752739e-04,1.891632955759209658e-02,1.295549078356678270e-02,6.084969390160088667e-04,8.939236089051468166e-04,1.783187287433647889e-04,9.393942861521053025e-03,1.158769204118527060e-02,6.294050695723929674e-04,1.177732364148047217e-02
4.681949598100000436e-04,2.122828051455506390e-02,2.660124876302532443e-02,5.129837810744746884e-04,9.873593742549505343e-04,1.047344504147432534e-04,1.011103736228174607e-02,1.619824307876951280e-02,4.707201475221339869e-04,3.579426987695540074e-03
1.635515233801570264e-03,1.701471781583875284e-02,4.914813850706055420e-02,3.937018996533123410e-04,1.116071553097459706e-03,2.946296194989235148e-05,9.786564485263373955e-03,1.749753603901193708e-02,3.028001833542330427e-04,4.710524757263155615e-03
9.790249995545794240e-03,6.567816208625503784e-03,4.546436507730008958e-02,2.513888641843547858e-04,1.038594857461133669e-03,4.566993654244239282e-05,6.764488101304951331e-03,1.562375790036140549e-02,1.298578252099621445e-04,6.785766603838535097e-03
1.736825837574908216e-02,4.168562435100540454e-03,2.879039885109120969e-02,8.755933789725124194e-05,8.243142798401440407e-04,1.188565350400017800e-04,2.069502014858611277e-03,1.331477620906664286e-02,4.379103542733683320e-05,1.194818249060586660e-03
1.847979894454094760e-02,1.038012690366940660e-02,1.303484775412550034e-02,9.555367202826331734e-05,1.037349070506085906e-03,1.883504849216584894e-04,1.522311711835424956e-03,1.205790052483940444e-02,2.138343016639316675e-04,6.227851663857969858e-03
1.691831852637673203e-02,1.435733461362209175e-02,1.432970849507455690e-04,2.950698694669695761e-04,1.802633984415578667e-03,2.525082758402227628e-04,2.710307744485423737e-03,1.065947133216731471e-02,3.760702900501910551e-04,7.103818020715585088e-03
1.608333211180684383e-02,1.850686139133843680e-02,1.272507426379127643e-02,5.075104109162064140e-04,2.253154423649421801e-03,3.098279307781941433e-04,2.483229093541602407e-03,7.934959501928330605e-03,5.265112882864031191e-04,7.623448824622292442e-04
1.032088924112557760e-02,1.659978865867528519e-02,2.497855628969842395e-02,7.288878435671707632e-04,1.751705171355371618e-03,3.589840094506907900e-04,2.367616332751158997e-03,4.719064560000176684e-03,6.614814932749289375e-04,4.672089518678443007e-03
3.282685650287006998e-03,1.447880393049163009e-03,3.343365508690484406e-02,9.548701043720440179e-04,9.357897996955081860e-04,3.988581072975038171e-04,2.796765394831423300e-03,2.496224080580783811e-03,7.777069176736529661e-04,4.962246905657928010e-03
1.540461874866820915e-02,2.093749305506039868e-02,3.655334605844515194e-02,1.180893167069092418e-03,6.780412188272652227e-04,4.285641504868791278e-04,2.996882683999851742e-03,1.537809417910577462e-03,8.723950590733247756e-04,5.863987390866591022e-03
1.789687878118017064e-02,3.544761356272833203e-02,3.599836195174836717e-02,1.402158312479069016e-03,8.622022140494138912e-04,4.474679172903456271e-04,2.113972873345040804e-03,8.202438504573029022e-04,9.433023860315528902e-04,1.168329651604114831e-02
1.649228401246112530e-02,3.542850024625633643e-02,3.462227071665031214e-02,1.613763859117764172e-03,9.240900050657563239e-04,4.552003601023966919e-04,4.959357106454076198e-04,1.029380366315776636e-03,9.887880028413276439e-04,1.627296370062554856e-02
2.064317750641468663e-02,2.701215165738206705e-02,3.378323273980775310e-02,1.811096866602188334e-03,7.855175018164701128e-04,4.516644550583338467e-04,4.315611377420140943e-04,4.140877885204494180e-03,1.007852202286654711e-03,1.257092195223710740e-02
2.895625079048832345e-02,1.737875796850596455e-02,3.312625731603149881e-02,1.989948105559537304e-03,6.954311542847319526e-04,4.370354636556540782e-04,1.073540738898796096e-04,6.432924573317525853e-03,1.000158994027850606e-03,5.198947236346448258e-03
3.151082711605292241e-02,7.466097401793493106e-03,3.219671399753590291e-02,2.146062241612644618e-03,7.182884782890707615e-04,4.117546499437095445e-04,1.220174270369825788e-03,6.011842558894259746e-03,9.660420962241714985e-04,5.188592257612674799e-03
2.233821058628192996e-02,3.597449765031949642e-03,3.114664016491783607e-02,2.275250611550812957e-03,7.328727256937882370e-04,3.765166539933503310e-04,1.598630969198380596e-03,4.372557474020865968e-03,9.064942895680402121e-04,1.441760141587943890e-02
6.564496786089193264e-03,1.363834175809333464e-02,3.018462225155961465e-02,2.374699952976884118e-03,6.677455707477771354e-04,3.322508733714050620e-04,1.082847553882233978e-03,4.267832096894349364e-03,8.231404458302285119e-04,2.354502823388255825e-02
4.960239924575561912e-03,1.959510547234974420e-02,2.925090029959389465e-02,2.443077908388855985e-03,5.952862150363393131e-04,2.800973455769521303e-04,3.374386394764502172e-04,5.117144302093413338e-03,7.181949470616324745e-04,2.513607402108567271e-02
8.468464541655571290e-03,2.174910870125155299e-02,2.826589982892688258e-02,2.478013056939910516e-03,6.376470903269567184e-04,2.213777526940651755e-04,2.624883069471274492e-04,4.494274208884032826e-03,5.944045967794795490e-04,2.070960547526776857e-02
1.099495178960109565e-02,2.306278585624846680e-02,2.726766372343138178e-02,2.476028946689087708e-03,7.312934629814949860e-04,1.575622819285510683e-04,7.379700228126132456e-04,2.976443456323411840e-03,4.549784812875512421e-04,1.417307306630830911e-02
1.935654260909433141e-02,2.493632001974586260e-02,2.628848413908260392e-02,2.438096010055553452e-03,6.281827170448912607e-04,9.023316957142434079e-05,1.200307121201246805e-03,3.089786423688656389e-03,3.035065589709443914e-04,5.863819487584856320e-03
3.185905330472754704e-02,2.615815995457338936e-02,2.532442547205382075e-02,2.370031927149442597e-03,4.073845811197896057e-04,2.104582914619139536e-05,1.917191187399218269e-03,5.203582146965132771e-03,1.438690301415964951e-04,5.510881375030292871e-03
4.326798965243611877e-02,2.599799210377277958e-02,2.441206389836364163e-02,2.270709925544407704e-03,6.339361728708210481e-04,4.831148450663541973e-05,2.899506210335198089e-03,8.541795780078458022e-03,1.986123689745677523e-05,2.010854342708493642e-02
5.028948537910315347e-02,2.555659785569135145e-02,2.356781206180951632e-02,2.130889439535006008e-03,1.424905335940978559e-03,1.161584957140401642e-04,3.377845675678472354e-03,1.312519491818795944e-02,1.835207818458043033e-04,3.576430396805352352e-02
5.049268659717934260e-02,2.559376981833952694e-02,2.270692683962419536e-02,1.958300574124365728e-03,1.908420539501752382e-03,1.808632295406335908e-04,3.100947850039356343e-03,1.662377117296034990e-02,3.429595836806020002e-04,4.553897907409727025e-02
4.374058112730725562e-02,2.556952076110818525e-02,2.183079926807351620e-02,1.780669131810104847e-03,1.447701806088738533e-03,2.408808706286777240e-04,3.837023776496023032e-03,1.366072965892224829e-02,4.941444588271957103e-04,4.000705621819263674e-02
3.545117593049932486e-02,2.551942811526594634e-02,2.116495222828597075e-02,1.592040883101901580e-03,6.806301778343709207e-04,2.947902381441981157e-04,7.023673557816130335e-03,2.895497223164515428e-03,6.332592605398252314e-04,1.883163594561394760e-02
3.126021641357053238e-02,2.641335384391933425e-02,2.073314473751055459e-02,1.344680765203331262e-03,4.748011245217151604e-04,3.413270200876006299e-04,1.032447568930614304e-02,9.381826793924175761e-03,7.567994000838546660e-04,3.299854916358091039e-03
2.859709043285955932e-02,2.732442253926651438e-02,2.006887850401371104e-02,1.063220705134197697e-03,7.057633824611195088e-04,3.794129946982031779e-04,1.014347759959109870e-02,1.663925819559294514e-02,8.616583578599610205e-04,1.025502988632740788e-02
1.982758917989759645e-02,2.429110602452393131e-02,1.913060625861176187e-02,8.647546298984270597e-04,8.098621178106520276e-04,4.081805690102813960e-04,7.106419804679239144e-03,1.880825224258471026e-02,9.452040576138490743e-04,1.243957906746033688e-03
3.598863149881908422e-03,1.426145669801822009e-02,1.893309593774214830e-02,7.152478360695994214e-04,7.181430775594482016e-04,4.269920821987557304e-04,5.028657026308136838e-03,1.870577996256139394e-02,1.005343234100434689e-03,1.258924472918816241e-02
1.178083215034123055e-02,9.131599876952499993e-05,1.960149267389750538e-02,3.769882440295702357e-04,6.722803188699198696e-04,4.354534512373882003e-04,5.248872594649688778e-03,1.652923946224783142e-02,1.040572227506339964e-03,2.328372603785232656e-02
1.741275653676808283e-02,1.135296530367420689e-02,1.897160370178302066e-02,7.684333908805255449e-05,7.104805062319874149e-04,4.334218753637027709e-04,5.858693481771041350e-03,1.126946410302616386e-02,1.050012978950018829e-03,2.901946621484580852e-02
1.438328588934147806e-02,1.451834720138908512e-02,1.672701938051184695e-02,7.832370095483794439e-05,7.202025759430600357e-04,4.210074604935319133e-04,5.550791792541366967e-03,4.814117670003711068e-03,1.033433371921448551e-03,2.641238625858254724e-02
1.255760051012444652e-02,1.169679615588292351e-02,1.760157453993830418e-02,5.000063145242438856e-04,6.813695889700269659e-04,3.985687715367374081e-04,4.912527592882594447e-03,1.830433659327845592e-03,9.912514553293931812e-04,1.166342495127061299e-02
1.736429317108374379e-02,7.452689064224073297e-03,2.243480208953309643e-02,7.922593937808352152e-04,6.455967201948256684e-04,3.667024659949950872e-04,4.544256605360292266e-03,5.176070209756907653e-03,9.245234851512104494e-04,9.576812240229147857e-03
2.251131652715237727e-02,2.545309906407304621e-03,1.851917170684750161e-02,1.634903752867339485e-04,6.220744412310092158e-04,3.262273027966736453e-04,4.198407514543672781e-03,1.195874282338882204e-02,8.349161235490726654e-04,2.356551807529672429e-02
2.047433052096638006e-02,3.566036054060315111e-03,7.084258573113689714e-03,7.453176249019139669e-04,5.867955745328352424e-04,2.781629527127119279e-04,3.599588304156253922e-03,1.583158806228865401e-02,7.246635267597995814e-04,2.444233765565118760e-02
1.416253125409277711e-02,8.069616338798791047e-03,4.463475384028956633e-02,1.062379216225308939e-03,5.361144879908198149e-04,2.237041577954552757e-04,2.875015885195365654e-03,1.389767094868103216e-02,5.965104263741800687e-04,2.219039054879918052e-02
1.124222910293441388e-02,7.374387508336198264e-03,6.840006663819764299e-02,9.095317892212048715e-04,4.810631511443128300e-04,1.641908942813953131e-04,2.182431194234305590e-03,9.410746653546644969e-03,4.536426535849135983e-04,2.895715354893647203e-02
1.225655815766279674e-02,6.465823379536290950e-04,6.696623945375833331e-02,8.494827337374232868e-04,4.221234265024295619e-04,1.010752838524893281e-04,1.482279535788613321e-03,6.710756561577719236e-03,2.996068641147328973e-04,4.226508181590375030e-02
1.158597934085208586e-02,1.088711011817459010e-02,5.209136241236816955e-02,9.507226161588810606e-04,3.558796634496399244e-04,3.588607003056766380e-05,6.987331294569943795e-04,5.753015676748631305e-03,1.382214852862489064e-04,4.910418103796133915e-02
6.502007352959022872e-03,2.353889074386819949e-02,3.861315100909824827e-02,9.714813999838153337e-04,2.871635567445918907e-04,2.980847178085343466e-05,1.271479973229193254e-04,3.622801530809017113e-03,2.651888037030803206e-05,4.416602755440925815e-02
1.309388353177437037e-03,3.124427112381585742e-02,2.815450735828024104e-02,8.743898513725364280e-04,2.168635010277652022e-04,9.443829156330386129e-05,8.891118899733366091e-04,5.828522467558048311e-04,1.905432036134919744e-04,3.508657792808705239e-02
1.143441879197667176e-02,3.070333161742007030e-02,1.282381219966299661e-02,7.740041378545775910e-04,1.352484567066055885e-04,1.564690814476115495e-04,1.586692506667059226e-03,5.728475732892857747e-03,3.498054405016647831e-04,2.933118718942600775e-02
2.515443733562416906e-02,2.396355663796618032e-02,9.523904891392908842e-03,6.932689441182559361e-04,4.719383561405747474e-05,2.144386571870698010e-04,2.360443527087253014e-03,1.154016533346960763e-02,5.003850840952185283e-04,2.569281868663806853e-02
3.906994460991752155e-02,1.388183167408352757e-02,2.434948378348783180e-02,5.836453151622380360e-04,2.216740172802152825e-05,2.669913438673344065e-04,3.156975607710651999e-03,1.696733249064961632e-02,6.385843595152421040e-04,2.144897433528943770e-02
4.500904234272556231e-02,1.591999168822116851e-03,1.204260259121845214e-02,4.392696048181116619e-04,8.108611724159253556e-05,3.129095599903271622e-04,3.377214421141869986e-03,1.779088981556461654e-02,7.610196554031165841e-04,1.828926132581130265e-02
3.981012248480563648e-02,1.028345100072517067e-02,2.485687401549822526e-02,2.888418336653679887e-04,1.804376517472267244e-04,3.511418674938744417e-04,2.411758838258903220e-03,1.119379436957496088e-02,8.647049337307578538e-04,1.668851661377499310e-02
2.966033318170488431e-02,1.704247045532775173e-02,5.830521048598308331e-02,1.419174300515944908e-04,2.994961090566758063e-04,3.808268455927343041e-04,9.579520443851868025e-04,9.352393840523724050e-04,9.471250645074541161e-04,1.197742245896535329e-02
