1.452191305175829297e-02,1.130299501580372436e-02,4.327354620862611592e-03,3.225303814657246395e-04,5.158858571243880647e-04,6.798895525026845896e-04,1.789873090715776716e-02,8.213440902470363347e-02,2.971793449080804578e-03,9.079653232002255978e-03
5.946844170956937584e-03,9.954651320678808285e-03,8.659404157452579289e-04,2.392630576514160820e-03,4.388665523507881503e-04,3.914845055424191192e-04,1.651046144643000813e-02,6.752911363512228982e-02,5.470617818816534209e-03,7.718855377502047144e-03
7.379570040801856044e-03,8.351439655858662950e-03,2.892761778748640430e-03,4.740460906921086133e-03,3.393308577035569870e-04,9.536031117371472014e-05,1.358360848970420823e-02,6.064503896560664853e-02,7.787993259926985316e-03,4.007928876573684310e-03
1.704908165487372881e-02,6.534474945249062368e-03,6.957680601724487018e-03,6.481110776786941190e-03,2.579138002064022481e-04,2.032635979243008597e-04,1.112121944407910498e-02,5.761586878128373279e-02,9.013373752683951495e-03,1.931569902472634985e-03
2.520166062369639387e-02,4.550240867949219975e-03,1.133618961816661164e-02,7.725139905976880113e-03,2.104940912111374733e-04,4.991734165544852407e-04,1.508648318145345245e-02,5.431104508397777142e-02,1.091263800004688145e-02,3.603047266790224308e-03
2.469326075645665933e-02,2.449741796679545322e-03,1.603641778327734302e-02,9.025865748858850901e-03,1.563665316681308399e-04,7.872853803459847234e-04,2.545828364297554602e-02,4.725236335725069292e-02,1.554356845716774876e-02,5.605471576331506715e-03
1.698131774183813530e-02,2.874450535149627485e-04,2.106554776987708613e-02,1.044462651769637040e-02,7.345762867726492152e-05,1.062767047827192128e-03,3.315230279811638703e-02,3.257246939108857792e-02,1.859829959842625516e-02,4.020854776176112019e-03
6.981216176370686442e-03,1.880681762836810145e-03,2.642435256915893690e-02,1.173545798413686871e-02,3.295248563212531216e-05,1.321152405774693277e-03,3.152231897211780348e-02,1.247262146000280465e-02,1.167063112067193327e-02,4.520654276239497891e-05
2.689808386797672580e-03,3.999005735856124219e-03,3.211028351254705676e-02,1.285964411615335944e-02,8.243023430195292947e-05,1.558447881323424744e-03,2.375935127467374702e-02,4.535103742542310155e-03,4.866479048133726115e-03,2.806088763156614277e-03
1.090525823160933688e-02,6.012325921826149923e-03,3.812890257547029565e-02,1.393212212628876755e-02,8.148404161960532592e-05,1.771226551390737416e-03,1.619842394510714184e-02,1.396297282564794989e-02,1.853289063185380170e-02,3.270874809327446210e-03
1.606837317249401251e-02,7.866292685143876084e-03,4.448735559952475549e-02,1.497836893879583853e-02,7.283574568438392672e-05,1.956708130903888135e-03,1.067155463914565977e-02,2.080233283510185896e-02,1.894708542216694963e-02,4.068866577300197206e-03
1.791128202105315981e-02,9.511534606012762849e-03,5.116964994336548056e-02,1.595693508689347700e-02,8.563794443604329384e-05,2.112822664507189169e-03,6.122629150325357289e-03,3.277309309680628141e-02,8.187572700870207956e-03,7.814270994654206118e-03
1.885058083421935204e-02,1.090707579394053529e-02,5.814991292565157427e-02,1.687255399320960678e-02,2.797708920344284061e-04,2.238256210842368404e-03,3.704022982151506781e-03,5.051712106145234138e-02,6.130700444994518876e-03,1.374406853951758330e-02
2.080297166374909038e-02,1.201559377569976286e-02,6.544560284104228298e-02,1.776244850192191735e-02,3.655225708790423500e-04,2.332477237866696293e-03,6.364116900403995677e-03,6.576288941703339885e-02,1.990489816306157886e-02,1.778249096678978861e-02
2.254895567873997989e-02,1.279965760319341610e-02,7.309074922176843347e-02,1.864410482375945463e-02,6.509831523930174196e-04,2.395742981870496117e-03,1.323113810828718817e-02,7.056057254054703964e-02,3.153711718231225897e-02,1.602280826364990696e-02
2.258740127388241675e-02,1.323500279134781632e-02,8.102187904955814035e-02,1.952940658876672550e-02,1.975595638155587964e-03,2.429085538164117968e-03,1.785262824796490441e-02,6.782052847954997410e-02,3.919290277696379360e-02,8.375137937355232876e-03
2.208298300604263562e-02,1.332166100503023864e-02,8.913254536442379028e-02,2.044581140397109392e-02,1.810840932857013617e-03,2.434277824955544296e-03,1.466966971704221703e-02,6.816562809941784096e-02,4.279014307153743840e-02,1.240267025130073779e-03
2.293852871050664280e-02,1.305808267799681704e-02,9.751881505552020823e-02,2.141005057699407049e-02,2.468631203886748841e-04,2.413780017975119142e-03,5.374650010576281084e-03,7.613583580553401342e-02,4.479810800493581879e-02,7.944421867421780359e-03
2.563485232576917516e-02,1.241825192068102095e-02,1.063697277402930325e-01,2.242255378704756039e-02,5.386040924455967865e-04,2.370667822042571947e-03,3.269266748622646785e-03,8.613608749149231913e-02,4.716772219888221845e-02,9.236379802446022247e-03
2.940358429843181048e-02,1.140724765105288231e-02,1.154406029559371799e-01,2.352007890345266666e-02,2.874190250498315333e-04,2.308544515552669180e-03,6.806751664973187399e-03,9.188451840841502238e-02,4.987704191226511458e-02,6.206954693737717216e-03
3.146031124865410894e-02,1.011177060739986734e-02,1.242738571713862539e-01,2.476764023588252234e-02,9.451337845829395432e-04,2.231438531936383047e-03,6.997416497285424870e-03,9.149146160165499975e-02,5.270551911633894471e-02,1.706916318982846809e-03
2.807469649988650687e-02,8.582307255475232072e-03,1.333333077467631911e-01,2.614465902149857440e-02,2.354909552512032898e-04,2.143688470078962665e-03,8.243779477153849108e-03,8.431899260292889664e-02,5.575204945527404560e-02,2.404220795528855779e-03
2.019475695981767446e-02,6.720960586427749892e-03,1.435668383773861523e-01,2.756680318213000982e-02,4.992566990651684964e-04,2.049819005739050761e-03,1.127235619913349515e-02,7.197133237613947965e-02,5.827163441529863153e-02,5.351460519304859255e-03
1.410729946035764806e-02,4.528339691680966124e-03,1.539113671788899795e-01,2.913082319776245238e-02,1.630041420081661989e-05,1.954411982988305853e-03,1.329879383863024310e-02,6.045368786237080572e-02,6.002859466480906653e-02,6.383994410424370311e-03
1.308142616455308313e-02,2.347119900552887845e-03,1.619973325213218129e-01,3.107216976219872792e-02,7.947418356402121504e-04,1.861974452740802278e-03,1.424137548786439875e-02,5.417084092256035238e-02,6.324140026738821196e-02,6.472524889287838146e-03
1.433350038884299502e-02,3.378410802740785829e-04,1.696958207955477360e-01,3.318260219104147979e-02,5.090116397142841181e-04,1.776804258216864657e-03,1.741214629273809059e-02,5.151591778981035735e-02,6.852768017481343510e-02,9.330332580339726137e-03
1.696173172194320039e-02,2.059660060203237410e-03,1.827246672865921462e-01,3.473540855291198243e-02,4.009564180002753988e-04,1.702859486481975073e-03,2.295277767879490283e-02,5.037755312299208033e-02,6.953130608294025294e-02,1.674633648204750316e-02
2.418340774547403718e-02,5.020717832650323752e-03,1.978205669166009095e-01,3.584163336011852302e-02,7.769886663864236306e-04,1.643640884714828122e-03,2.681272281790823483e-02,5.174582699052317908e-02,5.885133067457290479e-02,2.404070081147995780e-02
3.340377675730271667e-02,7.129668848164421972e-03,1.947962780941976391e-01,3.819613155696305329e-02,3.766878774018863956e-04,1.602084082965799308e-03,2.742448681964058943e-02,5.451143844001808680e-02,3.952153763490186961e-02,2.393331319423685349e-02
3.276780669026364140e-02,7.762012528764945449e-03,1.510555217846518139e-01,4.160742733875418681e-02,1.796435813085838439e-04,1.580451842763902796e-03,2.604073237424465309e-02,5.178588235379065485e-02,2.141146315854772914e-02,1.454226206122526642e-02
1.417284529982639277e-02,1.047373234143146072e-02,6.174747883453003683e-02,3.861997941856670780e-02,3.137894398353837451e-04,1.580241943742951216e-03,1.982906344307817231e-02,3.583895871791496768e-02,5.316675999293725766e-03,1.191922654518849482e-03
1.462236049707282652e-02,1.974728762818998840e-02,6.103168508960817723e-02,1.719116914939856217e-02,5.242963679705933905e-04,1.602140285115003599e-03,4.715491316202538585e-03,7.289936459404102766e-03,1.956030378821274965e-02,8.987684136209201161e-03
3.575343235873486292e-02,3.353025562129758469e-02,2.002852070729413403e-01,2.577468589113268704e-02,2.182655952967301784e-03,1.645993861720557866e-03,1.307364174435946338e-02,2.049345140491166256e-02,6.010567451419286666e-02,1.269966075419078598e-02
3.874477803592383390e-02,4.405415832510269775e-02,3.320226898454842202e-01,7.540615436060718602e-02,5.009537922423346577e-03,1.710745779916476080e-03,2.001365574330619609e-02,3.098068092986878963e-02,1.078060932167501651e-01,1.197179450006569112e-02
3.104943898532372404e-02,4.719028040829895132e-02,4.183206846785674227e-01,1.088225067655265166e-01,6.171044694217745451e-03,1.794389518150282846e-03,1.367235108960013733e-02,2.317268775666935995e-02,1.438938943959630345e-01,1.134392688914584793e-02
2.957784535870923090e-02,4.551429403633859561e-02,4.253206687805405894e-01,1.137773482191145602e-01,4.091287901090388812e-03,1.894070516835286893e-03,7.146166939729635056e-03,1.500470009720271392e-02,1.531432976591491080e-01,1.278900958570405172e-02
4.077165367235574545e-02,4.136910246254562468e-02,3.593683505461672256e-01,9.479341340713438868e-02,1.119147802744940422e-03,2.006217745644586683e-03,1.015176524341963177e-02,2.207856022890197084e-02,1.337490066878817829e-01,1.366857068875473348e-02
5.290616903917127328e-02,3.351555381123737243e-02,2.722239910977055644e-01,6.486860851864142963e-02,1.413204437090047143e-04,2.126428467818987193e-03,1.570999597400903752e-02,4.031305681064628610e-02,9.688567980039797245e-02,1.089071343481262839e-02
5.154437801935687208e-02,2.251770002030548806e-02,2.128157675547966698e-01,3.619263785066578754e-02,9.065636261045413547e-04,2.249347763854716090e-03,1.306410683143184592e-02,5.601137685878584960e-02,5.791719506086267372e-02,5.621125443492832122e-03
3.775432648725648987e-02,1.313983915603907267e-02,1.796515459062519582e-01,1.454694967971186491e-02,1.507849865726306089e-03,2.369136758955531653e-03,6.132796411503074925e-03,6.351739852384863383e-02,2.526368846104136770e-02,1.847503368296315226e-03
2.492322546999192756e-02,8.461656604164336307e-03,1.363622186562853389e-01,3.767005828486550984e-03,1.298274933095463395e-03,2.480024158744804572e-03,8.728203133195513996e-03,6.496686545513981337e-02,5.432061637083157243e-03,1.296948550215112211e-03
2.115232964483594949e-02,6.413286809787851171e-03,6.396767019971671964e-02,2.546227700049800979e-02,1.031792517902268939e-03,2.575653021246686065e-03,2.537063499719972165e-02,6.284302691328984281e-02,4.137803208821841383e-02,1.804641790176869307e-03
2.238771626300205611e-02,4.316009079573561273e-03,2.010429877193819354e-02,4.581139927283484070e-02,1.463639408062116301e-03,2.648260765840646045e-03,4.812177369626315787e-02,6.226084050124583436e-02,7.239777536505735689e-02,9.074567372408526289e-04
2.149091754905197577e-02,2.151439734927259456e-03,8.439044164639772361e-02,4.944523685426354537e-02,2.421006808118917122e-03,2.690461519406565829e-03,6.932977542486915001e-02,7.001158730245299333e-02,7.308122108326524369e-02,9.248878094579773140e-04
1.616244896825272392e-02,9.273270730575529884e-05,1.104371080903051999e-01,3.319459567605403255e-02,2.928567301375140965e-03,2.697476557994186314e-03,8.413120694023823454e-02,8.091999941067733182e-02,3.693394074463703797e-02,2.402958809582199633e-03
6.712844170806675156e-03,3.059212515407949348e-03,1.050721391524540582e-01,1.529688090377453839e-02,2.438681689390875384e-03,2.663832497059413253e-03,8.442475833479475000e-02,7.692428957129091027e-02,6.501535272008031677e-03,4.183464109224595967e-03
6.843340526973341539e-03,4.989598532206704525e-03,9.067036228307867596e-02,1.002569524675716792e-02,1.653887887915360096e-03,2.578961064163543676e-03,6.818571348274589383e-02,5.128476003609076100e-02,2.405727019864481106e-02,6.036747566536088301e-03
2.116425696262690462e-02,3.625216762130662081e-03,8.065733329414193076e-02,8.392576846989751455e-03,1.490988446482999392e-03,2.434577026654996187e-03,5.206300177014651365e-02,2.205885809278545356e-02,1.349359903611560031e-02,4.759807119888043517e-03
2.840093334477507975e-02,1.772982271009943423e-03,7.301537522471401864e-02,8.443132530404347073e-04,1.761354918954528056e-03,2.234690476849440256e-03,5.552623045952449765e-02,9.981595116069958556e-03,7.910339245477437595e-03,2.605908312974286774e-04
2.575608904253701148e-02,5.463371711775476952e-03,7.005793073361882284e-02,8.654756308726963693e-03,1.678789758690113531e-03,1.980504939748538654e-03,7.396389777860989945e-02,1.265299462595867105e-02,3.078486054036215502e-02,3.653391552966495266e-03
2.241570691743634963e-02,1.584888966682550943e-02,8.611979057355519107e-02,3.727797267683229891e-03,1.260183469888420714e-03,1.648995242455897478e-03,8.457736407276131296e-02,1.014084357141778470e-02,5.316918886721003212e-02,1.665414599923318532e-03
2.732681144040064597e-02,2.723022355302779848e-02,1.261941978210203708e-01,3.609804006477100417e-03,1.320921161621332494e-03,1.224907332295413530e-03,7.694526306787707881e-02,9.808254203418645401e-03,6.809827759059645935e-02,1.362455771501306029e-03
3.341114612072265677e-02,3.357775085610786858e-02,1.705646201170799847e-01,2.267426555037706671e-03,2.005051634137632478e-03,7.475948003349985492e-04,6.270452717747851401e-02,3.683455616326410109e-02,6.842248574763815094e-02,6.067396075603575124e-04
2.640225974212175725e-02,3.420333216472592336e-02,1.895285442638890427e-01,1.503167254917837752e-02,2.286732804707339913e-03,2.440903274290284731e-04,5.514379232674178344e-02,4.762436466808400715e-02,5.454809466081349950e-02,6.947602384319769356e-03
7.001678915317999241e-03,3.272256797324817751e-02,1.661916787473987078e-01,1.776002533239321238e-02,1.539262259541505050e-03,3.725555567812705569e-04,5.168297930446735106e-02,3.377228279397884864e-02,2.786687354146909559e-02,1.294898545126381764e-02
9.565475100883112994e-03,3.169906645170871007e-02,1.038321065724590042e-01,1.221804255248762003e-02,5.629834772552390993e-04,1.162943327278396924e-03,4.153191293113657478e-02,1.510292458617971088e-02,1.217129632373083192e-02,1.621412528045186596e-02
1.428399655177940708e-02,2.920239073551018569e-02,2.325995330627052965e-02,1.534611762445676521e-02,1.825741755044625429e-04,1.940305320584833661e-03,2.215671778206353484e-02,1.467998047979081691e-02,5.741667510645243055e-02,1.673380687961107532e-02
1.044879921931265998e-02,2.244253725668681615e-02,4.492745964593244934e-02,3.101969606017555836e-02,1.244419998455068000e-05,2.564111393461727603e-03,1.925531571133325386e-03,3.062261243208985392e-02,8.904080275474438033e-02,1.480300736193065382e-02
6.788778494856092822e-04,1.441865808385021930e-02,8.314821840124596297e-02,4.381748733008967306e-02,4.088903804560670651e-04,3.425180480910449809e-03,2.982608167287381998e-02,4.513835637074959523e-02,9.308453117577213110e-02,1.194634159409518545e-02
1.632291834859775706e-02,1.231030625850787485e-02,1.082502708923948065e-01,4.052316749211215541e-02,5.744771428537596330e-04,4.847212655285132628e-03,5.834978084875977467e-02,4.543202257673729927e-02,7.207523266065425649e-02,1.067763716262828087e-02
3.409903708145808204e-02,1.812380324239306825e-02,1.487759339596240460e-01,2.402256863515295215e-02,1.895753121862813698e-04,5.940062935248580263e-03,7.313853415025488303e-02,2.674015627115782293e-02,3.983456652706349882e-02,1.135626261319765302e-02
3.810666925372326042e-02,2.590344199646378923e-02,1.953293327114811184e-01,4.711691415865776333e-03,8.679684304415935775e-05,5.384983713913132908e-03,6.614204869800130449e-02,4.887017832998673955e-03,9.087740736779518005e-03,1.181422795212458063e-02
2.265682099852968368e-02,2.927156067244356813e-02,2.043301173896647227e-01,1.204161465751422966e-02,8.530296739496652210e-04,3.554127616891273114e-03,5.225712985174174596e-02,3.104641385295238767e-02,1.715616372389336050e-02,1.101703166228806471e-02
1.331723936355194704e-03,2.738899189970380940e-02,1.595944287302694664e-01,2.758956654492613139e-02,1.861849398592058504e-03,2.105355145920330233e-03,4.669064009936605558e-02,4.177408616197805097e-02,4.378938421296803968e-02,1.036489740827565079e-02
1.893036937416938889e-02,2.348673247388635005e-02,9.495497146049181048e-02,4.356483429239468852e-02,2.537549976837057911e-03,1.532384016629407836e-03,4.116176049659328595e-02,4.847147347315212268e-02,6.981254301585720912e-02,1.035421119128336100e-02
2.356342168272430176e-02,2.119834237445621453e-02,4.290579841699681402e-02,5.500694190702070524e-02,3.018392671648760430e-03,1.224379317165575102e-03,2.575220913446990556e-02,5.943970849711419091e-02,7.983551890336466894e-02,8.569938103983740924e-03
1.642227634304510575e-02,2.179849466694112892e-02,5.520732334118597789e-03,5.199248918669002045e-02,3.103669908617561271e-03,1.449594856226903193e-03,1.378449484285238641e-02,6.251803782818922406e-02,5.977927281815872962e-02,3.007162178374272674e-03
2.833764018329253814e-03,2.280012560373793212e-02,6.751197736893815859e-02,3.174844100079925180e-02,2.534882261548395375e-03,3.190426160993009401e-03,2.218514195275725701e-02,4.632931845827701484e-02,1.798587856586938288e-02,3.598304338470817865e-03
9.994761002005905434e-03,2.030988223509706467e-02,1.186180451158147520e-01,4.788436349162873175e-03,2.404140348276734198e-03,6.772712727453785754e-03,4.863256586558292044e-02,1.533849925504964830e-02,2.222966062821801758e-02,5.227234642523573283e-03
1.789596359593226618e-02,1.363259817269056075e-02,1.121631259394433033e-01,1.636566466223345062e-02,3.785620355226794118e-03,1.142636653532019646e-02,8.228987779506087563e-02,2.097519738243787055e-02,4.766376334783348906e-02,4.520256432460857329e-05
2.149375945515833233e-02,6.464984329512060007e-03,4.912144143151582487e-02,2.776443005227136746e-02,5.088844822075965814e-03,1.458657612720881333e-02,1.129543816540573148e-01,4.803942210844224653e-02,5.938985689933441031e-02,5.262036301798497968e-03
2.155374169443051435e-02,3.699772714174679074e-03,5.667318728338028092e-03,2.904964408115180349e-02,3.845452770906501901e-03,1.278897672438113198e-02,1.270800017014878935e-01,4.532739445450775784e-02,5.718546409770491890e-02,2.474122123503600616e-03
1.776797262399605268e-02,6.952405800700064455e-03,6.588930560596438848e-03,1.939891542568009455e-02,1.182838604408920991e-03,6.283324258174537158e-03,1.206111682057803142e-01,1.471763454006958828e-02,3.795195552811236189e-02,7.521787769502481097e-03
1.193166307930176862e-02,1.157338803468293403e-02,7.376584560360101295e-02,3.864907985488533551e-03,9.480153522323704098e-04,4.308783559198580294e-04,1.083934270565210523e-01,1.180001924575728792e-02,1.033633868052352342e-02,1.583186681544397623e-02
6.521320879281343637e-03,9.478356173568756871e-03,1.317794577389808652e-01,8.261139419427252287e-03,3.762158268840882537e-03,7.505504645586299562e-04,1.017933574351621573e-01,1.681116807247055867e-02,6.399059959886246353e-03,1.636667728496025292e-02
1.845246128524213880e-03,2.271999585056663079e-03,1.353094281912546604e-01,1.508563534106126085e-02,5.763217941468432894e-03,1.033717626344448498e-03,9.635585096529240834e-02,1.699726741657070148e-02,4.179124085215463365e-03,1.074908322497086267e-02
1.364101255796133566e-03,1.779963991545935667e-02,9.894908625754467169e-02,2.048786444431128020e-02,4.603804913179367596e-03,2.961425120489462326e-03,9.223226846131629686e-02,2.234192937795411241e-02,6.813440471395881132e-03,4.751879484964006105e-03
4.315182972668727768e-04,2.932149967568363491e-02,6.905273127237343544e-02,2.122780900536352933e-02,2.852583213988831978e-03,5.100736309494287649e-03,9.745740042957004579e-02,1.839255543926097275e-02,1.786981546049439332e-02,4.302840295787957112e-03
4.357053168038774356e-03,3.417540215632225431e-02,6.032913163362137871e-02,8.979880973244537892e-03,3.314275239294592595e-03,7.308540459060458572e-03,1.035813602573771308e-01,2.476225033697143467e-03,3.199913509922863025e-02,1.180352750768809238e-02
7.721559299985528840e-03,3.301528409749315829e-02,3.921800291370799996e-02,1.530312068000848347e-02,4.607830035906613879e-03,7.411816666443261578e-03,8.972327543625280288e-02,6.291341964449746402e-03,4.792220141889693558e-02,2.309499322242233518e-02
6.602729345513719955e-03,2.497366006281396753e-02,1.511252191020007012e-02,3.976606201830317627e-02,4.186542743819719921e-03,5.078722340891205812e-03,5.927131677894807715e-02,7.126311540412355247e-03,5.350103115227608508e-02,3.072530771358702659e-02
5.540493568614172741e-03,8.633054431019226635e-03,6.301829985466939066e-02,5.329853750615980157e-02,2.603941392325890333e-03,3.210253345889400606e-03,4.440532446084663465e-02,2.690537652569575250e-02,4.514605671944907361e-02,3.081612902420999972e-02
1.037637050042057758e-02,1.234208379044805098e-02,5.930369431033628153e-02,5.268813277273250856e-02,1.701405787523667607e-03,3.571393323551065244e-03,6.357525550617801335e-02,7.280410483323625226e-02,3.570954856843897712e-02,2.464663141919306091e-02
1.972117972690235962e-02,2.914121304416239511e-02,3.072854540645045263e-02,4.194938787969726413e-02,1.186930010599280020e-03,4.404803990705942300e-03,9.747680350570610275e-02,1.109435541748467896e-01,3.406209373602470114e-02,1.585541587935835467e-02
2.702749427542689917e-02,3.869780471666908750e-02,4.000442016265721989e-02,3.020676617133030012e-02,2.062142538559506117e-04,3.719958769874670296e-03,1.185051666561678374e-01,1.124491750309509763e-01,3.430269473137570468e-02,8.720930904354015287e-03
2.912219290772646851e-02,5.110416356619674333e-02,9.018969849445571119e-02,2.680926189248776514e-02,2.358117954074212389e-04,2.363926578249245496e-03,1.251149245607990901e-01,9.479184976230081716e-02,3.218036873056787095e-02,6.104248669778702605e-03
2.791139558957961286e-02,7.352545253291313532e-02,1.293807571989735450e-01,3.287740497977069409e-02,3.046775400910619637e-03,2.496276957457648719e-03,1.342003064758093556e-01,9.638249368923550164e-02,3.410009614119887539e-02,6.475179183028399038e-03
2.457392911850026299e-02,8.619330826645899002e-02,1.370423958295249600e-01,3.958294505341586333e-02,7.124804843839026638e-03,4.699156561137628023e-03,1.517925729500099463e-01,1.265001147092815192e-01,4.269560662116612254e-02,5.294655447254664402e-03
1.924487510143746763e-02,5.583564265089591833e-02,1.435145859858728556e-01,3.840302078878977954e-02,9.418723056893698459e-03,7.994325106916718576e-03,1.655561877485553224e-01,1.613111342249156366e-01,4.894465457353402299e-02,6.072741574165310772e-04
1.685767554529205361e-02,1.721200234144963301e-02,1.728823471522811794e-01,3.008486080249539799e-02,9.814715835285056297e-03,1.161669555392704813e-02,1.636105828245933147e-01,1.809350480603010014e-01,4.497916195746957946e-02,5.175426387022161179e-03
2.244885249311243808e-02,8.860992831109512635e-02,2.161816408361356412e-01,2.085493847451070845e-02,1.062765287055916774e-02,1.503045607640526686e-02,1.472694695652075336e-01,1.860274917183298293e-01,3.383272037109736480e-02,9.577611960489843673e-03
2.857940795445586615e-02,1.200345162424181072e-01,2.538752136591556630e-01,1.386588160599803304e-02,1.203433204089300601e-02,1.644853154159577752e-02,1.203283078673033357e-01,1.756689794944099603e-01,2.240708345979970303e-02,1.292059849969430865e-02
2.104463385032638578e-02,1.172657439561012177e-01,2.700550103703737714e-01,7.334134934604145777e-03,1.129626768185467908e-02,1.325514978237356603e-02,7.838470519384987956e-02,1.365001040533672660e-01,1.194221301388696636e-02,1.604360762331153573e-02
6.520626614382673495e-04,1.077934770814118898e-01,2.505803191626154725e-01,1.592096026530989954e-03,7.105716300719253087e-03,5.159849837548948805e-03,1.775852281259546542e-02,6.961671078667711066e-02,1.354243021748779410e-03,1.887373717729439598e-02
1.464082048845070753e-02,1.033277853320883483e-01,1.915214311655434321e-01,1.356811520258933458e-02,2.174516079072202381e-03,3.797487405331774219e-03,5.183803655898333584e-02,7.424101178695060275e-03,1.932571847520067609e-02,2.197655067830723424e-02
1.391610264106486750e-02,9.613272883470003194e-02,1.098673625413490174e-01,2.727012374485911911e-02,3.145305046038715849e-04,7.915514251118973069e-03,1.050640734363244982e-01,1.586272445238856924e-02,3.842141533307959905e-02,2.500227331218844370e-02
7.894925805847389372e-03,7.709279198426848001e-02,3.376166042629418634e-02,4.144752448624020036e-02,2.021368697819178259e-03,5.026894163003643203e-03,1.128629700805132419e-01,3.450622915622916440e-03,5.379263528191283866e-02,2.378006568402188728e-02
1.371609684773223391e-02,4.787247284551561510e-02,2.130601612852420224e-02,5.461086263482532732e-02,3.584800340815523338e-03,8.241669534875728422e-04,7.866801192827614642e-02,1.513364909929999086e-03,6.411570331792924848e-02,1.468754450077904700e-02
3.316397862344434844e-02,2.061316567152117474e-02,6.172952925095863408e-02,6.296479828538659174e-02,6.529702848445783758e-04,1.796701431069409492e-03,6.371000549187984252e-02,6.571934714856786375e-02,6.946240583262563995e-02,1.003240836985167667e-03
5.316258954350195493e-02,8.101612995297755027e-03,9.587066537252823817e-02,6.277578649099770092e-02,6.960815666505726015e-03,6.700819716840209807e-03,1.305369792938221585e-01,2.025869761808616332e-01,6.744476962192927361e-02,1.035870146545695911e-02
6.350874849232243657e-02,1.325823226165658529e-02,1.098241072766508730e-01,5.502894033044970074e-02,1.466269974448848080e-02,1.953946479232347710e-02,2.476209233644186547e-01,3.393852381341114777e-01,5.596153321086515253e-02,1.599849000745754216e-02
6.496669108234137680e-02,2.997586581004653417e-02,8.003497871770336169e-02,4.282421954530480496e-02,1.806089834676859185e-02,2.540421993667097561e-02,3.052005185481278526e-01,3.850920196480560054e-01,3.750446057393198168e-02,1.612503292904204910e-02
6.078597830171587890e-02,5.114305041348948810e-02,1.533641907671042491e-02,2.591561182058890744e-02,1.735341339756014609e-02,1.972360155228673750e-02,2.505981325727539843e-01,3.286927795903407667e-01,1.754763998334546091e-02,1.197415208730610338e-02
5.096199265905639736e-02,6.970707492850090892e-02,3.518273485654782595e-02,4.956327256127329370e-03,1.572492922016787906e-02,1.011048332559807104e-02,1.538957508259047036e-01,2.422427127913317491e-01,1.192204352259057087e-03,6.741708391694262864e-03
3.774389374280560233e-02,7.628805383605227752e-02,3.267756065223204748e-02,1.200206925889310376e-02,1.506734199196337227e-02,5.666929225926601449e-03,1.081966626401449083e-01,1.861365240900378082e-01,7.518649633161744901e-03,4.902313424607293059e-03
2.748386333469591408e-02,6.558670891896944966e-02,1.096582425236193592e-02,1.633528187610958776e-02,1.493107116917818424e-02,6.373996491731545068e-03,1.171648018380630346e-01,1.546664532430267192e-01,6.693885626487863436e-03,7.115093172646935228e-03
2.248650879693495086e-02,4.438231171503097955e-02,6.104070265469146994e-02,9.761554760346225629e-03,1.451202681747181499e-02,7.663496981236287212e-03,1.273522044283428301e-01,1.218693455843695983e-01,1.685516185904490337e-03,8.529151582031161555e-03
1.765562049384709550e-02,2.530327931646701722e-02,1.056635042885729903e-01,8.804238332371224982e-04,1.377279429882483260e-02,9.609973752709291550e-03,1.279624204144952371e-01,9.448788608122010713e-02,1.320940580710560155e-02,5.103915285471813390e-03
9.129204855729572410e-03,1.168144423589599808e-02,1.455813366884037841e-01,6.132078044169086799e-03,1.261505226351845865e-02,1.440611102391134261e-02,1.489049783401696359e-01,9.006426877263966346e-02,2.503479965202446214e-02,8.122153678771757996e-04
1.696270064865169815e-03,6.138896776771804453e-03,1.619272961275124711e-01,1.296168532814827995e-02,1.020365160440993811e-02,1.842724892132273015e-02,1.799717744793513374e-01,9.198992551093708447e-02,3.751530576121211297e-02,4.495575187487032762e-03
4.522775853529412658e-03,3.787304592846879592e-02,1.363112642109631234e-01,2.029132897447495990e-02,6.082765404602927944e-03,1.568561530626811848e-02,1.742270448263322224e-01,6.976814274195512755e-02,5.004913666384296078e-02,5.308969065031692892e-03
2.148057710024438988e-02,7.822230687119281767e-02,9.124206044193840237e-02,2.548550317681614816e-02,1.777751604708164776e-03,8.440400883117966588e-03,1.357310747320901179e-01,3.468316020606340699e-02,5.603880443881455869e-02,4.647961229754101094e-03
4.743685529744390977e-02,1.044767726248524986e-01,7.082763162566825532e-02,2.656566216993279383e-02,9.578975756424222728e-05,5.973228885908183315e-03,1.257552413748934395e-01,3.314499870686548472e-02,4.806535396718349812e-02,1.402878897884669157e-03
7.268820543293168235e-02,9.256780013815651964e-02,8.725959076510991785e-02,2.447499625870891773e-02,2.353859732553306456e-03,1.239093055189401972e-02,1.681998991060393300e-01,8.625785796414542350e-02,3.001646591681981710e-02,4.465677259720414807e-03
8.816043917836935417e-02,4.219366542550594124e-02,1.141009481048460006e-01,1.940006929368441255e-02,6.865086509430760875e-03,2.245682026176824830e-02,2.189019206118204830e-01,1.681071918350834082e-01,1.478662897180408470e-02,7.745098937672585150e-03
8.823897761128267347e-02,1.646139998546981148e-02,1.237921582655959474e-01,7.044451051163338508e-03,1.029810583331993226e-02,2.904890702522164303e-02,2.420256793745465818e-01,2.353955876512191514e-01,5.896704673396842636e-03,4.186364209618289450e-03
7.495014197867173877e-02,4.860105159411649139e-02,1.119918630674418131e-01,1.564427967466336736e-02,1.039465513899649404e-02,2.887630978741051457e-02,2.477153873635635772e-01,2.535620787083441297e-01,6.525766623895720361e-03,2.088662154967621011e-03
5.858206727486045540e-02,4.455095767828438219e-02,8.883582090343090931e-02,4.033036446718001045e-02,7.462296279017979067e-03,2.228666928565360000e-02,2.416428187131215710e-01,2.122516901251499943e-01,2.601129896010987916e-02,3.752889294138492780e-03
4.852390238443862053e-02,1.873481553098111860e-02,5.804082656503569554e-02,5.137702290348877820e-02,3.304596481366197259e-03,1.310251730880146459e-02,2.137020233804224623e-01,1.395477633505773918e-01,4.009451760717414742e-02,8.074671170829926872e-04
4.587220295543519705e-02,1.283273301450440877e-02,1.669097110817053392e-02,4.370191298290963811e-02,5.798681546474186623e-04,7.353921839665299338e-03,1.896329557595850535e-01,8.262623406617854160e-02,3.811283100303489851e-02,1.352423794233241841e-04
4.761481770097113209e-02,4.445057433220449966e-02,2.155732771644178897e-02,2.862767205244416691e-02,3.293216916949608542e-03,7.550795589578957606e-03,2.101197013797946322e-01,5.726632733487532767e-02,2.710122424443940636e-02,3.322092330676007857e-03
5.081800063653569427e-02,7.422142868283793105e-02,2.745162158984655251e-02,1.836856007966460730e-02,4.556829741439291995e-03,9.643032743963426620e-03,2.498147800962274290e-01,3.423948465884321668e-02,2.219916276553521306e-02,5.418554034361679206e-03
4.971887025567364726e-02,9.706715257053341595e-02,5.133346201498086014e-03,1.211717375183516548e-02,5.472203143495468249e-03,8.501337061524475922e-03,2.413527110995740965e-01,1.771781415211892002e-02,2.806955359253709634e-02,1.281143024701641552e-03
3.762175221328736829e-02,1.103421362630178509e-01,4.768020582344412173e-02,2.024728863722033076e-03,7.593300302338882972e-03,3.823500090934705154e-03,1.787717648421225936e-01,9.314064461242496651e-02,3.607809778622875219e-02,5.524967364611418734e-03
1.561742508883434861e-02,1.189426666992429299e-01,7.742695543358468768e-02,1.213485493527989394e-02,1.026485731618821846e-02,1.135874132732296333e-03,1.188936383256708473e-01,1.545400647509516945e-01,3.710275528248598020e-02,8.664091941287976884e-03
7.834089892478629871e-03,1.229244028819897194e-01,9.811768974427428902e-02,2.083954755677569493e-02,1.087315558580398064e-02,3.892725177103667326e-03,8.603550367524745446e-02,1.706149388511918885e-01,3.072299406244977799e-02,7.961049884036645527e-03
2.775628465322191665e-02,1.076804660355868831e-01,1.056355396885284570e-01,1.745512175640268407e-02,8.710230838676745468e-03,5.124295305770671868e-03,4.068607300319313641e-02,1.592901802465010452e-01,2.049516350440277329e-02,7.713138336923688193e-03
4.506724327949623160e-02,6.296016460095273104e-02,6.913855596867182762e-02,6.731621241018078024e-03,6.283903166124375946e-03,8.026040197022013198e-03,5.226897027730714740e-02,1.754268450071576335e-01,7.834830176296042961e-03,9.648984707811491049e-03
5.701536545575023457e-02,3.567739660188685297e-03,2.266554527502474131e-02,2.820765243303636604e-03,5.475962477701728885e-03,1.372247753652305717e-02,1.621139914895126655e-01,2.270809614467309001e-01,4.641393603965510151e-03,1.278652052280485583e-02
5.505245980192020883e-02,4.335452535891365367e-02,1.196283722286507339e-01,8.824422294946376519e-03,4.679071901214410314e-03,1.782746132385898408e-02,2.210154022891836489e-01,2.428720058322720310e-01,1.244672192043762976e-02,1.692592399997818256e-02
3.781827664611445150e-02,6.132353135234461239e-02,1.523559929055827711e-01,1.200415828130572439e-02,1.743071369198181909e-03,1.587930191387969259e-02,2.114258668249108519e-01,1.748889246579390655e-01,1.815981700715407765e-02,2.042891405354722162e-02
1.982835956490714216e-02,4.740747732617908716e-02,1.071766022993869277e-01,9.933632815505785696e-03,2.015063701845172788e-03,1.072605263445682022e-02,1.915402073388692561e-01,8.392028668431793237e-02,3.025006436996578035e-02,1.771945419566632249e-02
1.825384964037319452e-02,8.561038242356761377e-03,2.803391116478966619e-02,1.049848795322510901e-03,3.415765674910651965e-03,8.768670247942079304e-03,2.162064904883314320e-01,5.719437186489742531e-02,4.568801451846070394e-02,5.834255981598451823e-03
3.226885409459357562e-02,3.592087254109167099e-02,3.989238731109533836e-02,9.044343562540475834e-03,2.005404635761306141e-03,1.137498238511887132e-02,2.806428983669189692e-01,9.764167496591753814e-02,4.704470745815855087e-02,9.098566692101257153e-03
4.480786358386742302e-02,6.063118486445466526e-02,7.140804110744607136e-02,1.137859697779172556e-02,3.194968476214087765e-04,1.547915557169393316e-02,3.605811540597212428e-01,1.562508804069986934e-01,2.646333968520258109e-02,1.846342128881607939e-02
4.510615443587381868e-02,5.412091991516331663e-02,5.007978310879730721e-02,3.486540792377723109e-03,2.444788165766981995e-04,1.867688959183791061e-02,4.361062696537789662e-01,2.082708077968998817e-01,5.093457219385918305e-04,2.134584667631444013e-02
3.907387698291982930e-02,2.942269104057998463e-02,1.448611184217044046e-02,7.297623772808923236e-03,1.317996785080779564e-03,1.953812445819427118e-02,4.632428407155382288e-01,2.420929405898889497e-01,1.480422700410469888e-02,2.268072456009617016e-02
3.718555586300298366e-02,7.975669591177790216e-03,7.286178531318651674e-02,1.222696610264285139e-02,1.734964263694017874e-03,1.793365108658325630e-02,4.125938743081363769e-01,2.395829069934726496e-01,1.562127246349118669e-02,2.519230225301790846e-02
4.431553004942626744e-02,8.022175335481115423e-04,7.939733598294114458e-02,1.078370203640644127e-02,5.947853119541229253e-04,1.776560271059948737e-02,3.454486903443158008e-01,2.153182013525822558e-01,1.307479198293554773e-02,2.791251434335944442e-02
6.191446743810895964e-02,1.203894949678623906e-02,3.655189983428550754e-02,7.684054474622495010e-03,6.587345807109254089e-03,2.416184706298271992e-02,3.594046470412868843e-01,2.204169894486095460e-01,9.604050768578726097e-03,2.887998196318900673e-02
8.783861994413869057e-02,4.133008996497123527e-02,2.329187399958969340e-02,3.687905329750560627e-03,1.412219585868926090e-02,3.579953717560305226e-02,4.495240228341464972e-01,2.746985152329072255e-01,8.624766567205989498e-04,2.588643749663997046e-02
1.131604596244381727e-01,6.975839193886615441e-02,7.282760334014895531e-02,3.203447143527703069e-03,1.913089737964082659e-02,4.427797867557280859e-02,5.047119092902212500e-01,3.387271409317685333e-01,2.099619833246887599e-02,1.786927432135681018e-02
1.254997646612482920e-01,6.804988227024796887e-02,9.444598033306651763e-02,1.126213864216071142e-02,1.912454899095129141e-02,4.244727103361767284e-02,4.486225326540689284e-01,3.621046895518564845e-01,4.547958613406005018e-02,7.433259273837641151e-03
1.112570839158231184e-01,3.303486088270929377e-02,8.367734473221338787e-02,1.732217491496080772e-02,1.346644042432653364e-02,2.899979249631842032e-02,3.086562413677637617e-01,3.114689407358082751e-01,6.523770489432170749e-02,1.043270345620255727e-03
5.852861865731359692e-02,5.890199821832234686e-03,6.037492058951498403e-02,2.018068340040198375e-02,1.414292272236545092e-03,5.512136649216864241e-03,1.421273008152197648e-01,1.663778585494638529e-01,7.180917210837274578e-02,6.203188452982023524e-03
2.333985265164784106e-02,2.231226565251610838e-02,5.309698747228489696e-02,1.622344754286843271e-02,1.521340063638197335e-02,2.278416571530450865e-02,2.038551716242779921e-02,4.409574116026380303e-02,6.164746796440960519e-02,9.456725156748989683e-03
9.214348727324354893e-02,1.562878118649973710e-02,6.942832732222230241e-02,1.191645057181301435e-03,2.869098906116041015e-02,4.330825432108943024e-02,1.443778566046618472e-01,2.211292844194553686e-01,4.010246713567081067e-02,1.075881665886339530e-02
1.076010948936679534e-01,3.165621693389905796e-03,9.177910171111097748e-02,1.838864437267362373e-02,3.124844552754355714e-02,4.430045742072378362e-02,1.897933297538513808e-01,2.823676346698480999e-01,1.831527232710002118e-02,8.863806775266014695e-03
7.665902050610493013e-02,7.536637876044045142e-03,9.147116116593898005e-02,2.746541487336831566e-02,2.414541956708234419e-02,2.928287602279999041e-02,1.701213873540435295e-01,2.486236367108888845e-01,4.216437813370886231e-03,5.374438262445897091e-03
4.016470445221954205e-02,3.977925697578740816e-02,4.926691926821606671e-02,2.058163313245214149e-02,1.520287838815455317e-02,1.419271072394506783e-02,1.511872362301463490e-01,1.947163083613564216e-01,1.090148213312749177e-03,3.468448854970576818e-03
1.694019640502758203e-02,7.789079486303163158e-02,1.560780293731021950e-02,5.994691780198168132e-03,8.021432801429053544e-03,8.081093653379129577e-03,1.618448449085069796e-01,1.462328672007975894e-01,1.283667512597232293e-03,2.119111611505762171e-03
1.127742852573266480e-02,7.946635104484935097e-02,5.019746273854033825e-02,8.442195484256872010e-03,4.193036012809062433e-05,5.383373359462480939e-03,1.545096612049381146e-01,7.675235317599884977e-02,1.065859374277369070e-02,2.384924488903240013e-03
5.607401941745775165e-02,3.168749572470239140e-02,2.510955458053261424e-02,2.073442360489428232e-02,9.560147844295393757e-03,7.800656989753582040e-04,8.605913636666398525e-02,1.580139510987975393e-02,2.272007215444942982e-02,8.594965134192894193e-03
9.645636681527848533e-02,3.171967607724204136e-02,3.922259510683652473e-02,2.879320275465093934e-02,1.629839663670132333e-02,7.885447927827861705e-03,7.276700650773893636e-03,9.135006667760961485e-02,2.879247810972168989e-02,1.136867881702927074e-02
1.117686818137264143e-01,7.414523657781868504e-02,1.136456099415353999e-01,3.091277274079265100e-02,1.813774697631034827e-02,1.078082880848635003e-02,5.308776563455579189e-02,1.300288853524891319e-01,2.492828315901404398e-02,1.125338563861155716e-02
1.105828748396944505e-01,9.325117773785041031e-02,1.751565341273777221e-01,2.903495280303133516e-02,1.759154394744446431e-02,9.401462785658645099e-03,1.950462397046555038e-02,1.538724635176347000e-01,1.834045536727419920e-02,1.322761763724939789e-02
1.081815722751364728e-01,1.079387294928413760e-01,1.793771432701417590e-01,2.516180279101920547e-02,1.584585171227527803e-02,4.793963928691699974e-03,7.954036798449298784e-02,1.668567988285111769e-01,1.905672642064200686e-02,1.705647434701930074e-02
1.023165724613929184e-01,1.277653037098673283e-01,9.681947805775574512e-02,1.979920349814685496e-02,1.110594576021200694e-02,3.835907514333394396e-03,2.075153743656849847e-01,1.329183471547099038e-01,2.774679771289755362e-02,1.842392596426473822e-02
8.837515801868879584e-02,1.393718273457726087e-01,1.674812064534103931e-02,1.593708359832246221e-02,4.285410012987967386e-03,1.391210438545140669e-02,3.089918832304638929e-01,4.508244899374076048e-02,3.760547195603838877e-02,1.756422255083372325e-02
7.456817633806094026e-02,1.167784558357594649e-01,6.651300737197249346e-02,1.816375255791130572e-02,3.287435244332256260e-04,1.850822799768354551e-02,3.317138886384661256e-01,3.796860389765980420e-02,4.658569869956921683e-02,1.783875606797804408e-02
6.833238981573738768e-02,4.869101142470039917e-02,3.819404679824461857e-02,2.710850049525775907e-02,2.499949521886606421e-03,1.342707527948487287e-02,2.646064746011776991e-01,5.869341420809426335e-02,5.991041566066004909e-02,1.850121853848219963e-02
6.695642090721198869e-02,4.341468471258996126e-02,4.602364247581983842e-04,3.839151158801674957e-02,9.015864913882487217e-03,7.585755518858842625e-04,1.390653896092017006e-01,2.308533229574689580e-02,7.719378246106611829e-02,1.681533343647298451e-02
6.933680778946048340e-02,1.185570319309803000e-01,7.646133609743965658e-04,4.621680081372070426e-02,1.532128178975278830e-02,1.428482647422043249e-02,1.818119960912102911e-03,2.303043860982319571e-02,8.518073507592482940e-02,1.447970357886746266e-02
7.926742389120139398e-02,1.471299250453661500e-01,1.926652766137694484e-02,4.669037536650028769e-02,1.773242354062415371e-02,2.595551701083528146e-02,1.020332653170625270e-01,4.213123864320984790e-02,7.241410963942933321e-02,1.480644471349377295e-02
9.343091400157718662e-02,1.290002834164103995e-01,3.664830441908783348e-02,3.938087823179169805e-02,1.625856304923493229e-02,2.964609924946995032e-02,1.442329456036565150e-01,2.356191018861348435e-02,4.616628965837560328e-02,1.581514707203165657e-02
1.022264082058911283e-01,8.466755225632865978e-02,4.418564505699100475e-02,2.763459912123851156e-02,1.505175636609630205e-02,2.607666401699477651e-02,1.334999376152645190e-01,9.726861544931800913e-03,2.605478447789849258e-02,1.219987988993561333e-02
1.012187370438762807e-01,3.311733968940355766e-02,3.427952153884552405e-02,1.774645985326090553e-02,1.787006334076244804e-02,2.161724119030124583e-02,1.024744849353394771e-01,2.106329610382595696e-02,2.350099259007091060e-02,2.538336588045243987e-03
8.895011053742762908e-02,1.277712497962904883e-02,1.204290582079523692e-02,1.479577288031912879e-02,2.256853483904720098e-02,1.983114419759385294e-02,6.020812640576215374e-02,1.649764784549803687e-02,2.943167268908688725e-02,9.751950439196776718e-03
6.546588402469931400e-02,2.854455984490841119e-02,1.674625093978760262e-02,1.561062766341275374e-02,2.330559222571008254e-02,1.652808152241333484e-02,1.210416006143234455e-02,4.585599014094999398e-02,1.979511091078712051e-02,2.071534525236257834e-02
4.529423048132207724e-02,1.862729245494747568e-02,8.138436647152116898e-02,8.391664008594382218e-03,1.807502830304000274e-02,7.871332274526627107e-03,1.015714576140468034e-01,1.159707459761963461e-01,2.083554392963427385e-02,2.800760777938937629e-02
4.673339779721488729e-02,1.251919754993838230e-01,1.790626306586023120e-01,1.524264243737775276e-02,9.800307330006072237e-03,2.298004890216504871e-03,1.467241648895751260e-01,1.640481707468983141e-01,8.044110551388129748e-02,3.095783042061727580e-02
5.355235044138570433e-02,2.295737477381492586e-01,2.511472643398563465e-01,4.860601761116158104e-02,1.470045420527118021e-03,7.289165116655943813e-03,1.049377776431033998e-01,1.510067333915415255e-01,1.339596978341743572e-01,3.123119254795974492e-02
2.264021455224811408e-02,2.687960941326063002e-01,2.745626916120592620e-01,7.460459173362761487e-02,4.194443363198575338e-03,3.521767318666086874e-03,4.799936945973529850e-03,1.085443299748616586e-01,1.685643754875176537e-01,3.179246840781195516e-02
5.428286458726730435e-02,2.452662772285650883e-01,2.621098633306482295e-01,8.173504235609321822e-02,3.648079967337078313e-03,7.965560184547623712e-03,1.246745263252357766e-01,7.652053274792749993e-02,1.812734219641843336e-01,3.298131430644304918e-02
1.367102655482426155e-01,2.069750680272407772e-01,2.197355336656862113e-01,7.281856641551025244e-02,1.343641182295949405e-03,1.767013423731578214e-02,1.766674648010216897e-01,7.739283326286651443e-02,1.677489219294115708e-01,3.140751470883119956e-02
1.928494902247826770e-01,1.767446789604570634e-01,1.491579715955670127e-01,5.939007029352681016e-02,9.672060893137798647e-04,1.086795018458328217e-02,1.024062085191142085e-01,1.427214473180846710e-01,1.321972581816259762e-01,2.521729995611552214e-02
2.258329717492285060e-01,1.386813268454866743e-01,7.314097310578385192e-02,5.052808599523879451e-02,1.054798994074275000e-02,1.398703775700236782e-02,4.905288540540302111e-02,2.698258003611700429e-01,9.615255415610930723e-02,1.803527177879480151e-02
2.405079239969654670e-01,8.770565322825620014e-02,2.013186249048772025e-02,4.645154479044678181e-02,2.484057881378150603e-02,3.798430440493961308e-02,1.426122722364794315e-01,3.824368583946134992e-01,8.234193273269302393e-02,1.469117935281056414e-02
2.326294790566028614e-01,5.177400936021638728e-02,4.995903039237067911e-04,4.164012870636970426e-02,2.963971686364052366e-02,4.335575263736556745e-02,1.264573452745602067e-01,4.178933912762132774e-01,9.428540038851671024e-02,1.574022284585722964e-02
2.102930943928592866e-01,5.266632455614499164e-02,1.366906402979072357e-02,3.410263055391768439e-02,2.386131004567784361e-02,3.210530930406962219e-02,8.043249408889159568e-02,3.983352007941211581e-01,1.164466925523373608e-01,1.817793666557670704e-02
1.863724260278249445e-01,7.012337989182979014e-02,4.823604375073200362e-02,2.779715716489466679e-02,1.504639584109166567e-02,1.550022555928618623e-02,5.816385778277404633e-02,3.592662384300364109e-01,1.294133137975832515e-01,1.825835483679619578e-02
1.566609477342877643e-01,6.241896464790879645e-02,6.979118876851098108e-02,2.363381689147213416e-02,7.340587222975413287e-03,1.543437359517093330e-03,1.581631498874902855e-02,2.885431872992041957e-01,1.221519565026774751e-01,1.371633175167645546e-02
1.121525375522776230e-01,1.052351414984359183e-02,4.864986448854881351e-02,1.585556179165095378e-02,1.890553319637600679e-04,1.818747468050530003e-02,7.453247922012921911e-02,1.742859754735334721e-01,9.464722152681691314e-02,7.057289342070749774e-03
5.857084345824905419e-02,6.929906541768418582e-02,1.766234919323764890e-03,1.724995123828577167e-03,7.553477026164938553e-03,3.186896992207095825e-02,1.771856730911003097e-01,3.774036703558358852e-02,5.529100414186088885e-02,4.386325165013501073e-03
6.260118738608568684e-03,1.429276115402762781e-01,2.891551940760571371e-02,1.473547994338935546e-02,1.381739813294770303e-02,4.142578274738172722e-02,2.708571335253523449e-01,9.601242755469058254e-02,1.599281362406065887e-02,7.250269041936660899e-03
4.210859972596416728e-02,1.775315744275158536e-01,3.432105250584199102e-02,3.180312699328632225e-02,2.041337232620280689e-02,4.849977665516357755e-02,3.578030645756321015e-01,2.054917082039635079e-01,1.574829828345372662e-02,9.731078304759388509e-03
8.026841444808532899e-02,1.612122792219272127e-01,4.253537521302173940e-02,5.060224706138691936e-02,2.771807662418842785e-02,5.209942967129384261e-02,3.994029609475112652e-01,2.616045669458357259e-01,4.213184246073552186e-02,7.261192618987629029e-03
9.178825987390522301e-02,1.173910669201281287e-01,6.883262647854986038e-02,6.360230674772951454e-02,3.033427032512069077e-02,4.680786156021044669e-02,3.387729770395758178e-01,2.517967624884951405e-01,6.660185899690407307e-02,3.388530770096801273e-03
7.188634862775250545e-02,8.429802132317089358e-02,8.604088578188373582e-02,5.598509938976363454e-02,2.188326806951147036e-02,2.890460259103329321e-02,1.820895541289943020e-01,1.990336611008443890e-01,7.793663664584883632e-02,3.619964124163844825e-03
4.309070331531641290e-02,7.337081414226184761e-02,5.601840266975949972e-02,2.427599156936414981e-02,3.262547657779999062e-03,1.418506993778160174e-03,6.855398738622545465e-03,1.318328895446029825e-01,5.559623009776074043e-02,6.951949985782040001e-03
2.811469873760451960e-02,6.750883914689154164e-02,1.702040876763140365e-02,1.510504145075850478e-02,1.779473044042885824e-02,2.762068474071711910e-02,1.741623749946993038e-01,6.316778579263294946e-02,1.083138414762745833e-03,8.440860901690673199e-03
1.843843475967256451e-02,6.110924123094350208e-02,8.013322499698155577e-02,4.033908638906648358e-02,3.318969124779490298e-02,4.940072107965090553e-02,2.887389597455272128e-01,1.264342247651097269e-02,5.004254382952469382e-02,7.105240398512973135e-03
5.199934218833019220e-03,7.197236311548466103e-02,7.686758558383036122e-02,4.188036821832213236e-02,3.831151991472118989e-02,5.756040228546116522e-02,3.198332732613632379e-01,5.317773639238325065e-03,6.316272068211624402e-02,5.931275477206672357e-03
3.419067292259420077e-02,1.036668774981281127e-01,3.755298885809868828e-03,2.543613509350113600e-02,3.369136722848620202e-02,5.128555349005263497e-02,2.569287350481823107e-01,3.426821521419031596e-02,4.188387245839642059e-02,5.661708191764065236e-03
4.429186545892081772e-02,1.225218032823036513e-01,1.049368404733096033e-01,5.331520802450968703e-03,2.584712707419170238e-02,3.672716629946826822e-02,1.409198760684096108e-01,6.537670428333364203e-02,1.800021560508135304e-02,3.802134661757882849e-03
3.426467043572693078e-02,9.437956016250495517e-02,1.429032648185396825e-01,4.728421974228357721e-03,2.289370220379918774e-02,2.391139695756683281e-02,4.329900156566048736e-02,8.035688564803594724e-02,1.226693010070203232e-02,4.582418496691004510e-04
2.111442219330038339e-02,3.509367263373109475e-02,1.052834859406216461e-01,2.063499991670485201e-03,2.636486850770258447e-02,1.978568607708344404e-02,9.143174049803833373e-03,8.574355453950679995e-02,1.613583517013760654e-02,4.657871013275044318e-03
1.039584542062391148e-02,9.066178406301472759e-05,7.210744904209789863e-02,4.142010168045274533e-03,2.972050713669946789e-02,2.225568074389030690e-02,2.018070839637681885e-02,9.526959317382592551e-02,1.057163184293257244e-02,6.912895302527605895e-03
3.100213194635988850e-03,1.850056601202832579e-02,9.899388649792680017e-02,5.397444454064678591e-03,2.676425064280981217e-02,2.321078955220797976e-02,2.828840403756944372e-02,1.107198561584546853e-01,8.324515554852588567e-03,8.229639934589015951e-03
1.566067477348888348e-02,5.908870651369564631e-02,1.407317407584166569e-01,1.375591560115261690e-03,1.917955944760210696e-02,2.032554617953651402e-02,3.652777637626706403e-02,9.593073955030201327e-02,3.088509788484067320e-02,1.021045373088778213e-02
5.617938241185118503e-02,7.535038274465129249e-02,1.298591623580195031e-01,4.985340831909698678e-03,1.389880696991145463e-02,2.086088744987225907e-02,9.525452250292218426e-02,2.273963328702207319e-03,5.127538340924946147e-02,1.277165378194779558e-02
9.409687851960162053e-02,6.360396400008773432e-02,6.499567752988914815e-02,1.065573543384607663e-02,1.511759862203432975e-02,2.931003270397865637e-02,1.975083130081114746e-01,1.463216724335414110e-01,6.819248255054700947e-02,1.530854070510460560e-02
9.433044461533675318e-02,5.027816479886753481e-02,6.243526458704982095e-03,1.394618251425403313e-02,2.101048647226981536e-02,3.896978213230097715e-02,2.730088052027392354e-01,2.553645795774374672e-01,7.646734177311066694e-02,1.834481559079710264e-02
7.356871758295903396e-02,4.083748005357458466e-02,3.910561869129863810e-02,1.968128835091249862e-02,2.637329106651028002e-02,4.090401945504661130e-02,3.033576183228131606e-01,2.738681255433029760e-01,7.429978193347722137e-02,2.208253954776950509e-02
7.830829738732031364e-02,2.469696122875145172e-02,1.613939058429409226e-02,3.296748450380825035e-02,2.614847437414733952e-02,3.322477585681239687e-02,3.218508983662842771e-01,2.321925689250477487e-01,7.084011900027110953e-02,2.439332185106415224e-02
1.104014069870644377e-01,1.849644707804056626e-02,4.526637939291731916e-02,4.265322871022533824e-02,1.857957916623558664e-02,1.927726404387150941e-02,3.105531853047561741e-01,1.622456582391058333e-01,7.195392417482514291e-02,2.301858042644279456e-02
1.237315533155203678e-01,4.840304884533852547e-02,1.073703713520765268e-01,2.805641662528327029e-02,7.646819791589879595e-03,4.783385039763476607e-03,2.329183824416806714e-01,6.424891840588617398e-02,6.734007981246613317e-02,1.986780466214890448e-02
9.650465747379476100e-02,9.178287200486320851e-02,1.441613994358334205e-01,1.021977192435811511e-02,8.482771796482170210e-05,4.716167153139154411e-03,1.289015185888226500e-01,4.648862377700670873e-02,4.652380118163146339e-02,1.981700868816951150e-02
5.659136294649030896e-02,9.307131246615543696e-02,1.509031898918610504e-01,4.344389407761502925e-02,2.153930995178252820e-03,9.993587891475226928e-03,6.125229452813534675e-02,1.251760142722925240e-01,2.063179222774991911e-02,2.356816149485808573e-02
3.207819341524506540e-02,4.067614712555851775e-02,1.265666463567545752e-01,4.745606387982807123e-02,3.055535060636488300e-03,1.541940693156747602e-02,3.821327381475653900e-02,1.337656790425611197e-01,1.281484587735700828e-02,2.526020416061063381e-02
2.419970518833745171e-02,2.302604771204113179e-02,6.851878913822842532e-02,2.900733986743120330e-02,4.741788887974860561e-03,1.681425706248310115e-02,6.612837240718374976e-02,7.177069558098787827e-02,2.903148348721546271e-02,2.020974273774848312e-02
3.120864274681945175e-02,7.117641019048953632e-02,1.237344970729084906e-02,1.172108364929738342e-02,4.181689038018873358e-03,5.224240739416487894e-03,1.665204451947317199e-01,1.062390793364770963e-02,5.233501814247593087e-02,1.110974933213325529e-02
5.589195510307297388e-02,1.202440931163714366e-01,9.054398399193483438e-02,5.949914704257775952e-03,2.622298637452069765e-04,1.379193564935275382e-02,2.825370500916996597e-01,3.124383057815318873e-02,6.723151622809570016e-02,2.849796111805851830e-03
8.442809154882628675e-02,1.786299235375568284e-01,1.509731206555926797e-01,3.888060857268719160e-03,2.367379851419702721e-03,2.187111149248939165e-02,2.933608027520617778e-01,5.355523136674353313e-02,7.384636957441477467e-02,3.890942840311406494e-03
9.057831516811155892e-02,2.165885495863339449e-01,2.020660119235562768e-01,9.016736937759760925e-04,6.684929028509731513e-04,1.394464466625617433e-02,1.719612736982318868e-01,1.875377408118607259e-01,7.203500067321746969e-02,9.848355176171368769e-03
6.776423318933251505e-02,2.074429446743172867e-01,2.453258238414676717e-01,5.160571517204854547e-03,1.376329962730164173e-03,6.039532498808303056e-03,2.942952573688818740e-02,2.513063020329026620e-01,5.080355145933305311e-02,1.360041930982754110e-02
3.523522095173257235e-02,1.646350345869790066e-01,2.522597482204961827e-01,1.974227686139793866e-02,3.599292429296694251e-04,1.153120205967562636e-02,2.225116011470414795e-02,1.752533091824637901e-01,7.624577720874466460e-03,1.427090401506699371e-02
8.760637986855730752e-03,1.213200845752836488e-01,2.073454911021442859e-01,3.076427643397777051e-02,2.701335059868557181e-03,2.397897637840336674e-02,2.143715381879247178e-02,9.023846384724931030e-03,3.749345480883236464e-02,1.258223622544048063e-02
1.563866183264734158e-02,9.330520189324544023e-02,1.466920137884506481e-01,2.411318803662700419e-02,2.632322455621983050e-04,2.910566979649021474e-02,8.688161856899886959e-02,1.316898537953864468e-01,6.090929885908306224e-02,8.376016602934103703e-03
4.366778589350942680e-02,7.012562896725081651e-02,1.071802526526136889e-01,3.545708440246311040e-03,8.533367267010599430e-03,2.250597745037395334e-02,1.009677742584306204e-01,1.834641894010636820e-01,5.664500481155147760e-02,2.582330438568499094e-03
6.323906620164990167e-02,3.680079347276091900e-02,8.064537458300935491e-02,1.439611450835493085e-02,1.633377175628086125e-02,9.795626071224011050e-03,3.738889688204369288e-02,1.722973014083641063e-01,3.428392523248526003e-02,1.288615183809014349e-04
5.426948624590784837e-02,4.038160449505307815e-03,6.720269476167013700e-02,1.650861264732595909e-02,1.904507178856398864e-02,3.316185924558954709e-03,7.798135486210625023e-02,1.309786356190106860e-01,8.907486463640403029e-03,3.067265006436279903e-03
1.822490572756517088e-02,4.761702454102743724e-03,1.057687407764392462e-01,3.809077014948330890e-03,1.739626571257674170e-02,1.516484718674506252e-02,1.899855344222038667e-01,4.793831601223619288e-02,8.164753484410477297e-03,7.497096240614954145e-03
1.421942980014789283e-02,4.915405238289293627e-02,1.982249294671484530e-01,9.190645703496841401e-03,1.522029260373080131e-02,2.487216280741014543e-02,2.476807301248953874e-01,6.126810135958041248e-02,1.802954982729849942e-02,6.699636663962074690e-03
1.802421032159573153e-02,1.025427407279669856e-01,2.783021797987818013e-01,1.041012856740159559e-02,1.431392208002145623e-02,2.979554901767271155e-02,2.332736542101396804e-01,1.097050659822034063e-01,2.518567552386802993e-02,9.014871748792994879e-04
3.882294908693359817e-03,1.233911842406908987e-01,2.985784123593637762e-01,5.692274465673484787e-03,1.299233096680757309e-02,2.838594144629376717e-02,1.706581204835134480e-01,4.175867451190481278e-02,1.957180303615913691e-02,5.074210307183548568e-03
4.261490578599937649e-03,1.052630447095379840e-01,2.780514226994241223e-01,9.238567429854988022e-03,1.018691334399063689e-02,2.380669691443555377e-02,1.000115332926548029e-01,7.242673798933974005e-02,1.103810996466804244e-02,9.192697378409227238e-03
5.300729774432576778e-03,7.034737277068700556e-02,2.442035364905512373e-01,2.124284030573881168e-02,8.150295539694504474e-03,2.136276003710448415e-02,4.479820736465732478e-02,1.217141832260115464e-01,5.224568523427595285e-02,1.266997452378479209e-02
1.462322929655555416e-02,3.719934652832321970e-02,1.952648193656759679e-01,2.852667429244048342e-02,8.999626602456354055e-03,2.253810701863675353e-02,1.248698239902175378e-02,9.929894071269582123e-02,7.334704221348342656e-02,1.514866044850358626e-02
3.800193236750273873e-02,6.113251365831716584e-03,1.286277228541372608e-01,2.473954672719715434e-02,1.142592268588218246e-02,2.440031056440841034e-02,1.037806705331459182e-02,8.938451735605244808e-02,6.554499008958715456e-02,1.426015450815064541e-02
6.905728357819690411e-02,2.924896520428784188e-02,5.461631257209038914e-02,1.478571517753644177e-02,1.340473684700108602e-02,2.443846772044948323e-02,3.691861001017771038e-02,1.291503580171851351e-01,4.654179531400472886e-02,1.042261746587853054e-02
9.974452700499975011e-02,6.596890839144085861e-02,2.426849550684909151e-02,9.099108168875735293e-04,1.535329906351140007e-02,2.311508631985428192e-02,7.086735144600976588e-02,1.638942425774717604e-01,2.978934103215525458e-02,8.344359888649333784e-03
1.225332708661298620e-01,9.210861025226736720e-02,1.151701027215929068e-01,1.956142313894659174e-02,1.774884097405418290e-02,2.170151467299495651e-02,9.185288314375412988e-02,1.413602727591779518e-01,1.066511090167859485e-02,1.110973650540517457e-02
1.338684147098752331e-01,9.951608421580843133e-02,2.070371959741058865e-01,4.106504202144856119e-02,1.851587561524173017e-02,2.040995756970934161e-02,1.058843723375653273e-01,7.455394691950324726e-02,1.538461350433567229e-02,1.501253445415238336e-02
1.420840198960046097e-01,9.531308680837465019e-02,2.613320021327963927e-01,4.940605624249353595e-02,1.624569128919598968e-02,1.990712703169378664e-02,1.392881004959007352e-01,7.261327987597635328e-03,3.839448645209692784e-02,1.409152726658500186e-02
1.606705609823019243e-01,1.025942254066099929e-01,2.507592637090963472e-01,4.009751458754932246e-02,1.339415736227189853e-02,2.202023203776455260e-02,2.061194128943605042e-01,1.031012659028759521e-01,4.664530168543579852e-02,8.438217886486059499e-03
1.902213839022882380e-01,1.399089903834429272e-01,2.005868175231269035e-01,2.636474079549918498e-02,1.261166327961978431e-02,2.576708860443920057e-02,2.776431552006897174e-01,2.053480184627022032e-01,4.587915986674427626e-02,3.342710813923269533e-03
2.193973556003867564e-01,1.909016707350885134e-01,1.673162254526574244e-01,2.334024647291376223e-02,1.225462903608569298e-02,2.503422866134774258e-02,2.919821506437818570e-01,2.695237083411912149e-01,5.386906482508552890e-02,6.927464613586294118e-04
2.417739791529356641e-01,2.108897612386088916e-01,1.743542219276369987e-01,3.148344661664848054e-02,9.033574950645266444e-03,1.528225177120967615e-02,2.158943426000457522e-01,2.560029109766375210e-01,7.412851459684922928e-02,3.452052305303283247e-03
2.512156705962926284e-01,1.792088001406189068e-01,1.921571086816268870e-01,3.876236572177714501e-02,3.266730557507727291e-03,1.187431215447718336e-03,9.370687775171278322e-02,1.806250959725558269e-01,8.503184009513463371e-02,1.153723027789958604e-02
2.254740453180730242e-01,1.261244624730221975e-01,1.879173843620297879e-01,3.395210224473631938e-02,1.180336764977366754e-03,7.546708095441955616e-03,1.062791234438622764e-02,1.007456361830258856e-01,6.438019290714049048e-02,1.972835899223758169e-02
1.469501245971236991e-01,9.184856522366149911e-02,1.651469678621066139e-01,1.552070203261885460e-02,1.134598242381029860e-03,6.835731101617902733e-03,9.300849139566139817e-03,6.200460128506552621e-02,1.875411590333961667e-02,2.331200511254744728e-02
4.131771459232842086e-02,8.110167217125142936e-02,1.360248272398590363e-01,9.948793408976060529e-03,2.756163575764565641e-03,3.039703862255951038e-04,6.431803918421578892e-02,7.285401420692971808e-02,2.408042832638731395e-02,2.320335429190177601e-02
3.439511580798575163e-02,7.372352073157338592e-02,9.003083476623503778e-02,3.418473307275229217e-02,6.630015006126142516e-03,7.631782342568106843e-03,1.351198204523920421e-01,1.219537801155460288e-01,4.671725419792575884e-02,2.354922449647782814e-02
4.568761237376953860e-02,5.688106067076622446e-02,2.437953291425329350e-02,4.962054846539811631e-02,7.463414039883650014e-03,1.594670291159884165e-02,2.104534628383966932e-01,1.974510406691663278e-01,5.177092177849289267e-02,2.539211261081739460e-02
8.701866663625556358e-03,3.078440098759067239e-02,2.402773901707122572e-02,4.998356318036618201e-02,6.069957091764418937e-03,2.391571466294874562e-02,2.829051331038638373e-01,2.768514542562451886e-01,4.587452493746197596e-02,2.604653727323818363e-02
2.818948038696955649e-02,2.096349084050413286e-03,1.148815743226145464e-02,3.543490922767453949e-02,4.686478621691051935e-03,2.767732436473502658e-02,3.125999238722310669e-01,3.152267889567432757e-01,3.001656862094340128e-02,2.289042219754750321e-02
2.582749412842427067e-02,1.290907794447161347e-02,6.687870025521125417e-02,1.432312343027746654e-02,3.309721980050175406e-03,2.327476945889060331e-02,2.616192756615651205e-01,2.746772594230711961e-01,4.422107794190464902e-03,1.516262542104377525e-02
1.095911569072561230e-02,4.444573976850824462e-03,1.734394019164126610e-01,6.066156284105925049e-03,1.042505101757746104e-03,1.288997829549919615e-02,1.544988747069704071e-01,1.690903487366366698e-01,2.753344934060258237e-02,3.888448987061072712e-03
3.918940640750826626e-02,4.691674620582120953e-02,2.455702505553424009e-01,2.545218581089004131e-02,8.388344615647192783e-04,4.547980627812918918e-03,6.331028798519955370e-02,5.816824441935621037e-02,6.001319002350959109e-02,7.746304003862055504e-03
2.725091417407007194e-02,7.560223925491774133e-02,2.326153612185466735e-01,4.165360440146044507e-02,4.125119142792030812e-04,3.480092383343024592e-03,3.290148581013301043e-02,9.121018473486668110e-03,8.322225088206830490e-02,1.575054328443772564e-02
4.858045718281368483e-03,6.209487694456169993e-02,1.500828629857377527e-01,4.465192733838368316e-02,1.233911172372081314e-03,6.021673326473180043e-03,4.313294706513084997e-02,3.589259867865685766e-02,8.252775464501063696e-02,1.903664820341686298e-02
8.461072315940161223e-03,1.947277560118854459e-02,7.433664348038628022e-02,2.846298241009766194e-02,9.505004875615950029e-04,5.002925973497939459e-03,4.137184693062347790e-02,5.951306089431792484e-02,4.719031908328290975e-02,2.030202668234774854e-02
2.910157964106419026e-02,2.398131646518443863e-02,6.021214489831570177e-02,1.553469035636757681e-03,1.648583325158955440e-03,3.967668633419484982e-04,4.321490259672104012e-03,9.698148717861186652e-02,1.500396091315863226e-02,2.175207471150834848e-02
6.493405336329836908e-02,5.534900371096843075e-02,9.799311694823725771e-02,2.197658182247997499e-02,3.234218598765927974e-03,4.736498011814139521e-03,3.862509679050787903e-02,1.260539870346021329e-01,7.615618348564245910e-02,2.168362522318627653e-02
5.723219312483411592e-02,6.628600954422556035e-02,1.578301312857452454e-01,3.484289577416570249e-02,1.735986700848372952e-03,5.790131565434380317e-03,5.723938633539188414e-02,1.340116890634267532e-01,1.082845020400841352e-01,1.739483535408692383e-02
1.353989809450642859e-02,4.189901268050390259e-02,2.224826163317004668e-01,3.626994474534262630e-02,9.191487107978334094e-04,7.127753168767209102e-03,7.038187135124251981e-02,1.501911530523235561e-01,1.040328200688311472e-01,1.041139307152231207e-02
3.488436133612872470e-02,1.920948849834645811e-02,2.657709877297569356e-01,2.796020762223067752e-02,2.710909894424620367e-03,9.495619498658264268e-03,9.978180330322480862e-02,1.908865820444841654e-01,7.516814911137403854e-02,5.778606575313979116e-03
7.489781052698533947e-02,8.640404670200292625e-02,2.537385430717672974e-01,1.504591264961516357e-02,4.536630553304366563e-03,7.460558419153854801e-03,1.086885915054325163e-01,2.099570180560402510e-01,3.830885623540353918e-02,5.314430105799841306e-03
1.039510924763600852e-01,1.121411880206355655e-01,1.892725295981717015e-01,3.929865384496180822e-03,7.136949502594227591e-03,1.352870327250026714e-03,5.427745427108469911e-02,1.597264343126721109e-01,7.211000517443126936e-03,4.582821966132092674e-03
1.091153886210251972e-01,7.577898727288141789e-02,1.215431952648694525e-01,5.293456439317216489e-03,8.943119566893502001e-03,1.083149699967356737e-02,3.316288707172243555e-02,6.687955247197398256e-02,1.057643585045042398e-02,1.122174852265290113e-03
8.444502083066873777e-02,1.450382895067109379e-02,9.513883316128543544e-02,1.762751879788163056e-02,9.544574141608771697e-03,1.529772266004895097e-02,9.883581289612898557e-02,1.158353136206983873e-02,1.479775141800480399e-02,1.045271073896936707e-02
5.422474095505837310e-02,1.280147370289607713e-02,1.112633206870145136e-01,3.021833101386211043e-02,1.077717615550808500e-02,1.683208905926940682e-02,1.474489204379655638e-01,6.825496578308870577e-02,4.211718388088793452e-03,1.828999862163699364e-02
4.787684864198683832e-02,2.035413320372913334e-03,1.414602813492040756e-01,3.020539789591912896e-02,1.126043407088022155e-02,1.680077222118225161e-02,1.874433078831461152e-01,1.121147682455471140e-01,2.640011135074597087e-02,2.170472239439315276e-02
5.499286988190564551e-02,7.561574864770347071e-03,1.510858051896825927e-01,1.270186385603307329e-02,5.146664168107877892e-03,7.786018886501020614e-03,1.455912239401120911e-01,1.017037134850160562e-01,6.984156580483205645e-02,2.121696091164634521e-02
3.356184466011292999e-02,5.623212208058229328e-02,1.081791234509744543e-01,9.457495367902645639e-03,9.689998911813624619e-03,1.555148909588650701e-02,4.092146145336851559e-02,7.502185656066522046e-04,1.005030592710750154e-01,1.846559894607397584e-02
3.174551379812807356e-02,1.051898179506189773e-01,7.556127587808689032e-03,2.174599930493352484e-02,2.679588117298614333e-02,4.348716748223215023e-02,2.856575457962605702e-01,1.400123631725123108e-01,9.979377859949530027e-02,1.476383921930177895e-02
1.044784535385168828e-01,1.023581621427942095e-01,1.003911600920178726e-01,2.258968137351870589e-02,3.754698829662682369e-02,6.004199763032812276e-02,4.268013873013514758e-01,2.140721661564420064e-01,7.468005820594904309e-02,1.083603333287145448e-02
1.404079526070048101e-01,4.405212825509657870e-02,1.384995487815195436e-01,1.574587683732879551e-02,3.871799685545454506e-02,6.034564735875547203e-02,4.107059625403337022e-01,1.895288466862457555e-01,4.160123505871719807e-02,6.724961899250866265e-03
1.319071581360544976e-01,3.337338439668484369e-02,8.598536420697137916e-02,1.559560911965212964e-03,3.244814031990832931e-02,5.091100161523166162e-02,3.071986871647507389e-01,1.130930581675209934e-01,8.172508518851125461e-03,2.320529297081893802e-03
9.457209882421277469e-02,7.524910972961648681e-02,1.774231465300984967e-02,1.666891967976218136e-02,2.234405783908184617e-02,3.794889003696579055e-02,1.862722904322588746e-01,3.221045780475270681e-02,2.196917296425522290e-02,1.411590666581246257e-03
4.202116058488688383e-02,3.372704330067177736e-02,3.304150088354886050e-02,2.970162911691201849e-02,1.120043962901023579e-02,2.298395228223533773e-02,6.917609116994820340e-02,4.635090567215250507e-02,4.241623641238907033e-02,2.476618441350430903e-03
1.669183084568685686e-03,7.847210355606851206e-02,1.419430231447048052e-01,3.358591703988140359e-02,1.067227556518687273e-03,6.592467429224134826e-03,3.406327286984794922e-02,1.284477148624877108e-01,5.094207282301604217e-02,3.765477725347764638e-04
1.263870223371408447e-03,1.751364738905986651e-01,2.463903461504243775e-01,3.533010605259909870e-02,6.150291427994163118e-03,8.813867157121874074e-03,1.129115251179052259e-01,1.975729762040232818e-01,5.396884765269062412e-02,2.308767884312326255e-03
5.664449325396447160e-02,1.806604747611079698e-01,2.506806731481497352e-01,4.216274129976398111e-02,9.454144112114079568e-03,1.915148920824849901e-02,1.639832647052786030e-01,2.233147949964906509e-01,5.848687823989450613e-02,2.716625029291700431e-03
1.135867654379448533e-01,1.089809214544659316e-01,1.737473158842296195e-01,5.248226602157508858e-02,1.004144430074286991e-02,2.135216066038784360e-02,1.781100326660684241e-01,2.042342072887522175e-01,6.553753252108189542e-02,1.120711614624318817e-03
1.212622180179225850e-01,3.157220949955654582e-02,1.205368629988456952e-01,6.147639931206289043e-02,1.049808487392396919e-02,1.752078105252127121e-02,1.491576092974482293e-01,1.816444140127093376e-01,7.537147400518375007e-02,2.889945154329222462e-04
9.027518790353042388e-02,2.839728097966330925e-03,1.441842305976788752e-01,6.913074589346927812e-02,1.232098815404984032e-02,1.409385137110216041e-02,1.029894986413517205e-01,1.884423935501269021e-01,9.143575658775636439e-02,5.688077651605892441e-04
6.251921828867397501e-02,1.093276199279935058e-02,1.854403129293422936e-01,7.711051359479409451e-02,1.494207694703442862e-02,1.492925207877514142e-02,7.999711987812165026e-02,2.052419506147266925e-01,1.102096210812893440e-01,1.591369217784419218e-04
4.439143946260311335e-02,6.094732614647611207e-02,1.730740721707838548e-01,8.054660331131831275e-02,1.728892893814953577e-02,1.900230571941848717e-02,9.280749237099565618e-02,2.015834455051764007e-01,1.131832736813376122e-01,2.817239022642125616e-04
1.788632887989860185e-02,1.264751207961486712e-01,1.297768483977448928e-01,6.933333446048081661e-02,1.920699093647205632e-02,2.519730327278793536e-02,1.247510482113629027e-01,1.918081545266292209e-01,8.450419244126874951e-02,7.996042191919225167e-05
3.283609946991283834e-04,1.759664315884678643e-01,1.301973461991156877e-01,4.006590402824002084e-02,2.010458054104301978e-02,3.232523875069451269e-02,1.441936639884666971e-01,1.946116604164710995e-01,3.535442493562906963e-02,1.313592110411752585e-03
3.122372073354003422e-02,1.881345353260892306e-01,1.934147825579228819e-01,3.367315062235417839e-03,1.743942516578849550e-02,3.424166189720102838e-02,1.076871486857252785e-01,1.650234121622821404e-01,4.927196403313017538e-03,1.802509812329590195e-03
9.998097543879162774e-02,1.673127605110390215e-01,2.660809809834323580e-01,2.331843818787770334e-02,9.800824544184221637e-03,2.437096609231811234e-02,5.330675467847552362e-03,4.445592048192768819e-02,1.957739212338488119e-02,5.554896288502811407e-04
1.488442327614395710e-01,1.270953770011009898e-01,2.913522816435341611e-01,2.910604476010356448e-02,5.816287688985345185e-04,6.164426525703634030e-03,1.488875543048916172e-01,1.363118134529113790e-01,1.107638089805264639e-02,7.510179010817163861e-04
1.550241268981079334e-01,8.183691260279529756e-02,2.625147191887429177e-01,1.801832716827738920e-02,5.994138239113403106e-03,1.001079364773256944e-02,2.492765165956612461e-01,2.858402742150761289e-01,1.332310876737010166e-02,3.889896139443648686e-04
1.499138749561383654e-01,5.780583030631183256e-02,2.179113762555815736e-01,7.215057823131371638e-03,1.081365881778714386e-02,1.987652463895373672e-02,2.871519642084618407e-01,3.662586923140401796e-01,4.143388221600224214e-02,5.674983617501113591e-04
1.500784728235479148e-01,7.355025687029477510e-02,1.935913305131324036e-01,1.128872524770286288e-02,1.590431954418694907e-02,2.532968492443862102e-02,2.861204485655162721e-01,3.944213754531513128e-01,5.136981176872875560e-02,2.555374520072699004e-04
1.300727543435941380e-01,1.025285453487417286e-01,1.803189921095617043e-01,2.558303165935285617e-02,1.764714565708284597e-02,2.415404491556564365e-02,2.370895096563428728e-01,3.634281945744946007e-01,2.946299955680686811e-02,7.169496174533440246e-04
7.496508405544319298e-02,9.672061109448867877e-02,1.420200444136737461e-01,3.525447693299858104e-02,1.214142353264915583e-02,1.268804367846686210e-02,1.171327454126510209e-01,2.658507307616523874e-01,1.359900022718813460e-02,1.925559719889481251e-05
7.703969440315002956e-03,5.034102463104517255e-02,7.452239149488168457e-02,3.949543587640514525e-02,4.659727994503291143e-03,1.859230812936986301e-03,1.995386474755519307e-02,1.656236736492676387e-01,5.734470158047396543e-02,3.221575955892172667e-03
4.677176749331390243e-02,5.086463589928005152e-04,9.287065723060226874e-03,4.890898588355348936e-02,4.716725787167763001e-03,5.252688620915454618e-03,6.643870672202531469e-02,1.447528391779152046e-01,9.014309218760796494e-02,7.024392698565906472e-03
8.185176634275732888e-02,3.629731872519601638e-02,4.313478877113259558e-02,6.152771116510863392e-02,1.302533991864962201e-02,5.590684349760326015e-03,3.073815105436136091e-03,1.931980873230862705e-01,1.055040680558467919e-01,7.805667437840351289e-03
8.693494360040650293e-02,6.841388330023283337e-02,1.048199155779609981e-01,6.301182832876321693e-02,2.118801965683382582e-02,1.888927236426670569e-02,9.423045999904738901e-02,2.242578060118118333e-01,9.669042920389321616e-02,3.281749088028825586e-03
4.520376432398656719e-02,1.006824511640625891e-01,1.750794709931638438e-01,4.933723458702853060e-02,2.322509400641698668e-02,2.360911835037887360e-02,1.147482961821363751e-01,1.820645664703032240e-01,6.565787640814264858e-02,4.830437249826644540e-03
3.500913809394784471e-02,1.190314462056687589e-01,2.126831145018121816e-01,3.098826823397859281e-02,2.063212235416435683e-02,1.944700452483053357e-02,6.516616162944445512e-02,8.402071182088206858e-02,2.670127551846909059e-02,1.163000109439171585e-02
1.138885953996384148e-01,1.175582953916913254e-01,1.908596293120740361e-01,1.584944635255666409e-02,1.678775466817882672e-02,1.105931722103080557e-02,9.233291465911478910e-03,2.549940725330247099e-02,6.423585515638706965e-03,1.337571595300419969e-02
1.543025515081176691e-01,9.983549639376759766e-02,1.258700527943508174e-01,2.482268750361381685e-03,1.210153117933071218e-02,1.364988034267425841e-03,8.588913727583522006e-02,1.235865521428724939e-01,2.934072022545595668e-02,1.027717450774632418e-02
1.491376746997665481e-01,6.076028091877590936e-02,4.158384853660687663e-02,9.194578962718216036e-03,5.591253101171119247e-03,7.848528877112183680e-03,1.569691839053358462e-01,2.074058672705281214e-01,3.900090733999202197e-02,4.902500169563590339e-03
1.138076268771395783e-01,4.774519475431223542e-04,4.046165857314248243e-02,1.266252896492160718e-02,1.762557195622822728e-03,1.446020638374480305e-02,2.044487391239085960e-01,2.632978981730236256e-01,2.924670093889209649e-02,7.745136074634356759e-04
6.524510844611609850e-02,5.368825500796248901e-02,7.522580207007503739e-02,5.121202414369921234e-03,7.220695348541818735e-03,1.706886533330851177e-02,2.109933364723088622e-01,2.657407783417481406e-01,3.683055502425617786e-03,5.886992135035537185e-03
1.648295775385130724e-02,6.966484544823312031e-02,3.050733235869720547e-02,4.379987290032913601e-03,9.799926459831319325e-03,1.614248569503547517e-02,1.757029102159366196e-01,2.202667405471692985e-01,1.803189943626970146e-02,9.089155996372302176e-03
1.774478483641743487e-02,4.434355013416826918e-02,4.794602756435478730e-02,3.560259228717429624e-03,1.150612488443239836e-02,1.382474665278581732e-02,1.068485891165956714e-01,1.745209091086753761e-01,1.747856396552267128e-02,8.797854368779065362e-03
2.777036183932573080e-02,3.643566209850346294e-03,8.062431233283266774e-02,9.048505351908745289e-03,1.355222155772078940e-02,1.159864147471839982e-02,9.987744265392674639e-03,1.601279373357371860e-01,5.147497563932159660e-03,6.158677920373289288e-03
2.208078673592424671e-02,5.587907459602380750e-02,5.801169211544756482e-02,2.235931677913260279e-02,1.388220539676403298e-02,8.265517790467854370e-03,1.025253666620830478e-01,1.564219660314851434e-01,3.436505721463699314e-02,5.258668828249265376e-03
2.122669117642462036e-02,9.467107435667064530e-02,2.800436493638543134e-02,2.428415037431587084e-02,1.102445880621363665e-02,3.165036538489492124e-03,1.924467704983433280e-01,1.370571466955020634e-01,5.228441569344296352e-02,8.430034622053007506e-03
3.760909627207719569e-02,1.039521829809318121e-01,8.795509818976927040e-04,1.399816808814104835e-02,7.590411266129337350e-03,1.761240709120625138e-04,2.101100214586539561e-01,1.163875493370097602e-01,4.834977772574053367e-02,1.379950278406482343e-02
6.519028640413503106e-02,8.584327507699648918e-02,4.907496680827363317e-02,1.015296670124912759e-03,6.327409129852224444e-03,2.997244984670242515e-03,1.462167001615284623e-01,1.189736242580275299e-01,2.462879887474513779e-02,1.854096250100613352e-02
8.430655420537797040e-02,6.249419029823605198e-02,1.048114606032179985e-01,8.849160254130478825e-03,4.901176769530262572e-03,7.288357820760339549e-03,5.977933718799903484e-02,1.261586161450345411e-01,7.195589484339317415e-03,2.098946600696162054e-02
7.754400581168709172e-02,5.249584856314871290e-02,1.120412026874159223e-01,1.969709079614205549e-02,1.189134459552857901e-03,3.600532810785999141e-03,3.746082386434000655e-02,8.570304892082343529e-02,3.473384370377571168e-02,1.946315527795397862e-02
4.938790684668585562e-02,5.774558300885061085e-02,5.759699330410345680e-02,3.314793853428795595e-02,1.156936569515076667e-02,1.177024602820820991e-02,1.182836859918195427e-01,2.320097751994562238e-02,4.932730113374348552e-02,1.380608632456087163e-02
2.582207658338898232e-02,7.537927072546600493e-02,1.496234770317096327e-02,4.147896690780573242e-02,2.088781272596041544e-02,3.291196250410124285e-02,2.575207054573185328e-01,1.563421018095856319e-01,4.849541340918907956e-02,7.737288295573520672e-03
2.476401538148415016e-02,1.012365590357952316e-01,5.824201065757740603e-02,4.186232656751377040e-02,2.563323620898115204e-02,5.059527125435736572e-02,3.692836629560961037e-01,2.506877000690059809e-01,4.067363509367241670e-02,5.010107480561909465e-03
3.516574365284508980e-02,1.160623857036870987e-01,5.547353431715759675e-02,4.386421846015435555e-02,2.743316188756185839e-02,5.919736511868861628e-02,4.044046808497930856e-01,2.842315001940091679e-01,3.951640979775958296e-02,4.532994944922544983e-03
3.806007477056230076e-02,9.661943173671196095e-02,2.163258485711139906e-02,5.307842076492483296e-02,2.853601518399945247e-02,5.772083839074403783e-02,3.732463962387500001e-01,2.659694868796170786e-01,4.796419681258169698e-02,3.105913721779653483e-03
3.681063273355528187e-02,5.372577908450808237e-02,6.759217448220779592e-03,6.154609568702102546e-02,2.732466227264169698e-02,4.759663910701346368e-02,3.010939430472697742e-01,1.968812865971227843e-01,5.702603747731604944e-02,3.305998255833425721e-04
4.667556498942351112e-02,3.029982785067977455e-02,1.977732097543053770e-03,6.293591366745836246e-02,2.148155607654024177e-02,3.243280602375923222e-02,2.022668553310750239e-01,8.850499435911507451e-02,6.158445670867265104e-02,2.866207260280878404e-03
6.417486236235045438e-02,4.539604408873223335e-02,2.408799692456145211e-02,6.273315552149988372e-02,1.362306319378766770e-02,1.844347447034005646e-02,1.023479517422250240e-01,2.549883583092845893e-03,6.513832492930195228e-02,7.399780973461383450e-03
7.177724056761974891e-02,7.010911913344526625e-02,3.952606012177471012e-02,6.520166841441582539e-02,9.106855545224437284e-03,1.071105912868513914e-02,3.690665596080010269e-02,1.708369254162946799e-02,6.758837212843572806e-02,1.337124180440666700e-02
6.667698063227091299e-02,7.616186669135341369e-02,4.196714840076794240e-02,6.273565480959324148e-02,8.759823181461859343e-03,8.383481757464903220e-03,1.151231139828152658e-02,3.687984829028545519e-02,6.003501835801931807e-02,1.650557588416997831e-02
5.994511007973189753e-02,7.541497979169699273e-02,5.739453452408960210e-02,4.760009175453896318e-02,8.507412893014433888e-03,6.514841539247390179e-03,2.909596588715743226e-03,1.021572781090916565e-01,3.689303017230160381e-02,1.236103657772837788e-02
5.376899838976375440e-02,8.875529062394967028e-02,8.806955344401694308e-02,2.725035175098629997e-02,5.809849969789033543e-03,1.972292703693089098e-03,2.935157278499721939e-02,1.463770494476310524e-01,8.951687221899847294e-03,3.775823477746697004e-03
4.406252803051211031e-02,1.054165819131661630e-01,9.985392082841587635e-02,1.787738939700784374e-02,1.780376236064758417e-03,5.211996723132245914e-03,6.752755414232433639e-02,1.723626210949520121e-01,2.316014939566238967e-03,1.079067263748080627e-03
3.743986221743052234e-02,1.001414421708489849e-01,6.977366907886652092e-02,2.349900431202139178e-02,2.408261726420749590e-03,1.373800539690365682e-02,1.098277765764447411e-01,1.753130634034805180e-01,1.197005979548220952e-02,6.746958290037837012e-04
4.275612761052446920e-02,7.196840420722169784e-02,1.102696719511412835e-02,3.056227903450258257e-02,6.602136568273749007e-03,2.050083293665590570e-02,1.443137978172095159e-01,1.459772238092718888e-01,3.467676999098694840e-02,3.016831872223135497e-03
5.543559137786169266e-02,4.170925421595032129e-02,5.470503527314923148e-02,2.570057854138570186e-02,9.789537398435374169e-03,2.113899699420615161e-02,1.533611974885331630e-01,1.032822464372931681e-01,4.010537630990389235e-02,1.536198958059056580e-04
6.686253860988916609e-02,2.104587553705260933e-02,1.142206368018684470e-01,1.024152517187631659e-02,1.109357401603387402e-02,1.501996251795753232e-02,1.365887161696248409e-01,7.355107802563251584e-02,2.161404584906468848e-02,6.021610260641126026e-03
7.527450512891342704e-02,5.886643775586744565e-03,1.476608815940187447e-01,6.749914015972796090e-03,1.192774371072634516e-02,7.264775771692096734e-03,1.213589237179476948e-01,5.216309201079368657e-02,6.273679985711887869e-03,1.034591122585287563e-02
7.716431185307674745e-02,3.259843688626513566e-03,1.313316596961387195e-01,2.154209145122809935e-02,1.412849815910129959e-02,3.450451605735481951e-03,1.309809969428988585e-01,2.106456072394216270e-02,3.041632211920472506e-02,1.081261074762156736e-02
6.568373977705185829e-02,2.244832010770098779e-03,6.834915185955549310e-02,3.573388036550559366e-02,1.676750491760512635e-02,4.486142155518880147e-03,1.585344187984064623e-01,2.197797657671648683e-02,5.403576349805484097e-02,7.489415362322352811e-03
4.350973448120830367e-02,1.764384112992571640e-02,3.524500765016532616e-03,4.792424985562319939e-02,1.706840769733518337e-02,7.150995106305318115e-03,1.821404105379301197e-01,7.262237141697647225e-02,8.462879798928980846e-02,6.160639892059287855e-04
2.271818183141822989e-02,2.317086482444784962e-02,4.613124846670815793e-02,5.204627297729949587e-02,1.406033374466804028e-02,7.820520164577527897e-03,1.899235399219606490e-01,1.228552621684798896e-01,1.108450114263775238e-01,6.752502815802423515e-03
1.200908061548463558e-02,1.327973039532924157e-02,5.398124283037620402e-02,4.469355860064315455e-02,1.002762963655466806e-02,6.443108346418710032e-03,1.848194785881341062e-01,1.451393543705706835e-01,1.047066595548055146e-01,9.279781909878465074e-03
1.111420783356887633e-02,4.254694087796941429e-03,4.762551795566778018e-02,3.073888586665757261e-02,7.994157315981199538e-03,6.356380454659602518e-03,1.687733911748687532e-01,1.091755827457338013e-01,5.653215593084803814e-02,5.950851970763107110e-03
1.016626884295777217e-02,2.102715327162919812e-03,4.330926533901156839e-02,1.927961990044574705e-02,7.878054179862198705e-03,7.363664135710486051e-03,1.221642214274588495e-01,1.592112960333329566e-02,5.561738540419572038e-03,2.136884038050006641e-03
5.703839299937731380e-03,1.541509292753696393e-02,3.878091849429248644e-02,1.521194774598579220e-02,6.362529614960491832e-03,2.970877106868699026e-03,1.937256122210345016e-02,1.061773875791651861e-01,4.716053646373206260e-02,2.582578814664889238e-03
3.868187296929499752e-02,7.200876916740311939e-02,2.789430649810228924e-02,1.700524495058290675e-02,1.842673378100718237e-03,9.300354198884617368e-03,1.186305285597979431e-01,2.224221859099810295e-01,6.445052034458020884e-02,5.969106938247427732e-03
6.975513997615434558e-02,1.582544652677366492e-01,1.913795266043465115e-02,2.151361487626471392e-02,2.288066237256239019e-03,2.048407628932148034e-02,2.190515659507438206e-01,2.951450179967389231e-01,7.175750879600580057e-02,8.145228002508202864e-03
8.054066960678113452e-02,2.322507014551357662e-01,2.817022601606719232e-02,2.798506374505013022e-02,1.575767868676259016e-03,2.090166124542801318e-02,2.304591898884658097e-01,2.941584572180196977e-01,7.016513555724390727e-02,7.301742267386392496e-03
7.497646675677291372e-02,2.587415011551203459e-01,5.232954627768671846e-02,3.710693804228824139e-02,3.964884282867842114e-03,1.238971200950121643e-02,1.715210101288697497e-01,2.220952262822819268e-01,5.118073558159499936e-02,4.916758406042449903e-03
6.763988305875857920e-02,2.455593173581049615e-01,6.661525249490878042e-02,4.755898999457794374e-02,1.035809373028268206e-02,2.820471196199568487e-03,8.892299972107238493e-02,1.132003567800417554e-01,1.887017005186023347e-02,4.307345681550002817e-03
6.123472791992614489e-02,2.275322472896773029e-01,5.311666292157416619e-02,5.475236051143680255e-02,1.410993321533926363e-02,5.042355651391615227e-03,3.165884613755266114e-03,1.182827814553388292e-03,1.191913292257906244e-02,7.980076626368048584e-03
4.834886481764621297e-02,2.160488385806589029e-01,2.650481879684034314e-02,5.477612551446265493e-02,1.464079373601692366e-02,1.270247235310420324e-02,8.055053984301013825e-02,9.748446157766796349e-02,3.385892836366886233e-02,1.444583866439341259e-02
2.811209323254193829e-02,1.897839615754474407e-01,1.928786281514208514e-02,4.982260618632435717e-02,1.349057532249501798e-02,1.963586715277544636e-02,1.391162303872191530e-01,1.661103580632896926e-01,5.133773396354932711e-02,1.915754425389363039e-02
8.914219707894613723e-03,1.380040765566658278e-01,4.147773703266416367e-02,4.681086547772626838e-02,1.228228733978923952e-02,2.390405031671326286e-02,1.448259820427704458e-01,1.750227076856721020e-01,6.874573934795635832e-02,1.972885718649124848e-02
3.453553018203553947e-03,8.319001712466073117e-02,6.589368827960088992e-02,4.925974397387330311e-02,1.146124494680412706e-02,2.573845737313125437e-02,1.056165231648385633e-01,1.123371723308658754e-01,8.124394442022711549e-02,1.775402489926662664e-02
1.193744144711228472e-02,4.909005396868404425e-02,6.192039325592042787e-02,5.320424384983113431e-02,1.067846863694557613e-02,2.647352922323730970e-02,6.640760122901828710e-02,2.453308773137165971e-02,7.793816720552899924e-02,1.478967396206352404e-02
2.209901540728786626e-02,2.862480932579457987e-02,3.500993359851688191e-02,5.225609082755568874e-02,9.750613969212389154e-03,2.616693498530864651e-02,6.478881651245041451e-02,1.017970406399859411e-02,5.357718504760719536e-02,9.832759491305995830e-03
3.469281619570074859e-02,8.546691710337346592e-05,1.687922057532115216e-02,4.288147596468844941e-02,8.820967951334315882e-03,2.456591092190880607e-02,9.706429672821625942e-02,3.441365444103244159e-02,1.649882943358918844e-02,2.221013582391823549e-03
4.531256186182543166e-02,3.749408180632510940e-02,2.066328957191405913e-02,2.354150940666491568e-02,7.974572665131044943e-03,2.246168443794668845e-02,1.317307332567538292e-01,1.060539187108620607e-01,1.737878185646173079e-02,6.020608862845622418e-03
5.007005430691178344e-02,6.069090655903591064e-02,2.800412243235920681e-02,4.615978326859894801e-03,7.146721036938988303e-03,2.068785787076067931e-02,1.481676223149363814e-01,1.492781613450706035e-01,3.789564348818938444e-02,1.259323873093874321e-02
5.082086923970861869e-02,5.611249265510390161e-02,2.416228252655916106e-02,3.266196832695732188e-02,6.297621016299261194e-03,1.915061793369901913e-02,1.543854019115817877e-01,1.711632793176845746e-01,4.459059269371941359e-02,1.706949303843748739e-02
5.157687732847161810e-02,3.721770653760214653e-02,1.977331121052946714e-02,4.716175205078353139e-02,5.457690134586597359e-03,1.748523331345910523e-02,1.666230581852559955e-01,2.032624854252945978e-01,4.011831436899514214e-02,1.928085049958830344e-02
4.938624153179550780e-02,2.458801481335483319e-02,2.526836259684438896e-02,4.353568098074621362e-02,4.648507287957705930e-03,1.572780765213531440e-02,1.812073757940614316e-01,2.351328995244415798e-01,2.681079860926235958e-02,1.827602886260581289e-02
3.634889415742171420e-02,2.245217414831648592e-02,2.936533997954451219e-02,2.995851527641054529e-02,3.860672111274427495e-03,1.405632484981144195e-02,1.786294708921917218e-01,2.307844279967588563e-01,8.849206522446285972e-03,1.401360370358909445e-02
1.281143764503985677e-02,2.219940863951740118e-02,2.089842340160368711e-02,1.557986362942584413e-02,3.086175234347828065e-03,1.246126906363308195e-02,1.516104345456788238e-01,1.868396251634758254e-01,9.186438609621993406e-03,8.279054545012650562e-03
1.035640419924337488e-02,1.841669516178456867e-02,1.001775802430102114e-02,2.139175062804272304e-03,2.328827116395141249e-03,1.086496514714135365e-02,1.121607812699502438e-01,1.294874187984756675e-01,2.657248928381781422e-02,3.374496949439117002e-03
2.454420601786709566e-02,1.430538468526213608e-02,1.125944846584391035e-02,1.127366025974539665e-02,1.598353995579574567e-03,9.287019965491128543e-03,7.071657735866430927e-02,7.290627889395957795e-02,4.431663462297096012e-02,4.529067377009996691e-04
3.033051588448815866e-02,1.704776442453213164e-02,2.476118125878472298e-02,2.262056464660616717e-02,9.061605259814979781e-04,7.780766061186453197e-03,2.828670322547081201e-02,2.157677421966966436e-02,5.832579447428498653e-02,7.809314870007163460e-04
3.147787975031648283e-02,3.067083054393806435e-02,4.298715767131072729e-02,2.824916119800336203e-02,2.483008979580177480e-04,6.333733114693249067e-03,7.735933983318874635e-03,3.959183641136444082e-03,5.927086465707525481e-02,5.534411447655532799e-04
2.959508416948226223e-02,4.965914608273963582e-02,5.453521140730001326e-02,2.560304317928249404e-02,3.950978733515017561e-04,4.915942611103742664e-03,2.131909951465321001e-02,1.801797974029102981e-02,4.178348313488527282e-02,2.042450836413411096e-03
2.532762384286278007e-02,6.118035771352184349e-02,4.058839248618677231e-02,1.501735866379326663e-02,1.010097670502990534e-03,3.572385543038157814e-03,7.253242220166558618e-03,7.969971286265055410e-02,1.213066127227401848e-02,7.288866920658223884e-03
1.940512767797210325e-02,5.872664453245524802e-02,5.447510581955548881e-03,1.773700200373091399e-03,1.542295706954334433e-03,2.359816089420166407e-03,2.226320459228735282e-02,1.512212038115841872e-01,1.501927305824323801e-02,1.287793735549726953e-02
1.153100707184420183e-02,5.047824053703539593e-02,5.758560278733650117e-02,6.219370241322288648e-03,2.009449492126836202e-03,1.204031309048536266e-03,5.045613297706629669e-02,2.055887222342449305e-01,2.734457163869736737e-02,1.556231043395430585e-02
1.419117383493000931e-03,4.811923638598510078e-02,8.303749346759541072e-02,5.673635165207929591e-03,2.521117276237350938e-03,1.340383235500126891e-05,6.482652623698398342e-02,2.246004079537696763e-01,2.269024649823783712e-02,1.449416748582453215e-02
8.925751339983346161e-03,5.200654235876919079e-02,8.052417188958288508e-02,4.012434886601938186e-04,3.035947224313523263e-03,1.037960756512994274e-03,6.177108900712893064e-02,2.022819764890987082e-01,7.954157802836692853e-03,1.154977132797894816e-02
1.640153372417978844e-02,5.550294167348909097e-02,7.048676441929170589e-02,4.555243357812734789e-03,3.309673135398547364e-03,1.731225329601052479e-03,5.024250687665712811e-02,1.513822747120710244e-01,8.186335996877101145e-03,8.787895612090111663e-03
1.949402879821787726e-02,5.870044119148321721e-02,6.143239031120732024e-02,8.567579053273736631e-03,3.409750295300870582e-03,2.452731498996078060e-03,3.664997814014081534e-02,8.490794523698633189e-02,2.177238467520327750e-02,7.075170427361785266e-03
1.802664331512377621e-02,6.671451323720649362e-02,4.565805007278832955e-02,1.472158404644091298e-02,3.899085083071387927e-03,3.956698000858120678e-03,5.982079811964593173e-03,3.611531947198721657e-03,3.465383028437316743e-02,6.404975240760529820e-03
1.249137782831931040e-02,7.699362370516042720e-02,1.632863662444706404e-02,2.435354576097909299e-02,4.900557501390327524e-03,6.059668988731187027e-03,5.722937365565911039e-02,1.126080434927059920e-01,4.891854563336485440e-02,5.460568210348160610e-03
5.202690151827034717e-03,7.923028975785464945e-02,1.893531981807833331e-02,3.163470947980305537e-02,5.544598720657415228e-03,7.377455303893702514e-03,1.313508139524578178e-01,2.023572052634119989e-01,5.881259523335895245e-02,1.666477686912547869e-03
3.015950418436995004e-04,6.777401448396595807e-02,3.282143505855021626e-02,2.622070582319266027e-02,5.194751734212679425e-03,7.042584881944494168e-03,1.722266344923376047e-01,2.307459616452440798e-01,5.213013438530202798e-02,6.058775499787021415e-03
1.743958516628436959e-03,4.679223675511061387e-02,8.212027991212518530e-04,5.745877922142650363e-03,4.492139781142331402e-03,5.928458799256340964e-03,1.646648629589033130e-01,2.007535662226107853e-01,2.554458935123363889e-02,1.510125013562954761e-02
1.078909545882615010e-03,2.449763850178600377e-02,6.732316597826214222e-02,1.763459380696484960e-02,4.307708029531545982e-03,5.424531031389890484e-03,1.316788795877415486e-01,1.387618687776679960e-01,5.618467020925286062e-03,2.116363141917741719e-02
6.227775098271336879e-03,7.265861388363472652e-03,1.167828749623194412e-01,2.997636097902081631e-02,4.518925243449059548e-03,5.719636070612710288e-03,9.648000033716258583e-02,5.514060992618563528e-02,2.218677164746710173e-02,2.202750462442516072e-02
9.428849703680733038e-03,3.541354273194062888e-03,1.236318421049693306e-01,3.139088024417609896e-02,4.568305077102282827e-03,6.065546046937942033e-03,6.277795562412298580e-02,3.449825028359398277e-02,2.272778550950757884e-02,1.900215645772002429e-02
6.785629647439011744e-03,1.200419052551421513e-02,1.097384491991392902e-01,3.103549221370515560e-02,4.396225991623554236e-03,6.080706909080500940e-03,3.230930349928562428e-02,8.072861535846864722e-02,1.993882027723106395e-02,1.542861457736314015e-02
8.956311410454539934e-04,2.119785199472572906e-02,9.824377786536328538e-02,3.080216712687858585e-02,4.244437116752619067e-03,5.986439864773856340e-03,1.668119132105893784e-02,4.408013802695800315e-02,1.883998230814418542e-02,1.362714316092743932e-02
8.165546924204764023e-03,2.621093206291972774e-02,8.240407312177203125e-02,2.578785895550160523e-02,4.145678735034821934e-03,5.960561438575524493e-03,2.236837816711048296e-02,4.551696516012442711e-02,1.227364693969974427e-02,1.285582285372931406e-02
1.003968571051513589e-02,1.943292531569225726e-02,5.336881689586752547e-02,1.857824472916309172e-02,4.002756520236252190e-03,5.918456924132921987e-03,3.758500007111234553e-02,1.132538966604474950e-01,1.345518709244879381e-03,1.089928341869357206e-02
5.907378018765379463e-03,2.222856974478360469e-03,2.392597993275547702e-02,1.920307554456575708e-02,3.823255656219208543e-03,5.788586397529943070e-03,4.383023613535566576e-02,1.162469587720007802e-01,9.336458905882395742e-03,7.610352647231054257e-03
1.841217426264525874e-03,1.585846105934779482e-02,6.213588533350591046e-03,2.937409551665367408e-02,3.641925179086294255e-03,5.621299539047984808e-03,3.385334851116042487e-02,6.742230807083905708e-02,2.541807857836856331e-05,5.247494022026280222e-03
1.066069676523338956e-02,2.971498356815990838e-02,1.051104528508529749e-02,3.841800713269414441e-02,3.423351242567130269e-03,5.462211709950931179e-03,1.351576560310165445e-02,2.062119633465245381e-03,2.074758858215407925e-02,5.019937654818750795e-03
1.757022393062272411e-02,4.261009227993833165e-02,3.905100454374138552e-02,3.755756064151968832e-02,3.192746461960085849e-03,5.299398067007663610e-03,6.212029111402611950e-03,6.807184095287530101e-02,3.547289461022305052e-02,5.514323484645279431e-03
1.923093639603895566e-02,5.437917629091391925e-02,6.443399841722835530e-02,2.944171211311809658e-02,3.056472283245306731e-03,5.121753285101084824e-03,1.592279519541334176e-02,1.099506410723173344e-01,3.403951968174807885e-02,5.382355515181891197e-03
1.589053722281890541e-02,5.410889993240538404e-02,5.924746868632454339e-02,2.130960285744613880e-02,2.935620640869715699e-03,4.944225876629288266e-03,1.447277902678071812e-02,1.193516153038291783e-01,2.045331093146823473e-02,5.092550221231895158e-03
1.182360595773093367e-02,3.338407200132377517e-02,2.527753212705540972e-02,1.565062945259886734e-02,2.601508477531571783e-03,4.780621561442896170e-03,9.549012960870692859e-03,1.095083907268949580e-01,2.981331873480143942e-03,4.757165965621588596e-03
7.509997365331477770e-03,1.890044491035545570e-03,6.166653231047069736e-03,1.024598660525770713e-02,2.236801385475757718e-03,4.631301870244725234e-03,4.523246274316231053e-03,8.486766699783419854e-02,1.411610762185484293e-02,2.632165664182512486e-03
3.598772098666934514e-03,2.162842722358258515e-02,1.620818218495332849e-02,3.127236231684454425e-03,2.390844312389167961e-03,4.495646370102812824e-03,9.434021393909820460e-03,1.729448123854352565e-02,2.838279416506818420e-02,3.085830474924478560e-03
2.419459172399414729e-02,3.101602100263378334e-02,1.386744559857882100e-02,4.927922222986641683e-03,2.938129483855566118e-03,4.377877214566179565e-03,3.735771841257613801e-02,1.067186721844440023e-01,3.541092248791413016e-02,1.270631150273626893e-02
4.445720750207569905e-02,3.338316489771396556e-02,9.309060242256011336e-03,1.091335655523160454e-02,3.026667013671577137e-03,4.281243463001720845e-03,6.501155465108218734e-02,2.350563637615897816e-01,3.081689912284476737e-02,2.482375581316904542e-02
5.193209712297409270e-02,3.195154033178050634e-02,8.957079304998845359e-04,1.153608287935137602e-02,2.600699971788703480e-03,4.205208467108842267e-03,7.321916832231772920e-02,2.939424808675467626e-01,1.598524064053828686e-02,3.551163729914658118e-02
4.545543747028111398e-02,2.278015436657158943e-02,1.936397158598110804e-02,5.926553653386514367e-03,2.533480856347344011e-03,4.148161801830603686e-03,6.051631829513515887e-02,2.674808726117098856e-01,1.118725449031405476e-03,3.882238116005241185e-02
3.295997754571284438e-02,8.115454474855243044e-03,3.976218936851851071e-02,3.024133691403806199e-03,2.785958046418628761e-03,4.108829594257968829e-03,3.980512305644218901e-02,1.957601666813739982e-01,2.552746095614569482e-03,3.062855386226362095e-02
2.121990744235516951e-02,7.096960316832748219e-04,5.599886024703781134e-02,1.059131512558299931e-02,2.353171938905050751e-03,4.085117635078239218e-03,2.069511585734688103e-02,1.155036805840154168e-01,2.443302115508428837e-03,1.268310749860747724e-02
1.396940238587270934e-02,2.324202007920141144e-03,6.864463623465630326e-02,1.332256800173416827e-02,1.376830428538955518e-03,4.073564588322985819e-03,5.567283521585484132e-03,3.820002827712100368e-02,4.016122964737816985e-04,7.168925636675290217e-03
1.409335300823928369e-02,9.597936865294771219e-03,8.277585964969656762e-02,1.025507312058048306e-02,1.219928218545084271e-03,4.070033092395791349e-03,5.060128163967607395e-03,3.002079199891675293e-02,1.544488634726180580e-02,1.968190493807349395e-02
2.080904878621545745e-02,1.068225490332862931e-02,1.032288488194941234e-01,2.786172062765608637e-03,2.123374775708153014e-03,4.070156710537706918e-03,1.239493625971763852e-02,7.864286709167084277e-02,3.155864127374023720e-02,2.095969640205574275e-02
2.834417925609266156e-02,6.338164159395907361e-03,1.263336663986262820e-01,5.551171174527072191e-03,2.691104393707942268e-03,4.069226657589497184e-03,1.837124282828097102e-02,1.004378441738176947e-01,3.339552299671165458e-02,1.472136808064095255e-02
3.193796077486337620e-02,7.600335852245470973e-03,1.364385731584258077e-01,1.103655114905245996e-02,2.102042025001310630e-03,4.062198668881187788e-03,2.040890810832482472e-02,9.576604893714885103e-02,2.338726488606855669e-02,7.280230456289051195e-03
3.242167722240930222e-02,2.205488966954467778e-02,1.222028679567902787e-01,1.304933832654948424e-02,1.214869611656383026e-03,4.043969144081163355e-03,1.479470520686794119e-02,7.352402180389504271e-02,1.020149963099543228e-02,2.017059568275234027e-03
3.265653932232299300e-02,4.359079624216395665e-02,9.510041964831146555e-02,1.361050628821549972e-02,9.881422610358786898e-04,4.009607628113962853e-03,6.265832848991173196e-03,5.141536045655005494e-02,4.306596616315062562e-03,4.172752847963209040e-04
3.209100272154347122e-02,5.926515570195341892e-02,7.665857174580605060e-02,1.275965365153814216e-02,1.194098553658525484e-03,3.954469743640880164e-03,3.957161819834020822e-03,4.310067577465650362e-02,1.619422448787995530e-02,8.908638265590465067e-05
2.686369753703151536e-02,6.507174945330479465e-02,7.112848789192888210e-02,7.738851806249153961e-03,1.222987170368446379e-03,3.874309859215190142e-03,7.225332250377412488e-03,4.036901800286948200e-02,1.493279304514937358e-02,2.673810551320230777e-03
1.555828521446413031e-02,6.678214793038235453e-02,6.845563407414831381e-02,1.474681234127925853e-03,1.051642993601892805e-03,3.765416466754740055e-03,5.534422277811628516e-03,2.348205332518281396e-02,7.628100205522118926e-04,5.022406194656329342e-03
4.507646366496696408e-03,6.632818381782037975e-02,6.783041205779836991e-02,9.404935537813170418e-03,9.422401837772838686e-04,3.624752911024120908e-03,7.450383843413932970e-03,6.659854304447720280e-03,1.073372154715720311e-02,5.293848309365535229e-03
3.555565984548511842e-03,5.924350009946342116e-02,7.857175820235723362e-02,1.023619286287150154e-02,9.105169200058394093e-04,3.450106711775669313e-03,2.732975544379043220e-02,2.620841284425915602e-02,1.287670045249311029e-02,3.786912939504396940e-03
1.352631929805382834e-02,4.480862182906606567e-02,1.023765202691202525e-01,3.662448864515756297e-03,8.329826989896633657e-04,3.240159004734788351e-03,4.500408894992418557e-02,2.214644314054167035e-02,1.794212635275251391e-02,1.883790712813135978e-03
2.306529240629985600e-02,2.704654245083115000e-02,1.306393549819712119e-01,5.350327561045053505e-03,6.991239529247763674e-04,2.994424950350830453e-03,5.352451476160524635e-02,6.381521493921539327e-03,3.317885617291710387e-02,1.509742859252164002e-04
2.221188352118564496e-02,7.790178922464403508e-03,1.562091741264592937e-01,1.134522377964282402e-02,5.656989717717152925e-04,2.713299483247089659e-03,5.096963934425116638e-02,8.453354967272581205e-03,4.644690708350544123e-02,3.064673629393772740e-03
1.315024783127012944e-02,1.116523900756669248e-02,1.781255655633965929e-01,1.308715317377142501e-02,4.381139819546722627e-04,2.398329468921994376e-03,4.061759832370386708e-02,2.560847583542797193e-02,4.483340244346535608e-02,6.051843418805821946e-03
3.938294342601687641e-03,2.333939543140877565e-02,1.975365056579711232e-01,1.337027349834858832e-02,2.903283003397111252e-04,2.052186443089785463e-03,2.775460454747254169e-02,4.982489914167412270e-02,3.135995599985010734e-02,6.405204405672645061e-03
1.558328531906828362e-03,2.472153094737829931e-02,2.128493201447461403e-01,1.331001206027060922e-02,1.206373285062573432e-04,1.678058684746445810e-03,1.592885265553233357e-02,7.320084201785902189e-02,1.761784773234098891e-02,3.321446169554386624e-03
4.352914466128891824e-03,2.133366771190130587e-02,2.174998357765024481e-01,9.893951595806596555e-03,5.698417575742296070e-05,1.279590355739513956e-03,7.658275080657063472e-03,8.499632916243256286e-02,1.156541378560063844e-02,3.546708931536986958e-04
7.105587108625572960e-03,2.154450865920388633e-02,2.055296040780502653e-01,2.185858861276254467e-03,2.391462340138049197e-04,8.620038968487302297e-04,5.950340783759970262e-03,8.736740531363972051e-02,1.399961383750287537e-02,2.135641638234136302e-03
1.294949323729642672e-02,2.524889874310104476e-02,1.787002101507758345e-01,4.470508028164012562e-03,4.293655605350504703e-04,4.320128725881337579e-04,1.011599466095226482e-02,8.992797709313340992e-02,1.918933759551907925e-02,8.931658529579829947e-03
2.330765770986270927e-02,2.706464362629770748e-02,1.390871383875924849e-01,5.132471582712662406e-03,6.257910568806952486e-04,4.891395889811849841e-06,1.321475816848289436e-02,8.894124481004506144e-02,1.912610978102524673e-02,1.532613807663150626e-02
3.479009396847558555e-02,2.552665948305291033e-02,8.321246868877153757e-02,2.110837883751539787e-03,8.228593302369815359e-04,4.446958596930808806e-04,1.067631620329328318e-02,6.825659547408588490e-02,9.905996112014005955e-03,1.531285375754157414e-02
4.109305591316354811e-02,2.335885377196143114e-02,2.093278125652403565e-02,4.624955399853126993e-04,1.017159188276748477e-03,8.794961384390349857e-04,7.352121214340963037e-03,2.961936784297823644e-02,6.476598537263247857e-03,9.168812936428523408e-03
3.982327288272394933e-02,2.205356761927947801e-02,1.827170179951078527e-02,3.221332480707621748e-04,1.206830906311882629e-03,1.297265785209394170e-03,8.214358530107846237e-03,3.413607377608819573e-03,2.340159361585528869e-02,3.213412227227221973e-03
3.533377711209501754e-02,2.066397907664956762e-02,2.254631769191255825e-02,1.521261425919422658e-03,1.388917006505854812e-03,1.693800504986223490e-03,8.807308151310762334e-03,1.526396028358542947e-02,3.062600316204606640e-02,1.621864097631395578e-03
3.272209529423818902e-02,1.836078084504695965e-02,1.895529927088742891e-02,5.064961920653122951e-03,1.559724745542075521e-03,2.074019244291776341e-03,4.285872258654053503e-03,5.474491601562596343e-02,2.041041504484205488e-02,1.889577210593627529e-03
3.070316629503544101e-02,1.564091149044293666e-02,4.046656371736664926e-02,6.689219244741669360e-03,1.716195859357510286e-03,2.426987482640434370e-03,2.204464611145354538e-05,8.265912856138195319e-02,3.571478928330921575e-03,5.310166148272043793e-05
2.314609231015468324e-02,1.335133299107697444e-02,1.015808786771965760e-01,4.031139631109608573e-03,1.855863746324260769e-03,2.722973182716469185e-03,3.007668211871289844e-03,6.018060785664075540e-02,2.840465648632153894e-02,3.936386207091656375e-03
7.362210079450146223e-03,1.100227573692304055e-02,2.124973131601915199e-01,2.203310233330672916e-03,1.976293637853407739e-03,2.967174638154290636e-03,9.495909558857451929e-03,1.981722822669297265e-02,4.436575743055466009e-02,7.966272626141326224e-03
1.136804194226776962e-02,6.129777047131703370e-03,3.771530070220008302e-01,1.029758772911363099e-02,2.075195995841823664e-03,3.207843247949888205e-03,1.054820506472788078e-02,1.175809860200637824e-01,5.059755669061662825e-02,1.072780028579267859e-02
2.454827213259921925e-02,3.088962039413380330e-03,5.651064137175889623e-01,1.844842263535941690e-02,2.150829858114130470e-03,3.422126967774104939e-03,5.524193057730168027e-03,1.762989891825768041e-01,4.982605919183055732e-02,1.150215893143128124e-02
2.857551980595661803e-02,1.374052077038009217e-02,7.119095797279237914e-01,2.394277409742477658e-02,2.202028045269616586e-03,3.495936049415975921e-03,2.334084247255669223e-03,1.755000031713924713e-01,4.376092183661868529e-02,1.029062043372339433e-02
2.640776525495491106e-02,1.921322689620406227e-02,7.625541951078073089e-01,2.370685897970550154e-02,2.227959616514579681e-03,3.467464834821909047e-03,5.347135577110276490e-03,1.407087237578127925e-01,3.384917236167789278e-02,8.687556472748648312e-03
2.230333170649142008e-02,1.642628118265909015e-02,7.120895809585165992e-01,1.687959465648605772e-02,2.228162596059791913e-03,3.579643768641201877e-03,8.874899207770684667e-03,1.062829215798789251e-01,2.188716488587068298e-02,8.235560905506426194e-03
1.813121384059411534e-02,9.879426297660818049e-03,6.008100520861187066e-01,6.626979506170277423e-03,2.202919336780270569e-03,3.765446882142089394e-03,4.891888097447189693e-03,9.083778359132800573e-02,8.753544273640844614e-03,8.120035662834451662e-03
1.438434184751261925e-02,6.257296179781564500e-03,4.734811530180222938e-01,1.737351327226914011e-03,2.153257650020157926e-03,3.463897502127422610e-03,5.664293232503922297e-03,9.815276437447958968e-02,5.257120691491033379e-03,6.258777504969695489e-03
1.096036979943625263e-02,7.119613928652131218e-03,3.510380085670654071e-01,5.237917474952820916e-03,2.080264039944059416e-03,2.555110978365499920e-03,1.281915600737074286e-02,1.179475123263717534e-01,1.826470310534035121e-02,2.112566772841168415e-03
6.755741178009968748e-03,9.299461786257606083e-03,2.380512694130574036e-01,5.248052340292289585e-03,1.985032228517634358e-03,1.912998430995343320e-03,9.425220801115082037e-03,1.311558207426750111e-01,2.678064865019810781e-02,2.931451403863262559e-03
1.424561514537767181e-03,1.034663016648268777e-02,1.394777467691813710e-01,4.739689558258573104e-03,1.870014641336155761e-03,2.180788926568279912e-03,4.425675881031893499e-04,1.260973076265334558e-01,2.907163226597811803e-02,7.003349254367081944e-03
3.220787434194305639e-03,1.055764629405337753e-02,5.994554863635687819e-02,4.906960310203695337e-03,1.739066652546247121e-03,2.725848265779063587e-03,3.155902624053683221e-03,1.068643911970871552e-01,2.731415220023203708e-02,8.458171130009076860e-03
5.930429829884041777e-03,1.075569148229724853e-02,4.097669682807954239e-03,5.212385229691769012e-03,1.594447671495338639e-03,2.684608809460736073e-03,1.836916685561579363e-03,8.719085778449285618e-02,2.506396909839482198e-02,6.689515195248869200e-03
7.959009525000374299e-03,1.080053370009138002e-02,5.842107005743291809e-02,5.247448969877911533e-03,1.436480686273671750e-03,2.186802084715945040e-03,8.686354276660309542e-03,7.813731022459752262e-02,2.371730897354775575e-02,3.444484284855010934e-03
1.004671357993721162e-02,1.032602420783212786e-02,9.905479234251801657e-02,5.239063714012774653e-03,1.269743065688266285e-03,1.802522002695758525e-03,1.166408625942829021e-02,7.715149093340985254e-02,2.263062711599233764e-02,1.851312764310156104e-03
1.058324963808611983e-02,9.414039185178668320e-03,1.180276680135350642e-01,5.361949078346952592e-03,1.103738850798832369e-03,1.606966992053164263e-03,1.305633686046510367e-02,7.136176317602344055e-02,2.132164409612876191e-02,3.146924114357943850e-03
8.818756685851107321e-03,8.267977949079447983e-03,1.196916012025497911e-01,5.500712557379113833e-03,9.394668358942012080e-04,1.364242315121581275e-03,1.821772449742004724e-02,5.370791362952194448e-02,2.006902396024673810e-02,5.416028168277765668e-03
6.813566419361450147e-03,6.894527439744744211e-03,1.178049132264166743e-01,5.561520395706068959e-03,7.673899438218169736e-04,1.041888463010141441e-03,2.754516913883572893e-02,2.908385194435137225e-02,1.909049236345590483e-02,6.264260131446509720e-03
6.947379286019635981e-03,5.251188795534018385e-03,1.180262730340773253e-01,5.586806499820374042e-03,5.958168294657906379e-04,7.582968713789929333e-04,3.518504984999201030e-02,5.959636788054577250e-03,1.826446725861901113e-02,5.529485802191997507e-03
9.594897342423941433e-03,3.395645050605327307e-03,1.168415876158239997e-01,5.611304349890908032e-03,4.557363435977772803e-04,5.390909137167991527e-04,3.533446494698656848e-02,1.088956247681143255e-02,1.748420738085486315e-02,3.773484901896698510e-03
1.271130791972531308e-02,1.416981028942500189e-03,1.140892335106685057e-01,5.606870815310481364e-03,3.400846002419014762e-04,3.372003500682884411e-04,2.913853118797718467e-02,2.210848393747381554e-02,1.677028660234139087e-02,3.431198920649020014e-04
1.248391791147568201e-02,6.367991924638094969e-04,1.140772795807972889e-01,5.549427863594445093e-03,1.914797231954194442e-04,1.469968636114266612e-04,2.361660524610391734e-02,3.086339168056726270e-02,1.614649218502033079e-02,7.622557103020729391e-03
7.122312415519943540e-03,2.729286805429866503e-03,1.180880180124504603e-01,5.445795536736390378e-03,3.137793535913185839e-05,3.810500163801684541e-06,2.311583369673381530e-02,3.745504968578988736e-02,1.563391087719790545e-02,1.444426563567048280e-02
1.202624717715596817e-03,4.803284860305883502e-03,1.231789769589238526e-01,5.302820675563924870e-03,7.773023193139610206e-06,1.078462627705186524e-04,2.457310986675569076e-02,4.206470254731697889e-02,1.522611495817185502e-02,1.606991272806645998e-02
2.076857523701752632e-03,6.796168455644764107e-03,1.243472438653133311e-01,5.114541660680220828e-03,4.620603133079095957e-05,1.750303033477354497e-04,2.322324886742543892e-02,5.026311630751127690e-02,1.478786801245826621e-02,1.303040315969681770e-02
1.023504498926393683e-02,8.657169731685839670e-03,1.164167452840555034e-01,4.876551381243527002e-03,1.263173748381489405e-04,2.074721978323387219e-04,1.993650232680069939e-02,6.340399208152809607e-02,1.424125989416852311e-02,9.560492135538938008e-03
1.777390746400275487e-02,1.034226832747133125e-02,9.985445058959249720e-02,4.592204221624553682e-03,7.164042802231600183e-04,2.006119175479057718e-04,1.870207258753011845e-02,6.921318874954744682e-02,1.384623853141661760e-02,7.120028571434681292e-03
1.851281137149938388e-02,1.180779892461157089e-02,8.432667007688073035e-02,4.265944806565318687e-03,1.417794039372461670e-03,1.549762260715498012e-04,1.821444307784886654e-02,5.797439681783709414e-02,1.375616517868075324e-02,4.267158914470694543e-03
1.475672526601291487e-02,1.301437604814098016e-02,8.024828576589931872e-02,3.900256222045802267e-03,1.716174904478019389e-03,7.573728837112199495e-05,1.190843433565311540e-02,3.997124770964484430e-02,1.332718113013271061e-02,1.297023276036937678e-03
1.154745153140239629e-02,1.393135260338611986e-02,8.784264437486898058e-02,3.498642425104274423e-03,1.381320693371180684e-03,3.288499464611374179e-05,1.874013938038733389e-03,3.129501087841667778e-02,1.186167689132524433e-02,1.779324703145430107e-04
9.887815824096608114e-03,1.453623121336096620e-02,9.961122770970839979e-02,3.066952272206602270e-03,6.463778458738370742e-04,1.676063624845453579e-04,1.518714415884637667e-02,3.341949108011450786e-02,1.009286401624115079e-02,6.284186537469276315e-04
9.127138912881390190e-03,1.481351443060146232e-02,1.102849220062507851e-01,2.611824307180026644e-03,2.876652909117880311e-05,3.236097995339193615e-04,1.907527905024323372e-02,4.065222893251029673e-02,9.517217435619939117e-03,1.360978948914248060e-04
