2.013085890376414052e-03,1.012867270501981252e-03,1.327008778370170582e-02,3.345726709715101613e-03,3.447353656926919335e-05,5.801736661847069166e-04,1.853706266134071690e-01,3.236957759580577632e-02,1.073859300860248028e-01,1.382311164864425193e-02
7.060223622793950111e-04,1.125989150171339973e-03,1.421739387059358685e-02,3.727807342208747099e-03,2.317782137428365293e-04,5.404424386462949870e-04,1.925051386711508772e-01,2.982558348417910926e-02,6.081802053957882648e-02,1.421951841691599175e-02
4.649212704702830818e-05,1.197575232285730349e-03,1.540923855592649973e-02,4.064651492045558666e-03,5.141695123931065849e-06,5.270866182195722838e-04,1.912013504676567943e-01,2.338629198360538813e-02,8.425765825762413300e-03,1.362277673033629108e-02
1.756237024319760517e-03,1.243633325983237647e-03,1.684285322096560830e-02,4.347763418686381720e-03,8.017031718836202569e-04,5.300905034623039531e-04,1.686379645212229272e-01,1.269565615561245309e-02,3.634280044199198617e-02,1.239451385564741860e-02
4.862986331766296424e-03,1.262193149567388852e-03,1.846756515431176998e-02,4.568020487814659220e-03,1.288282882879959431e-03,5.326311359940816541e-04,1.272003798701330235e-01,7.186581170484369722e-04,7.974347689888969248e-02,1.151466655264514992e-02
7.347494075888394947e-03,1.213579579632946244e-03,2.031734152481946137e-02,4.720379126709872003e-03,8.247249652326660253e-04,5.609530267329360630e-04,8.150060591663654819e-02,1.246777257052336142e-02,1.259892651120715079e-01,1.246284736869390786e-02
8.741801007194289000e-03,1.098805895017895959e-03,2.250891534185582923e-02,4.804594718469452908e-03,4.920870087145210955e-05,6.555320334763893152e-04,3.535488938470753711e-02,2.038407106586792236e-02,1.562022926935123512e-01,1.458426847865714263e-02
1.059714176149142636e-02,1.003795632838351852e-03,2.495831553059317531e-02,4.815609259126121811e-03,1.668122608814455302e-04,7.635680098297375606e-04,1.694788899198537702e-02,2.832707537170031306e-02,1.473337190231220895e-01,1.314925286603151403e-02
1.293044444037742477e-02,9.330788360984866147e-04,2.739178673136835607e-02,4.742089104550726263e-03,5.321156753891569379e-05,7.974146892493565696e-04,6.995847333555210712e-02,4.035241288189497788e-02,1.067864845906272425e-01,4.016369912821128249e-03
1.351017026340568111e-02,7.107586633341003495e-04,2.997279399968179672e-02,4.587139834221532625e-03,1.435821340310595344e-04,8.681569614622646489e-04,1.071321730680053208e-01,5.264922465830973453e-02,6.789102159606986986e-02,9.158231526446330290e-03
1.147876377867682214e-02,3.327750289560678473e-04,3.320907304576607710e-02,4.372087069479601087e-03,3.753100816464267849e-05,1.176091850851163599e-03,1.177854332945198895e-01,5.666444279187526911e-02,4.935276133281769895e-02,1.713612126023056001e-02
8.717840882817688014e-03,1.902426240681237557e-04,3.604889084928235288e-02,4.092343099575635954e-03,1.635835159951987941e-05,1.466319808658260579e-03,1.050385647189803900e-01,4.985116548418991322e-02,4.239191393867474539e-02,1.586824446007232409e-02
6.822601944255790064e-03,3.292073995156591425e-04,3.527507393347532882e-02,3.708077800245634242e-03,1.909861321419732846e-05,9.942647109075317558e-04,8.738890043422552212e-02,3.845696040581370045e-02,4.375977332119123514e-02,1.067085619221665171e-02
5.469543848608613389e-03,1.009729989212512801e-04,3.063498257407300598e-02,3.238015814232971749e-03,2.095332210601198565e-05,6.425884065064867102e-04,9.378221961771449067e-02,3.048972552116990115e-02,6.889113571308511097e-02,8.593151302607383857e-03
4.369377125158907353e-03,1.493999048278826227e-03,2.972893595184773405e-02,2.781481071763797740e-03,2.516302498882494308e-05,3.013540850827918418e-03,1.357471636636550516e-01,2.964280028476096174e-02,1.158932981305928617e-01,1.032439004680711474e-02
3.957333623128151887e-03,2.584165095371433220e-03,3.794719233561130028e-02,2.318226964995974675e-03,4.216871212366090933e-05,5.198497105368621654e-03,1.808681849195868940e-01,3.345986107247703872e-02,1.521698786012566362e-01,1.080134970064721041e-02
3.486376791273695236e-03,2.514064765052116159e-03,4.057366065932987986e-02,1.655856346015235816e-03,2.945372616222168333e-05,5.989224480943643007e-03,1.784702924799973778e-01,3.455982828548731511e-02,1.605936258872922573e-01,5.797350980574188413e-03
1.218210381271267982e-03,2.951089356121115725e-03,1.229780359322198494e-02,8.560424279031299223e-04,6.289892707102427065e-05,4.422929418611925428e-03,1.199453249177266229e-01,2.812365679094334242e-02,1.638080858384055594e-01,2.910199294403768323e-03
2.466471172054620145e-03,5.264253282732591667e-03,4.477795309208754820e-02,3.533904086747127532e-04,1.270166469080082864e-04,1.607400439064920203e-03,5.708825960963656576e-02,2.047528247276873825e-02,1.780235682508658768e-01,8.424446133381056565e-03
4.444482456447748121e-03,7.063219143167922751e-03,9.278477726897392530e-02,2.790873286576180134e-05,9.784506738658651386e-05,9.451210621540951772e-04,5.211242035650481830e-02,2.374147742368092756e-02,1.824232231826583284e-01,4.953606219886313305e-03
2.535629701012055877e-03,5.429267380495516812e-03,1.022762477539070486e-01,1.013047611851357116e-03,1.157760606615254862e-05,4.198044784650066009e-03,1.145915527126193378e-01,3.907613293642778901e-02,1.645956491145125489e-01,6.275679461631791106e-03
2.195701348739126108e-03,2.359459413795659578e-03,8.559156887131721958e-02,1.953018190366131003e-03,1.158630686296221795e-04,8.411568838889096553e-03,1.917006930248951468e-01,5.325680164984274850e-02,1.547454967730503839e-01,1.754469101865105754e-02
7.622365798117207610e-03,2.491893590989174932e-03,7.336507755355420324e-02,1.427000830294936204e-03,3.433380389335069158e-04,9.311648467171725410e-03,2.180423440715103522e-01,5.550283711121754837e-02,1.771641308682409266e-01,2.157204051495283104e-02
1.241290929503813950e-02,5.967425376788297771e-03,7.534501704951028500e-02,1.215351819024182260e-02,1.280577452183188274e-04,6.628934068776791942e-03,1.757752305572637674e-01,4.894823783356923308e-02,2.040464396852923190e-01,1.788060360073548405e-02
1.512580262234917809e-02,8.014081449844456112e-03,7.591177014605315909e-02,2.560063406859454035e-02,6.538798994768927134e-04,3.554944240210955279e-03,1.177111169709582073e-01,4.301096832188529978e-02,1.953788401188351898e-01,1.245008031702482879e-02
1.437305428750295343e-02,5.632632656797816051e-03,5.805708187218654864e-02,3.227345796173640424e-02,1.131663191439495749e-03,1.945155250364883400e-03,1.264687155222272708e-01,4.296699980481880066e-02,1.546768992893584327e-01,1.142479460609293132e-02
1.040874339374890656e-02,1.118273393350688316e-03,2.591195100223422920e-02,2.813301746263248762e-02,6.667250496247851405e-04,7.093234858374108682e-04,2.229073965344450792e-01,4.687433805148220889e-02,1.133342675491072482e-01,1.489363188171802591e-02
4.833640128948362563e-03,7.935293082087261848e-04,5.880216580107153895e-03,1.808863700158099344e-02,1.022161934884508188e-04,1.230905764955881644e-03,3.224198922787187560e-01,4.594885131791444366e-02,8.599930287532842055e-02,1.702134539731576385e-02
5.306485730642503422e-04,2.947140706673195658e-03,2.001096701310339787e-02,8.864680004916851430e-03,3.054199604231565561e-04,3.013229805230141761e-03,3.231688006670193070e-01,3.250827609561041803e-02,6.723142210294552612e-02,1.308334072443778119e-02
3.529097154179624499e-03,1.105549278596230055e-02,5.642204758867355036e-02,2.593622576148199316e-03,6.650734339445183601e-05,3.738185284331749757e-03,2.315548491354447735e-01,1.321335973120175630e-02,5.078343759446873190e-02,5.650075487089784368e-03
2.420028494225684966e-03,1.813921987514049289e-02,7.920150789545549186e-02,1.972323200172995152e-03,5.086324045012190106e-05,3.961452130113096368e-03,1.554839990063257849e-01,6.122824898161766116e-03,3.412339831874994234e-02,2.066601119074992863e-03
1.959303463201103254e-03,1.966699250045909897e-02,7.146699574626479146e-02,5.653955307907525436e-03,2.189076673595109586e-05,3.873189129252501903e-03,1.762554666772918055e-01,1.884162721537023868e-02,2.126507553346562718e-02,6.046180703225601839e-03
6.218587995965163887e-03,1.683614223523449346e-02,5.282606914637980738e-02,8.068640182903213595e-03,4.244257013849054802e-05,2.295418809717147957e-03,2.677174159047443491e-01,3.849205472792432969e-02,2.775307446581722071e-02,1.368095515376285820e-02
7.374410739733312445e-03,1.377571658289520121e-02,4.849795191997639809e-02,9.094893331656868363e-03,2.775047664739796000e-05,8.519551109160167657e-04,3.400814582615867554e-01,4.749031753874929929e-02,6.232833470543664572e-02,1.807015398145296603e-02
4.877035038028581203e-03,1.106375778974120865e-02,5.707651576794442461e-02,9.463157192928966024e-03,7.588612588286470432e-05,3.279237242578115531e-03,3.269234924424346822e-01,4.019234843574902294e-02,1.028763700559198468e-01,1.604343012419186948e-02
7.752365404607678844e-05,6.243003353168551268e-03,5.846831088000316312e-02,9.924133061266701694e-03,8.131469300224910635e-05,3.060752302147758987e-03,2.269620102134200512e-01,2.160809853640684522e-02,1.134730300496593208e-01,9.397096426930300755e-03
5.795967863026598062e-03,2.769884544604880525e-04,4.216464419537858943e-02,1.059440429142357101e-02,9.555297619531118712e-05,9.436765613143191988e-04,8.835165431147407045e-02,6.849622712711590788e-04,8.400739815168262181e-02,1.435712808253300672e-03
1.056623933118773680e-02,4.856663069055351493e-03,1.583328310244187451e-02,1.126170655103958529e-02,1.280358159759460756e-04,9.841607391920261481e-04,3.816597862964771909e-02,2.010266958211449212e-02,3.296431247390921998e-02,5.405051880294453777e-03
1.327974181808228016e-02,6.021833822329419710e-03,8.892052234892502266e-03,1.188067518570898838e-02,1.535990803106631534e-04,1.716161345815860658e-03,1.334829366192368805e-01,3.336521897693844191e-02,2.285782376323659132e-02,9.563915054257387735e-03
1.423123306853734879e-02,6.044669019916656776e-03,2.947720662681496684e-02,1.258398198600483957e-02,1.660962368003912159e-04,1.855477791733213186e-03,1.978136323233999072e-01,4.177458050925896005e-02,8.249343100766026726e-02,1.083681048246204828e-02
1.482218385265479665e-02,6.990529569142318010e-03,5.116894030380886998e-02,1.343005503302662287e-02,1.765237222481774065e-04,2.264169901787378182e-03,2.244141948559735533e-01,4.769665012101022977e-02,1.496903657369966778e-01,1.095402722831398737e-02
1.634790081691525968e-02,8.306722815763242437e-03,7.519848701990866635e-02,1.431601446839931777e-02,1.879282438580763851e-04,2.856026219937217968e-03,2.136074527393000966e-01,5.211869903748179989e-02,2.197361704790229409e-01,1.190574868960127958e-02
1.921463156880459655e-02,8.889785444161982242e-03,9.029437043174579069e-02,1.517483110179948351e-02,1.939795776114154244e-04,3.077202955351251469e-03,1.986195526289927515e-01,5.791977959057553749e-02,2.766230689308107338e-01,1.390183470349124449e-02
2.270998963014486324e-02,9.438085746731989314e-03,8.250743510744176779e-02,1.617916114981223646e-02,1.906444674475981120e-04,2.950390081917412307e-03,2.236697222209840241e-01,6.969993841728580608e-02,3.043938986131690672e-01,1.624498920448396930e-02
2.507273625675187495e-02,1.114148146199534818e-02,5.494387458632600529e-02,1.748135748919851448e-02,1.813265461921003286e-04,2.907327815063414245e-03,3.007563265954183995e-01,8.644043370396303771e-02,3.040238099406262773e-01,1.903991720743292496e-02
2.444922871689925864e-02,1.266176686674609121e-02,2.826562720419098854e-02,1.876614003118187018e-02,1.717541825553677232e-04,3.049615246348253740e-03,4.004381182011865770e-01,1.001390712478874429e-01,2.927599740486546698e-01,2.178104976808822868e-02
2.050960209681181035e-02,1.102718008641084303e-02,1.940686070507140204e-02,1.971955529861440029e-02,1.583174378907100971e-04,3.186568188770496930e-03,4.699703227476192957e-01,1.055171104218176059e-01,2.843202407374020302e-01,2.169362524897654881e-02
1.488721691673387283e-02,6.308241375550516922e-03,2.769890699561036382e-02,2.100744395511153217e-02,1.294894497380681502e-04,3.281976160686937097e-03,4.637019220270954811e-01,1.049769284386777163e-01,2.765884592926403651e-01,1.698794074543336780e-02
9.122972106515981824e-03,2.288978016395044716e-03,4.018372211469652816e-02,2.336704255512701833e-02,9.093769066131942289e-05,3.446075398263610291e-03,3.834463908477276917e-01,9.989386873653857690e-02,2.629379926088108443e-01,1.065369032513929434e-02
2.490680125207766354e-03,1.587124620991411592e-03,4.421938695978278044e-02,2.531140429484387763e-02,6.745669921962718445e-05,3.659989542858359604e-03,2.861672376565586040e-01,8.518060969260189685e-02,2.540920140403032379e-01,7.405866235106248370e-03
5.950759826264952201e-03,3.936265728309160800e-03,3.871177286271498125e-02,2.402824824555349972e-02,4.935780367008196258e-05,3.819758442555472224e-03,2.322917779152845197e-01,6.060494706878675336e-02,2.751558288177523570e-01,8.159727279204732550e-03
1.343492800758561319e-02,8.983288430908852734e-03,3.356707243255241391e-02,1.936447096675549678e-02,1.510279312053544942e-05,4.007468538636547832e-03,2.310093218714049379e-01,3.975554955953056885e-02,3.210114321984212649e-01,1.030391629451086859e-02
1.558370659757538253e-02,1.522945147228871136e-02,3.326225893897150065e-02,1.412119012850162822e-02,1.054655361842481316e-04,4.390990299527414154e-03,2.431298764093669795e-01,3.589363509820387571e-02,3.308331281242024580e-01,1.116166353977384590e-02
1.277111020692481974e-02,1.720472248228699721e-02,3.023398428611182714e-02,1.009410207361895358e-02,1.088718705945250547e-04,4.749941580690986327e-03,2.313384638912180102e-01,4.370799488679784350e-02,2.522356508858208946e-01,9.138691696883379997e-03
1.022205647377799446e-02,1.053846352062206247e-02,2.279456555072787924e-02,7.194792232353927966e-03,6.356577681176269336e-05,4.433363180964893305e-03,1.994953127245062408e-01,4.630427563417130465e-02,1.228735547457442123e-01,4.315402282426617983e-03
1.133151754461828899e-02,9.305101190125377331e-04,2.198678225878633596e-02,5.587779725712962997e-03,2.117782731424329651e-04,2.964299789494902280e-03,1.705310314086756485e-01,3.648065714545233734e-02,3.040455177739796733e-02,6.328768175010261732e-04
1.423112398394290809e-02,9.809627271630382700e-03,2.739814122699808785e-02,4.184354950213711039e-03,4.850437269346275079e-04,5.837123812758204973e-04,1.377460661791188312e-01,2.176236691641642712e-02,7.097272766491944523e-03,2.537920875354579553e-03
1.545726429650906737e-02,1.585862815044566596e-02,1.812189072863069558e-02,1.772189618608229498e-03,3.190979876972231200e-04,1.367094804088646483e-03,8.305937445808291020e-02,1.209908913447374328e-02,5.571718490913870475e-02,1.465203345852740102e-03
1.456219052532966782e-02,2.462542549854211671e-02,1.371121578409971453e-02,1.601880146768656921e-02,4.110304786367014536e-04,5.950088389963257077e-04,3.432852338140313792e-02,9.961055160826919400e-03,1.536967839129020907e-01,8.012563560015858229e-04
1.373441660354227795e-02,3.586459124932391690e-02,4.212319063627868732e-02,3.382618317569770910e-02,8.356681628410628140e-04,3.543030031627326590e-03,3.017753987800429402e-02,9.219709624488836922e-03,2.518807065876539908e-01,3.492661066357641807e-03
1.412215924367695059e-02,4.185300392081916371e-02,4.126236296635202305e-02,4.449373779646173532e-02,3.147424750550501644e-04,6.862887861793189569e-03,3.336091980009227298e-02,1.683829783487916440e-04,2.866856638444825744e-01,9.072717742176768935e-03
1.453268462219029465e-02,3.835389830080092322e-02,2.074674121028369927e-02,4.312892652801471327e-02,5.116710433798714189e-04,3.654993277005713550e-03,2.908389278334617967e-02,2.204592005686100212e-02,2.563890316426505334e-01,1.501304847757947182e-02
1.357556812596200785e-02,2.921748622658466854e-02,5.476765952752640429e-03,3.552888301403335503e-02,7.680311410513797430e-04,5.127110605494054896e-03,1.480031656359992454e-01,4.844822580776107779e-02,2.011807839074840620e-01,2.079602442325866399e-02
1.139604493708086010e-02,1.879682257615161028e-02,2.202736183205704790e-03,2.929453953281270853e-02,5.794802578900292659e-04,1.201379579531652517e-02,2.517633614113405360e-01,6.893096592631235697e-02,1.513577541299656604e-01,2.833857467675538269e-02
8.889241424112393625e-03,7.342368087293416577e-03,1.596683376651904587e-02,2.503198465265978750e-02,5.202315673654705911e-04,1.314451899577096655e-02,3.222643652657287139e-01,8.038851469361484037e-02,1.163345807837009027e-01,3.702072243059188750e-02
6.093667004300539619e-03,4.488508301617330498e-03,3.253922184795733641e-02,1.970258479034285928e-02,6.533971828370487836e-04,1.232600144412233055e-02,3.916267327119839492e-01,8.283633688789245053e-02,9.454256456371015749e-02,4.158221905672647434e-02
2.261860596530225909e-03,1.329729604683644803e-02,3.102595923064439820e-02,1.404773699674294676e-02,7.118391222986271980e-04,1.332739453452296691e-02,4.488295926469200170e-01,7.637303355135489913e-02,7.639799287749007850e-02,3.757775171234804812e-02
2.117324849915993776e-03,1.779439545275348505e-02,4.140268720032853553e-03,1.122869926373457235e-02,6.663625819154556963e-04,1.423413116271654913e-02,4.411394478341343905e-01,6.741853834729188977e-02,4.895734070234551705e-02,2.640771361285942226e-02
4.435013840076522038e-03,2.126139221152291425e-02,3.033763735187248664e-02,1.016188047551051278e-02,6.813603624964769496e-04,1.171672994219884537e-02,3.568559477191633467e-01,6.441906197443073023e-02,5.753997241712878290e-03,1.330548971038695433e-02
2.871580538986619972e-03,2.650929030178202431e-02,5.187300249549843534e-02,5.791892122512382057e-03,7.572867001641062990e-04,6.460164745163173364e-03,2.499998513768491859e-01,6.454296838340087272e-02,4.736929515552610465e-02,2.557913253073589195e-03
3.876969776886174390e-04,3.173056647538601699e-02,5.502052795247428657e-02,3.886134097805883474e-03,7.305118821572713708e-04,2.021268998082778427e-03,1.869684557236104550e-01,5.980048517694946247e-02,9.734969583772212776e-02,4.546777340106480415e-03
1.201364261614662129e-03,3.391093051246249490e-02,4.314103975833954996e-02,1.542248387943014401e-02,6.305971266534580056e-04,4.697381142943767864e-04,1.860335808889274356e-01,5.497536998254400065e-02,1.396681517623641067e-01,8.935469073596722170e-03
1.790600491925272699e-03,3.423266112859317534e-02,1.906813560965350818e-02,2.555047062335885980e-02,7.249797246960571232e-04,6.476482286162775102e-04,2.004844098837526845e-01,6.049848524937954941e-02,1.842682388821447748e-01,1.185833562927049965e-02
6.910149143747684741e-03,3.699788411259988946e-02,1.346105243787047885e-02,3.571022022556312459e-02,9.516090250778579378e-04,2.180437395471663577e-05,1.662255035609014331e-01,6.948034392645532908e-02,2.321466547086082910e-01,1.341415737318588791e-02
1.260346531697390839e-02,4.254949048116568600e-02,4.664872824077828661e-02,4.800098368365983414e-02,7.374748820065441966e-04,2.686818236151878106e-03,7.785911110346957487e-02,6.283190718489085891e-02,2.537439035392363151e-01,1.304292772695850658e-02
1.800566932074118900e-02,4.401278718622202851e-02,6.876570136987124326e-02,5.788585566956343936e-02,4.321079258858397196e-05,6.088553531688109359e-03,1.875152579807554121e-03,3.803693537708510708e-02,2.153778801305011315e-01,1.173461746583022262e-02
2.197750426698594911e-02,3.502600198069022452e-02,6.725567087465235405e-02,5.567128537121722454e-02,5.162237926717811939e-04,8.306097840077108704e-03,2.665866579842309306e-02,1.397423423185302493e-02,1.256423498267549288e-01,1.253512496390423066e-02
2.402769985732012767e-02,2.009638118714429655e-02,4.008055249301691741e-02,3.826786200536177324e-02,3.915926340878414654e-05,8.820408515545649641e-03,2.979492914527229544e-02,4.601283711509622336e-03,3.342271692453114423e-02,1.687573519117552961e-02
2.442872079839044155e-02,1.190229876027174179e-02,6.221822470941175062e-03,1.611813529632159792e-02,7.514813309708059073e-04,8.471017123532877460e-03,6.850963860499589830e-02,4.165745610871081361e-03,1.811659601588791468e-02,2.113210099586137689e-02
2.279155789360978041e-02,1.646278936261209511e-02,8.827000905455009358e-03,3.407262274192139357e-03,9.814978870885460779e-04,8.050105715157322359e-03,1.371806471357955859e-01,1.195096884527166448e-03,2.330780077956940560e-02,2.010831196139778107e-02
1.944827461824801679e-02,2.579845746732612258e-02,1.580115245593235410e-03,3.496908218463413119e-03,7.681022245137014660e-04,7.361091113545029443e-03,1.821621793144200252e-01,7.793509643479236589e-03,1.170488584511510978e-02,1.432833934328757268e-02
1.689109728042452116e-02,2.854106173811260180e-02,1.202512833935817649e-02,9.372380454277726147e-03,6.846479787074442229e-04,5.416563576911141362e-03,1.735153653501398940e-01,2.024525881156298557e-02,2.035976494297417339e-02,1.021974310242438309e-02
1.522849657355487309e-02,2.325582772111707552e-02,2.714318286693524068e-02,1.553058753774607878e-02,8.156830032713483511e-04,1.721102746132881570e-03,1.182510045454331221e-01,3.018938041335555295e-02,5.273901880044601365e-02,1.161264446801127392e-02
9.271983566515014721e-03,1.653551627368447449e-02,5.096774260982596394e-02,2.171320066927650422e-02,8.989087922190867929e-04,2.599584935494995541e-03,3.594946202110617384e-02,3.043057641889209547e-02,6.969660779915920479e-02,1.474435983187868948e-02
3.355319524233576524e-03,1.253365157754933804e-02,6.966835790943291806e-02,2.595570977754244404e-02,8.598038144547685141e-04,5.470472392591347981e-03,4.058295872399933502e-02,2.304640935520776285e-02,4.268476275193643088e-02,1.454192789683134840e-02
1.518409679607535777e-02,1.051189396725581843e-02,4.936445157121521071e-02,2.251865556479738795e-02,8.514320903556756893e-04,5.685781691663955272e-03,7.605740405546053406e-02,2.146256759803036318e-02,6.023403504380820186e-03,1.232424431436821184e-02
1.773307420163488038e-02,8.389528595256665403e-03,1.459683582279740210e-02,9.663425636436686131e-03,9.708221051037442670e-04,3.928770332199734566e-03,7.238622470800551434e-02,3.215550992901687610e-02,2.754362753752749235e-02,1.240759177475779865e-02
1.310960213600140430e-02,2.846219574289392609e-03,7.949695657314130581e-02,6.038190726260757833e-03,1.080058962726130429e-03,2.281462622063979914e-03,6.250591741442525218e-02,4.374159574141394530e-02,1.270315869371944351e-01,1.380008447026751135e-02
8.921425603283128503e-03,9.122380771905507640e-03,1.034673109693488163e-01,1.694881907165295826e-02,1.000670136878310064e-03,2.323632519050894234e-03,5.620933809745031623e-02,4.331703448740824303e-02,2.437425027555058521e-01,1.171911284778813164e-02
6.404123006582527339e-03,2.375037462964445581e-02,8.610353483141412745e-02,2.164287305704988562e-02,9.358898823101857115e-04,3.310067427888593785e-03,4.096053573275898474e-02,3.365538396572661378e-02,2.911127431895416673e-01,5.874649556966690667e-03
2.030250978944407245e-03,3.115199951021903682e-02,4.926524418206849193e-02,2.128607526280585499e-02,1.269130844719505106e-03,3.154384805027923757e-03,3.279057701597781760e-02,2.608299950328127337e-02,2.402380644172812107e-01,8.984304126987019022e-04
2.751785623489677937e-03,2.605592455133567617e-02,7.583184866137127923e-03,1.528168750972137835e-02,1.605002848029434557e-03,1.356955881577726584e-03,5.908511193047785715e-02,2.364958634430879003e-02,1.474876383274638658e-01,5.133348504266265280e-04
1.933012076132294057e-03,1.294153981815566318e-02,2.650869058887517227e-02,6.841297465404580849e-03,7.750851813367319902e-04,5.834795771056393472e-04,9.381489595160726058e-02,1.841273671849696925e-02,9.421587174928339192e-02,5.397885581424886371e-04
5.692112394813480560e-03,1.617328400851669474e-04,3.724084139698038975e-02,5.335595359368431982e-03,1.589224703028336259e-03,1.645427913736661942e-03,8.240287582049304893e-02,4.210456867846755838e-03,1.028296988906694936e-01,3.204903670451252941e-03
1.393506720792896982e-02,8.071086518748852787e-03,2.573799781995247948e-02,1.424311364689895623e-02,4.500470396983203593e-03,2.210731149482618191e-03,2.692984266800477200e-02,1.118046241210138118e-02,1.312878788589029733e-01,7.820817834687901135e-03
1.642948186756624726e-02,1.002684760241998041e-02,1.532772514668709167e-02,2.322792486685940072e-02,7.041739756691819431e-03,2.438772905381759656e-03,2.399995405049060865e-02,1.098938576494514624e-02,1.453766606254206784e-01,1.308306664167396653e-02
1.205310166791015956e-02,8.917738727873414026e-03,1.990159669062180683e-02,2.161688742111136929e-02,8.823205334390961732e-03,1.710955995530719607e-03,5.785020317928086381e-02,1.048197720486509707e-02,1.567117649919517186e-01,1.619084231851842040e-02
3.096295876627028990e-03,6.963414198412812457e-03,2.610537266015094254e-02,1.542425557487657820e-02,9.000782753022480015e-03,5.499743099629197550e-05,9.261032962687688885e-02,3.796423761886927317e-02,1.781607397194947817e-01,1.559019328125129354e-02
7.528398101400988682e-03,9.214747185510888897e-04,2.000155761247280478e-02,2.175083547429662242e-02,6.861225665826066467e-03,2.021604262329394081e-03,1.039882323503311390e-01,5.235440906468892541e-02,1.858509835819838474e-01,1.125162376596524835e-02
1.612741404818463647e-02,1.442143127725740819e-02,6.985585897917758261e-03,4.698404639397288363e-02,3.305497090998183504e-03,3.228349078630397048e-03,4.932664281728461886e-02,5.193417590075694035e-02,1.552847352269856596e-01,4.124293419770869336e-03
1.895067657189634935e-02,3.725157093974921368e-02,1.071561614824599606e-02,7.829870006685860084e-02,1.905874000006954182e-04,2.938446620347383645e-03,3.989999437261155385e-02,4.643295689071256366e-02,1.053800179112704544e-01,2.766057024793616530e-03
1.547378947072665725e-02,5.777826765452546282e-02,4.671577115004349467e-02,9.812708547858191299e-02,1.433274662641271071e-03,1.118193012708575910e-03,7.863488236303960155e-02,3.829476508998806011e-02,7.274358858422078078e-02,5.619003031692627707e-03
9.669347430828964529e-03,6.716769066541597444e-02,9.756071573656793783e-02,9.956280838155721902e-02,1.772893943049776936e-03,1.009282597442065239e-03,4.356639488563429641e-02,2.541449664587467488e-02,5.815073106870512210e-02,4.390307084039223040e-03
6.587091994724410260e-03,6.398601758372322867e-02,1.264644794546794515e-01,8.547525813724946020e-02,1.726954416013259160e-03,2.166412543721352602e-03,1.009550087090475140e-02,1.498281706997531791e-02,3.351490619730820852e-02,3.437195003761818642e-03
7.748700753659882624e-03,5.306008477465511824e-02,1.072491713887880199e-01,6.207459057055987606e-02,1.969907933747922640e-03,2.542417864382729396e-03,4.255511016639672295e-02,1.578200248417231319e-02,2.415831456419981899e-03,5.751693289137793132e-03
9.774526056446701874e-03,4.197635470117010853e-02,6.215613449914257627e-02,3.835773232557584955e-02,2.073314266649009877e-03,2.750391789332617964e-03,6.177779651268466843e-02,2.006428016532015024e-02,1.767503344064425691e-02,9.139993109848407182e-03
7.741544511711664737e-03,3.581470748869024917e-02,3.343145383459819597e-02,2.327639604876557966e-02,1.141391556923865378e-03,2.321896418948454430e-03,7.082121016351840270e-02,1.125579527042929601e-02,7.577726191015831531e-03,9.959520372784101683e-03
1.201396751773454660e-03,3.162834351580846859e-02,3.388298162364045130e-02,1.715854322878314700e-02,3.075577914725705032e-04,1.066931420429202649e-03,6.681471337551896095e-02,9.041957307378145278e-03,1.502665009681017697e-02,7.272462050062968898e-03
3.858646434586315149e-03,2.244452614105345301e-02,4.259050308484130937e-02,1.150824765077161291e-02,4.243841455605359362e-04,7.996017546022778436e-04,8.491159714212555276e-02,1.843531763543103039e-02,6.639557161107359495e-02,1.297079893708768042e-03
1.967689907530457798e-03,8.727856067025226497e-03,3.810712905966907871e-02,7.827991549897821144e-04,1.221320708077609698e-03,3.329941152278376431e-03,1.581367483569473820e-01,4.483538048330197069e-03,1.284610661739266912e-01,7.609919305514670565e-03
3.142069770796459584e-03,4.739460884882929111e-04,1.942297347476047015e-02,1.134273823067836334e-02,2.415680313086707946e-03,6.990207124746073732e-03,2.408475912800830399e-01,1.575723013964502525e-02,1.548417351883988879e-01,1.553463000370363528e-02
8.346528642866261720e-04,4.278574338288654300e-04,3.692100631603011454e-03,1.946782438391634826e-02,1.175215047041313189e-03,7.608814935010285545e-03,2.567120531939003358e-01,1.659065505868915352e-02,1.449892920051475964e-01,1.551117153474138206e-02
1.346387013331730789e-02,6.177204041434164634e-03,2.786612126157420738e-02,2.409623852297318458e-02,1.179629486608036598e-03,3.678293908458176321e-03,2.108782017891338845e-01,6.170200027990601840e-03,1.382476123340976859e-01,5.613625729064585304e-03
3.067682711649018235e-02,6.887052912257751389e-03,5.863813976950300183e-02,2.885762190466642507e-02,1.668217460362959393e-03,1.655494579365708162e-03,1.642068011713363196e-01,3.540931853967858173e-02,1.661845400436673115e-01,6.526821021356201021e-03
3.744016759210485462e-02,1.654618990221682923e-03,9.903413351829346012e-02,3.380687346212767064e-02,1.452471705721888201e-04,4.769834983981335354e-03,1.181757761784294619e-01,5.331648255137892700e-02,2.168517231176445847e-01,1.107449519050766537e-02
3.170070851930120726e-02,1.406350505556933257e-02,1.353024049619665214e-01,3.443516787704611892e-02,1.855596659730101650e-03,5.392195668099795773e-03,3.341525605833430695e-02,5.170740517398891845e-02,2.400195600248439809e-01,6.918232108484950911e-03
2.356685270283975786e-02,1.996635072810038283e-02,1.366214853279125174e-01,2.689591119554800638e-02,1.958551492606762021e-03,5.287243587540582657e-03,6.436681864118745655e-02,3.204821858695994924e-02,1.953570346056930085e-01,2.976204118387549419e-03
2.056618765540812327e-02,1.334852595510546344e-02,8.245646748979322538e-02,1.326242926611174641e-02,1.394511343695656108e-03,5.517622465322351635e-03,1.144332391010431937e-01,7.315613758024560112e-03,9.710858152696072443e-02,7.881363070357087081e-03
1.915710018602393566e-02,1.229917934700044870e-03,5.501960496222161635e-03,1.060609658050523912e-03,1.297855498188515500e-03,5.875064951014573669e-03,1.230023846961193490e-01,4.032192817541690143e-03,1.789936173139774003e-04,1.959855036219575880e-02
1.342544326953351227e-02,1.259661241166098837e-02,7.411278288654968294e-02,2.981936608242921876e-03,1.493020596903252804e-03,5.284205536799977017e-03,1.250192551740421654e-01,3.640244760088438749e-03,4.973116305961924888e-02,2.826548093556984984e-02
5.161274602412999242e-03,1.404964094073887955e-02,8.803969793118246456e-02,1.978436125217603730e-03,1.492358920441896582e-03,2.577007824613007300e-03,9.483462809727929987e-02,1.701458474429467030e-02,4.185867932480363818e-02,2.909965543759549661e-02
3.678983955168046039e-04,8.693598610407868646e-03,5.582469670187324012e-02,1.297630799509830700e-02,1.371286311347618032e-03,1.780620984222643609e-03,2.973094554182931226e-03,2.250213802732589988e-02,1.000037227884172097e-04,2.732348319597349348e-02
4.132748773280955218e-04,3.005733435112639511e-03,8.097357037816037967e-03,2.716962347061932515e-02,1.337487866890905899e-03,5.022393694486662619e-03,8.985819353311939872e-02,2.327327654760883574e-02,2.735781469542557243e-02,2.919405455527557605e-02
1.850766622657243473e-03,1.041018250014533490e-03,3.055014036851870854e-02,3.968342718079101439e-02,1.342091058005496574e-03,4.671939301824953872e-03,9.939301750295530258e-02,3.035361822218092878e-02,2.135490124823731517e-04,3.376819452765891100e-02
2.455307661690256296e-03,5.203000646902791043e-03,4.659631840450900730e-02,4.211876683233730517e-02,1.330636670401635739e-03,1.938293289106963850e-03,4.564316249201421510e-02,4.340789770019690130e-02,7.029703117257576905e-02,3.557275712084415759e-02
2.597619800436464736e-03,1.008882775230285182e-02,3.579107454676765110e-02,3.092065787046244588e-02,1.363154043156458760e-03,8.693480732193787329e-04,2.583273698737592605e-02,5.058528669197671218e-02,1.329702503455000573e-01,3.132427549614586609e-02
1.750493257260137556e-03,1.413062621991194139e-02,7.574532532719434677e-03,1.413323763092334123e-02,1.375336441126007473e-03,3.321449269179981012e-03,7.414880923899516696e-02,4.552420080803041419e-02,1.501772666330955797e-01,2.241441994210496835e-02
2.055044088819322785e-03,1.635453138854950708e-02,1.614571904633856428e-02,3.163362924110209654e-03,1.255119178670057335e-03,6.754793680578423734e-03,1.291218571700417095e-01,3.386203827000446032e-02,1.202586606288209292e-01,1.317889438374485016e-02
8.967702683526536725e-03,1.861701686539391637e-02,1.562483663329443037e-02,1.764006055988866575e-03,1.224276925038571837e-03,8.446861295589637789e-03,1.469990642799760550e-01,2.255818573687414647e-02,6.152541411217526263e-02,7.446211041832376427e-03
1.593251134671415728e-02,2.303604807385814177e-02,1.065446115021145140e-02,6.908964713359367314e-03,1.531122733535646499e-03,9.208898229177961414e-03,1.615690315234300511e-01,1.363295458049440870e-02,9.588096966234973054e-03,5.805483823044711549e-03
1.919754567975215029e-02,2.597149548301503144e-02,4.503645447978396610e-02,1.364401204547634194e-02,1.633339360030458282e-03,1.056720506987588251e-02,1.910429041563351527e-01,8.447122884480981128e-03,1.324514577379633587e-02,6.731948064245033524e-03
1.769816513087157234e-02,1.934739752475834323e-02,6.603157693590992749e-02,1.690535563944846678e-02,6.907334653163941553e-04,1.116059100057637671e-02,1.721354055840117470e-01,8.097638830386170300e-03,8.672287419309682166e-02,9.987531223363710353e-03
1.409648579317640191e-02,2.773621229885772296e-03,6.406542639183619714e-02,1.602681721200101966e-02,7.281910922274954919e-04,9.256609926578378972e-03,6.561173477335724424e-02,1.056182458433329620e-02,1.728350273945432891e-01,1.571754425254837453e-02
1.297062340897078662e-02,1.128338092700696162e-02,4.541428920449543799e-02,1.685416759128969752e-02,7.907604117609427774e-04,6.816333972700316934e-03,4.203967713499041914e-02,1.225815645583242137e-02,1.931930642146481580e-01,2.024872388796391046e-02
1.711292244935533335e-02,1.149290683351318620e-02,2.715682808605712414e-02,2.255099059625146132e-02,9.028774728389284479e-04,7.381198293083080647e-03,4.307425612237043844e-02,9.034144031209516770e-03,1.337410085662874837e-01,1.826713628236322634e-02
2.308617649592279233e-02,1.790057570427346697e-03,2.579835739228844918e-02,2.683150465149981845e-02,2.098500432377473340e-03,1.043953190863052688e-02,3.113479520623390825e-02,1.011394869249569554e-03,5.387391842779520185e-02,1.061975787200125122e-02
2.143101278640141896e-02,5.386241561125138487e-03,4.068119119437943465e-02,2.421276319583169287e-02,6.134122266605648030e-04,1.116345247052204920e-02,5.364083077311078418e-02,8.953173161883876130e-03,1.408454591355394817e-02,4.459779130162298127e-03
6.570445024304935079e-03,4.998135073011253197e-03,4.912031466928500067e-02,2.052482878841154976e-02,2.541619609927491929e-03,6.412429322974641695e-03,2.871548188364973775e-02,1.809039625072115728e-05,1.576584318004961571e-02,3.614860763374578949e-03
1.370159158042668149e-02,1.749352055178888610e-03,2.728088893690528219e-02,2.317828525547585908e-02,4.116129421840752055e-03,1.407496410134018378e-03,1.569753266522507240e-01,2.360592934928581674e-02,1.434298867346775648e-02,3.591955857576360593e-03
2.485203687889955826e-02,4.591392860923597732e-04,2.502617658054110197e-02,2.644515296581472288e-02,2.497507352609067751e-03,7.262046524842180432e-03,2.518947920178263855e-01,3.879958613458737993e-02,1.949827473167171574e-02,1.155586667716942831e-03
2.218548406942400311e-02,1.699480886024093244e-04,8.681201206732924724e-02,1.791203616814488267e-02,5.154600169286027538e-04,8.653067564174740309e-03,2.690847261907068355e-01,3.185486150964986218e-02,6.008440518368188960e-02,8.634886986498660141e-03
1.563511139941497000e-02,3.354403116872277206e-03,1.375987267192524954e-01,3.094844422827659411e-03,1.814789554667401881e-03,7.754428547925769702e-03,2.093557894524693264e-01,1.707534769968963029e-02,5.806831418502386016e-02,1.192453195149922526e-02
1.698388297965516824e-02,1.136568909924784605e-02,1.669114362769210380e-01,2.366685043420677093e-02,1.979324030356877247e-04,9.160793216720249793e-03,1.326053195844848764e-01,1.445042521593323248e-02,1.036931090634726944e-02,8.755772320359357305e-03
2.590118268915068619e-02,1.836049988851361572e-02,1.679819341792962162e-01,3.216464357911499178e-02,4.556813065290435220e-03,1.449983388143226935e-02,1.115099149012438451e-01,2.099857680492703965e-02,2.795419062294196219e-02,4.202384624078497194e-03
3.136778874786157884e-02,1.708369271311980728e-02,1.380255735488624402e-01,2.687970120317983297e-02,8.126952330496399132e-03,1.946482571192323027e-02,1.366622672696485574e-01,1.661813720926989812e-02,1.249077117626487890e-02,3.960840731219389052e-03
2.533762307244465106e-02,7.596823589919829943e-03,8.639472215365012753e-02,1.225718764958980481e-02,7.764661440450361038e-03,1.851843579353203151e-02,1.219775246542746522e-01,7.898676358074974493e-03,4.299749185713457739e-02,8.675678594690365564e-03
1.084494586994570395e-02,3.685339474524347483e-03,2.805298438631701613e-02,6.319564063176596504e-03,3.649944431989396096e-03,1.181650054779218029e-02,2.405940376566278668e-02,3.824463209669987096e-02,1.030395594526916508e-01,1.495853228728763820e-02
3.230694227503917715e-03,1.353484598003433514e-02,3.223647210419998410e-02,2.471849746553071714e-02,5.391310203174048618e-04,4.549273568850196493e-03,9.558860663609471120e-02,5.116131166399300739e-02,1.558485313651241100e-01,1.887674882236633697e-02
1.084090199164074002e-02,2.272059095623564159e-02,9.124574585629630086e-02,4.039440356123500525e-02,1.938166414535396741e-03,6.908427028114968223e-04,1.453669158497566394e-01,3.835720092459589392e-02,1.991471641720549690e-01,1.871688034954960278e-02
1.159980601533725127e-02,2.734716493366827483e-02,1.239104972647700892e-01,4.995627726090126619e-02,1.338602718563290835e-03,4.887328063896664897e-04,1.076436462010594286e-01,1.515986324369835228e-02,2.149028110321238028e-01,1.661113497443855377e-02
8.697490348185090564e-03,1.967433782148599042e-02,9.820094764142110744e-02,4.793489133645138095e-02,8.770346572674744476e-04,2.531149745777354701e-03,4.784240659244578392e-02,3.992784534266959756e-03,1.882180248318550964e-01,1.650317988351993059e-02
5.466914709777355615e-03,6.630085942259146548e-04,2.252427530442224074e-02,3.230406957952443314e-02,1.056667452326014167e-03,4.996215870537318478e-03,2.283718784955173636e-02,1.096898311801123953e-02,1.338905549617470658e-01,1.937554991690335418e-02
3.597596901479346680e-03,1.711428459026727647e-02,4.873717597249242750e-02,1.043883808928110050e-02,1.173165237114008001e-03,5.720206244713995844e-03,6.103097873433816628e-03,2.403859685994153700e-02,8.477633733411182870e-02,2.262949356827704053e-02
4.293052893990160872e-03,2.287116609058569699e-02,6.955024078750106364e-02,4.913928459649803161e-03,9.829164458243849160e-04,3.719056162684919020e-03,5.893258468793859811e-02,3.150083631575546078e-02,6.466726422352025994e-02,2.429066642542923940e-02
8.235480300602338044e-03,1.739732241331027468e-02,4.282082981051269638e-02,6.320452853784306116e-03,8.097530194098660457e-04,5.900151286950932597e-04,1.506590295395352219e-01,3.192937897954666038e-02,7.697069092147169889e-02,2.433034021609379455e-02
1.260621063259573758e-02,7.566783284687059186e-03,8.966586469517229263e-04,2.948396799101500512e-03,8.123084448152509060e-04,1.214118428987596889e-03,1.831813489146498219e-01,2.637991974545709356e-02,1.038772861719228224e-01,2.239268307125697258e-02
1.228413609668559288e-02,2.114523575798132361e-03,3.251202732467001894e-02,1.299735800053621049e-02,8.270328208205806730e-04,1.195303518153639343e-03,1.335460158606404379e-01,1.388577656383974644e-02,1.176951687302074945e-01,1.852293510769438198e-02
6.532589486833710601e-03,9.727990799533230148e-03,5.012709692856383986e-02,1.593375680684510839e-02,6.918285364059639352e-04,4.331090640917753878e-04,8.502271756356669097e-02,1.708689107928173558e-03,1.090420374461242015e-01,1.519228325075679814e-02
4.532276170061062034e-04,1.330711745046435357e-02,4.901146156982720548e-02,1.153741698307518722e-02,5.139562104212943043e-04,6.546493451323743802e-04,1.124485783974125269e-01,1.041938129697887044e-02,9.624884829738625247e-02,1.467581182683090971e-02
1.578733448444182962e-03,1.228232350717857815e-02,2.959005116268611027e-02,4.258825613415939508e-03,5.618444111938299991e-04,2.206168467668775772e-03,1.788464924569017067e-01,7.115089229079203312e-03,9.280411099229622651e-02,1.611148707495759641e-02
2.880423683763063108e-04,9.102822565985182329e-03,1.800891497605499551e-03,4.726961537063442340e-03,7.369543763057042132e-04,3.616538047017127042e-03,1.959860463249797624e-01,6.054637003385095022e-04,8.212538390019409607e-02,1.811268807378763057e-02
4.152919861954171808e-03,6.193110702551717257e-03,2.107242549600028478e-02,1.784654147701595500e-02,4.648185972335330623e-04,4.062190629183732270e-03,1.455007990600376833e-01,9.448819889998354322e-04,4.408344418401265868e-02,2.120687529236223515e-02
7.951814959183553522e-03,2.998623336275288605e-03,3.241540141237687217e-02,3.227045684066044001e-02,3.626814782178440738e-04,3.571807884132595888e-03,8.041787187521071134e-02,6.448360419443788932e-03,8.970041919427299698e-03,2.463853929263074005e-02
8.340626476522059948e-03,1.538251733845782563e-03,3.017072140241235448e-02,3.810601154882371777e-02,8.695927356011231776e-04,3.090522092183735098e-03,4.505234028358941212e-02,9.464004436495457653e-03,4.661034657629654215e-02,2.470282193131032034e-02
3.295291463870132082e-03,5.789648476824722605e-03,1.293384771666904881e-02,3.024048387728673140e-02,4.240802990565852330e-04,3.888937517209507724e-03,4.780829283525404177e-02,4.053120134690306985e-04,6.237173866173602310e-02,2.012054242490795772e-02
3.620096464025977963e-03,7.076580614330930594e-03,1.562257295676776694e-02,1.611282673474132357e-02,3.328650868175443700e-04,6.193158741672785510e-03,7.559511647158077829e-02,1.717257010847957760e-02,7.554361819554046564e-02,1.500144268117698833e-02
6.195539709944901385e-03,4.269271796859426364e-03,4.633867412486115250e-02,6.292280631991479037e-03,5.344687690334512520e-04,8.448682696878312762e-03,1.004750051423664026e-01,2.812509842336827909e-02,9.228859202211561752e-02,1.234939311771602460e-02
3.015193575608089184e-03,2.534665226891376095e-03,7.230232792379696904e-02,1.969673668273403538e-03,3.049179899675304043e-04,9.078314112893117252e-03,1.025770895360245683e-01,2.810145006959735917e-02,9.238478793680866830e-02,9.447350379377467133e-03
2.273892962356976240e-03,1.184721710316089492e-02,8.997108008531033707e-02,1.820299544497866332e-03,2.055697869795893615e-04,8.153560655206419303e-03,8.720193234847943564e-02,2.365673798277805398e-02,6.276984199191429359e-02,4.318193076143816631e-03
7.196925022181058056e-03,1.932854451740742899e-02,9.240452023975230522e-02,3.840602076978209649e-03,3.034316792750423042e-04,6.243243823019424196e-03,5.529973207489868176e-02,2.489182101739776873e-02,2.367882750188358976e-02,1.454403395525218860e-03
1.139407748678212748e-02,2.005249121599261483e-02,7.134666193172070625e-02,3.325112804851541610e-03,3.556657900270935127e-04,3.279877337486211773e-03,7.491160986615372913e-03,3.405872352349628707e-02,8.687771692214203006e-03,5.527084714070077190e-03
1.238725487550835884e-02,1.407608142806271619e-02,3.010477965869650177e-02,2.019299062151645036e-02,3.226368617149155205e-04,2.927228814628418793e-04,8.512668198694853250e-02,4.280681087618782438e-02,2.632471856222306367e-02,1.330525107163418527e-02
7.965845445351704343e-03,7.604826151847622444e-03,1.206306526046034555e-02,3.607877955582506485e-02,3.152423949403381116e-04,3.357560980977413768e-03,1.303781867143729289e-01,4.278237083901566262e-02,4.938342768641078295e-02,1.730843926118732709e-02
2.928541662506170800e-03,6.778964169673853263e-03,3.404589661079570478e-02,4.081875235305210126e-02,3.522399693372657960e-04,6.165888278886895793e-03,1.390745493416525314e-01,3.624414770997902435e-02,4.267686441941830056e-02,1.552418805236747620e-02
4.729719455654745990e-03,1.128016513412054105e-02,3.149026460177452996e-02,3.490042324882825647e-02,3.806142888090106001e-04,9.898405887279859705e-03,1.579591250398280078e-01,2.949604467121409029e-02,7.418324651088518181e-04,1.243666369775291505e-02
1.130094453801707387e-02,1.576272978868097085e-02,2.036471203637566993e-02,2.622029545055315491e-02,3.894949500098923083e-04,1.309738592544647598e-02,1.913266229138557151e-01,1.969274277561179967e-02,4.353013504960412394e-02,1.029901346474664664e-02
1.246279888151696248e-02,1.669030477212841979e-02,2.013549755375881531e-02,2.061163172925528642e-02,4.021093039736714785e-04,1.204616334067618380e-02,1.826065528195517373e-01,2.983268018258732925e-04,5.187071754324103917e-02,4.445479576397895136e-03
4.997599173146161609e-03,1.527318572535110719e-02,3.162798784765410987e-02,1.653053426286807057e-02,4.223817284241058578e-04,6.442367262401739285e-03,1.216469995872287435e-01,2.212353317832466484e-02,2.088998435192123901e-02,9.405579559071836418e-03
2.980634210367429874e-03,1.418119143992982965e-02,3.533845457469367984e-02,9.150223121480170405e-03,4.380820764005351068e-04,1.056240071858806188e-03,7.809091236720301643e-02,3.106238592988909419e-02,1.834836230510552071e-02,2.662919564702986852e-02
4.329762464615707039e-03,1.420729308202983536e-02,1.652986508346792477e-02,2.072889476634250799e-04,4.459029750838598748e-04,1.038582727876398285e-04,8.976330085302287876e-02,2.181271355478121843e-02,3.748416472466317706e-02,3.771728659549916651e-02
9.166866674084265913e-04,1.430896881977062815e-02,1.252660204218726363e-02,1.650082027170466162e-03,4.503245712709474783e-04,2.125772056521705450e-03,1.111192852785030938e-01,7.217915090615873407e-03,3.406505174271653308e-02,3.944170797258272909e-02
2.102842424402063572e-03,1.322700929948648213e-02,2.457179475804952343e-02,5.442361664906808158e-03,4.518880802385776170e-04,5.009651766765945390e-03,1.111649875070332694e-01,1.339907722044841442e-03,2.148289887554912653e-02,3.694300582949532757e-02
2.638576663911200871e-03,1.114627784422288735e-02,1.040847344474074045e-02,1.104247944768915919e-02,4.476103882774725437e-04,7.310290926979027930e-03,1.318588229240651721e-01,6.263208413429560695e-03,1.189903614319805583e-02,3.554351349218017736e-02
1.111022521944732147e-03,9.864036886749841596e-03,1.182672746454283344e-02,7.609542095816297994e-03,4.365021930715733394e-04,8.556600234431124830e-03,2.025417620983075706e-01,1.273868865325379976e-02,7.402292779375768336e-03,3.522066050472324322e-02
5.831089173285203698e-04,1.039474290176434570e-02,2.224976611076691368e-02,1.332363638784033301e-03,4.194588493152566272e-04,8.204468198432587553e-03,2.687561066651053543e-01,1.871723091607521011e-02,1.880840084089446286e-03,3.297641970462599631e-02
1.202922145315434097e-03,1.140130980523392477e-02,1.922622754563958758e-02,1.100420075314631659e-04,3.966876649967835560e-04,6.963592570510343180e-03,2.653491613009298367e-01,2.359027025569001429e-02,2.579603517809284097e-02,2.729174737900780592e-02
8.132880888840112940e-03,1.136568434676999903e-02,9.647609461340012765e-03,5.995433076741063690e-04,3.677346683310015298e-04,6.786810490168800405e-03,2.183677663086062981e-01,3.481165396586763383e-02,5.622073303035043240e-02,1.993522849872514727e-02
1.514902959151329456e-02,1.065465001249374377e-02,3.369503123474648296e-03,6.475072901713319149e-04,3.326911117487932465e-04,8.312851413917349622e-03,2.012262945927186519e-01,5.467274600533521267e-02,7.208799658556631906e-02,1.417818052873621483e-02
1.456522336272073580e-02,1.011927121085855891e-02,1.682690009807131376e-02,3.154118666024081398e-04,2.921915764885264256e-04,9.566289526584982605e-03,2.035771276870971813e-01,6.879912900106661955e-02,6.509241491177772398e-02,1.099414253131149495e-02
6.045369809242612247e-03,9.644359462115038861e-03,2.672165100247472086e-02,7.726736286281579713e-03,2.468393732928783786e-04,8.253890350077980331e-03,1.367780155761266769e-01,6.087809559507134649e-02,4.679785404394611048e-02,8.512527503128440587e-03
2.910240651387847009e-03,9.221996941567054892e-03,3.412781857413959424e-02,1.651978642006801667e-02,1.971854678047424295e-04,4.632785944252417951e-03,1.642974210478966718e-02,3.511975995504226095e-02,2.965098260886990869e-02,6.363483853627290021e-03
7.155839824697841044e-03,9.338427474357532260e-03,4.123029813863329091e-02,1.879636144901798700e-02,1.439773820100411611e-04,1.051900427024003975e-03,1.548802407125276226e-01,1.241375896526895548e-02,1.686130618192058922e-02,7.411388183818440160e-03
7.892771292169607766e-03,9.187878238858752239e-03,4.290175024549275351e-02,1.473246587963978997e-02,8.814772587628549243e-05,5.960100136502957452e-04,1.868743275995244923e-01,6.451780269186156713e-03,7.594298086159980386e-03,1.255043356060976320e-02
5.963999013242269470e-03,6.690976623256027038e-03,3.183843559691277442e-02,1.231427345990780860e-02,3.066923320056011361e-05,1.651941170418460680e-04,1.278156298335978713e-01,1.314302571947981516e-02,7.514187685223249966e-03,1.672766590567210596e-02
9.098376973335699398e-04,1.460696825432916072e-03,8.448791211562896308e-03,1.825896467700739711e-02,2.747313015488493632e-05,2.721172556032251926e-03,6.038878897759948627e-02,1.997836267056042267e-02,4.877429528026962918e-02,1.419603439559905152e-02
1.225033084482888938e-02,4.271530653167341339e-03,2.005755517866541007e-02,3.109969978525385648e-02,8.524857122199526319e-05,5.345110434907538073e-03,5.176501300752935075e-02,1.701224894809299365e-02,1.208221235887856765e-01,7.166152825575153665e-03
2.270016749453222446e-02,8.118149696931824602e-03,4.386831926796001813e-02,4.324336048897495233e-02,1.416025850987015348e-04,6.209928988312773609e-03,1.037454755186616728e-01,2.571103228958127127e-03,1.894614526973766588e-01,4.808597084698065793e-03
2.838333636945682137e-02,8.641151991805220978e-03,5.205596108978461506e-02,4.909868240772805037e-02,1.955093247197527292e-04,5.226147790965703956e-03,1.579310652720251895e-01,1.465284708433617356e-02,2.102359562977575702e-01,1.121173894947084804e-02
3.073438016107105097e-02,5.164016535216160893e-03,4.206934180649913452e-02,4.874986856986678746e-02,2.459981282458489297e-04,3.481098557482980096e-03,1.633955976097756502e-01,2.299658466204828125e-02,1.800707816059204658e-01,1.843863746405090959e-02
3.107382767353260994e-02,3.095620879117273109e-04,3.045543338100698341e-02,4.391501537865633714e-02,2.921645461924836330e-04,1.043372556473877054e-03,1.334620792546651058e-01,2.158934651240276489e-02,1.424278450790637807e-01,1.649644856175899732e-02
2.537338354950992303e-02,7.850133679313036836e-04,3.868291614201451595e-02,3.494512570134956225e-02,3.331914519454810277e-04,2.796993669660330015e-03,1.163702050265173898e-01,2.209088153435860222e-02,1.383194656806233380e-01,6.878543591623180985e-03
9.515742374409512719e-03,1.016726180657832185e-02,6.349439083240103476e-02,2.251807923495018418e-02,3.683749047034015297e-04,7.555815667555597186e-03,1.347436002608775607e-01,3.388254265628984352e-02,1.640006245674937857e-01,3.293405930812265056e-04
1.162859527207602515e-02,2.214548672179829022e-02,7.723190542897913347e-02,8.165027324169101333e-03,3.971418526095733272e-04,1.154943273527330415e-02,1.712409681105635240e-01,5.077463985234410837e-02,1.822370741252318516e-01,6.564495754375807533e-04
2.558643616942260501e-02,2.611127319617061876e-02,6.274493430792012216e-02,6.854298672338312616e-03,4.190612968150647460e-04,1.324292726455635234e-02,1.856433028965429610e-01,5.442741058006223681e-02,1.657680171070086417e-01,7.213473937628038339e-04
2.405605080475390484e-02,1.874905314561205530e-02,3.274408693462559777e-02,2.042492310445055345e-02,4.338546410635550610e-04,1.158652444317436955e-02,1.409166100630817042e-01,3.284133566881555083e-02,1.190080126084075568e-01,1.849213768106380308e-03
1.171249744415418098e-02,6.627247144303828608e-03,9.364656046441155457e-03,2.925561509183381009e-02,4.414041694435200374e-04,6.562766398917261462e-03,4.186210635132829594e-02,2.005598837222239382e-03,6.311223529960960366e-02,8.702999044714615148e-03
2.894533534184247532e-03,1.581460578523834768e-03,1.989328993390536773e-03,3.230710585887459907e-02,4.417561160674853384e-04,7.071455736682930515e-04,5.194908592867777258e-02,1.941936895271424018e-02,1.528245746176064464e-02,1.753048481536824410e-02
7.992472002698054051e-03,2.713797706564539947e-03,1.062256852600645431e-02,3.257514916438494085e-02,4.351183501850723633e-04,1.951620210855304618e-03,7.988175737279255839e-02,1.086991231972352610e-03,1.629089540087859389e-02,2.450626074206135180e-02
2.186695263977662951e-02,9.054141271445316670e-04,2.044221154689652986e-02,3.395032898286536038e-02,4.218553274745173980e-04,3.305771202572096025e-04,4.772293993886105035e-02,3.626320130222109722e-02,3.163934686116282036e-02,2.415293322805181497e-02
2.970563702920864246e-02,6.651093883315764566e-03,2.354098775959827250e-02,3.789401849540699474e-02,4.024808951428269230e-04,2.541091858324505751e-03,8.589608425783825177e-03,6.148042623169572285e-02,4.031641036245590948e-02,1.523662958861453191e-02
2.579925878249556687e-02,1.396096920652518773e-02,1.529577890326504035e-02,4.301123681799768478e-02,3.776456627517703140e-04,4.580242015862975857e-03,2.470858865322448847e-02,6.944840325966336603e-02,5.386840902857978342e-02,4.636437902477522598e-03
1.928810375864174406e-02,2.183606049558155932e-02,4.592627980086421910e-03,4.600192235459490270e-02,3.481178457355117890e-04,7.521583810647172741e-03,9.190313174831897525e-02,8.234437996281636363e-02,6.925511832602221363e-02,5.183076675492533656e-04
1.926910228810046685e-02,2.753097021752244980e-02,1.933682063508820100e-03,4.434332212056898287e-02,3.147643789402933528e-04,1.233506822029835359e-02,1.939038725126440987e-01,1.111822440190840672e-01,6.961949900825259441e-02,1.250753483249757332e-03
2.359287074392779626e-02,2.877662763507833621e-02,7.605235092015432720e-03,4.030451420348141883e-02,2.785359969262149763e-04,1.560808559429215266e-02,2.597258178160006814e-01,1.398912608189423201e-01,5.074077199788612491e-02,2.751677860461013321e-03
2.558608130279542772e-02,2.527004927231633891e-02,1.945280080479749873e-02,3.968107551221427415e-02,2.404436392175011300e-04,1.361523243059212067e-02,2.374064086119502814e-01,1.504011618328225108e-01,3.355338499771820526e-02,6.126600241540691369e-03
2.305690845882291118e-02,1.817102104407791741e-02,3.917609093431764083e-02,4.323482193179489091e-02,2.015194235706421766e-04,7.317661789031466510e-03,1.558958432499598645e-01,1.403704910649374027e-01,3.772248595725022358e-02,8.451915681378293146e-03
1.706788828246605383e-02,9.957034633972523807e-03,5.960561197764371877e-02,4.347957736501371906e-02,1.627904769495048252e-04,8.872502314346862118e-04,6.316869181310687253e-02,1.133371033327384564e-01,5.702800649972454561e-02,7.858361299279746290e-03
8.339933053056386436e-03,3.850354037617555181e-03,5.948816708472452752e-02,3.485717201327120929e-02,1.252826329836965698e-04,3.009747794977776867e-03,4.185860406334442063e-02,7.231680140895475895e-02,7.359283536427534134e-02,4.645268884517847127e-03
1.497274989597605294e-03,1.535746100266877426e-03,2.692770707150850262e-02,2.209660479160271626e-02,8.999603536177428311e-05,4.742946496213497863e-03,1.698499782459156338e-01,2.681969789545548058e-02,7.960053333013362986e-02,5.213239889659284330e-04
8.320923843569458245e-03,2.193174207605206455e-03,2.029809907363448740e-02,1.301024653127354561e-02,5.781675249059676727e-05,5.612612823083375224e-03,2.681773358380755146e-01,8.874988206100321159e-03,7.198829362799000209e-02,6.102043962899404012e-03
8.372384752499789987e-03,4.326206071670951267e-03,5.161258245655845484e-02,9.012330353290274459e-03,2.948914540457375918e-05,5.919979570074883693e-03,2.508713664648504205e-01,2.819779134741506182e-02,4.497091685315294379e-02,9.419719623933186375e-03
2.618944856130933727e-03,6.771488401178240787e-03,5.467964367539500381e-02,8.358022983867773384e-03,5.730797528434387054e-06,5.370981047524292160e-03,1.085615172828115482e-01,3.636948367347969668e-02,3.954804220941628840e-03,1.027269400447476666e-02
3.041279352416484481e-03,8.088582999648923078e-03,3.917643124010000005e-02,1.238585204646888011e-02,1.277244410808051663e-05,4.348827436462425651e-03,5.932333588792595980e-02,4.348643727365950062e-02,2.775385438658634768e-02,1.214162000445240426e-02
1.602133143650546912e-03,7.488842788412086379e-03,1.721300585023884111e-02,2.238618572255233335e-02,2.567122613850546914e-05,3.808344319277940856e-03,1.393477481763027159e-01,5.823247227250550467e-02,2.994210537613300332e-02,1.634424994794514419e-02
1.057681828157055852e-02,6.030590270229978754e-03,7.281043195927377684e-03,3.471640800119270981e-02,3.299998421900481922e-05,4.061687882926302839e-03,1.015661766998057214e-01,8.305322877541465587e-02,5.423367680466233826e-03,1.869159953353673881e-02
2.816986861953358831e-02,5.133052703428554048e-03,3.270220881401306179e-02,4.456878574557727318e-02,3.456676403083859664e-05,4.244525535693968211e-03,7.809726690794339607e-03,1.077005934609562704e-01,2.590053836456886541e-02,1.541551814024141355e-02
3.497762907217592115e-02,5.206539481886963971e-03,5.532331589863394988e-02,5.200895592089642416e-02,2.986422467599003934e-05,2.894744508769302605e-03,4.323559279756748752e-02,1.120532331124816788e-01,4.595143936001476470e-02,8.578189180322198099e-03
1.745372952759494459e-02,6.327999064360186401e-03,7.300427006180557066e-02,5.873008904934089863e-02,1.938613175959088541e-05,7.225268810627397207e-04,1.322266052255459835e-03,8.652136749166260132e-02,5.102964106208873751e-02,3.625999732726997108e-03
1.583397954418157977e-02,7.553643524979636661e-03,8.560174893246766392e-02,5.949722064601554311e-02,4.854814389611385926e-06,5.026539245079787201e-03,8.665636173049259816e-02,4.973497115938588231e-02,5.125786026098360509e-02,5.007229676830282986e-03
3.917045108079735688e-02,6.433364247876981537e-03,8.811380466249030263e-02,4.378835437804057262e-02,1.359418284187775919e-05,6.651736492472933200e-03,9.955014768152875559e-02,3.391652967921334610e-02,5.756829885429979449e-02,1.282445549573426810e-02
3.894136491226618535e-02,4.063384707183728857e-03,6.984497118079191491e-02,9.621207852576666927e-03,3.799367731872112258e-05,4.435393003451878688e-03,8.646924666228839734e-03,4.618763734976295138e-02,6.864510074641412551e-02,1.984914396703187783e-02
2.724393635960976542e-02,8.392279633748656736e-03,2.747000254386081086e-02,2.940760716951290946e-02,6.658195900210828026e-05,1.919749958852614170e-03,8.594231363540762170e-02,5.441219103790938261e-02,7.380387152183187638e-02,1.644718198169678111e-02
2.224073469647512569e-02,2.467275357830076010e-02,2.360857361804686097e-02,5.580193112749134987e-02,9.245096273601846701e-05,3.236137029998916587e-03,8.116179936234675651e-02,2.449799984478400611e-02,6.691441564168430778e-02,3.257535402859678547e-03
2.625532738783480091e-02,4.479424342108922347e-02,5.830717149353995682e-02,6.253820220170572264e-02,1.163016237441948135e-04,7.381103294309160345e-03,3.383805009474671194e-03,3.434615694104481420e-02,5.155021839555136431e-02,7.600270637676532354e-03
2.887072770152094778e-02,5.492004877437896282e-02,6.240942936203765223e-02,5.246133409285151650e-02,1.497289751594208646e-04,9.490262581511787685e-03,4.124912007012901394e-02,7.846615566544024034e-02,3.421574764073416486e-02,8.022660095160533134e-03
2.205698013340229302e-02,5.103593813312144734e-02,4.173900903995917538e-02,3.254846252527104217e-02,1.881390528994290954e-04,6.910238655755390064e-03,4.671882436091619878e-03,7.995504594950053612e-02,2.052922724573598770e-02,1.626836507390670272e-03
6.362903164536279181e-03,3.917677277849610645e-02,1.619918497005323754e-02,1.548800519620682076e-02,2.030991822692860508e-04,1.291619645645542599e-03,7.949018180225758679e-02,4.986051796551033144e-02,1.773378906954526518e-02,7.230122841420771884e-03
1.047193972519006901e-02,2.523546509828833440e-02,6.374839777604354371e-03,1.561442852893710556e-02,2.000664573740003999e-04,4.292679023955015688e-03,1.668094862080811980e-01,1.548894552979040128e-02,3.020414629390951594e-02,1.958993129024583224e-02
1.746527565551954375e-02,1.242397380272036028e-02,1.726502750407946443e-02,3.301312308832673320e-02,2.364430174549075545e-04,7.903603739506145920e-03,2.256649162647127449e-01,6.160312831751208092e-03,4.779959965443566355e-02,3.131177222411069688e-02
1.010403547501446085e-02,3.947340586753233377e-03,3.355580685472998870e-02,5.024490138550086887e-02,2.988615899363671015e-04,9.234081109049548791e-03,2.265186382360293849e-01,1.407661199840108332e-02,4.902329377374353009e-02,3.011384717209158665e-02
2.564965865965193430e-03,1.070759936466094894e-03,3.652199783798443927e-02,5.181242196823614837e-02,2.587312108473080918e-04,9.270878793772809393e-03,1.738814383448920586e-01,1.800315632260942114e-02,2.535236251642823332e-02,1.313597396094351791e-02
7.502271219041763486e-03,9.483602800964712788e-04,2.125146587817009977e-02,3.848657412480827045e-02,1.293403594399819068e-04,9.278256931000740393e-03,1.229650684948509765e-01,2.707638556271172586e-02,4.056065555590923286e-03,4.266401808070077392e-03
2.864211245945257837e-03,3.926590115077609536e-05,5.609962828959632296e-03,1.998713802829907293e-02,2.232477783545213105e-04,9.686325611475041578e-03,1.166060634494053699e-01,3.599223145424654963e-02,1.250613614368975904e-02,8.309171191628982392e-03
3.818136762245384619e-03,2.118097134955219084e-03,3.339768469156752240e-02,4.121604151440334297e-03,7.627825719088172224e-04,1.015246318777891094e-02,1.330371841264752775e-01,3.004089854192129941e-02,1.655927456086432256e-03,3.849075579170329730e-03
8.545089804514533621e-03,4.007325111239231318e-03,5.057656257384550436e-02,5.298241286094592870e-03,1.456901153518037504e-03,1.044111005152557892e-02,1.288241675753853122e-01,1.006461578924745456e-02,1.178691892390929495e-02,6.794180076776690398e-04
1.249931050356866552e-02,5.277410932597021917e-03,5.595747649489369452e-02,9.401283803971430958e-03,1.723108252413711348e-03,1.078187899583539326e-02,9.693494603683296129e-02,3.250792775816505401e-03,4.848485162700451670e-03,3.529410948745438301e-03
1.512700638381176375e-02,7.322887042963456723e-03,6.501674373591205536e-02,1.317312404230807851e-02,1.294058885290725333e-03,1.140723324345596472e-02,5.395631616422985610e-02,5.053565261732336639e-04,3.772742930002662837e-02,1.380825141671451935e-02
1.579940071771624571e-02,1.068762495873621168e-02,8.381577281357523168e-02,1.662861490446967266e-02,5.438910294176806538e-04,1.203096724163190377e-02,1.062707460074964125e-02,7.126385383323276604e-03,5.436680468970072483e-02,2.585907092145183980e-02
1.834117013071100838e-02,1.311452928561340076e-02,8.421665290305972718e-02,1.203297094650475525e-02,6.875994779898492268e-05,1.196341999675379353e-02,1.639062170903467577e-02,5.664431692882948219e-03,3.990735023701676154e-02,3.623983649836020476e-02
2.406096571639256693e-02,1.218889831689580483e-02,3.709746437952432530e-02,3.151206488661033225e-03,1.285898345498251048e-04,1.051012836147373515e-02,4.256745071540630337e-03,6.024791858158979468e-03,1.463481078397569669e-02,4.755997354959203699e-02
2.503541206568845462e-02,8.865153266241990876e-03,3.858018076527915119e-02,1.917439621949816597e-02,4.305002825782957253e-04,6.934453937480005228e-03,3.097787076804086118e-02,1.162886527947096064e-02,8.977181783386890823e-03,5.131005524780130750e-02
1.441851312728303219e-02,4.743245119688048635e-03,9.724082931736539870e-02,2.683187935834189727e-02,4.778435381409448768e-04,7.944578259992817089e-04,2.758218584029176190e-02,1.316632908634914577e-03,3.126132907087751656e-02,2.851299338758907231e-02
1.803293023097788089e-03,2.119367593240000132e-03,1.238537989693074687e-01,2.746444348409516484e-02,4.252725718433280917e-04,6.530422166365425045e-03,3.868926195198353624e-02,3.778631822535582357e-02,6.536635421803285717e-02,1.746570733682263621e-02
1.322463483193168921e-02,1.270065222576605667e-02,1.314620698684747513e-01,2.563526378357841237e-02,1.563910125617294948e-03,1.145583936764139540e-02,9.571086757527309807e-02,8.038890955772622082e-02,9.097256975536409385e-02,5.352449336292697951e-02
1.863119139316695566e-02,2.156602096826144149e-02,1.233332973141030436e-01,2.318099541894655044e-02,1.367269484786368334e-03,1.116383090717871715e-02,5.489411800992660684e-02,8.796681599128000628e-02,9.810221498831044051e-02,5.675824683026154532e-02
2.117496384549463415e-02,2.392502211892695574e-02,9.756775243332693748e-02,2.325121452681609691e-02,1.167805052161940515e-05,6.643381861341244275e-03,6.776514354876658763e-02,5.148103730227760605e-02,8.685889509156029253e-02,3.887707908686198477e-02
1.787325608740635008e-02,2.310471899289419026e-02,6.724118652865122836e-02,2.835773882410904181e-02,8.896597990749276468e-04,1.143338170764036845e-03,1.685705827778458399e-01,1.308269081931980223e-03,6.182980445235672362e-02,2.226833882311380491e-02
5.346895278484781189e-03,2.246123312891421323e-02,4.235093855296990367e-02,3.223826850866638727e-02,9.424517133899340060e-04,3.452105304225537141e-03,1.850948711615774678e-01,3.317532081036436709e-02,2.844932232036892841e-02,1.471251489788624571e-02
9.668409887229036104e-03,1.815083590043873804e-02,1.398316614168562851e-02,2.586735270433060049e-02,1.277286032731421396e-03,5.942445191136643164e-03,1.415085263739367105e-01,2.918907153824935874e-02,8.774511945981005798e-03,1.422013470107202394e-02
1.596409340659454834e-02,7.811462830274246844e-03,1.895376965384442877e-02,1.418375629469509000e-02,1.520834585836818714e-03,2.947498090757837228e-03,6.417075374375766361e-02,4.268319160713272137e-03,4.642555375143704588e-02,1.935928872463806363e-02
1.188036382942050939e-02,4.711663691009917304e-03,3.356266071937057116e-02,1.301411932907033456e-02,1.140534297747242186e-05,7.878309360639367334e-03,5.796956037503792070e-02,1.810056263759104653e-02,7.944960004856782554e-02,2.685278130670005689e-02
6.123515319717972964e-03,1.710693435923497235e-02,1.626342864438631505e-02,2.462890914720850671e-02,2.663973373394613008e-03,2.137183812085738030e-02,1.946424432628990064e-01,2.590904471751463364e-02,9.899464823413511860e-02,2.893524872522417260e-02
4.930484726010195273e-03,2.642368983877291938e-02,1.359965682206370347e-02,3.190874123184368749e-02,3.320168046459102268e-03,2.735378632966149748e-02,2.461970859493554931e-01,1.653666441880562166e-02,9.688690599104110568e-02,1.938727403036489758e-02
5.429091413195892037e-03,2.150249987825509843e-02,3.377554573615038774e-02,2.423734451557838301e-02,1.055495701343361469e-03,2.179796068792965238e-02,1.647486582654772991e-01,7.847159194413403163e-03,7.251850203345287793e-02,1.402042743999764619e-03
2.994485279424590959e-03,2.703639337529094386e-03,4.762667182994441417e-02,1.317480728990679667e-02,1.280407037213004279e-03,1.180526664542582566e-02,5.034352031862916743e-02,3.296214115954598095e-02,3.103793981301732063e-02,1.267759800661998927e-02
2.390619953584523488e-03,2.824461493443432281e-02,6.442759308237519522e-02,1.273539158281539879e-02,1.424493371425602280e-03,7.196545909716948845e-03,4.668480152028120500e-02,3.620696390934088210e-02,2.318328057497781244e-02,1.404438992981777573e-02
9.288951487813003685e-03,3.248291368866301071e-02,7.396221969106286931e-02,1.824934460996996063e-02,6.011595147821913567e-04,9.498208093689416640e-03,1.585638883384355713e-01,1.264689222861505036e-02,8.228398954409928134e-02,9.630194094023594373e-03
1.627715162168614019e-02,1.724592977125926491e-02,5.900826518925889747e-02,1.527526473039971487e-02,7.805428642671309071e-04,1.175747916799498027e-02,2.473972851276216578e-01,1.214501255116738447e-02,1.258712571157958038e-01,1.226366072256534698e-02
1.838183185580278753e-02,1.742606595345575632e-03,2.081770794712636818e-02,4.608428310792975473e-04,1.827319238328342730e-03,7.678798698230562478e-03,2.040519814514504537e-01,8.039373371825583175e-03,1.311332064551047061e-01,1.871057834118285135e-02
1.104024490648568453e-02,5.602701916692612305e-03,1.954063546798103651e-02,2.047324650706553936e-02,2.517700002926366067e-03,1.781871320693453973e-03,6.135879666517517900e-02,2.512924986007882694e-02,9.727351673899632678e-02,1.201997141871196696e-02
5.251932805888973564e-04,1.240356256006646188e-02,4.282060014625763827e-02,3.456569865259125768e-02,2.232811772227311954e-03,9.950957204290688390e-03,5.827711312113371955e-02,5.639577279134577736e-02,4.874172710845429968e-02,1.258504713037045773e-02
5.532712262493087556e-03,2.701732810822004074e-02,5.227063542032570065e-02,3.897715399239008727e-02,1.140731985311089526e-03,1.091629471809471910e-02,6.475749639972654126e-02,5.758213007050132226e-02,6.780467870670207030e-03,3.920970508673295857e-02
3.121672894625543600e-03,4.967316723442190968e-02,6.827269720588824420e-02,3.649017390180419457e-02,1.359289563859737834e-04,5.311162307016881017e-03,1.806074321759388798e-02,3.523791395480087990e-02,3.315320122052934498e-02,5.103774583537752652e-02
3.802041446980034076e-03,7.129878241727316546e-02,9.514419067932086693e-02,3.032132544445448677e-02,2.423741418489984293e-04,5.251757389119430380e-04,8.917504917649586582e-02,2.056623571491439720e-02,8.067476936292655720e-02,4.661570838591523602e-02
1.377661599528119500e-02,7.644068821114138879e-02,1.032516000770973968e-01,1.853151282953688014e-02,1.327471235546526717e-03,1.671451584203530617e-03,9.642990444661739269e-02,2.893686150560977055e-02,1.125149707743837157e-01,3.453856365951970403e-02
2.761146550438091721e-02,5.898160749140116815e-02,6.484171498519077093e-02,8.543102228701607466e-04,2.338244310117728979e-03,1.417611907413257859e-03,7.447245032507021634e-02,4.826346810385943875e-02,8.675918501581991737e-02,2.092807289056455161e-02
3.816626062821187187e-02,3.564823366658290138e-02,4.862997450609356231e-04,1.972472087522293346e-02,2.731018379966128860e-03,6.381436154045061308e-03,4.970342381533880693e-02,6.806554804581652074e-02,5.495502225425462350e-03,6.071088229521258428e-03
4.416305648731116279e-02,3.038236329634706745e-02,3.834058599567469194e-02,2.430077253373845100e-02,2.462752000934141129e-03,1.199437497521087768e-02,2.131832587558635597e-03,9.141912890781063450e-02,7.249553176153090972e-02,1.039865306203193764e-02
4.589704905886395764e-02,4.787424175953394062e-02,3.011618067701454099e-02,1.161270972892908607e-02,1.471815778913332937e-03,1.639187390657770999e-02,5.713796176660379533e-02,1.125922044491415169e-01,9.877025081635652792e-02,2.430765042322750175e-02
4.272684294461454035e-02,7.410074988280275499e-02,1.905445261124230280e-03,7.570838677193016814e-03,4.174466784461002716e-04,1.679735789586333725e-02,6.929025347405354252e-02,1.140366520248148746e-01,8.082309217247810040e-02,2.666278217256461830e-02
3.682823549086507164e-02,9.577405672879091281e-02,3.316582221922267232e-02,2.416549717782186246e-02,5.185066719834538658e-04,1.312787533483998625e-02,1.961301006722224530e-02,9.536193611975235518e-02,4.856697034858742379e-02,1.056712632336360112e-02
3.095815494486936492e-02,1.106520299007564684e-01,6.514986882101467258e-02,3.973361186496300601e-02,1.721866042755244722e-03,8.628757853909017200e-03,2.817304977863870075e-02,7.786763968591015050e-02,1.107615023796849722e-02,1.801506922261993798e-02
2.269593910779545837e-02,1.282450712610555821e-01,1.029768498279573785e-01,5.631375560333490293e-02,2.678410293369795463e-03,5.795260993898741948e-03,1.454918334505125345e-02,7.197415278671553951e-02,3.854851754438507611e-02,4.081454550665402498e-02
9.996564586905055255e-03,1.589341424835283567e-01,1.298372504368483227e-01,6.608429314546553079e-02,2.856111307702055395e-03,4.431687757041660389e-03,5.017305166865850680e-02,6.565650181408112795e-02,9.732392862151750812e-02,4.568315704614300810e-02
2.765197657227545444e-04,1.849134420538735835e-01,1.208438624864138083e-01,5.918941692543686767e-02,2.831709708682209666e-03,3.665605798287269353e-03,1.146556886911851703e-01,5.010961132259456746e-02,1.427910351123123367e-01,4.020805886210825769e-02
1.115282198149913570e-04,1.568218056572121821e-01,7.596422191579615957e-02,3.825227056232892442e-02,2.692723858146534033e-03,2.830708594195215522e-03,1.358612737428760153e-01,3.114844916594270915e-02,1.467886722905322738e-01,3.936518242445511545e-02
7.622028084827540267e-03,5.531635296374989852e-02,2.416781994864399333e-02,1.814698495628208619e-02,2.129841235042802001e-03,7.345463683961436525e-04,9.579896912644697560e-02,1.269947612991501398e-02,1.022162580385391623e-01,4.478356769151574379e-02
1.106328059750504890e-02,6.071812800274977578e-02,6.553449530452921425e-03,1.251753268287024261e-02,1.706602580745764618e-03,3.073533759910316351e-03,1.457260067363929171e-02,8.191734685887540335e-03,3.650273030390508572e-02,4.571204137155913949e-02
6.786179046970549668e-03,1.151670023162859602e-01,1.073909380866102173e-02,2.333101324457131226e-02,2.204660627733780968e-03,6.774715783182064070e-03,5.379025551568016733e-02,3.143163560478417357e-02,7.771119900131700890e-03,3.698816850937301087e-02
2.020015162149156954e-03,1.096547154953179670e-01,2.263340403927211961e-04,3.932395543423647388e-02,3.161948927339768272e-03,8.250057064609192872e-03,7.655957973872686007e-02,5.496852613424763750e-02,1.029380608262519745e-02,2.531563650530590723e-02
3.800152220354704319e-03,1.071475488349833138e-01,3.065538227939501072e-03,4.303409107353094176e-02,3.502129278168804923e-03,7.489363229378783078e-03,7.318431546927076092e-02,7.660377240481167083e-02,7.747834043263773091e-03,1.738922760736268808e-02
1.161048966513862461e-02,1.335764873629849414e-01,2.364991463761861173e-02,2.675635072510191767e-02,3.188917573693295874e-03,5.029290784058903369e-03,5.337546488445579773e-02,8.236753855787713741e-02,8.129478117896608153e-03,1.006848763892674060e-02
2.328794566889988080e-02,1.486605867532397873e-01,7.639572193076121787e-02,2.852864814999924413e-03,3.191451109336890767e-03,8.495259021786829515e-05,2.425929492093535644e-02,4.988414763744574570e-02,1.638382234233446907e-02,4.602314913930892482e-03
4.007433082434775501e-02,1.125477473864061051e-01,1.150385421298893984e-01,9.376181242507121080e-03,3.814928135237042033e-03,7.687584150961329285e-03,1.625058105073917958e-01,1.617671082346403694e-02,3.192661732167553779e-02,2.666577540936468371e-02
5.739184029786682101e-02,3.872424199641291698e-02,1.037925178123958736e-01,4.440176922897222725e-03,3.645292543137538047e-03,1.315753424907060987e-02,2.470252623118050495e-01,6.456034495882802260e-02,1.132163681700659209e-02,4.280155611101987140e-02
5.856621610087043434e-02,2.543571866689648894e-02,4.915497831359490200e-02,1.003140765693321876e-02,9.148376794353769341e-04,1.087588756539403963e-02,1.604832630621399470e-01,4.396699356104079304e-02,2.523628806962955815e-02,3.849532996778942673e-02
3.260790247066643749e-02,4.695515879217686261e-02,1.415412265730120467e-02,2.607104678692297520e-02,3.847492490212522150e-03,1.638455283564052697e-03,4.829184045875915821e-02,3.193225110990649540e-02,3.389363659101227860e-02,1.693624196007064570e-02
6.564297618676776663e-03,3.142492274845692934e-02,5.664573945490884027e-02,3.582671631109803773e-02,7.674430908851846526e-03,7.008906180498946162e-03,2.079170655545107826e-01,9.760800776487182917e-02,3.819695571829562555e-05,2.488200727594680126e-03
3.400289216276889542e-02,1.012090847640254726e-02,6.849702433191441620e-02,3.073456441119246096e-02,8.380118681148233939e-03,9.060470475685197117e-03,2.194813320968508341e-01,1.129503001426995362e-01,4.940904528013524005e-02,6.874640008558601315e-03
4.209371360137353218e-02,1.054374274473236089e-02,6.241719873959140907e-02,1.338924920627153348e-02,6.702462291235509843e-03,5.585560856510969618e-03,1.239973029298701013e-01,9.318371363241374772e-02,7.780701010868321110e-02,8.374452264737965602e-04
4.236720197440618785e-02,4.041949092981904357e-02,6.698429075237256891e-02,1.251106883837671113e-03,4.721016883664350648e-03,1.349436909928957134e-03,1.067820155588408010e-02,6.650808450266045002e-02,6.794498016883279701e-02,6.659486999081373239e-03
4.615833308681317748e-02,8.928166665558151527e-02,9.888702299636722981e-02,5.875630044052016117e-03,3.653212107886537677e-03,4.624643834773541420e-04,5.492939417785360628e-02,4.219803350613002269e-02,2.257899674967101672e-02,1.449851215466834049e-02
5.384009068660885328e-02,1.362739985320775560e-01,1.386774857245894887e-01,8.372144716206928600e-03,3.475895657828236007e-03,6.449604605510575548e-04,4.337883865647260140e-02,2.353856366439318476e-02,4.198124304823423747e-02,2.492823020413465970e-02
5.751929708907690258e-02,1.676915725530035983e-01,1.519569209831434786e-01,1.382653816180502704e-02,3.105248082524264021e-03,3.118396846418080431e-03,1.843334609138622474e-02,1.931457775404191168e-02,9.985436615310427921e-02,3.625564461365767682e-02
4.987186658997935090e-02,1.902885388133480626e-01,1.366708723080007903e-01,1.474995419657280579e-02,1.062988063153292011e-03,4.112540509655622858e-03,5.308044163464050585e-02,3.174683138674695704e-02,1.292875034572228965e-01,4.479537486608449470e-02
3.413221759318752629e-02,2.079073546904718905e-01,1.253697783790872766e-01,4.599099694467033081e-03,2.323649185461065889e-03,2.237142057104436754e-03,1.088366868926382569e-02,5.098530142368859486e-02,1.301612760171795835e-01,4.958887969131336310e-02
2.353853629399589240e-02,1.943666038895126569e-01,1.337247852524048874e-01,1.116098993919615798e-02,3.844957141868587166e-03,1.683274465892504329e-04,6.409839441034630159e-02,7.168080083476421893e-02,1.221011819401783965e-01,5.133533882818724220e-02
2.695959567736863627e-02,1.291289816631397691e-01,1.375182338780693569e-01,2.123836069337589616e-02,5.196417676585241441e-04,2.419421033730692443e-03,7.754518174280558562e-02,1.019209126891631179e-01,1.220215639099449523e-01,4.870528881217878192e-02
3.818086716508865136e-02,5.076143781733592764e-02,1.168101983276273181e-01,1.882763475525433411e-02,6.616450429052418009e-03,9.923298915836244183e-03,1.117668503798869423e-02,1.416371312161482932e-01,1.269783710816436983e-01,4.035662165877623025e-02
4.214137899104603013e-02,2.265361405086326052e-02,8.567326636377327331e-02,5.342553232148163425e-03,1.347360807440231220e-02,1.852567058579039638e-02,1.519940096617274639e-01,1.645954137395329031e-01,1.238123046220683532e-01,3.075683768734461046e-02
3.059381281851869527e-02,4.255503568432763423e-02,4.705443241542466709e-02,1.109828996055840442e-02,1.667407158366470549e-02,2.347414527699582740e-02,2.636806812362476604e-01,1.446566979958965327e-01,1.097114930979023462e-01,2.822512465320474451e-02
1.178447999157431966e-02,3.321904712377456159e-02,3.763140482358969668e-02,2.094191484858426433e-02,1.512670978979649937e-02,2.369945771102469761e-02,2.999143204360407711e-01,9.440680419496033648e-02,8.473963229193015589e-02,3.479467061668384958e-02
3.089747303201099537e-03,6.199872530668344706e-02,1.803627042676518855e-01,2.168065749923975272e-02,9.844677182941108037e-03,2.103650875007131993e-02,2.581077426405943287e-01,5.446600758361664490e-02,2.922941528692684157e-02,4.287529893533992970e-02
1.051252962699762532e-02,2.053994178875640231e-01,3.095843322043698720e-01,2.266244550415512718e-02,3.622901355947446850e-03,1.733360110427764958e-02,1.601511863101863220e-01,4.353636333979565148e-02,7.368185856476375251e-02,4.422258537022549091e-02
2.030512670783478704e-02,3.063384047202501459e-01,3.467355269187880062e-01,3.659407096682723570e-02,7.272950369088110583e-04,1.335418239313096792e-02,3.794132692555098746e-02,3.841952774617395094e-02,1.911143512530309452e-01,3.834109167534673762e-02
1.854169175567644753e-02,3.190318120150307801e-01,3.052083597872449761e-01,6.352145571918106637e-02,2.586632495373411729e-03,8.780000014354482490e-03,8.239902340433405414e-02,1.064093998564162938e-02,2.629997885201881824e-01,3.078847376320706722e-02
1.185454676972843603e-02,2.767201577274429058e-01,2.541060951246649213e-01,8.865220218985099543e-02,3.202072855196634246e-03,2.586090435732458018e-03,1.915403039978881283e-01,3.202187564625723348e-02,2.750329678266959510e-01,2.669587131492626511e-02
1.731909599318692122e-02,2.352272845214084807e-01,2.196999304944102782e-01,9.785888565222827795e-02,3.553306834070608586e-03,5.035797871395465176e-03,2.846528270676865202e-01,5.515293560159979097e-02,2.619111574619916172e-01,2.696236097762681749e-02
3.775668994453405120e-02,2.113302519066268537e-01,1.798698904540125265e-01,8.854261517140399329e-02,3.363071655163133410e-03,1.105405772790567925e-02,3.405282953284572978e-01,4.299411535298367643e-02,2.432991861125394784e-01,2.790862472322912236e-02
5.796984389561689321e-02,1.865011179711658640e-01,1.257463532395119710e-01,6.605981531172055998e-02,2.185425440236348632e-03,1.221084743604719351e-02,3.297136552839171064e-01,1.840950169080435989e-02,2.063904520740371396e-01,2.403940975183794723e-02
6.161843186617393248e-02,1.448424007358824483e-01,7.248732343595380712e-02,3.998572663549426753e-02,8.459096162545140475e-04,9.648466110835536569e-03,2.546896163559341231e-01,1.407029689710375363e-02,1.443226214086240911e-01,1.402773261323075546e-02
4.534141157292917446e-02,8.664247766703243869e-02,2.630402443066857943e-02,2.335053709178677023e-02,7.700351215359452304e-04,8.122853941054197432e-03,1.674128281795439765e-01,3.397026279732417997e-02,7.061382636317144190e-02,3.488084352871414617e-03
2.000816438735632599e-02,2.156867717512370858e-02,1.387110680313251299e-02,2.344216589078195953e-02,1.910871199829011812e-03,9.907524652165383347e-03,1.195263820497121099e-01,5.246487281709973083e-02,4.017502220705510343e-03,3.429047863494778890e-03
1.383224312553519263e-03,3.245408370744840010e-02,3.815383900431981723e-02,3.248040083896559793e-02,2.793831510128582697e-03,1.254662276140546852e-02,1.024318178572121013e-01,4.762122869627432448e-02,3.995559240341777646e-02,1.417977214545919178e-02
3.693961513191762469e-03,5.411535118484291085e-02,4.407307177984046143e-02,3.685021128468857210e-02,2.697865083760245513e-03,1.323970004004536294e-02,7.252504007387834684e-02,2.482530064500811096e-02,5.878822146043242991e-02,3.897621344677741628e-02
2.653392651500719769e-03,3.666408860810331516e-02,4.923749665714392820e-02,3.340372689984200116e-02,2.303520044120858749e-03,1.212092293401320631e-02,2.337094054716564590e-02,6.829927046907938865e-03,6.925533724139820713e-02,7.006003705947537463e-02
6.525683601299944736e-03,2.677045715595755687e-03,5.667903739148742737e-02,2.743651895872099844e-02,2.226600332429213517e-03,1.055578615168524872e-02,1.796285825739170339e-02,9.950019902312408002e-03,8.294336192286953791e-02,8.415937193229579283e-02
1.679189278468251958e-02,3.571795833676050247e-02,3.974282468504982541e-02,1.944733062918433536e-02,2.276187726502546752e-03,8.929955592688573404e-03,5.156406086032080949e-02,3.216436525839856675e-02,8.396130373472995845e-02,7.108659224548552480e-02
2.663173864967984666e-02,4.147832362540145035e-02,1.020865374027637995e-02,5.464044219043831183e-03,2.185205427736466432e-03,6.741080059707112507e-03,1.031848034792840624e-01,5.750146760727204570e-02,6.038643280905937882e-02,4.639528579514710233e-02
3.119122906763090175e-02,1.255740034552519854e-02,5.261535591734264883e-02,1.199725360550943712e-02,2.074703862725109458e-03,3.795907981078960099e-03,1.702851318214249343e-01,7.025307571979648447e-02,4.734853536047956002e-02,2.978928237701352136e-02
3.166142925799667052e-02,4.345386936329599659e-02,4.155314517623397846e-02,2.385431852148147541e-02,2.053813705620953414e-03,1.369643734641412189e-03,2.126963271358570662e-01,7.023792147306846811e-02,9.497871303413464583e-02,2.319044095435201375e-02
3.239094749550023439e-02,9.844935960437962985e-02,1.609558622922453372e-02,2.517943845727425509e-02,1.979227119774054459e-03,1.427486112399820083e-03,1.969240407845906649e-01,7.380941986726725912e-02,1.801520437130220698e-01,1.659974929792813747e-02
3.716118361222078836e-02,1.093808131521429444e-01,5.972469123791893097e-02,1.824099207377649981e-02,1.828466025058466098e-03,3.341411770363612171e-03,1.393593237873926860e-01,9.208207528894143956e-02,1.942474842032133331e-01,5.375384309042404926e-03
4.434234980086679268e-02,5.000334506631727571e-02,2.881246511969577651e-02,6.003751829039669259e-03,1.857149560263723432e-03,3.130374161829979542e-03,1.038361275980969334e-01,1.099345236793799613e-01,6.425762981836519172e-02,6.281705103702291820e-03
4.551241878127366969e-02,5.785805624391776592e-02,7.637472200889257323e-02,9.017800787586622083e-03,2.024903992503766445e-03,1.478557398697599376e-03,1.364156021488293902e-01,1.021960612416490805e-01,1.393163297748992169e-01,1.269642988429360748e-02
3.653001991412947735e-02,1.546388364311754304e-01,1.857029357875542019e-01,1.984375507570465200e-02,1.761613249533294616e-03,7.104048689933792349e-03,2.029692695396832225e-01,7.341771731475901785e-02,2.685331263865331497e-01,1.177540795955567265e-02
2.865572291538210498e-02,1.897136025956113747e-01,2.220384285186807471e-01,1.771901951209317247e-02,9.297518130634506960e-04,8.727823392597160515e-03,2.262556514843968580e-01,5.921542979105010734e-02,2.536825171152971015e-01,7.749483460818663329e-03
3.586174396052245472e-02,1.586739131570926720e-01,1.727459534099090865e-01,2.166274080543484793e-03,4.008446946115214312e-04,5.639892249441257228e-03,1.776650899288734764e-01,7.717445124662572487e-02,1.480111901523304130e-01,1.046354159464177487e-02
5.064535164587960492e-02,9.778484287870731206e-02,8.944910160796780418e-02,1.705507695601489460e-02,8.186606801480263585e-04,8.209111917096938160e-04,8.925439447211176713e-02,9.926885908143767701e-02,4.721440940510464312e-02,2.357505514220040177e-02
4.838191678494693782e-02,4.404661586294663506e-02,2.399279034430052901e-02,3.064906713971082483e-02,1.542945957742215607e-03,2.953137066847725915e-03,3.940704577164937106e-03,8.747717235601065733e-02,1.136807468196396505e-02,3.338413301763602098e-02
1.979044359971573325e-02,5.879403933374481930e-03,1.979204351945474533e-02,3.850856845844995158e-02,1.700206100274534232e-03,4.093230174456966887e-03,7.583988870674009120e-02,3.582759110188177970e-02,3.730677239615092650e-02,2.218776014581716471e-02
1.584277463399929448e-02,2.047963851004949362e-02,6.875062714856161605e-02,4.411440553529172304e-02,1.413435500000107068e-03,2.221508673215210217e-03,8.778813779090886837e-02,3.351140205103826653e-02,6.596421362230882324e-02,5.989403646541262283e-03
3.490130386605307111e-02,2.103836053081022117e-02,1.282154456172211188e-01,4.416845977975937532e-02,1.246756572343886166e-03,6.329643230043631311e-04,2.362047752991362423e-02,9.270114910393162377e-02,3.933942844782051251e-02,2.775334154991826105e-02
3.337064436730371314e-02,2.071351192440865768e-02,1.629228340012564002e-01,3.168554626039435385e-02,1.267815682255567407e-03,1.141582697232022912e-03,6.515997251805037693e-02,1.188907388086592604e-01,2.291516420886975311e-02,2.968940398945168341e-02
2.189048342852066564e-02,8.579875481911794499e-02,1.332574934813055001e-01,9.346337966255648111e-03,1.232950970444539199e-03,1.516798641055146224e-03,1.051200416813026506e-01,1.058070284532952737e-01,3.146940371062546815e-02,2.006582344097978393e-02
1.021039643399764343e-02,1.309184077171440530e-01,4.111772461031246162e-02,8.807265952318251920e-03,1.103090632606673789e-03,4.651047184956808717e-03,8.079327543124338595e-02,7.192858038617067074e-02,6.452122274238628052e-02,1.069130991816848869e-02
3.040556510842482279e-03,1.350359817133054419e-01,6.373972530812185844e-02,1.194665659014068973e-02,9.907897390659557366e-04,5.660099569874106271e-03,2.951611680674560978e-02,4.160759818890713557e-02,2.065196587179111698e-01,2.464466142176931912e-03
1.566993481026962651e-03,1.084031379924451644e-01,1.185858040875574920e-01,2.117826427759157259e-03,9.161920664112436097e-04,4.879485892134044836e-03,2.026277622215816657e-02,2.007295411264136548e-02,2.883107128528806240e-01,7.880294763152726270e-03
3.041964332212340402e-03,6.615515520809923944e-02,9.486979785029379941e-02,1.297839049466928754e-02,8.274812918657146760e-04,4.052718597783857429e-03,6.478795296209720334e-02,2.603803312477952388e-03,2.630965995589950035e-01,1.787615313075723023e-02
4.108763040971628519e-03,2.018827517314732145e-02,2.293793838681122688e-02,2.955613357267501684e-02,7.153943116446600040e-04,3.752570247212909209e-03,9.824105201613517191e-02,2.173907331251767865e-03,1.671502150527345298e-01,2.211906298980983315e-02
5.351534491114211603e-03,1.383629075576106593e-02,3.346035399091101814e-02,4.611776275076902298e-02,6.050898686035375727e-04,3.451951998712798203e-03,1.102112698755885190e-01,1.476098200516459853e-02,6.209822975170914416e-02,2.048169768871584834e-02
7.223015614163438153e-03,2.742559426786355184e-02,4.018585491473288668e-02,5.878465932670872557e-02,5.024099171703123477e-04,2.905062146980499308e-03,1.065834907474865478e-01,3.450205130725526176e-02,1.945057678697250519e-02,1.831249225796324764e-02
5.292438987690420774e-03,3.227096347016890354e-02,2.661997169112918088e-02,6.493657921703598068e-02,3.970009105804377667e-04,2.350494309200614178e-03,1.071741932953816506e-01,3.164604523574004319e-02,8.594605143861008822e-02,1.960006194374133356e-02
2.435197389623959020e-03,4.579954778014596467e-02,4.365609197213504017e-02,6.869601574392529553e-02,2.874834981107561994e-04,1.911341303371984646e-03,1.197338209344915860e-01,2.164727405839652480e-02,1.650618293433627204e-01,2.458159735026787043e-02
8.202302610297215399e-03,6.896136740900901674e-02,9.706272860402138936e-02,7.549494375483142838e-02,1.802642008970173858e-04,1.484910931534802079e-03,1.301967347647835227e-01,4.472748541109645981e-02,2.563422697832680730e-01,3.332575215389969175e-02
3.090597391621555112e-03,8.929518316648352161e-02,1.435222601274883381e-01,8.017520865805539965e-02,7.769857829614332657e-05,1.019440537842759408e-03,1.221421819342054654e-01,1.017743493047618825e-01,3.009008250654989780e-01,4.409539501428520747e-02
1.071052427582509445e-02,9.972582079797184806e-02,1.477952014149543358e-01,6.737959346227405388e-02,2.153499380876623876e-05,5.695911488466333036e-04,9.729806473083042750e-02,1.487827136043376186e-01,2.366855283149362776e-01,4.662019873162137618e-02
2.253234933814344393e-02,1.046305567184730723e-01,1.227222714538962756e-01,2.923410627605880011e-02,1.169270548325301591e-04,1.679363524607694865e-04,7.173114090229563977e-02,1.559016080303121665e-01,9.563830753167210097e-02,2.804461622025144693e-02
2.508998707066355249e-02,1.109363693044272819e-01,1.094022137271847273e-01,2.086670483916775939e-02,2.062836368982959875e-04,2.037230225734573187e-04,5.734841405508268875e-02,1.334044578793084634e-01,7.651397587861248281e-03,8.028219206065129870e-03
1.949811900678562887e-02,1.205105445062164549e-01,1.276513997324891792e-01,5.842818803682232887e-02,2.883442011496050589e-04,5.556632534835326351e-04,5.422855476555402815e-02,1.002454528861251026e-01,4.461807781647742117e-03,3.810999710724539968e-02
1.037398578115257541e-02,1.302717904860769549e-01,1.561668427471454290e-01,6.967320659501388680e-02,3.627787606554474988e-04,8.742342646794680049e-04,5.830048020594609526e-02,6.101446623814497233e-02,6.615174333520337790e-02,4.233572902869807419e-02
6.392896960746847872e-04,1.356030276144671032e-01,1.701003943929594864e-01,5.779779263665434791e-02,4.289939119566857492e-04,1.147194850899401972e-03,6.748071693016199912e-02,1.614290970686615284e-02,1.415817520690939579e-01,2.684265098207527789e-02
1.466173833519787001e-02,1.338418499906134096e-01,1.796577004643178654e-01,3.384806218471751033e-02,4.861495642855712422e-04,1.375875309591725231e-03,7.783109696728250648e-02,2.821371525588704798e-02,2.156470607366042791e-01,1.830890888125344396e-02
2.896581554517842563e-02,1.263221949921414788e-01,1.967219629907164535e-01,1.159633988932720627e-02,5.337410511372833299e-04,1.568141998298050021e-03,8.092393744361597863e-02,6.406311324125427142e-02,2.954077602109791423e-01,3.597479790982535675e-02
3.462912963664173394e-02,1.169624585802673672e-01,1.862031104192762576e-01,4.368855691009409029e-03,5.716119539545404422e-04,1.723757695118339215e-03,7.128646327376424174e-02,8.490960052133002256e-02,3.337084181608975797e-01,7.040713584691857263e-02
2.555863017570931053e-02,1.086183604550964299e-01,1.103329363314464462e-01,1.362443799154540447e-02,5.996951467400932993e-04,1.827530175492608246e-03,5.278022250733035992e-02,8.685370763291652696e-02,2.712444296081614747e-01,9.500395702895514383e-02
7.883941969246894763e-03,1.012441592655566880e-01,5.017393354749298713e-03,2.553255357708349854e-02,6.180203846878172405e-04,1.874920262249493578e-03,3.234255635105241083e-02,7.410262110344088826e-02,1.294858236671649898e-01,9.695524965294693986e-02
5.053270340061287620e-03,9.339563598457983895e-02,4.875620741827341870e-02,2.776702039802363478e-02,6.268350846014297687e-04,1.897435414694965700e-03,1.259755826834837306e-02,6.156705578824020475e-02,6.966058635805323987e-03,8.540678922416042318e-02
5.750111963462753613e-03,8.502322983038804183e-02,1.681782647061149522e-02,2.190517248162827599e-02,6.265759787244006614e-04,1.911301139436936622e-03,3.654692484594993657e-03,6.412785972675749679e-02,1.560515347722891619e-02,7.065327695482913339e-02
3.286918272602688904e-03,7.801701221422985277e-02,6.307849959582519095e-02,1.367989025222797125e-02,6.178038995824574556e-04,1.857115892939320686e-03,9.591235388227000933e-03,7.962766704526454131e-02,6.006326024031168054e-02,5.270357249099100194e-02
1.409489580305608829e-02,7.262170192226238830e-02,1.224134875206612932e-01,2.803688927816284232e-03,6.012452091978131869e-04,1.706416713341358084e-03,3.566595104965290461e-03,8.652137493042204308e-02,1.585355908764103650e-01,3.294892734473421625e-02
1.736964613891626638e-02,6.460798497273964602e-02,1.086022719706603440e-01,1.089398889109371125e-02,5.777970569067438682e-04,1.595452817203478306e-03,4.828189166667631177e-03,6.603839420266426063e-02,1.848741826103277586e-01,1.986623591777046671e-02
8.275519093973737056e-03,5.043082063378644814e-02,2.723840502906787336e-02,2.236978869595131897e-02,5.483850215798818451e-04,1.601642090900056272e-03,7.042013856522147223e-03,2.693098510447094335e-02,1.024815055460179813e-01,1.666663129861764917e-02
6.432673314447790586e-03,3.498079793164341617e-02,5.092533367889724716e-02,2.950253389261796658e-02,5.139355637238499129e-04,1.447852365640622720e-03,7.719357182455556347e-03,5.295173630498770188e-04,2.947569582571143640e-02,1.536435690590846545e-02
1.309625425244678905e-02,2.783777066856147481e-02,5.901856793153392733e-02,3.670218596539248646e-02,4.756164639634836750e-04,9.646476688263666945e-04,1.419768672556430064e-02,2.135641165490521215e-03,1.196361414912840565e-01,8.564068046893469344e-03
7.108388471516833597e-03,3.047110494795973734e-02,1.182020889467818268e-02,4.339680833952255096e-02,4.348084438647515011e-04,7.887015309406784089e-04,1.930565357775825691e-02,2.181247204182257260e-02,1.356182297055485708e-01,1.650901537390273531e-03
1.651152287133794954e-03,3.366958440384800605e-02,1.832174887578378805e-02,3.919499166343826807e-02,3.925124352424254597e-04,1.611508218819304467e-03,8.611601102251443401e-03,3.039387557784583790e-02,1.079185617018424970e-01,9.832583493579591036e-03
2.158642469057229802e-03,3.009945770806400980e-02,2.668360370747871468e-04,1.982895756044376553e-02,3.493251805828272768e-04,2.691452472575022077e-03,1.672688689929486411e-02,1.558814273204244677e-02,6.752633211044441197e-02,1.468164384145248871e-02
4.440161364116265545e-03,2.336972205105117273e-02,2.609271789052544990e-02,1.665820415412754040e-03,3.066251866143005498e-04,2.525317735563505084e-03,3.832911893183521546e-02,8.312129341509875632e-03,1.597563758175435389e-02,1.812037791575768497e-02
7.751008151326789844e-03,2.009083745422302753e-02,1.809336943117709207e-02,1.049250409050738950e-02,2.665721821155986110e-04,1.117593724535161310e-03,4.255835098676451211e-02,1.758940030528376511e-02,4.602652725562841884e-02,2.242242863465728625e-02
1.313404357536828489e-03,1.724186447522971580e-02,2.063452911472818570e-03,9.224062755004014055e-03,2.294980126542482993e-04,1.963388677008050904e-05,3.317764169424803483e-02,4.008295619445712867e-03,8.568895813929751359e-02,2.902134999673608093e-02
9.517885790762124418e-03,5.264582696508712106e-03,1.194906660877247118e-02,1.109685910772430402e-02,1.937709566195839857e-04,1.362035313862315633e-04,2.218674590035258493e-02,1.772575440739047187e-02,5.832589569877626862e-02,3.569934795532067606e-02
1.327140858728169219e-02,1.650620057547478106e-02,6.005650881507879763e-02,1.951324364082443821e-02,1.613001980099433119e-04,8.445036568404637759e-05,1.680052835883765958e-02,2.790699127420905382e-02,3.050976940823524330e-02,3.629703881845385699e-02
5.848356673674350546e-03,3.625573950297230480e-02,9.699409358078227295e-02,2.412823955574394663e-02,1.379120205075996775e-04,1.310378491200343484e-05,1.611401431530498640e-02,2.517861771794176196e-02,1.093489258214652010e-01,2.824988414977643372e-02
4.392513032933683358e-03,4.395698435384192554e-02,9.299259980832781658e-02,1.647341354324887569e-02,1.215572124666895211e-04,1.741776872503543049e-04,1.552302033654649228e-02,2.409774813808431698e-02,1.156808044578524625e-01,1.778543226608552547e-02
7.708810732822468474e-03,4.139578211375016803e-02,6.441159514853547763e-02,1.669755646156251098e-03,1.011641153560661257e-04,1.947232339059499465e-04,1.251719437556447247e-02,2.905907449151228991e-02,6.374741891347565637e-02,1.195605692185927604e-02
5.516135764227503464e-03,3.557668089656157440e-02,4.361746791176572546e-02,8.639443164953552676e-03,8.176838234439784880e-05,1.215300347067598289e-04,8.531253312291674218e-03,2.605243208877010969e-02,5.413540036132496840e-03,9.311428817573890598e-03
6.640820356155745924e-03,2.967266482148893034e-02,3.542021433431022381e-02,9.677666006421538347e-03,8.760497455413914002e-05,8.735728055721812043e-05,6.288908981419599406e-03,7.402823716436298523e-03,4.368744990815237594e-02,4.952584674427024970e-03
1.371755564707648027e-02,2.389466496106383911e-02,1.607850051623612581e-02,3.879892431058116521e-03,1.085192065194619411e-04,6.143663217939872691e-05,6.784126283771903243e-03,1.178230972342911645e-02,8.828236275642342701e-02,3.817009457824447737e-04
1.984522016245936216e-02,1.983968630377883416e-02,1.802276291968624850e-02,7.708147166054699767e-03,9.197029052780408690e-05,1.611174962885993101e-05,8.458435326098800999e-03,1.309405332482652638e-02,9.521077075859843419e-02,8.864099213050855020e-04
1.860903246770149316e-02,1.945235989624007761e-02,2.128257979181089055e-02,2.512835758013462137e-02,5.729845335196918465e-05,1.280947303480017320e-04,8.765059334120743617e-03,1.513972431346858553e-03,2.352860509098313874e-02,6.541078165109329504e-03
1.187236573879416751e-02,2.170954770856495589e-02,4.557339719132495054e-02,4.260560299477477580e-02,1.159511390580144811e-04,2.419242919115518662e-04,7.584602264566898087e-03,1.543960424128733994e-02,9.650963350048175071e-02,1.263001599759689189e-02
5.874597502209633754e-03,2.383113882629451716e-02,1.441722307262077452e-01,5.109812736956810542e-02,2.280321074277585577e-04,3.602120258794723928e-04,8.304647757549792064e-03,1.866555345402878818e-02,1.808858256618925131e-01,1.670702966212887081e-02
3.318475971762354162e-03,2.494372308909057270e-02,1.923558040785776913e-01,4.776530995029202448e-02,1.498974108382023710e-04,4.926472420513622720e-04,1.326750373927479063e-02,1.577727241211238432e-02,1.886394537416689055e-01,1.977317279181381796e-02
1.934188262473794965e-03,2.609356706418693161e-02,1.653574000268904776e-01,3.722597436534855198e-02,5.112826917278336244e-05,6.321133043310283792e-04,1.979695533261697712e-02,1.684804446714796913e-02,1.524032936463208809e-01,2.214841865855146294e-02
1.182646346157127789e-03,2.769078039525178780e-02,1.134219384583838169e-01,2.421853597387028587e-02,1.872416496866696615e-04,7.677232584711045403e-04,2.374798968378324590e-02,2.539987530613205258e-02,1.151571773272054566e-01,2.264853725381563848e-02
6.550081365280981810e-03,2.910270573708585023e-02,7.877606333383349591e-02,9.430808667604420256e-03,9.871870090121502312e-04,8.963273085364471902e-04,2.495481556490012146e-02,3.484554376913368001e-02,7.757589177106789802e-02,2.122741818686943449e-02
1.293702541475055118e-02,3.001980969737566909e-02,4.841515942806255690e-02,6.740869534547897293e-03,1.478026923481836697e-03,1.016715414204280750e-03,2.617844527287537665e-02,3.492874472985569440e-02,1.822073164939618656e-02,1.961058744754149569e-02
1.898593968275934241e-02,3.071622098724639816e-02,3.905850923495986921e-03,1.942535786439567730e-02,1.020624240643722104e-03,1.124321013245357026e-03,2.878684064600945183e-02,2.209903842865418994e-02,5.256273524635038386e-02,1.947187971283917060e-02
2.379058089010036015e-02,3.134664934313897977e-02,3.003626178961284199e-02,2.232962719443446972e-02,2.524720736779566981e-04,1.214026828844554833e-03,3.188550184689961653e-02,4.193287243350957844e-03,7.847418176722717464e-02,2.125385331717126805e-02
2.641724401795079308e-02,3.178946388613341362e-02,2.071451404181803152e-02,1.599531274241171655e-02,4.265030253531154733e-05,1.282824219655620632e-03,3.400072709835365303e-02,6.946254136166913479e-03,1.172072643887917161e-02,2.440283503526483738e-02
2.592736829531502862e-02,3.197567462903679741e-02,1.564714930844744376e-02,8.687824854840498975e-03,2.674630428153734361e-04,1.328662634754423271e-03,3.421100445587858807e-02,7.839635346995756093e-03,1.230117866648069991e-01,2.782498258877358702e-02
2.304029079289408519e-02,3.196786344643141181e-02,3.233453038200037599e-02,7.563287947573315087e-03,3.632324619735909001e-04,1.349303600370599420e-03,3.267528201313012887e-02,4.894984804377627667e-03,2.418987496193430453e-01,2.998097305235312982e-02
2.027782375298393600e-02,3.180720837082095381e-02,2.195978019427754016e-02,1.212652705767283852e-02,2.614043214630001194e-04,1.342938515499991553e-03,3.053056771003383879e-02,4.683716446329824756e-03,2.816296704956621211e-01,2.929027778028445508e-02
1.834342240780306374e-02,3.147465929817305080e-02,3.149581955926785554e-02,1.568893722871963700e-02,2.045877842136496370e-04,1.308803446458859992e-03,2.880998422692763322e-02,8.454298407398945156e-03,2.482448674353971707e-01,2.546032918464605568e-02
1.530466597609940124e-02,3.096211575453618539e-02,9.747593869192480720e-02,1.020399769974052531e-02,2.318672411690470209e-04,1.246943905318406752e-03,2.728879748984459203e-02,1.347033460868509412e-02,1.950861692742831277e-01,2.030800288934732703e-02
1.196011496729161225e-02,3.029146438884429415e-02,1.927261859158866386e-01,7.033558019793465996e-03,2.312288580975097854e-04,1.157945512842070744e-03,2.453730112292587529e-02,1.383432629211016514e-02,1.747534673490075408e-01,1.621261326312712844e-02
1.209780363117641568e-02,2.948142909585432445e-02,2.552032813629623309e-01,2.814912831989301728e-02,1.830284322629970538e-04,1.043036696222839803e-03,2.000240962682620083e-02,6.466233107987514814e-03,2.024291846459393696e-01,1.393250946360362688e-02
1.354420855542609950e-02,2.853815858970748520e-02,2.533453643836878211e-01,4.026259601829245555e-02,1.397762700547465888e-04,9.041865415677881931e-04,1.609446468479054301e-02,7.919615370455234922e-04,2.451088823374495962e-01,1.289476147478807455e-02
7.686935102652771475e-03,2.747050331957740996e-02,2.041500777498865549e-01,3.817592330298413827e-02,1.118736814175588307e-04,7.440038414298208100e-04,1.561825389558148779e-02,1.043154328313438198e-02,2.528449750627562165e-01,1.269260003562911604e-02
6.363264216216499986e-03,2.629444328190120445e-02,1.375861692389998003e-01,2.716448935333740447e-02,7.560521187494072032e-05,5.656128647986418279e-04,1.650064643085498786e-02,3.061153715103339876e-02,2.076868864594812458e-01,1.271889501161391905e-02
1.707510459290405985e-02,2.502578988679945299e-02,6.654323035755523030e-02,1.394917428525485614e-02,2.671844878354635351e-05,3.726008031765166723e-04,1.330033498730750705e-02,3.933930425263577890e-02,1.321779178439549673e-01,1.128561940630172337e-02
1.665058818112148328e-02,2.367779828915921383e-02,5.176101143845000807e-03,9.651004788106180930e-04,2.268117620390511989e-05,1.689583633996610888e-04,5.241133100837588529e-03,2.675953640177197376e-02,5.503122227587266962e-02,7.183448721988262842e-03
1.178447150605175554e-02,2.226430967240644598e-02,6.426116517324467758e-02,1.078122901984820275e-02,6.928308133056482166e-05,4.102896413828445552e-05,2.239531418271660697e-03,8.073039639537598830e-03,1.248137454180665851e-02,1.866089931943875398e-03
1.159223436186542985e-02,2.080064211206043151e-02,9.484339299388144795e-02,1.918236337673664277e-02,1.174582672686543238e-04,2.528993847099814877e-04,5.398482660222123086e-03,1.343665143378110563e-03,7.078695082694459739e-02,1.844587237404280659e-03
1.446084710431769921e-02,1.930184924792234871e-02,1.006816372919766001e-01,2.308498675655082377e-02,1.674975892611935634e-04,4.621190382754159702e-04,6.713746283655027888e-03,6.009746976521793821e-03,1.216421232672659225e-01,3.370036093194572150e-03
1.321443134110987516e-02,1.778200162455669670e-02,1.013520057203858016e-01,2.362304978882567158e-02,2.160115954026429628e-04,6.641864179473888153e-04,1.017282424565563864e-02,9.427112445082919817e-03,1.614052161224789617e-01,4.643698182632873157e-03
5.553428048958457090e-03,1.625472374395324146e-02,1.000748282946887779e-01,2.221420474140881063e-02,2.614780091797830656e-04,8.547444495402370130e-04,1.626287740655195727e-02,3.721194792441577352e-03,1.747421594517812038e-01,6.294969665161836286e-03
4.872077493789603655e-03,1.473326423073075681e-02,7.555202549612766161e-02,1.968787415595387238e-02,3.041759302974011872e-04,1.029689634289495141e-03,2.279845031626560187e-02,9.208315843801499062e-03,1.455597237850068948e-01,6.242098867399998793e-03
1.212898879144321679e-02,1.322996679378054055e-02,2.053603162073894262e-02,1.798407435008066158e-02,3.436140434605808444e-04,1.185270770697586466e-03,2.755107683703133734e-02,2.102995041881669872e-02,8.481344668016711774e-02,3.720246984236543365e-03
1.208950835354836127e-02,1.175599638095927400e-02,3.167717627190453494e-02,1.909886343265120717e-02,3.785141764189797818e-04,1.318178455561267674e-03,2.940923238152434033e-02,2.302577099464249433e-02,3.229145106671609672e-02,2.021066783287668416e-03
7.207391381711707873e-03,1.032141737548933694e-02,4.235238627059072919e-02,2.047298127061749837e-02,4.080513789140577776e-04,1.425625482175206255e-03,2.951874867966117894e-02,1.686207795616195132e-02,1.765875876607366293e-02,4.257988570162810071e-03
4.369089629912434325e-03,8.935137344236756402e-03,1.543494488628589269e-02,1.483878532534047869e-02,4.319977533513987239e-04,1.505414526652759655e-03,3.116263765430589416e-02,1.654375379343216504e-02,3.352895595331641804e-02,8.380685349439269752e-03
4.714305703162749613e-03,7.604626097739536697e-03,1.237809154459532449e-02,1.665082402140198982e-03,4.501468272095191544e-04,1.555990400533278570e-03,3.490637442156965808e-02,2.726149807623532567e-02,5.622676242722278450e-02,1.029484371728781218e-02
1.842767129152288403e-03,6.335836289856977034e-03,2.110380979287806297e-02,2.234883563740819659e-02,4.620470102362602880e-04,1.576476392862991103e-03,3.364991544682281732e-02,2.832301160112393745e-02,7.618805786870368191e-02,1.087690959523661925e-02
7.044531386750028414e-03,5.133472429086257879e-03,2.374751569727771502e-02,3.482101029729894187e-02,4.673094242651783898e-04,1.566694376596182393e-03,1.825203188443486405e-02,3.150086612740105908e-03,9.582568170579769395e-02,1.517563029252945450e-02
1.689997499018838431e-02,4.000995309248750118e-03,3.418981805376836852e-02,3.364610582702784458e-02,4.661876944899247840e-04,1.527167881711802375e-03,9.434479016874126184e-03,5.611360259620534752e-02,1.108891793860339869e-01,2.417150571472284626e-02
2.412284444565801489e-02,2.940067888863650419e-03,4.344710531722986713e-02,2.477051182827370510e-02,4.593889618405042432e-04,1.459107860524756555e-03,3.543295267328626375e-02,9.662970338900918332e-02,1.108360683144880288e-01,3.194836827381396238e-02
3.041230916717300309e-02,1.950609504529579423e-03,3.913315496514890163e-02,1.649836902616095766e-02,4.468448585659058766e-04,1.364381706305646579e-03,4.900687158795722503e-02,1.107039982248172322e-01,9.575531657160490928e-02,3.292536066017713592e-02
3.532686815781482109e-02,1.032097640388137966e-03,2.940367595440517706e-02,1.033506992888608839e-02,4.278653042402991158e-04,1.245466452817018668e-03,5.255641016632105894e-02,1.108988181413871760e-01,7.983161049441604706e-02,2.831948383004969164e-02
3.416215924560112027e-02,1.837009378559280835e-04,3.083350861373573837e-02,3.112215223743415062e-03,4.037371081453344172e-04,1.105387275251744133e-03,5.308252474340241500e-02,1.060634224446103252e-01,7.483463023776254497e-02,2.322720816826064072e-02
2.544365303119490093e-02,5.981818114646078946e-04,4.453816743806689876e-02,5.616358237060778240e-03,3.775294149829481073e-04,9.476427878045352079e-04,5.153560880495122037e-02,9.196541973159721994e-02,7.906040824973378789e-02,2.017826885510348722e-02
1.377979050027813498e-02,1.319890631146907519e-03,5.886424755408281584e-02,1.237045700413524213e-02,3.485047279900354645e-04,7.761190424618517707e-04,4.520258407262735256e-02,6.889590580588172974e-02,8.519350046230533824e-02,1.805834041616963606e-02
3.674627629933499215e-03,1.984818621758497291e-03,6.765467927278828730e-02,1.472172559271919638e-02,3.122956163332898829e-04,5.949943973272359479e-04,3.492207174974625711e-02,4.560519051458713363e-02,9.055778339287065548e-02,1.539921462307155750e-02
4.256375304852272508e-03,2.592848004909879822e-03,7.445468157782045293e-02,1.403567588710409077e-02,2.727877807126670158e-04,4.086375972183318604e-04,2.507544516621801681e-02,2.702575986654564763e-02,9.568422126832698549e-02,1.216599228642974498e-02
9.660133626918226968e-03,3.151953068874634167e-03,8.319940099956280033e-02,1.292692367377844612e-02,2.420141485063726492e-04,2.215015708043943979e-04,1.853874842795449202e-02,1.173325748341678271e-02,9.892242551910178372e-02,8.975787020001365843e-03
1.047539587528717453e-02,3.679158455341311612e-03,9.270629842031519185e-02,1.230273614755058448e-02,2.147123442350711529e-04,3.801556510369899109e-05,1.449012577994738052e-02,2.033520248156108108e-03,9.749658182315781851e-02,6.146755024361437621e-03
7.011639897841826993e-03,4.175226188745956996e-03,9.884481340188809584e-02,1.167179572107147553e-02,1.678109147939015533e-04,1.375217309626360822e-04,1.087218274809932314e-02,1.462177022630609113e-02,9.157367453105622057e-02,3.520280238310100583e-03
2.733537294476798708e-03,4.621391066269423843e-03,9.821491207152181768e-02,1.076240904965637853e-02,1.146847877010248921e-04,3.010454647901539575e-04,7.585216591939383454e-03,2.408687001465793787e-02,8.351172610289790688e-02,9.877167994973463927e-04
1.816592831373970655e-03,5.032791690774784596e-03,9.100742299789602030e-02,9.804726484540707623e-03,1.076128808945627912e-04,4.488217876012847189e-04,6.382652261861595719e-03,2.600820866533539930e-02,7.477787628515493445e-02,8.184191802002712887e-04
9.703405896632381206e-03,5.466326999017381491e-03,8.213118874439756523e-02,8.930575512471830221e-03,1.219028963222739022e-04,5.775365527942128785e-04,7.682477073770357934e-03,2.040435354088388636e-02,6.717687147175525897e-02,1.288313144416320180e-03
1.930286898274737040e-02,5.906270398874845402e-03,7.670986737864733673e-02,8.044271802413589106e-03,4.742426201613255088e-05,6.843734025463228286e-04,8.913481031418774708e-03,1.586942350946404096e-02,6.336687709193954132e-02,1.499032772887467970e-03
2.302428636061563255e-02,6.243948839714753493e-03,7.210370113569039563e-02,7.095359294859933212e-03,6.421012202910135231e-05,7.670793696987471396e-04,7.401598601823442328e-03,1.982597931831274474e-02,6.008254581128526228e-02,3.438120907891708232e-03
1.781053470221254098e-02,6.521125068982213183e-03,5.906669714585456588e-02,6.141292343233498499e-03,2.775102816653574647e-05,8.240164345028644670e-04,3.894422846184279578e-03,2.889939765122311044e-02,4.634270167501584881e-02,7.080997543058157803e-03
9.428181356927934145e-03,6.982360400161631217e-03,3.532977926566290700e-02,5.220423292701529758e-03,2.298818433400426874e-04,8.541978246531291025e-04,1.247513557461342936e-03,3.482301249728670528e-02,1.776367915461092573e-02,9.823310167237010726e-03
3.452996309016961602e-03,7.560285208257821500e-03,1.234518645710306652e-02,4.320819048035279795e-03,1.619205819447569721e-05,8.573082253667340486e-04,1.782287647435226057e-04,3.500570317900111861e-02,1.268263305389645546e-02,9.047634207277593238e-03
1.358207780754804939e-03,7.691620622669145119e-03,2.399084588394863327e-03,3.438999203364199488e-03,7.789160294893944817e-04,8.337074641953430175e-04,1.427782773686434416e-03,3.210438830305147734e-02,2.815343102791609958e-02,4.174040809534906513e-03
8.096820634870452449e-03,7.252289569153570065e-03,4.936966827636354513e-03,2.594903365005929528e-03,1.197142385547937758e-03,7.844176420482480445e-04,4.806681986718725104e-03,2.713846460633427549e-02,2.680373454213520745e-02,3.111421323418675153e-03
1.445189826534577435e-02,7.110239180817157223e-03,1.142753350997225900e-02,1.804226714117419632e-03,7.498506946018409277e-04,7.110940877926710335e-04,7.908746139100312350e-03,1.838606726450275897e-02,1.870823234723374348e-02,9.399872608159215784e-03
1.313604573206820884e-02,7.901128761981613541e-03,1.688527553181923962e-02,1.070743875366497906e-03,6.082656647130502050e-05,6.159809092406529508e-04,7.765527369149187280e-03,5.936235651698535190e-03,1.046902269984343811e-02,1.143953942528938388e-02
3.024916973513671909e-04,8.983357103077358255e-03,2.059598283058284088e-02,3.988606243445917731e-04,2.524308842863935069e-04,5.018522885635075129e-04,4.315598162963723596e-03,7.045223703759507031e-03,1.743888719447857921e-03,8.941597928955864402e-03
2.033290781995326924e-02,9.483238118617336176e-03,2.151666584141513627e-02,2.029177308059044484e-04,2.964137854895795583e-04,3.719410158600540829e-04,8.492048477103560089e-04,1.721608565876057290e-02,7.350669616186443663e-03,4.716093927940951704e-03
