1.013530799968928933e-02,7.809006745659918640e-03,1.136074246727215332e-02,2.952123024906397764e-03,1.070481877433538450e-03,1.177476635370304763e-03,4.783297186818517149e-02,1.202389557837349639e-02,5.577079658142838382e-03,1.935707877104297231e-02
1.001286800402417798e-02,8.110823212551973929e-03,1.128414895343602363e-02,3.076188952844927191e-03,1.630263378326940373e-03,1.288782718795546773e-03,4.728380059601915847e-02,1.695201950214323544e-02,2.703236708135010533e-02,2.241570821309131489e-02
8.171511443479509418e-03,8.361256139327680539e-03,1.077927391843804504e-02,3.191274760552194594e-03,1.254598697252396226e-03,1.262537974127999393e-03,7.146738549480066705e-02,1.543877401453127435e-02,3.743384124863197160e-02,1.520487987720518970e-02
5.715202042171375722e-03,8.560863634939871666e-03,1.073856795509608129e-02,3.285698890838511989e-03,5.291927491373313221e-04,1.303931789278857476e-03,1.024173497024754298e-01,7.226357194168209382e-03,3.261365211403284559e-02,2.927695101984748461e-03
4.134935017446598159e-03,8.711072026495332229e-03,1.150384316564783023e-02,3.348265996903090035e-03,3.432793832682273132e-04,1.575735930161852906e-03,1.139220178559143398e-01,1.630917324029933484e-03,2.429163735604064275e-02,3.496077872098356416e-03
4.634342896568052934e-03,8.814089990839666169e-03,1.253087944428312936e-02,3.367463071405315915e-03,6.854550284851161374e-04,1.639051328975410591e-03,1.077878706057864983e-01,7.202174403635776267e-03,2.032541267058662199e-02,2.921225097015332783e-03
7.033484846514389405e-03,8.872800815608140185e-03,1.302500314748322383e-02,3.329288144282998435e-03,9.529908518991071602e-04,1.113101081436494288e-03,9.955196156048934375e-02,2.024429435145985029e-02,1.508904299969880680e-02,2.566795773700455453e-05
1.042832428529279036e-02,8.890635178751011419e-03,1.285847204309121215e-02,3.219692854533093718e-03,8.345035028525974547e-04,9.910267906764768688e-04,6.788224931510615512e-02,3.371697601659785076e-02,2.659249840188236506e-03,7.562242511932436816e-03
1.408719769137066133e-02,8.871430821367293218e-03,1.238118951162518397e-02,3.030087142994133346e-03,6.406812007159511709e-04,2.688216574457610170e-03,2.322636477842723174e-02,4.863087516436499086e-02,1.138480871755891133e-02,2.376407760654290074e-02
1.647099265613407096e-02,8.819283579704710260e-03,1.166606952577103895e-02,2.753072625970542833e-03,9.735604952791108513e-04,5.312556456240346246e-03,1.438636477685324710e-01,6.463128997901153305e-02,1.312349712646332031e-02,4.088312844268104235e-02
1.569323909129457725e-02,8.738386970428429351e-03,1.124069161079597513e-02,2.371364506198437704e-03,1.843858309522066700e-03,6.033127938090706785e-03,2.092999829179303384e-01,7.128717624555858112e-02,1.212606759233509669e-02,4.635286826117442777e-02
1.233389023693767274e-02,8.632862440364054077e-03,1.267059660637807374e-02,1.867367855525143118e-03,2.361662482953946415e-03,3.969672317742334658e-03,1.850307915757456456e-01,6.182962639228877649e-02,6.864556718411132796e-02,3.948015795320494042e-02
8.986541864977113173e-03,8.506598794785096007e-03,1.625558855077317150e-02,1.247786057073605468e-03,1.940600776493750165e-03,1.443412716253340312e-03,1.181162555969512695e-01,4.433472032399043972e-02,1.357450359345892255e-01,3.030054993296592281e-02
6.572883728881268560e-03,8.363109679518369172e-03,1.942979810752976100e-02,5.244407826801052294e-04,1.228648312739688683e-03,5.870006589592397786e-04,6.252211824331764534e-02,2.992256322669972074e-02,1.753960510186752253e-01,2.460578483331611610e-02
4.342550566801864700e-03,8.205382821396864368e-03,1.976052421733898515e-02,3.382466928834906546e-04,1.071066112065331916e-03,9.267291265290418523e-04,3.311492471607996313e-02,2.016498568718987083e-02,1.680325524969155659e-01,1.890116407411891047e-02
2.747477947572105755e-03,8.035714185719104383e-03,1.770920761706732890e-02,1.383235759356332391e-03,1.339611115383212200e-03,1.044895608648385059e-03,2.700159048096349712e-02,1.096157941135835444e-02,1.302623511104016030e-01,9.032270086952993646e-03
2.524291651056302307e-03,7.855595296081976583e-03,1.460924009978563712e-02,2.547196506489192002e-03,1.482220020801432647e-03,7.242949285890818226e-04,3.558804822511719979e-02,2.743150526092735103e-05,8.819931951085571709e-02,2.650145399042678693e-03
2.029937502342081448e-03,7.665681533429916268e-03,1.066745639679760396e-02,3.742290207206691154e-03,1.432965649850793640e-03,5.800435838883671565e-04,3.620048910079810139e-02,1.220249459860692047e-02,4.831666457554938121e-02,1.032580852860789586e-02
9.661677133323873885e-04,7.465706689167132121e-03,6.459792347831295675e-03,5.103182996192658256e-03,1.429223259947593480e-03,7.133242773392423812e-04,5.205571002384298471e-03,2.331301281644479473e-02,4.161634106073506742e-03,1.204851073292171823e-02
5.655826654571122214e-03,7.254289755136427917e-03,3.307102293539938148e-03,6.832678202858866005e-03,1.508754530786627929e-03,6.192423559978727735e-04,5.392437394365497821e-02,3.090460148565821880e-02,4.315425066543739085e-02,1.118803383148282010e-02
8.711228545211315011e-03,7.028927550071233273e-03,1.258699500726340875e-03,8.639383084405956661e-03,1.561738075516515799e-03,2.622433934818324606e-04,1.010028258357633518e-01,3.246207780228269751e-02,8.335634046916354234e-02,1.077658102747407025e-02
7.879040671969291323e-03,6.786301684446280694e-03,3.524323073074462709e-04,9.712235168419883560e-03,1.568712826203711667e-03,6.641774736236161908e-04,8.943860984351489907e-02,2.465939562666981735e-02,1.076819039781162224e-01,1.007555588898989898e-02
4.132625896968442243e-03,6.522279727916680675e-03,7.198047605032537911e-04,9.222966846882287364e-03,1.580478637552684218e-03,2.780955378057688339e-03,2.166030187976621807e-02,6.797634486448731438e-03,1.135479929827118151e-01,8.098120864078234629e-03
6.530616124858876648e-04,6.231321450163493023e-03,1.906068199627913612e-04,6.365942587406574205e-03,1.606425010293821868e-03,5.745493349616079964e-03,4.148713891103950058e-02,1.457238285689801613e-02,1.059764830333023711e-01,6.714408434382679834e-03
2.359837922455846671e-04,5.906606363052460500e-03,1.667917818487880217e-03,7.291822993401484657e-04,1.622511103787205918e-03,7.156039660756093393e-03,4.593902226339268563e-02,2.881482113426252559e-02,9.963275620840157665e-02,8.546278425412834334e-03
1.137872454843028968e-03,5.541531690827039384e-03,9.011285077376845337e-03,6.295548639608091086e-03,1.623645760661065985e-03,5.709234431135425634e-03,4.181692159201715921e-03,2.883398384642741133e-02,1.096729382878521147e-01,1.436904383345171884e-02
3.343246080556594620e-03,5.129782018578497513e-03,1.479490116456365530e-02,1.181862680356657314e-02,1.620590641467338977e-03,2.772422168185724109e-03,7.193138773613831638e-02,1.458733814515886934e-02,1.330301183093106909e-01,2.234165993255729163e-02
5.561178308660270041e-03,4.662504663568081166e-03,8.798738778556667445e-03,1.419653341847771678e-02,1.615394014133842348e-03,6.597307558510800496e-04,1.268416340467803660e-01,6.577925655787689868e-03,1.481812863157759008e-01,2.796709830311551459e-02
6.800587738330058848e-03,4.128521208328710633e-03,6.079579878660721325e-03,1.338032336046169821e-02,1.602539652860460835e-03,1.419417902129467015e-04,1.445784126251518920e-01,2.214336664515226608e-02,1.409300770153206483e-01,2.734162777029338839e-02
5.838511736694943985e-03,3.520850723153506976e-03,1.592063783632188465e-02,8.260279349503978422e-03,1.580463894177184603e-03,4.101338584235998067e-04,1.095215426012934590e-01,2.292863826831132920e-02,1.189765726790663336e-01,2.227134836551634620e-02
3.260687601462586294e-03,2.836953673049320401e-03,1.560093861813392074e-02,1.910647089562985627e-03,1.551159592332025747e-03,6.163777166297353550e-04,4.345048658934557578e-02,1.165806352339599124e-02,9.477018345173415792e-02,1.875258872288523837e-02
1.280828993201686391e-03,2.065360342707378127e-03,1.297436430495093294e-02,1.201468040769352284e-02,1.514781130191696600e-03,4.869801110973360049e-04,1.504097278957706139e-03,1.917624451809318842e-04,7.142328123083570290e-02,1.897260768569700856e-02
7.288632064178159498e-04,1.185368977518135676e-03,1.235658926724212021e-02,1.334292031389781516e-02,1.469767584836487043e-03,1.382922616389630822e-04,9.915776729360165423e-03,4.376382896864775864e-03,5.441347629953031256e-02,1.872697279480331836e-02
1.501257125460291010e-04,1.961637835452153492e-04,8.261112353881322826e-03,5.356114353270246750e-03,1.415374447481224877e-03,1.410867139564553276e-04,2.593494732378478357e-02,2.068220312945792064e-03,5.891363925104248223e-02,1.409669425095057965e-02
1.727872045911646968e-03,8.812237824663076650e-04,2.776305171757561911e-03,1.238906851679738141e-03,1.351652293426178382e-03,1.025049081804236010e-03,7.777599270259786396e-03,1.487060655851582579e-03,9.386350344298087511e-02,6.846036559794758079e-03
3.992741435168003367e-03,2.065517878510429121e-03,1.628900892899177999e-02,1.595453286601010434e-03,1.278268932326834381e-03,2.162768464528754681e-03,7.877922595670242001e-02,4.779490867352815392e-03,1.460083078216814767e-01,1.865453299215546644e-03
4.532632941126380800e-03,3.420501550916792491e-03,2.713401241041184242e-02,8.359598061275733821e-03,1.194513050598213031e-03,2.160589443752692230e-03,1.159920432736563922e-01,9.837197820862919953e-03,1.834866357035631057e-01,2.202326485386881406e-03
2.565752989486189302e-03,4.923151390911225007e-03,3.380046550548890943e-02,8.951641520867173810e-03,1.099851299863304540e-03,7.491018725759664067e-04,8.714755208898949945e-02,1.637063517817296046e-02,1.789356016304780583e-01,6.773222579413188185e-03
5.233193777031679584e-04,6.448489477080238119e-03,3.586308284902610388e-02,3.380229630341517050e-03,9.939408847475207035e-04,7.388024483088008812e-04,4.089971073177287031e-02,2.078356177824639342e-02,1.376628800391997975e-01,1.078362916007307576e-02
2.892404474047270517e-03,8.050505115358907657e-03,3.448277632496844075e-02,9.110033908466066716e-04,8.763837654899087667e-04,9.586132589603124816e-04,3.948574069177469142e-02,2.090751268866844481e-02,9.606865510016836252e-02,1.000841808184770899e-02
3.791254838191289358e-03,1.000161863946406361e-02,3.429207089594527025e-02,7.174555445207678878e-03,7.467301652255177577e-04,3.555818618241315596e-05,8.635048558292449106e-02,1.767105108942385386e-02,8.067824951876681472e-02,5.933381919322470305e-03
3.292484536193894442e-03,1.219335341931069086e-02,3.849375793009997271e-02,1.845306321828843119e-02,6.045912156712720999e-04,9.272554612724926261e-04,1.375959113512177923e-01,1.176530609757205949e-02,8.284276557090718140e-02,3.318839543566240273e-03
2.027826298586071167e-03,1.403566402393037656e-02,4.370100271161946742e-02,2.774608369445331554e-02,4.496416330899454038e-04,5.170871554639573046e-04,1.585278469980186400e-01,2.423602729062460971e-03,8.770858220531871363e-02,2.799473971733705460e-03
1.862194581154265078e-03,1.573916379051953918e-02,4.491804113719960467e-02,3.054495186395784351e-02,2.816018460938566280e-04,1.045016283650484351e-03,1.445586016038084010e-01,7.798419531342413655e-03,1.012418840094017336e-01,1.057066742685559271e-03
4.927547470247691484e-03,1.858496337037197216e-02,4.257503447250415157e-02,2.530558186741320437e-02,1.002599989281237347e-04,2.638515089317312358e-03,1.027157877817553022e-01,1.040345827254235411e-02,1.198258314296158922e-01,1.951265513222814277e-03
1.013408305784068222e-02,2.211374587215746493e-02,3.942463970667735990e-02,1.435522969867436029e-02,9.456548755834696702e-05,3.354467460521984995e-03,5.045796364568704007e-02,1.225509916843964958e-03,1.060874976579470191e-01,1.552112152622439015e-03
1.230888217708522858e-02,2.291082617355201176e-02,3.544440688028881181e-02,4.002005584613646874e-03,3.030619370089933221e-04,2.844502689927456366e-03,2.770346001119800353e-02,8.456172558146514764e-03,4.526429727664007391e-02,4.688856163857734599e-03
7.765209803081967593e-03,1.975783645484717119e-02,3.176275401540502863e-02,1.207221965976484424e-03,5.252836366074222461e-04,1.385818034460754595e-03,6.252176178193495637e-02,3.929978911314750863e-03,5.925556632408870289e-03,1.224998317405190384e-02
3.497747542159371161e-04,1.740911261971914148e-02,3.341933196625697378e-02,2.850408969674820929e-03,7.610547749627700033e-04,9.611151163669445253e-05,1.217036168578148336e-01,1.057783481539904293e-02,2.852504646346812507e-03,1.417405738307329563e-02
5.315195985022206152e-03,1.951458543478215221e-02,4.139656255244208993e-02,3.647380378531422766e-03,1.010272663767309339e-03,7.367292577166315503e-05,1.377343161715161579e-01,1.528757764606969612e-02,1.720983813957262243e-02,9.013539038085856617e-03
4.158178678551708099e-03,2.123892949309493308e-02,4.771364986754799559e-02,1.804501621575665959e-03,1.273115672037662726e-03,1.015331549285716697e-03,8.470983660236609813e-02,7.005984815710401825e-04,5.297477909670773172e-02,2.055831032470658692e-03
1.050492131972377129e-03,1.694988970574445863e-02,4.491879514051246719e-02,5.421901549107369621e-03,1.549385065713235763e-03,1.454768669834423118e-03,2.463075649789376285e-04,2.791830151135952717e-02,1.858077705646128952e-01,8.122197346635871102e-04
7.025222172999084046e-03,1.103396143496810332e-02,3.556946775672233801e-02,1.545419352656900863e-02,1.838039202508047736e-03,3.380509909906766761e-04,5.979995856958048722e-02,4.603316913657717890e-02,2.671912214905524663e-01,1.534534222576064075e-03
1.147208176844866263e-02,1.133819184564623973e-02,2.727702372349472340e-02,2.155762986252095226e-02,2.138590540773150327e-03,1.957918411872352094e-03,6.854016498582761463e-02,4.266064653303511950e-02,2.488568448680361089e-01,5.040971079336904227e-03
1.402672459441311852e-02,1.660280761377780009e-02,2.269057908208503213e-02,1.966162254749327307e-02,2.452139147058868870e-03,3.636917513894614724e-03,6.088000110799511588e-02,2.841504736955406327e-02,1.916566222867702451e-01,3.705682881791593376e-03
1.728611704978103708e-02,2.077740279272828269e-02,1.778818298138112181e-02,1.187789604446966470e-02,2.778418547726159947e-03,2.600085239099206823e-03,9.822477522500798475e-02,2.707290990939770908e-02,1.537786130179279454e-01,4.401791452474574685e-03
2.361633034691518196e-02,2.434838000924326867e-02,7.091734696497772363e-03,2.767762382148339015e-03,3.113518279538070224e-03,1.295821135466153871e-03,1.802693650478313370e-01,4.293671546150659712e-02,1.249690431455237616e-01,1.365574016858325974e-02
2.997919087612045327e-02,2.981800352691718961e-02,1.057378750802051397e-02,5.583287838174162167e-03,3.456143911083450933e-03,5.351295116934843589e-03,2.176032943934153863e-01,5.169260118435883150e-02,8.708754555564993116e-02,1.727960125121326754e-02
3.113623064699708176e-02,3.081820050163507421e-02,2.978426201687750519e-02,1.218258835398647669e-02,3.812656048177610110e-03,6.840995895832925090e-03,1.413871453387709476e-01,3.542864177495577693e-02,6.683251182721508532e-02,1.631137727349375732e-02
2.803428327993751079e-02,1.884917458164965878e-02,4.154829830084096065e-02,1.300071175403007956e-02,4.183846049967141281e-03,6.152245377212499713e-03,1.256322884163513058e-02,1.015942572399065359e-02,8.962895019531899599e-02,1.658993510362156629e-02
2.589506212335080867e-02,1.603491510010467743e-03,3.900364782212453058e-02,3.856424556161384964e-03,4.553844957422907916e-03,5.637731722433113324e-03,3.949329889131229093e-02,2.645705745456545816e-03,1.231925871878561257e-01,1.857864405801112895e-02
2.477000469319179388e-02,1.707515184880267420e-02,2.278901037799936982e-02,1.124381717694457501e-02,4.918093380139746187e-03,6.418984137707299531e-03,2.628757021749493494e-02,1.312914340910916952e-02,1.133230514124719951e-01,1.690568973106032491e-02
2.053340512965282430e-02,2.212722268173537149e-02,3.498493885058947227e-03,1.991865455334005178e-02,5.307775836269330513e-03,7.817264016538150173e-03,1.241253754369921053e-01,1.829077606568840775e-02,6.311069079173285690e-02,9.560528056178891829e-03
1.396909787834132999e-02,2.111316560839778672e-02,5.998597978154892631e-03,1.351132940519323561e-02,5.730743774054462836e-03,8.734372677320903153e-03,1.571962203234920363e-01,5.283497415503672114e-03,3.637318701234622254e-02,1.914681543906769125e-03
1.004981979260214514e-02,1.669995583625671562e-02,6.620700808662094081e-03,3.641006824885581732e-03,6.117810167114432103e-03,8.444179855716439989e-03,1.194299977253200640e-01,1.231505833365115384e-02,7.537015204405672630e-02,2.072295725358562534e-04
9.543839057118100322e-03,8.500840960678719693e-03,1.542707853015257320e-02,1.962206266525281725e-02,6.447534802311158907e-03,6.922395141357562398e-03,6.310031905314032741e-02,1.575708022761672378e-02,1.466316503550810502e-01,4.324536237292093445e-03
9.104153291577935653e-03,3.389288664781434177e-04,4.204228175710778004e-02,2.583433361943025808e-02,6.864206421733735908e-03,4.736739510518366524e-03,9.072210805435977285e-03,7.786268863175760738e-03,1.859106275553543686e-01,9.385894799137432104e-03
7.963062295951957303e-03,2.171102178405321173e-03,6.820701944335184896e-02,2.098931803730991197e-02,7.414441650254278288e-03,2.284302727748844901e-03,5.740748131739201177e-02,5.967849244327538133e-03,1.691237888517851395e-01,1.247131061255151580e-02
7.644681758237627592e-03,9.400693924743775158e-04,6.588661898327471955e-02,9.543443751981559031e-03,7.788092896136899861e-03,9.226330045780472113e-05,1.171465192481661866e-01,1.404100565023308836e-02,1.178513584142036330e-01,1.415119182863667710e-02
6.910921654869373564e-03,4.397786861624231915e-03,3.378985393306802726e-02,1.451842870599580121e-03,7.873761576664608380e-03,1.233518898445212612e-03,1.173076116271970643e-01,1.727683107370873300e-02,6.489241022101470413e-02,1.417970271274377435e-02
3.380680081857104918e-03,1.634320207783193646e-02,1.877822181300073390e-03,7.683795794374808329e-03,8.332206914727323388e-03,1.756947009878816754e-04,5.538933797566995137e-02,6.950020849615639457e-03,3.990446875953409384e-02,9.921220548008230500e-03
1.465176362545196663e-03,3.090201782590530979e-02,2.202273611265292974e-02,1.083829811234078913e-02,9.437887975265821933e-03,3.961327592940246979e-03,7.068791612235400881e-03,7.787069944448056849e-03,6.145741569268893534e-02,1.097823501874105366e-04
4.123341745166229921e-03,4.046712252763728923e-02,2.826404692785161946e-02,1.360488577793089390e-02,9.718803579631370496e-03,8.360512892901754770e-03,2.823796799271761221e-02,1.611128038384961048e-02,1.156896399603373621e-01,1.140059987991712785e-02
3.787996700017403056e-03,4.561781543819333484e-02,2.263701099896163818e-02,1.315056010415342237e-02,7.979093463812602510e-03,1.163054389594410723e-02,1.687226997303653553e-02,2.075889752635773008e-02,1.594874342122776789e-01,1.685667460355637706e-02
1.917676870329660874e-03,5.261876932352942821e-02,3.166153535534768984e-03,4.914960125836283569e-03,6.184134663158117814e-03,1.353767840440157216e-02,1.310814063394746126e-02,3.057048000440958091e-02,1.625381379746471400e-01,1.188394731056719583e-02
1.055772275327204789e-03,6.124269725805520093e-02,1.289526549969247961e-02,8.964456958965298650e-03,6.692847364986963428e-03,1.478834010209935206e-02,4.857355014961899781e-02,4.206577535187387001e-02,1.330387375981647580e-01,1.484261436678640037e-03
5.522652998939008191e-03,6.337863686835550070e-02,6.895031204246452466e-03,2.088678788018639293e-02,7.111199367174626113e-03,1.481775600688527671e-02,6.009605097595620976e-02,3.748892227502945845e-02,9.352156763215939417e-02,5.273683557432668964e-03
1.706011042733990984e-02,5.755949569928974635e-02,6.573563078010172256e-02,2.554530465856987356e-02,2.779455547448824240e-03,1.174371884623373954e-02,3.968413253328685608e-02,8.266377398210861954e-03,5.057641855282039856e-02,5.447890377093734214e-03
2.977198477151989098e-02,5.288426330567403549e-02,1.221223816392763145e-01,2.260051663069167355e-02,5.880492791846439297e-03,5.470191662515546879e-03,2.301607620474814889e-02,2.772920005048066378e-02,2.087600217429680383e-03,2.070741189798935324e-03
3.612539148009315249e-02,4.997795913636266657e-02,1.339708763014010040e-01,1.466860591791483218e-02,1.330397231414903562e-02,9.641714927566605569e-04,3.170005538294264763e-02,4.563998119872456072e-02,4.303385783544344534e-02,3.167334566623265617e-03
3.556257936875125564e-02,3.266188322949820783e-02,9.900982424386918501e-02,5.484032989787962324e-03,1.531464847111114330e-02,4.003233702781196224e-03,3.227601761974023542e-02,4.215925727052977773e-02,7.330339448145256620e-02,1.108650651035227030e-02
3.102531346591402839e-02,7.176337397910772554e-03,4.845385841482337946e-02,8.044042198011522055e-04,1.189863842588095508e-02,2.225804861241205152e-03,1.442903826718877278e-02,2.989425324575283385e-02,9.519796378573897044e-02,2.112289740550950257e-02
2.258887495478601945e-02,4.937293939512974600e-02,2.028686378946162328e-02,4.045891178463844641e-04,5.488925656672533591e-03,2.987246753743740858e-03,9.210149325157961087e-02,1.462702345303171919e-02,1.250444135187637751e-01,3.018475732210261497e-02
1.134258541696202272e-02,6.673437921176829379e-02,3.132330973847059774e-02,1.049343048888566783e-02,3.163336412957435274e-04,7.602114072424542152e-03,1.427892135443884492e-01,3.449266738019903314e-03,1.599773294680268410e-01,3.447795230249953852e-02
3.409173956054056820e-03,5.709450958080549560e-02,5.870893936267958246e-02,2.079458181317389923e-02,2.768871582163988897e-03,7.261641533125215951e-03,1.297085160143753579e-01,1.516482322749174161e-02,1.743231703739245575e-01,3.236852397656837799e-02
3.232361760934986464e-03,4.055764820795083880e-02,6.449987504877030542e-02,1.762575364456691121e-02,2.625771833020921608e-03,1.833046989558250513e-03,6.637589690862207015e-02,9.338714185550312658e-03,1.514625798027546544e-01,2.633142447015208304e-02
7.499831180517268006e-03,3.432129738263972607e-02,4.668814722126123085e-02,1.486489396107984213e-03,2.267184715550334909e-03,3.813230657886680815e-03,1.324346834942608658e-02,7.296129726594621431e-03,1.064169394436837029e-01,2.025025676300968094e-02
1.061261608560797737e-02,4.149635536647422462e-02,3.914272186668107251e-02,8.359123824089665852e-03,1.469237685393399561e-03,5.058363686594641133e-03,8.149918443499433451e-02,1.310655613037535125e-02,7.219326037771506277e-02,1.521827289968503798e-02
1.131487461614372018e-02,5.512430790836637950e-02,5.565484501480291030e-02,7.493693181819492677e-04,1.073519157277279951e-03,1.451567751433555532e-03,1.048040916589230154e-01,2.204365386342621320e-03,7.673478622617996292e-02,1.134752981471230139e-02
1.012050328646300380e-02,6.342635487641599956e-02,6.718276194635521004e-02,1.438483375069550367e-02,3.351315511949829861e-03,4.876740735246242429e-03,5.625559456495652505e-02,2.583950462844403911e-02,1.288272068708408435e-01,1.102603490616862678e-02
6.036187633334268859e-03,5.775955301731402342e-02,4.508025852821442858e-02,1.052287327083048160e-02,2.347244196534293247e-03,1.093370978822493476e-02,3.058383939032231769e-02,4.028152548112472892e-02,2.039590183629202413e-01,1.464554184744870646e-02
1.485113164890199296e-04,4.091712255297178663e-02,5.673899662611168668e-04,7.867819711104975106e-03,2.497235661117371669e-04,1.268257116167147147e-02,7.299816914386665634e-02,4.138616653641334631e-02,2.501854558532529138e-01,1.649224140825223534e-02
4.376486569956599022e-03,2.474731683531409404e-02,3.832181097016254534e-02,1.780345181969775550e-02,2.893677379068702198e-04,7.497900523986675281e-03,3.320164314058279831e-02,3.348856860039305106e-02,2.340438259474026395e-01,1.140587020415513748e-02
3.536301724679596220e-03,2.023910747666243445e-02,5.228985238884745895e-02,9.714318022405502365e-03,5.135903038241847879e-03,2.517175987385543955e-03,4.679281740847051480e-02,2.141895062287238125e-02,1.764904283839833499e-01,1.806337327395556936e-03
2.936582288129019423e-03,3.020573947313407587e-02,4.993942839808579448e-02,4.151396522169299025e-03,1.107769343877253176e-02,1.261979027992379647e-02,1.151623144252357234e-01,1.282518943671964382e-02,1.255410237588361899e-01,7.421342915758920127e-03
1.454007461022195288e-02,4.626652293686824707e-02,4.515414335801067047e-02,1.309079439801110779e-02,1.490212886764907298e-02,1.995001835760078918e-02,1.573764672238961715e-01,1.132992547658071524e-02,1.035911774093049437e-01,1.601245802226085313e-02
2.775812172633344843e-02,5.438087739294394235e-02,4.625643686441693880e-02,1.847405769369996065e-02,1.528213675028382117e-02,2.389655326377620667e-02,1.688214554423159430e-01,4.001012780192499986e-03,1.001270327586486070e-01,2.556818781785517164e-02
3.610839878042190754e-02,5.052803900692805217e-02,5.730979983927621951e-02,2.002638874294711269e-02,1.250118039365376126e-02,2.467301529006471830e-02,1.446568964450340999e-01,2.442746436343877850e-02,1.057199026725538227e-01,3.512698592837888018e-02
3.781764123858100124e-02,4.718608427393913840e-02,7.750837193540253967e-02,1.232229270045862718e-02,9.167850656722955488e-03,2.391694333731225752e-02,1.102790863376650748e-01,6.383328004793681343e-02,1.215879088088338833e-01,4.302129126507813622e-02
3.842640438119336588e-02,5.610862414424030997e-02,9.280421281884412843e-02,4.476750868115053302e-04,8.635333922607157583e-03,2.424635913274119162e-02,1.126471504241084304e-01,8.684129976902393855e-02,1.281053143692744978e-01,4.889522466989178195e-02
4.059365758291458987e-02,7.010577282518594411e-02,8.074005238306540544e-02,2.696888214423370702e-03,1.049440327169285855e-02,2.620407421274538462e-02,1.615989430429622675e-01,8.477380641478489409e-02,8.427526419309187833e-02,5.234659796170954699e-02
3.873645497729119591e-02,7.153927511204585810e-02,3.680840988584051926e-02,1.307371335578981497e-02,1.039985270954651292e-02,2.701138213590098189e-02,2.019393060071419943e-01,7.553234585804637080e-02,9.882137798082333766e-03,5.180985532164932711e-02
2.941070330477865702e-02,5.503327384191080557e-02,1.479259640831909542e-02,3.609890744175427851e-02,6.118715779662705322e-03,2.367245677465856443e-02,1.642954969008472155e-01,7.569125654516224710e-02,9.079078524426668906e-02,4.472879414833353523e-02
1.859032124683780707e-02,3.292782137407416349e-02,4.856854214948579801e-02,5.129088480895649393e-02,9.305024826443497685e-04,1.675487386540956344e-02,4.734025939413219475e-02,8.110592393491707075e-02,1.157079233189819839e-01,3.013860735956785594e-02
1.277937122677384046e-02,1.897864442327397080e-02,6.018706358236491916e-02,5.338295993531416705e-02,8.845430433102382129e-04,1.010179079437883119e-02,6.790000219224735789e-02,7.739620467710812968e-02,1.218066314559054231e-01,1.324733318705433038e-02
1.055609105943617829e-02,1.283993191428593403e-02,5.205781076454243234e-02,4.365855321956259305e-02,4.408490158851982067e-04,6.812502070142496639e-03,1.059258723513397810e-01,5.931617242758088077e-02,1.471609260017182619e-01,2.942462685876066301e-03
7.701952245737391130e-03,4.045197293118407526e-03,2.125852807240029979e-02,2.394730579463076256e-02,1.512598633256205267e-03,6.291044521794767960e-03,8.387627527306586173e-02,3.573091529817356421e-02,1.572323791167155593e-01,9.162740934557165977e-04
4.122324218523702732e-03,1.051152600401815754e-02,2.448420456379954771e-02,7.569601545746797600e-05,1.149278694363423635e-03,5.743065634673598721e-03,7.547620023346370000e-02,2.035632237796930130e-02,1.211502533742577215e-01,1.942286501617797312e-04
1.986807622748358679e-03,2.009790174534414539e-02,6.292968866957746044e-02,1.764472459405592303e-02,1.603896491706903547e-03,4.027491294282517856e-03,9.830517814974405744e-02,2.102696828214198690e-02,9.389741305180945852e-02,4.546340217683823501e-03
1.770242543427596755e-03,1.477040283711154867e-02,8.117864939856184181e-02,2.458519400033298136e-02,4.527877062638894536e-03,2.725586149599975964e-03,9.531663563357897773e-02,3.413941979410321098e-02,1.419848847383730073e-01,8.353794792083507614e-03
2.507182965131952816e-03,3.613297743562246186e-04,8.219261854119470911e-02,2.664719930323292130e-02,8.257120449889254060e-03,3.359580034690194759e-03,4.013080949634243583e-02,4.629567087642549178e-02,2.388878442066709740e-01,1.001818969523222622e-02
2.850107280551201355e-03,1.132475431259926182e-02,6.537327712292501092e-02,2.936359221985675866e-02,1.008690865734203530e-02,5.357830844419808440e-03,1.210263288875505251e-02,4.532177933920890356e-02,3.002457401460877917e-01,1.278992361266458391e-02
7.702027685815443243e-04,1.022755511435356236e-02,2.768004961309537826e-02,2.886051995693514685e-02,9.397789752102331945e-03,7.206453248006336638e-03,1.741832265598152255e-02,3.166664994607153172e-02,2.829598659105206360e-01,1.449071154664179940e-02
5.149238608503044386e-03,1.074795687951254691e-03,1.515093668330850032e-02,2.036853492324332271e-02,7.130196423078503758e-03,7.533909741202909904e-03,1.046934988436674582e-02,1.428120722238701221e-02,2.046370532232029971e-01,8.256493020257271720e-03
1.308790540936431886e-02,1.674370484340690496e-02,3.678639006758828434e-02,8.639616121538705451e-03,3.607569087234506217e-03,4.576033812892840898e-03,2.468143232974753451e-02,3.743604610978186215e-03,1.033574214904141725e-01,3.524881297125400346e-03
1.886461174134650837e-02,3.059101409415558581e-02,3.272068482736610606e-02,1.795286076366374699e-03,1.088833796161811814e-03,2.334008022826419837e-03,2.865138753283155357e-02,2.611113096008933765e-02,1.774967951819886661e-02,1.006747998064687170e-02
2.055029266334732624e-02,3.721795316755854843e-02,2.421556840112123674e-02,3.403734702136361912e-04,5.186709280214948752e-03,9.250787405255379500e-03,7.705627193877649661e-03,4.950570701596928441e-02,1.930904951798958352e-02,9.414195558408776018e-03
1.975200582530134072e-02,3.475074039396301717e-02,3.076913330311067951e-02,1.054027709527826382e-03,5.935407805128176985e-03,9.711167067251070747e-03,1.817043446980753235e-02,6.050220202594597946e-02,2.021343833842264431e-03,1.095480022382279428e-02
1.709418481548332508e-02,2.631794094504749659e-02,5.247692192732118788e-02,5.012557918086396787e-03,2.760353752480829929e-03,3.418596454469542169e-03,9.115407319379052742e-02,4.997545171876211639e-02,3.852708871265496382e-02,1.891598462086159851e-02
1.089943103481223925e-02,1.770838092391711915e-02,7.454023159409441102e-02,8.596173585318373986e-03,1.496166513920589624e-03,1.625577436621470761e-03,1.655869283369200418e-01,2.337486561781431868e-02,5.849145487631376289e-02,2.620852167469129787e-02
3.243429422655733259e-03,1.410361481780595186e-02,7.970300315633237209e-02,6.267364226006764613e-03,2.959740384829233351e-03,7.061667486724075311e-04,1.662035166956890297e-01,3.198422838782130368e-03,3.386623489779742868e-02,2.586286391082745148e-02
1.398069530853860484e-03,1.712034454509839265e-02,6.132268037716793324e-02,5.096456219394952802e-03,2.730475889554170453e-04,7.183515901378717886e-03,7.898266270326520511e-02,1.292867920906828720e-02,2.336783578430656066e-02,1.777723293851411063e-02
8.786685559533179146e-03,2.324205454068040480e-02,2.777254038459091301e-02,2.226104508420442829e-02,4.159592985116960379e-03,1.113647005652670247e-02,5.848488486539614450e-02,4.601754645099751396e-04,7.126814536512650344e-02,4.996889388139596003e-03
1.980825866105867875e-02,2.721526035613733296e-02,6.879050888209625042e-03,3.686901532060778142e-02,6.738773132088300352e-03,1.064208650093215192e-02,1.764997906647327586e-01,2.193295121950122883e-02,7.201300221605476393e-02,7.044430016463816384e-03
2.662994107824092835e-02,2.667067763948368156e-02,2.885839360443823512e-02,4.087803352676583346e-02,6.208896546955373560e-03,7.842309467643179821e-03,2.067784606299361561e-01,3.676567722810478167e-02,3.150635914532810833e-02,1.047583187406427203e-02
2.586129444922141349e-02,2.129719901345196800e-02,2.231890423907436499e-02,3.124965589989370240e-02,3.985384578385377588e-03,4.628413377926798855e-03,1.528839538383688912e-01,3.774604370345005511e-02,6.599602786911401044e-03,3.401390570753544049e-03
1.804350589672749222e-02,1.157871929298598737e-02,1.854633416099343152e-02,1.263332778516944484e-02,1.919623857094483353e-03,1.718491012940608379e-03,9.104802033106570991e-02,2.721235989661769175e-02,9.684335615950135159e-03,5.059381271146147149e-03
6.749897833876854214e-03,1.642837691482873421e-03,7.027122891613281352e-02,3.731095533739953087e-03,1.086747321036674345e-03,4.423361195669729554e-04,7.234926684467966884e-02,8.404019714305434666e-03,1.747709292737540873e-02,5.163130209579018352e-03
1.701747781704831056e-03,2.068691142860114903e-03,9.523619664955659814e-02,8.890997566477029657e-03,1.948398550605023004e-03,1.387006032668887650e-03,7.762160423075889493e-02,9.948007061474719442e-03,5.447317753947566316e-02,2.705617634117159394e-03
2.124844718743656904e-03,2.539516570168375530e-03,8.131262087715677989e-02,5.621346665588477717e-03,4.211296453268406105e-03,4.086943637634264182e-04,8.524235269370170065e-02,1.435913960320707103e-02,9.363586181573677059e-02,1.253264594238662731e-02
6.169114544210604380e-03,1.278824835326603654e-02,4.745386372829603350e-02,3.797770741865897064e-03,6.693173828817244181e-03,3.359301115754447127e-03,1.212880025270950124e-01,4.981956187342954576e-04,1.401644702796299713e-01,2.134365881376387372e-02
1.999388133908214238e-02,2.612648219182839293e-02,1.159084314921094393e-02,6.395698573603485898e-03,8.148496416213905219e-03,9.563774664080856858e-03,2.053742456830701668e-01,2.914421816866911291e-02,1.920254540272238741e-01,2.834164033180431100e-02
3.348102620014138664e-02,3.944656064448153615e-02,2.406218661830179448e-02,7.205193184164399370e-03,8.287617138608037101e-03,1.522866211396983922e-02,2.823832129777984479e-01,6.243125433534210678e-02,2.297956689204045388e-01,3.142550515648451920e-02
4.072490844193178694e-02,4.700746746251620312e-02,5.595589034726638350e-02,1.833412982186494004e-03,7.761719551567782156e-03,1.646572011838406957e-02,2.686887535845297048e-01,8.644981732296420918e-02,2.355025230735165453e-01,2.967519852425546528e-02
4.082714398787932325e-02,4.576773167835369166e-02,7.217325507764375814e-02,7.523944890791327278e-03,7.276904252932251370e-03,1.281390445091454104e-02,1.705661206763726956e-01,8.468646642838174865e-02,2.166024227749954734e-01,2.552766161367030912e-02
3.759879394179019979e-02,3.975656375908724616e-02,7.125549528874072780e-02,1.763805662593951815e-02,6.988179114045259960e-03,8.314499154883017371e-03,8.919590808765530399e-02,5.554924975235032980e-02,1.951030282078149158e-01,2.137900442249560454e-02
3.320172928787874095e-02,3.455366944140685070e-02,6.988472156726339979e-02,2.600134872042113646e-02,6.690066084222250423e-03,6.716653566681446072e-03,8.365286453122100507e-02,1.911845971967640612e-02,1.773601524244850236e-01,1.696579709075073453e-02
2.725265643465633880e-02,3.106840527827533713e-02,7.713539616509056118e-02,2.807602709448388939e-02,6.266784181190324099e-03,7.229297923453808193e-03,1.018306026958966798e-01,3.345798391723871310e-03,1.524975435265076007e-01,1.168472454491287747e-02
2.198307858048016011e-02,2.783464722939884770e-02,7.293595107926645338e-02,2.093408734241932606e-02,5.847208673350159924e-03,6.806752091366590623e-03,8.107929146373303586e-02,8.140234656202192942e-03,1.108718048649915133e-01,6.911233316590535171e-03
2.139321837091489459e-02,2.522783315823916295e-02,3.273594097412965004e-02,8.916693016728550678e-03,5.595289508184473487e-03,4.909089974162538991e-03,4.007909975102093292e-02,4.579056365006485725e-03,4.930171767968200697e-02,4.553650312659494881e-03
2.516076002998766936e-02,2.485070774189306400e-02,3.037342290479198501e-02,1.062302350959538986e-04,5.371738792393415673e-03,3.658263275452594034e-03,2.836379353356843769e-02,2.489387202931589958e-03,2.023200037301024420e-02,4.839126326810258560e-03
2.955994188789011837e-02,2.830935936369841782e-02,7.130948688977083172e-02,8.123569352175325116e-04,4.863817921325953343e-03,4.588994666789104719e-03,5.695701887468718888e-02,4.182380728877086590e-03,5.839429412405901937e-02,7.211405368732747186e-03
3.393181157482248050e-02,3.684308482697954551e-02,6.405190887186934523e-02,6.630828019702838388e-03,4.304514127459766436e-03,7.518383440567487017e-03,1.160171163996138316e-01,3.012261485303233816e-03,3.700145738731032419e-02,1.227221379130113109e-02
3.973433187686267049e-02,4.670338626231637646e-02,2.857370022844129415e-02,1.980577972216008426e-02,4.374740155933324638e-03,1.131040177346834784e-02,1.876068393053490768e-01,4.656680955615127675e-03,1.163689185752506128e-03,1.998788057038484306e-02
4.274752951626838160e-02,4.605035030290675901e-02,3.171943824831318683e-03,3.175702532668580463e-02,4.584182681691336206e-03,1.360922403921193541e-02,2.150581038257028677e-01,8.194661780507383336e-03,3.556567501491736394e-02,2.678250885943617154e-02
3.356024906777439754e-02,2.563678137376184177e-02,3.877846766475371784e-03,3.436437678997036893e-02,2.850852946400263786e-03,1.143105082449997513e-02,1.396277452637546268e-01,3.465753604868206540e-03,1.486498129988279016e-01,2.822788924803580277e-02
9.907246547543911014e-03,6.772779195413299730e-03,1.580359693578775246e-02,2.585405123201679409e-02,1.634308458673069259e-03,4.473040333616392500e-03,8.605599623290894826e-03,2.264013710073055699e-02,2.506831049014163759e-01,2.425578686454987060e-02
1.631769080068463246e-02,3.171880127991390241e-02,1.688082350522998945e-02,1.146476782786467856e-02,6.122266142552563843e-03,3.293049005975251693e-03,1.231091388191334485e-01,3.258369801553372830e-02,2.673299215292362918e-01,1.869776491680599784e-02
2.941349904732552117e-02,3.799530527326219764e-02,2.890572183203111208e-03,3.496740282091823776e-03,6.901245223430735147e-03,7.161958327750808651e-03,1.361144067344436659e-01,2.719763189451162438e-02,2.134413498869245085e-01,1.545905540302211847e-02
2.521539280601730118e-02,3.033563563066425661e-02,1.258217496692387236e-02,1.643924755272805835e-02,3.542076769258282846e-03,5.829407574224192493e-03,7.384093598403035363e-02,8.291700952045163997e-03,1.392056880428628185e-01,1.714872743189032461e-02
1.378087899095962153e-02,2.071576656425181545e-02,1.739196351909391008e-02,2.422540981306054234e-02,7.489352824843636437e-04,1.459014056718997785e-03,5.983279941555244563e-03,2.145232106934944621e-02,7.063879834076851327e-02,2.269984428514215669e-02
8.622581049132599720e-03,1.891926603629068976e-02,1.263244133940129299e-02,2.360819876126754591e-02,2.298803152275847184e-03,2.332823095440365608e-03,1.428567883126106303e-02,4.913041397820609030e-02,2.425344608434827631e-02,2.446594146266738504e-02
1.353762249197897755e-02,2.681019713595313853e-02,6.841830393568095782e-03,1.619477069118183815e-02,2.430134225924394345e-04,2.534080290044191108e-03,2.509911508155980228e-02,5.385761583655524626e-02,1.936940174705990836e-02,1.520031325020660372e-02
2.002250705450093343e-02,3.631200530807897342e-02,6.489357318352584163e-03,8.266433044646959855e-03,2.584356273953657829e-03,5.698793776334853782e-04,8.719070851661017696e-02,3.291182803906651105e-02,4.613924382063910867e-02,4.288929018263130076e-04
2.013293070723260955e-02,3.742767615211267662e-02,1.327460231577016515e-02,4.266537473894999564e-03,2.761540853427417539e-03,3.182614981854188074e-03,1.153412600517125380e-01,8.608295422495998439e-03,6.150549932694635014e-02,1.055197728727996428e-02
1.812743569599875593e-02,3.013191770827225793e-02,2.435759706514380521e-02,4.492711849631900352e-03,4.772210892163146782e-04,2.819904658800732964e-03,9.972664188262750362e-02,2.096136942768131103e-04,4.155336825464416711e-02,1.260809266827387851e-02
2.241218302288158770e-02,2.333106383127266439e-02,3.274139078592016444e-02,9.962383886977408190e-03,1.229814002455734048e-03,1.669798262120423572e-03,9.298005284066336584e-02,2.730604609609279913e-03,1.217716802631195125e-02,1.430080607287326222e-02
3.186236706674920593e-02,2.284401620403632427e-02,3.088580171239087638e-02,2.282187410419989418e-02,9.915722885807591418e-04,2.724396905889797660e-03,1.383564507532502319e-01,2.826130714055072497e-03,1.028382411518481698e-02,1.901295564426635706e-02
3.975147814520380019e-02,2.614048391972169372e-02,1.645568425880218622e-02,3.852769400122803278e-02,1.879131654683460035e-04,4.935324462798104141e-03,2.086309466225113596e-01,9.991481890010959002e-03,3.452902260496694409e-02,2.222265695215981315e-02
4.495106205911592046e-02,2.793397688696246800e-02,5.242029003242169166e-03,4.561909720734599188e-02,1.175294183811768770e-05,5.074167444004710689e-03,2.364811648872001681e-01,3.598850947761603192e-02,5.259479049931340550e-02,2.174631894760176848e-02
4.994040664499375254e-02,2.564370980786054993e-02,2.394931488222116697e-02,3.959101433876625886e-02,1.044777393808615589e-04,2.878439878042735739e-03,1.963133086842791530e-01,6.465868090857358752e-02,4.395490328485647524e-02,2.025720504707420599e-02
5.299251016487684096e-02,1.902902738569773114e-02,2.998882097434657154e-02,2.971838926276255607e-02,6.533664447824706796e-05,1.481824712814267973e-03,1.422589532303041304e-01,8.063526145157277891e-02,1.530520763542197668e-02,1.746027878732585650e-02
4.947448666894611186e-02,8.644504297073092591e-03,2.017004957567001405e-02,2.514555629927926403e-02,3.460868362370027188e-04,2.607870937189728146e-03,1.448802192278872969e-01,7.437556588620188036e-02,1.934073254778932022e-02,9.780712011575628043e-03
3.852550910970805459e-02,2.803818233307510486e-03,2.499261963692716790e-04,2.202195515797238795e-02,4.889754219170094679e-04,3.881956504306110969e-03,1.960505270119063670e-01,4.837812279736735527e-02,5.201355954582191632e-02,2.229785300283074092e-04
2.533399856998789015e-02,9.927301951559403675e-03,2.027464280749811942e-02,1.282423338720169864e-02,5.620851840076833677e-04,2.793650017471608748e-03,2.264490750975796107e-01,1.824703649179286805e-02,7.405964068671648526e-02,2.684644341685579489e-03
1.679584054116108754e-02,9.493147079611494871e-03,3.690313155741473117e-02,5.158131549331107773e-04,6.817856817362794811e-04,1.349485722825379073e-03,2.151885277770518579e-01,4.667045200670193877e-03,7.547768066475693538e-02,7.024378844413388563e-03
1.463641666059745453e-02,5.151989491886018076e-03,5.087273116340740309e-02,6.711824970208947819e-03,8.155763442753397215e-04,3.539379644715240011e-03,2.099141811539187996e-01,1.367138767284459613e-02,5.773041224363904822e-02,2.083163856577658138e-02
1.393460633782853814e-02,3.431745358877782461e-03,6.051456358010003783e-02,8.000986541108852032e-03,9.096288617796040570e-04,9.098607230274471241e-03,2.349909636547269087e-01,2.831042399118893771e-02,3.693725418888636758e-02,2.781770052245841063e-02
9.422547133181378987e-03,5.652531743253455879e-03,5.765575421467963868e-02,7.113261956307433478e-03,9.824960586315317247e-04,1.330091580686029555e-02,2.533801301047203802e-01,2.886890707341233445e-02,3.002518952116797063e-02,2.618190912549651223e-02
3.980222422228989025e-04,7.961462149718141409e-03,3.757322089095252449e-02,3.831278378684105802e-03,1.057353542522622989e-03,1.294196357973472801e-02,2.263874946016111722e-01,1.357897948140582636e-02,4.168401508994578480e-02,2.073481763668768088e-02
1.128116329634282905e-02,8.280264779921091972e-03,8.981179033623122240e-03,2.341218805307058830e-03,1.117430127187532844e-03,9.462424674178179090e-03,1.548012146843881498e-01,8.006933937559333053e-03,6.228357980450006937e-02,1.418394641199430956e-02
2.261187692739390423e-02,7.937422516921250129e-03,1.228625874029507480e-02,6.197630916387291550e-03,1.156832020130230815e-03,5.713385254739475685e-03,5.746736707374960895e-02,2.942200656069403342e-02,7.496221985102395624e-02,7.230574087997322999e-03
2.736239657925068625e-02,7.021983099834145162e-03,1.866785369478109885e-02,2.802172126942915724e-03,1.202263373564757326e-03,2.423381160013945296e-03,5.083100174026790319e-02,4.600795321409859723e-02,7.040418444193741188e-02,3.100479298062249530e-03
1.981653181549930531e-02,4.124532188891659457e-03,1.403592630114393683e-02,5.961649991848437871e-03,1.247554657466996971e-03,9.662092746422555438e-04,1.531432818773692528e-01,5.184896571757453138e-02,5.693929571263504907e-02,4.491115536825176710e-03
3.733942240812352341e-03,8.568872264125924204e-04,2.722952227609861352e-03,1.573550036175814029e-02,1.241096373409555573e-03,4.026801271404859515e-03,2.222670426465228333e-01,4.731427008036132725e-02,5.022625538931595190e-02,7.961513285075719898e-03
8.969558171839938851e-03,7.838813684420480824e-04,1.455908305301842863e-02,2.429690534233538285e-02,1.205861731796238102e-03,5.655602913632032033e-03,2.333336306359364287e-01,4.060580052324647138e-02,5.514726794650932212e-02,7.826266881738359535e-03
1.111199286503264730e-02,3.586561139587740067e-03,3.157088393566392232e-02,2.925750039838779029e-02,1.252613483383641568e-03,5.836007708949603710e-03,1.912757015405714411e-01,3.721025616399107477e-02,6.449323158820928492e-02,3.780474715203321727e-03
6.225940366191761929e-03,5.430021382107687658e-03,3.553057254540258059e-02,2.831332690979321623e-02,1.332824297541911496e-03,5.584520262995418781e-03,1.378118554394852646e-01,3.638471479196310476e-02,6.942651961962875706e-02,5.105995175693545975e-04
1.136546693440039545e-03,4.827416360742271297e-03,2.177679188782980640e-02,2.313532015176201356e-02,1.209105006634279529e-03,5.347065973524987859e-03,1.151788714686529241e-01,3.771752842542687445e-02,6.492156580946284450e-02,3.459026295560568669e-03
1.525007163036776452e-03,3.729403837881816071e-03,8.559533980790776314e-04,1.684111137757666674e-02,9.741047375749999331e-04,4.843156425193787668e-03,1.312284952762847179e-01,4.127366993312296672e-02,5.266426533231140933e-02,5.972724286806482645e-03
2.975308128544180801e-03,3.492319614775315963e-03,1.317394448516004575e-02,9.234401002292677921e-03,1.181953118018388591e-03,4.498034430054252339e-03,1.732245149148727015e-01,4.332799448754864197e-02,4.056263111301803420e-02,8.769537840284943181e-03
4.841565362651188524e-03,3.416544414572339657e-03,1.493960817792402973e-02,7.571808663226497777e-04,1.904637627930196812e-03,5.036496142502878970e-03,2.234257891930046536e-01,3.959682685771942490e-02,2.999728954611059067e-02,1.132927682678694717e-02
7.107131970653613080e-03,2.915468871845840367e-03,7.808560636758461043e-03,3.035060723584708225e-03,2.292958639366000136e-03,5.092332237561955112e-03,2.337749822736055472e-01,2.932827578747876709e-02,9.474477001430187811e-03,1.125441002130296402e-02
8.596902507686332226e-03,2.498959150779560094e-03,1.651387842376844965e-03,1.834196605316986816e-03,1.821344356999014900e-03,1.903344017517298982e-03,1.418275031705951983e-01,1.388543402799260681e-02,2.535807149102267677e-02,5.757588391578194464e-03
9.245096276883427167e-03,2.386362825024379922e-03,9.073214763560441889e-03,1.081177622262737351e-02,1.089677054480230924e-03,4.239264346896946464e-03,3.449876374667011636e-02,1.912590330479663637e-03,5.584724418525852108e-02,3.977436218535513462e-03
1.036015672775301467e-02,1.912330595838671434e-03,1.645841907955658198e-02,1.718515531107827135e-02,7.256874051329372140e-04,8.993068382799378896e-03,1.760364822711095178e-01,7.885916297498178629e-03,5.983781561157266310e-02,1.269450193211466883e-02
1.199165459363553746e-02,1.092211464990480631e-03,2.908070958550423163e-02,2.082318801996634050e-02,6.751435458665383960e-04,8.947673217682923508e-03,1.960726189755688242e-01,1.660398705219795316e-03,3.722905310101010112e-02,1.698790849008932624e-02
1.241603807696082563e-02,1.211345016932030821e-03,4.303630174878091130e-02,2.357489931870311584e-02,9.386390480633247059e-04,5.176240143865373095e-03,1.398802960012057728e-01,1.599991842867253336e-02,8.244535992587839063e-03,1.798564941912391205e-02
1.127032485327870807e-02,2.023072386148379656e-03,4.011350813281486238e-02,2.068931450244743467e-02,1.571639815399329763e-03,9.694972664157893230e-04,9.972276587653461366e-02,1.761389338707679969e-02,1.006059120405433573e-03,1.739566616287312878e-02
1.082606659716029568e-02,1.357163350802047122e-04,6.610196764476280497e-03,6.253326109123513200e-03,1.947708061173677053e-03,1.598928014321869323e-03,9.255328696372019937e-02,5.594961550045617418e-03,2.792112426308396636e-02,1.502308263020558574e-02
1.272661021116668588e-02,8.266489222705387246e-03,4.345129551025810055e-02,1.438062945966217532e-02,1.468158888944729248e-03,2.326282681810081313e-03,7.848044532627145020e-02,3.696954658534143574e-03,8.763279631899655031e-02,1.142603086240697070e-02
1.483104397962252061e-02,1.961101864587087504e-02,7.767528259493172715e-02,2.694473638020692882e-02,6.595558957625831777e-04,2.004099179478219250e-03,4.392630398276627796e-02,2.189097000278684285e-03,1.419382703988598116e-01,8.995511501483985720e-03
1.291285855863481130e-02,2.767808520238477718e-02,8.007278143513998914e-02,2.470572466488625898e-02,3.721267010148555606e-04,1.535109493701135308e-03,3.479126675616516645e-03,9.557444348299790060e-04,1.576061769630510701e-01,8.645612581657163842e-03
5.586896575801862837e-03,2.826571291704482389e-02,6.385532116300918215e-02,1.534668830464062939e-02,5.351667203796433127e-04,1.290298297741621341e-03,3.816090700387242407e-02,1.171501111539305882e-02,1.352504349792643945e-01,8.819150249567952668e-03
3.817971892503170626e-03,2.161479398703497479e-02,4.703113729829800499e-02,8.431421869254999285e-03,5.955582766178975796e-04,1.121626123733944665e-03,6.905375064565628940e-02,3.251928802649730471e-02,9.851535885985202023e-02,8.934008304624213234e-03
1.073295356299017525e-02,1.133660251241134023e-02,2.946006388864168268e-02,2.965021937455231040e-03,4.608737626869436471e-04,8.790918426727981072e-04,5.332227210706854542e-02,5.409329020768097879e-02,6.313191949836806371e-02,1.015985930232691029e-02
1.277621249489612962e-02,2.805478110703068378e-03,4.135055002777649966e-03,5.890306618365611854e-03,3.690071220220004946e-04,6.226516463057770161e-04,1.601049075940323349e-02,6.704180858534854182e-02,2.895848487567935156e-02,1.178150919597866289e-02
1.002378005410024288e-02,4.745715750552140797e-04,1.804284821110810691e-02,1.282101094104365867e-02,3.703938752553184201e-04,4.248290187508789906e-04,8.057701227456492976e-02,6.408527227110175084e-02,4.946601509466714598e-03,1.058204311519397520e-02
5.434880233564792947e-03,1.190513433532761588e-04,1.384094134058483361e-02,6.152633244097836795e-03,3.553088321323870651e-04,2.621616727416211040e-04,7.991465654849017053e-02,4.727540117151164678e-02,3.138628115148057313e-02,5.243160727998225253e-03
4.075814047505240713e-03,9.223734228642962996e-04,1.848975105512835893e-02,1.402105362763157378e-02,2.984838806623797127e-04,1.033671308703636605e-04,2.692516359917372648e-02,2.979728677401655146e-02,4.389011271528490965e-02,1.673626403952018860e-03
7.363141046270090320e-03,5.774036206525237202e-04,4.965039321484424062e-02,3.202328741643376692e-02,2.506887503417267902e-04,3.958720621691135737e-05,1.760206070125325262e-02,2.166996353377663095e-02,4.646286923433670668e-02,7.244960561967933067e-03
9.819803358105300833e-03,8.643517375561899155e-05,5.370913801231814305e-02,3.455647415110954523e-02,2.240951108673589149e-04,1.510190881956384673e-04,2.543277947196609379e-02,1.934318111512944166e-02,4.669317594758382040e-02,1.080967286712487645e-02
6.256069851572957502e-03,5.166692263335720924e-05,3.615116824186643402e-02,2.459234456159007862e-02,1.947694553385086972e-04,2.338920637397249268e-04,1.743376434186276122e-02,1.625323845436439305e-02,4.279470111240612357e-02,1.221230090392586357e-02
2.749245614729986954e-04,4.447974804895203811e-05,1.720056441765346542e-02,1.325068008920466875e-02,1.563925618946928188e-04,2.938319348030269101e-04,1.217279610128053739e-02,1.510616105605730453e-02,2.786794018050499713e-02,1.098951875536776507e-02
2.436221045849072068e-03,2.131534904280716312e-04,3.559044939273339151e-03,4.918770739279664655e-03,1.197651192096686962e-04,3.329843621493562751e-04,2.592767679349846505e-03,2.087646401375686106e-02,5.949317288928770639e-03,8.994130967861245496e-03
1.609854285197140616e-03,5.184706561411234638e-04,1.007549207416702508e-02,3.203582496223854499e-03,8.766063635406241882e-05,3.528028087978091502e-04,1.238388137985893360e-02,2.903301142681269376e-02,7.953225928788866528e-03,1.012628407644875807e-02
7.102704875820565859e-03,7.321673560115802811e-04,2.408241477011636295e-02,1.139950577757088516e-02,5.476268899160118713e-05,3.471967460677710671e-04,1.257896248180956703e-02,3.075458299450393659e-02,5.263003875361669040e-03,1.493567376263346159e-02
1.026375071666220384e-02,9.412359458935422134e-04,3.369903616729449936e-02,1.499242494874066835e-02,1.945314643963066319e-05,3.107263875760840665e-04,1.468505552243281990e-02,2.537876948629001761e-02,8.790216967669760295e-03,1.890322237102965916e-02
1.191018989828722396e-02,1.204706775653474008e-03,4.048810518841328837e-02,1.079439909464643271e-02,1.600439454024139732e-05,2.629319696662240453e-04,5.618843219603996547e-02,1.918191220415208648e-02,2.647513211755085638e-02,1.883996646932595623e-02
1.292783092964554931e-02,1.472578358031847653e-03,5.105811583539944520e-02,1.075441060368625360e-03,5.097785389146718778e-05,2.247515852968605963e-04,9.117107752947488375e-02,1.481515161075921787e-02,4.623639150892698557e-02,1.725197319956952788e-02
1.131930126679632324e-02,1.707981704117214096e-03,6.312280468412306833e-02,8.987504757722079851e-03,8.661186497712731948e-05,1.612543041960441659e-04,1.104206758512881331e-01,9.450035830514381952e-03,6.648768074958313901e-02,1.667684881628858293e-02
6.218566422395028701e-03,1.930910333980520414e-03,6.211468864565128367e-02,1.564209067797380989e-02,1.232328947928865430e-04,3.339373079131934213e-05,1.100870767375381754e-01,2.589673759464087774e-03,7.904177036868066664e-02,1.372359778232713420e-02
5.996274065700727849e-04,2.153416525510002278e-03,3.798108986087226496e-02,1.813851474893886026e-02,1.602480596660711709e-04,7.621176845551614525e-05,8.041303784089835760e-02,1.324391509708683530e-03,7.520147519624002797e-02,4.496387497358462701e-03
3.243103076256356916e-03,2.349530968867400219e-03,1.011391085507991686e-03,1.644337729148094562e-02,1.973790144014295341e-04,7.196212188188599911e-05,1.881944688194726531e-02,8.053433945478362735e-04,5.460234746243092935e-02,6.904776095997390215e-03
7.349836807755633430e-03,2.502901868974754650e-03,2.638307346369157119e-02,9.051138631470339799e-03,2.347224339078181842e-04,1.207332069232004685e-04,4.796072415071844786e-02,1.893629346261968723e-03,2.439971310842378033e-02,1.210680843609789926e-02
1.332049266189900931e-02,2.641230391921853098e-03,3.188303460337595790e-02,4.109510505300888183e-03,2.721308911882567476e-04,4.333220647874148901e-04,7.894827824750239031e-02,9.143122071677316914e-03,5.389457527283349203e-03,9.093054265041422557e-03
1.697335119280080074e-02,2.777625577491138822e-03,2.115069090986661238e-02,1.783982574854994438e-02,3.091873844729255486e-04,6.184131728343107226e-04,6.303549136430369737e-02,1.661291012361115413e-02,2.342677969407891067e-02,2.934266454983491899e-03
1.314227832250389021e-02,2.850978418258712493e-03,5.682779239807782788e-03,2.614268285365233674e-02,3.455986223266174513e-04,8.101158339124279941e-05,2.741450888416068279e-02,1.566680689100058421e-02,2.161300317146996192e-02,2.319996766912764581e-03
4.452782171866087081e-03,2.830410734348393510e-03,1.007430649650959548e-02,3.078579904911814963e-02,3.812115903961043532e-04,1.483780569889578752e-03,1.678165071948940421e-03,9.093914099693137243e-03,3.470630512282908524e-03,7.009207218157663746e-03
2.497679372003310905e-04,2.838141700378541375e-03,2.777134444960685858e-02,3.830876417050362026e-02,4.156328284316297542e-04,2.206953863203125511e-03,2.532192503282779811e-02,8.627706149401587199e-03,1.548346183290130740e-02,1.267191353954628431e-02
3.519360793596074729e-03,2.938727432411810270e-03,4.553937697236640214e-02,4.679302677244492892e-02,4.482405988450805976e-04,1.382415007189562650e-03,5.477898374065279935e-02,1.817995813786359854e-02,1.920639622642212815e-02,1.902289979813436352e-02
1.112630903374541361e-02,2.874472137128781732e-03,5.504324657301963575e-02,4.496427206924873132e-02,4.788174441655907343e-04,1.187661068026887168e-04,8.508358932762997984e-02,2.715813126897130905e-02,3.829751297513287606e-03,2.310427291242917944e-02
1.527915358901479892e-02,2.504142644171998729e-03,5.107261474779511978e-02,2.902731244367915547e-02,5.075478977323937511e-04,9.107250012485353791e-04,9.512739681075726983e-02,2.332556303671936074e-02,1.851308017751107302e-02,2.127843805575872771e-02
1.414385303597020735e-02,2.383357037700339388e-03,4.021692033950279715e-02,1.040653592706536693e-02,5.337907270784319905e-04,8.094932495494367754e-04,7.255855074247373471e-02,7.648104984350598615e-03,2.833964657611819093e-02,1.394573707104445476e-02
1.159642273474894431e-02,2.857926201295541216e-03,3.252144154509890861e-02,3.336424994866546076e-04,5.560895144323394542e-04,5.695211147882968394e-04,3.324363276788317584e-02,7.722589727531180455e-03,1.674263093789791698e-02,6.727931506206483343e-03
1.126247942322315676e-02,2.694150159202968273e-03,2.407415827740823355e-02,3.564424107327994647e-03,5.747774663826571602e-04,5.797678693932800447e-04,7.837119966931281601e-03,1.339059497155769066e-02,3.916690893612904609e-03,4.646335937815503775e-03
1.293983068676010303e-02,5.511700907536530971e-04,1.688372914100723767e-03,9.350601064939527765e-03,5.920437836485904597e-04,6.272541519949355673e-04,1.006804825485150406e-02,9.477287355204568053e-03,1.336260758860525859e-02,6.806136783411386067e-03
1.443122131490477342e-02,2.102799792605433357e-03,4.822927886689673538e-02,1.924222806719784809e-02,6.064179783419442870e-04,5.432776218336485882e-04,2.821007753588148509e-02,1.303317313370163386e-03,7.827282712658379868e-03,8.453965037069514910e-03
1.402558846812535474e-02,2.307045686337387286e-03,9.139478332735558042e-02,3.057356719063473310e-02,6.125091977352178614e-04,4.221803819363837513e-04,4.562537886616660487e-02,5.133601658769046915e-03,3.052871721829635530e-03,6.764603181494271977e-03
1.152522292273027403e-02,5.664232733687915057e-05,1.030457285929931022e-01,3.944472454007314638e-02,6.127884998017712201e-04,3.456223060671585615e-04,5.787156652450087951e-02,6.259007409534222098e-03,1.232732990514145976e-02,3.512174323704094197e-03
9.186398994069889037e-03,1.697477847944254496e-03,8.315676631002168195e-02,4.102882603303099202e-02,6.184676473822012721e-04,2.735263575349923450e-04,6.958495367621658767e-02,5.384424055833390496e-03,3.090950448999749481e-02,2.538629045228672082e-03
1.022235606565875983e-02,1.496542316965937883e-03,5.583218413047343065e-02,3.340241692014579017e-02,6.243762665022684413e-04,1.704827965748885823e-04,8.394128339027950858e-02,1.041958846745927487e-02,4.490356252401189741e-02,4.873968698066777350e-03
1.455404380156273374e-02,6.901387554165100240e-04,3.784918107756330558e-02,2.147660644115720677e-02,6.064381843945697596e-04,5.834393288822858751e-05,9.856459274332592113e-02,2.321961432717404433e-02,4.651729682116839681e-02,7.247007121381119320e-03
1.817235012378305703e-02,5.198662885427839716e-04,2.553057033123047256e-02,1.215978808321971881e-02,5.752610055163266331e-04,4.234891470374769042e-05,1.077407417503824794e-01,3.597334777577324005e-02,3.480993719780527823e-02,6.592174227039483692e-03
1.782421411783352908e-02,6.470465837371947287e-04,1.173532688102200787e-02,6.916872611750322399e-03,5.829288626870339236e-04,1.378023271993810534e-04,1.048488452134213461e-01,4.076472077468930311e-02,9.303400142618543575e-03,4.377201778808530522e-03
1.443073602125778156e-02,5.220241716317077082e-04,1.917103953708282783e-03,2.294287422517451470e-03,6.087210584707176356e-04,2.339535823733762904e-04,8.550789342865405818e-02,3.804337443364471522e-02,2.633712020573350868e-02,3.839979303851088696e-03
1.151110826695962708e-02,2.901372358803170053e-04,1.590375969584084323e-02,5.164909917904066637e-03,5.414804414716452644e-04,3.243247917286183959e-04,5.384922726939106452e-02,3.385060703596242532e-02,5.647485001148102451e-02,4.557984145642708131e-03
1.150249951996531496e-02,2.117072711572528447e-04,3.733200678273376066e-02,1.701796329049785547e-02,4.231920835142516900e-04,4.026166362789703303e-04,2.329603465711744051e-02,3.262003742247393534e-02,6.127877271439785556e-02,3.266107912275735287e-03
1.390339491357097529e-02,2.244167297393737603e-04,6.028946543604625508e-02,3.133743138752648205e-02,4.958847809114848206e-04,4.686355564342075362e-04,7.120736185532924867e-03,3.480857544709477919e-02,3.928221805830711677e-02,6.014724636161951615e-04
1.638646654278125975e-02,2.068431104656382759e-04,5.897965901975550651e-02,3.998880334787408009e-02,6.865379186690862001e-04,5.225477285628346786e-04,1.141599931572124214e-02,3.889651580759320715e-02,1.738203792469587491e-02,3.484107954757242193e-03
1.654679846725707476e-02,1.867065067343941622e-04,1.903225179744458262e-02,3.279923696252601273e-02,4.348723084618808139e-04,5.621025688239108045e-04,3.207207107128045437e-02,4.168252725422338933e-02,2.639215620471728821e-02,3.025766074322276677e-03
1.239943350523386480e-02,2.201528900270319352e-04,3.835483024270150421e-02,8.991424778451103522e-03,3.704244895608475386e-04,5.853473825916818106e-04,4.668088474532972737e-02,3.670882207267891356e-02,6.367575041687985327e-02,2.981958372746350110e-03
3.582934113329247754e-03,2.928046494422990626e-04,8.046426727907152188e-02,1.874290687038423706e-02,8.640350858843493052e-04,5.920061834167997163e-04,2.299748697460959890e-02,1.863969544485635788e-02,9.346754988218586302e-02,9.189406313188232950e-03
6.540009338871650632e-03,3.751323247952014482e-04,9.701876403679692007e-02,3.499459056170640958e-02,4.314967337702412540e-04,5.822574627367985102e-04,4.204970158276907788e-02,7.218090670091993101e-03,9.068144624981293311e-02,2.014993810065072999e-02
1.243591218783278614e-02,4.695503523836490095e-04,9.678073322150590463e-02,3.465874351062349368e-02,2.992608946631019349e-04,5.560914269102187500e-04,1.065497395736278580e-01,2.597044484322798275e-02,6.910082269532522026e-02,2.664710407265581671e-02
1.175772721088946468e-02,5.851746579230436736e-04,8.595219943814991215e-02,2.377521380027059622e-02,5.109809957286889177e-04,5.138776126232299634e-04,1.286337736978455382e-01,2.864064579840547298e-02,5.654813242952535374e-02,2.294172466117099310e-02
7.221446884532470127e-03,7.155891876867946904e-04,6.392060175290292801e-02,9.995866627435852358e-03,3.073214822448500582e-04,4.566612968772315356e-04,1.097287605127583721e-01,2.117925323596463877e-02,5.671368839917073634e-02,1.347450520637107942e-02
2.449968469762494380e-03,8.505368444813191185e-04,3.289580256654686674e-02,4.224348083185126487e-03,1.398510083830101062e-04,3.858755079362075676e-04,7.709227644418160941e-02,1.422524518090491005e-02,4.978019152170429229e-02,6.166002886177050432e-03
1.057457320880808831e-03,9.866323725623462985e-04,3.300473162341600614e-03,1.789774673845544867e-02,1.161531143611834843e-04,3.031592357521694162e-04,4.656697374705309755e-02,1.072400712229106511e-02,2.435163868871984688e-02,3.457492723348332998e-03
1.806124341881550511e-03,1.122188442433255488e-03,1.164771889851747878e-02,2.477624298826784990e-02,2.362239318767613352e-04,2.104379404819769963e-04,1.973055230161284770e-02,8.838734241237204692e-03,4.654240583360603339e-03,2.422240837608137781e-03
2.839982695229220557e-03,1.252301866871463653e-03,8.671151817724296468e-03,1.762719261110335528e-02,3.930351383063973884e-04,1.099462094312350299e-04,6.197642625870233846e-04,1.007258266910207242e-02,1.321051178140882423e-02,6.837218298242344824e-04
1.287762870273137863e-02,1.371378368164994938e-03,3.522073514278158818e-05,7.743592217830620392e-04,1.361323213028825920e-04,4.117143377166260763e-06,6.331484911235793489e-04,1.618491049423337325e-02,2.491524567945956059e-03,7.913324990525226737e-04
2.332160350188910991e-02,1.475639245423699536e-03,9.690134159633856034e-04,1.041404011050961476e-02,6.379545230693950192e-04,1.045107225797483420e-04,2.145615603828743279e-02,2.217453362499944777e-02,2.070500742393464530e-02,5.899127873828680525e-04
2.831814801983599181e-02,1.562144319424509315e-03,1.405396852751781243e-02,8.206779474317861880e-03,1.112744517334484642e-03,2.133298012725105581e-04,5.606411204725508801e-02,2.098302601758285368e-02,1.897637216284320597e-02,4.642894843206023942e-04
2.638416367059953638e-02,1.627731926156731918e-03,3.178489510320998274e-02,2.706015573657037654e-03,6.593436883490545741e-04,3.197111311905387679e-04,7.996505135694859101e-02,1.362628893674326311e-02,1.343939125426067043e-03,3.333610108054392562e-03
2.059985781113022815e-02,1.669554766441376688e-03,4.832460648767022277e-02,6.630448035905017398e-03,1.106035610511026015e-04,4.210802893908943863e-04,8.261820673494112144e-02,8.048198400627440408e-03,1.897438866174798455e-02,6.901634847361810300e-03
1.524028023319410827e-02,1.685731892529939270e-03,5.940645504381163178e-02,1.776523228498250520e-02,3.308670535969115653e-04,5.149876496599344175e-04,8.149210748567149720e-02,8.729296433859215151e-03,1.786224816910036636e-02,3.672416656275715591e-03
1.273307862531885756e-02,1.675273635657627573e-03,5.659931760541718482e-02,2.434246953864444007e-02,1.077180991420226768e-04,5.991624041761060837e-04,9.750418913534669718e-02,1.234333721129580834e-02,3.250802087295393255e-03,8.520097012052080601e-03
1.255936343057188764e-02,1.637755143714246303e-03,3.351945545218195516e-02,2.168948674244156744e-02,4.072681874089650906e-06,6.715639308543184518e-04,1.230356435770431356e-01,1.346621047163965544e-02,9.253885318677976257e-03,2.075532918216500128e-02
1.264779917952368361e-02,1.573209713527435162e-03,3.711048316456744267e-03,1.588598223670878787e-02,1.044061825063286020e-04,7.304336003845840128e-04,1.328686948939675483e-01,1.061574854081321836e-02,1.519273100413515674e-02,2.364922022984380923e-02
1.187611935956855644e-02,1.482463110315406386e-03,3.940070856959094342e-02,1.421535973539100883e-02,1.618166334746808978e-04,7.743388536366452692e-04,1.188490011577973404e-01,5.766351098400696734e-03,2.273875666845270524e-02,1.853480896076946036e-02
1.107426244430525716e-02,1.367548156442593369e-03,6.037374129154151475e-02,1.770162578275787102e-02,1.100266666612864571e-04,8.022063774220274113e-04,9.420597830991241095e-02,9.181142063722688143e-04,3.411996736758490800e-02,1.203016091638390607e-02
1.192015680258109653e-02,1.231150638281302244e-03,6.248518698830467233e-02,2.193624998693615921e-02,7.008384606447349901e-05,8.133468044040440817e-04,7.039440239731105387e-02,2.995789218844089555e-03,3.848212424837111484e-02,5.509544570867910135e-03
1.439282712924584706e-02,1.075523632112048789e-03,4.900571425361364281e-02,2.185032619328083903e-02,1.147909003405023378e-04,8.074713864117706716e-04,4.759226446599678501e-02,5.326108652191464433e-03,2.736571541692415371e-02,3.104508413558053868e-03
1.556001220992577622e-02,9.033863615963120836e-04,2.645579217791626386e-02,1.555950390308552880e-02,1.720838148044268230e-04,7.846987652241998838e-04,2.400443891595643864e-02,5.212489945801689409e-03,6.254795625302142156e-03,1.137733384082954477e-02
1.349313949890826488e-02,7.200909459599909475e-04,9.563505354043422974e-04,4.672444087628546336e-03,1.191070234801568751e-04,7.455511993057858553e-04,1.164960849794251935e-03,1.977890427392124673e-03,1.487990208754386146e-02,1.342291626222111289e-02
1.115560660879416979e-02,5.315494630540150292e-04,2.445081500629663757e-02,8.457080975754661598e-03,1.889718217439436670e-05,6.909410550985567228e-04,1.867553381205790120e-02,2.934946553695989141e-03,3.345886729195849535e-02,8.322928305321532216e-03
1.164077133105217293e-02,3.392442393253285908e-04,4.909074564934851753e-02,2.171362454251291388e-02,1.192255836523554882e-04,6.221481579809779025e-04,3.301632718729961835e-02,5.541048308094318094e-03,5.007474018850237990e-02,1.718623820954331928e-03
1.253692179021902511e-02,1.441811342964124042e-04,6.895506920767438541e-02,3.061211696436877405e-02,3.404342246056270933e-04,5.407882552661372752e-04,3.807510047533757547e-02,4.937429714312941385e-03,5.937659569935313519e-02,2.326814881355694122e-03
1.148489997651262404e-02,4.268815961198710166e-05,7.448864731857009203e-02,2.926802963378693015e-02,1.165951902166361884e-04,4.487732621554466777e-04,3.256786196849984633e-02,7.204292819645632777e-03,5.433759535874409241e-02,5.836630767711583311e-03
1.244042017864539947e-02,2.089843241105082650e-04,5.989094345697824201e-02,1.793388149059875133e-02,6.702668041382210543e-04,3.482644260060756150e-04,2.284255943807423500e-02,1.664313777290799337e-02,3.683085608703757369e-02,1.118350129769470243e-02
1.862190139682950649e-02,3.637456493417139244e-04,3.167384350776296376e-02,5.462462304707914676e-03,1.149167933128401355e-03,2.416196216919615203e-04,1.953321034752290505e-02,2.630500399206546491e-02,1.491798669777939963e-02,1.620774924227198419e-02
2.454215723634459168e-02,5.201936633695845901e-04,2.627118745681398908e-03,1.205304234207878926e-04,6.842787861828390685e-04,1.313360045087415425e-04,2.663895770886133552e-02,2.622644816439077819e-02,7.720660572043900813e-03,1.775634071531558347e-02
2.278929420244949627e-02,6.468354449972473939e-04,1.773987714212138522e-02,2.195601018371448609e-03,8.552864181740366546e-05,1.998939816809066272e-05,3.810739703948776841e-02,1.694950912495613374e-02,2.910205833835865022e-02,1.539125995087583729e-02
1.438799917848862173e-02,7.033114050319058848e-04,2.360487312113664082e-02,8.281500378217841393e-03,2.916872866927068477e-04,8.982806939138621334e-05,4.863002396753798168e-02,5.505630591641086022e-03,3.993547848110055171e-02,9.540280963343352946e-03
6.373037322672140542e-03,7.460481696368133006e-04,1.222658190500804098e-02,1.669557621400256583e-02,5.772982116433865061e-05,1.955705497163573675e-04,6.103776276901057285e-02,5.981774258455464094e-03,3.138597435012875636e-02,7.190715147219372194e-04
2.740829413295933249e-03,8.547087025198445197e-04,1.187629707060397673e-02,2.547853003928329113e-02,5.349797560238656920e-05,2.947997711635906614e-04,7.455913447585957310e-02,1.704490994782136004e-02,9.904527172538464194e-03,7.482808211401886962e-03
2.770155200090928041e-03,9.048250209498066117e-04,3.668808186632861040e-02,2.998481348194614524e-02,2.627519643898625765e-05,3.852435707438065025e-04,7.330669262874563163e-02,2.059761141091721870e-02,8.731513607487912179e-03,9.423065547920760412e-03
5.461177226765965599e-03,7.190936784631865326e-04,5.071682484174810240e-02,2.530583395457971368e-02,5.472750221210996509e-05,4.648502392455471435e-04,4.279260215416057223e-02,1.006242120370652582e-02,1.933187533087767432e-02,3.892024457092730857e-03
1.038785398307216085e-02,5.574057651802039959e-04,5.154460184515069487e-02,1.035547333237770047e-02,6.935066257423078335e-06,5.318373676505740036e-04,4.049630329749341791e-03,8.487001040624071041e-03,2.935965099252203087e-02,4.089451319043246706e-03
1.494316685564973241e-02,8.071442822034805096e-04,4.522386444907935260e-02,9.138743567997952011e-03,4.642623851822676813e-05,5.847340261632082668e-04,3.472004547908461025e-02,2.099830597257890466e-02,4.104186758927382689e-02,9.356778465952774251e-03
1.538106038733558223e-02,9.203959575073195933e-04,3.613836160462095132e-02,2.263611945721517860e-02,4.359155689422831948e-05,6.224152705645691992e-04,3.276498255592898839e-02,2.013097638277980272e-02,4.431857345905082513e-02,1.078403460056799081e-02
1.105658724803169728e-02,2.465450315857076197e-05,1.948423522086714654e-02,2.429536125182613429e-02,5.019462222232411462e-05,6.441281567273892013e-04,1.207936780592824139e-02,8.709812254412994947e-03,3.143596275155327580e-02,9.153790392944841786e-03
4.623895534969520334e-03,6.421321817676129079e-04,1.168429325765969404e-02,1.972158199225597028e-02,7.579517924656687777e-05,6.495086533612353698e-04,4.726319706502422197e-03,7.361093365828927024e-03,8.061227715526584833e-03,5.261047759948066747e-03
1.522938499713556281e-03,1.717204047740216897e-03,5.113589241781173883e-02,1.853517997718197308e-02,9.577207252781859371e-05,6.385890671888037363e-04,1.005328023004231110e-02,2.165937473048937245e-02,1.381786497700452504e-02,7.509467631695753353e-04
6.584520578968789534e-03,6.640913914155111876e-03,7.794632390275064993e-02,2.188485311400734101e-02,1.048672011867427591e-04,6.117958259401007565e-04,1.125727831872192289e-02,2.566249551554537420e-02,2.585337932876267258e-02,2.361365576059109954e-03
1.016567152375183296e-02,9.155714297176072505e-03,7.663994605856482012e-02,2.219655253202503301e-02,1.140931447452689189e-04,5.699376985683126404e-04,1.653638848922924648e-02,1.428068012622613070e-02,2.539161996759170536e-02,3.606824409696837014e-03
1.185408180174570350e-02,6.164808206788517653e-03,5.348402886500941422e-02,1.378124472257683669e-02,1.256360326280452999e-04,5.141847643700874024e-04,2.720850780787269219e-02,5.173442101626919871e-03,1.479005376573733904e-02,4.158124078708699302e-03
1.203571132326351593e-02,9.545872967841237660e-04,2.449405337960811752e-02,8.524867612453523001e-04,1.340169584101213790e-04,4.460386669501317336e-04,3.995539066665693834e-02,1.625953251101856789e-02,1.958065388474393431e-03,5.143537134545904908e-03
1.259721946122737551e-02,1.716683997801110931e-03,4.890712500875091587e-03,1.525347521650826169e-02,1.378652907272264003e-04,3.672948992473642322e-04,4.981908805152193004e-02,9.830464406905490768e-03,2.469740035803174097e-02,6.459679939427849168e-03
1.538628233069287525e-02,1.625549053553759738e-03,3.409154184602508630e-02,2.671537315879039115e-02,1.395049243861988639e-04,2.799980573685734316e-04,5.234857863067328421e-02,5.139575161260765551e-03,5.288677612089667107e-02,7.204115140671391720e-03
1.822818952335108697e-02,1.159780067261256906e-03,5.037703957048581677e-02,3.756282189546819583e-02,1.394447024118404316e-04,1.863911694091504429e-04,4.917338586854153037e-02,1.067651362312716304e-02,7.504009498955645230e-02,7.214758746427837877e-03
1.452605585245946539e-02,1.078824200955448608e-03,4.171919238883513986e-02,4.819173443309852922e-02,1.365540743013092127e-04,8.886034660454686178e-05,4.928835451823630753e-02,9.406490957296516353e-06,7.674578793923211850e-02,7.644316643976389533e-03
2.525414856237306882e-04,1.324491949793382738e-03,2.370436340292680216e-02,5.212334774100924051e-02,1.306427540612676783e-04,1.012388543011254151e-05,5.551995990970146760e-02,1.545618708842401955e-02,6.352381230954864955e-02,9.232748595191610230e-03
2.016513690733803127e-02,2.386917329972700324e-03,2.456436437939440304e-02,4.286639472423948993e-02,1.223130006184665742e-04,1.080671404698521068e-04,5.093958964961775582e-02,2.210817160856605457e-02,5.706224066423132291e-02,1.082243166920378828e-02
3.752482377275352665e-02,2.824259800141273955e-03,4.107500422156004638e-02,2.384921632958261414e-02,1.117545160812668202e-04,2.025121334014567530e-04,1.338267773412381290e-02,2.163794083835322499e-02,6.220191453618833383e-02,1.104960153588085796e-02
4.533599353610426319e-02,5.426941326936641401e-04,4.026444702059646386e-02,5.366419890053347741e-03,9.900220912519488840e-05,2.910985666795329395e-04,5.156000434318051134e-02,2.384904865457932940e-02,5.950770374201549973e-02,1.080869842450569822e-02
4.234586528986643283e-02,6.748146446471391113e-03,1.126419111255219652e-02,6.414276756895276495e-03,8.448913031694332278e-05,3.716204882408545617e-04,1.071722835319720152e-01,2.757733144741334949e-02,3.897886087458630328e-02,1.221144769846064376e-02
3.138611449466061076e-02,9.531398944737456622e-03,1.471861105559240344e-02,1.089478288155392750e-02,6.848223485559642261e-05,4.420797327180117598e-04,1.238481019084179402e-01,2.209312900509998248e-02,1.930004820642401350e-02,1.513680551906291735e-02
1.832425512428008038e-02,5.624081191039383490e-03,7.426382612299864926e-03,7.801609464680663887e-03,5.081470156962660358e-05,5.007341563571156978e-04,1.078987101832371703e-01,7.010820997588976776e-03,2.356514318457557378e-02,1.649228026415597986e-02
9.331337269230920856e-03,3.977700441953780242e-04,2.188645832177057299e-02,2.181442649555219090e-04,3.208251401546405166e-05,5.461395057813225960e-04,8.495319814468710318e-02,3.689647175333019696e-03,5.022504080216431965e-02,1.400172637731755647e-02
5.807612159028828491e-03,2.847646427635309226e-03,3.650926208476210078e-02,3.902175559452985588e-03,1.378263026334159924e-05,5.771839185357131950e-04,6.795958275661422021e-02,1.557603630804995113e-03,7.472560533744150579e-02,9.735612627779220360e-03
3.198154742840747175e-03,1.934293897134090230e-03,2.079170388129431002e-02,3.280729083498706670e-03,4.277601067644126292e-06,5.931142348767543850e-04,5.170962410409200155e-02,6.002373950314653442e-03,7.573246356456581063e-02,7.530229237971390252e-03
2.537539331375250271e-03,1.057740813226605570e-03,2.226233145537902247e-03,1.566836851794987245e-02,2.416242475582033639e-05,5.935535008278731246e-04,3.103024385639903057e-02,1.176974369800038757e-02,5.894196861441240720e-02,7.140859548780150931e-03
9.353321235263976213e-03,1.282493210384403476e-03,2.678956098385715939e-03,2.405830470568512749e-02,4.429782488669342893e-05,5.785092580878890053e-04,1.221712423920137333e-02,2.088530298356241696e-02,4.886954135224043372e-02,4.669924725538877885e-03
1.371274950167758640e-02,1.467944102038173590e-03,1.681269523897346505e-02,2.754434863769266578e-02,5.906310183006326195e-05,5.483724422086412196e-04,4.083626272324422483e-03,3.682803878278687743e-02,5.329898278041518556e-02,6.162661575203475395e-04
1.787523538608567011e-02,1.141495233443095116e-03,2.820596786058126096e-02,2.854130371212535225e-02,7.057947066833335811e-05,5.039069391574226573e-04,4.663663780917861809e-03,4.780347673219333821e-02,5.274016907271760618e-02,4.348519113986836805e-03
2.644558809400364419e-02,8.199402110053280240e-04,1.939185397025841237e-02,2.490770216011295793e-02,8.987040957377867914e-05,4.462300752191710493e-04,3.807128636932327961e-03,4.073758741071908940e-02,3.429938875206777621e-02,3.118231052654226419e-03
3.719643262537539186e-02,7.348339811921664189e-04,8.267942977821669467e-03,1.488430587581888141e-02,1.117367756070363079e-04,3.767845347262366675e-04,2.679126110747716109e-03,2.186080490313227487e-02,1.420014426213309262e-02,1.191182857755092046e-03
4.241739737936091326e-02,6.542511123890515238e-04,1.608723670367134817e-02,1.026805947814974935e-03,1.116658130221725710e-04,2.973024116203950434e-04,8.336089440095737282e-03,1.026168004460280801e-02,1.511675389612644749e-02,4.056902347881362857e-03
3.963520864694098506e-02,4.735566855358056167e-04,4.576454497905669411e-02,1.488170102777447434e-02,9.942921376800041165e-05,2.097622907617507242e-04,6.477028395581512984e-03,1.318690593755013178e-02,3.957816209650394379e-02,3.213291092469073261e-03
3.515882202490613895e-02,3.062256606035759408e-04,8.386709702476966011e-02,3.093239120387940994e-02,1.270944305619297373e-04,1.163404128593480960e-04,6.498738716921950188e-05,1.863508533818799065e-02,7.090745408457641008e-02,4.663630721272923321e-04
3.671343202925760746e-02,2.082794945078977542e-04,1.059525640601291646e-01,3.930578708455439302e-02,1.747721378946036537e-04,1.935711710305360408e-05,2.525085074011919253e-03,1.213350821362169964e-02,8.596873611853671215e-02,1.067814233141047963e-03
4.615861635679766733e-02,1.323031841123186900e-04,8.829545051368994923e-02,3.356750845257389093e-02,1.304048638932244332e-04,7.878011251130238651e-05,2.749071996959901419e-03,8.324208527333358879e-03,7.226058312022176633e-02,1.141612425256075328e-03
5.788841736315258196e-02,5.595287402482375719e-05,3.533674031152976569e-02,1.992426314318689745e-02,3.323522327479725390e-05,1.756355887378562854e-04,1.038418752753834072e-02,3.369234691006655485e-02,4.552958434745685984e-02,2.356554326461351295e-03
6.282813691596310368e-02,4.825336647355985761e-06,1.478733395107039057e-02,9.686182643306394044e-03,1.262289193317671105e-04,2.688049393997753449e-04,1.395292120083145397e-02,5.248245409787918869e-02,3.566268450764143588e-02,6.238784116670485595e-03
5.748928729789385544e-02,7.904942654442745229e-06,3.258806885866430414e-02,4.442412472528938470e-03,3.413773754858872504e-04,3.559737878583609503e-04,1.415199741590682583e-02,5.835704321828704549e-02,4.178275896343597307e-02,1.132401798144139736e-02
4.832835822206232174e-02,7.249768052802335198e-06,3.005421074846490598e-02,1.210326789939579310e-03,1.157231325160323844e-04,4.349741141059119747e-04,1.553170707809815344e-02,5.383419930591315516e-02,2.684056249606475361e-02,1.475080931778137254e-02
4.284019061965315539e-02,4.499395524477922681e-05,2.977077871269337775e-02,7.458963676886296024e-03,6.735531820859043178e-04,5.038368565174247129e-04,1.851089104231527435e-02,4.630444864203687311e-02,2.359459062187748563e-02,1.450675178170874983e-02
4.093830474171085421e-02,1.103539032108473737e-04,2.443450429312856234e-02,8.922564245027126209e-03,1.156361460617584070e-03,5.608396014209891161e-04,2.000507897585399389e-02,4.141707021333640437e-02,6.982956270631673901e-02,1.107163276041514891e-02
4.086226974351130775e-02,2.034589028703459265e-04,7.621800681506755298e-04,4.292898864072464474e-03,6.940904559238494182e-04,6.045483730952479467e-04,1.996728183786668914e-02,4.316956959250231596e-02,7.359262339815403342e-02,7.115362758198774673e-03
4.537399947918883264e-02,3.180416747198709843e-04,2.682666907288129218e-02,1.246666208418247077e-03,7.532026478236972635e-05,6.338522719993796867e-04,2.192378602134550242e-02,5.488003709759538273e-02,4.959559372983741998e-02,4.627159551024374179e-03
5.420585854361469752e-02,4.523932516682624460e-04,2.372251459365425780e-02,9.724887358646832486e-03,2.824359072297510562e-04,6.479897816533282916e-04,2.727560981268845747e-02,7.179881417002155486e-02,2.587176097990816909e-02,3.285003359631710577e-03
5.977845400518450730e-02,6.081665462914854006e-04,6.517929951044680072e-04,2.929124658784442586e-02,5.069801075315149706e-05,6.465666429438933320e-04,3.287692710448158334e-02,7.780794140689051286e-02,5.341884195791458435e-03,2.116650017231111371e-03
5.886537074018175636e-02,7.772049687223650007e-04,1.144972481901795208e-02,4.672284837965175186e-02,5.636213268683368168e-05,6.295656441544917985e-04,3.504876949432288863e-02,6.105679923791230285e-02,4.300805947756106140e-02,8.031351502092848576e-04
5.909069847474304749e-02,9.463834000045437790e-04,1.570568747189877643e-02,5.020276376217548686e-02,2.977686199992045566e-05,5.973470116146808138e-04,3.386328469310874445e-02,3.105164987848097607e-02,2.576670218830064835e-02,7.102674385161378929e-04
6.614711104346297776e-02,1.121465312782408356e-03,3.589145623207360553e-02,4.116614120678421113e-02,6.658782089816178825e-05,5.506377463242350312e-04,3.223807016458046099e-02,9.857237334083883418e-03,9.578266638735091765e-02,2.117747538226216319e-03
7.409358255252185277e-02,1.316524942823755389e-03,5.787202355792951669e-02,2.767488478253055800e-02,1.517822220362681536e-05,4.905124791769945470e-04,3.201147405274477192e-02,8.269990461828458789e-03,2.601652907558238970e-01,3.015670833759845262e-03
7.647659394030034696e-02,1.505234395110895216e-03,4.491998104819219101e-02,1.326052761567207694e-02,1.214035481167006440e-05,4.183699397928984827e-04,3.252970486127905458e-02,2.055211738258706441e-02,3.505244399375965769e-01,3.958894457933412672e-03
7.751132761015988581e-02,1.643110118064758634e-03,9.100816630596218759e-03,1.329870771440414511e-03,4.680101110656495734e-06,3.359008193115410081e-04,3.241971058873609202e-02,3.866276064772725118e-02,3.336152629283681836e-01,5.450715982389171821e-03
7.973363067212813071e-02,1.771471056960276496e-03,5.550104320783097282e-03,1.239812119311396732e-02,1.362879112560923920e-05,2.450399830278063556e-04,3.117667915526530636e-02,5.805435078816020139e-02,2.727847649013677156e-01,6.317160379644162944e-03
6.805664671976137392e-02,1.972718882292625719e-03,4.814865238438402473e-02,1.726366468385508168e-02,4.871925536980578051e-06,1.479142704625778916e-04,2.941409012448761157e-02,7.108476053283500906e-02,2.228893205072559336e-01,5.572349668394422154e-03
2.621464574874970282e-02,2.147964946901024207e-03,8.567820280911030151e-02,1.970297898795159153e-02,2.747524310704625367e-06,4.680416819592480649e-05,2.816840354832755161e-02,6.973844115826685619e-02,1.812237899957733211e-01,4.602613737975234931e-03
3.123729016001590419e-02,2.107053120112422403e-03,7.397032235035304326e-02,2.526043990445105830e-02,1.220355577362806382e-05,5.590075222103252985e-05,2.731443899480464482e-02,5.709168409565490432e-02,1.323281145261751834e-01,4.714374831888625168e-03
6.549198388138843807e-02,2.045775366279841204e-03,2.697524010761035915e-02,3.466815411440044015e-02,2.188503950906361785e-05,1.577884099317376581e-04,2.556781564079454311e-02,4.495897840300345366e-02,8.281830596939077083e-02,4.230459953773575525e-03
5.792017307518244201e-02,2.369144108111470842e-03,1.537734270744629990e-02,4.602366440951164567e-02,2.919746343178593941e-05,2.565067091994906786e-04,2.315568652992555307e-02,3.890939037788005567e-02,4.482033537987236554e-02,1.157891807979192968e-03
2.998827813815704152e-02,2.674071238264082162e-03,3.237688062729025817e-02,5.816117872876889333e-02,3.917641358358145052e-05,3.497600645497528707e-04,2.213756222488177244e-02,3.427372810349341159e-02,1.877768767929650570e-02,2.616300172203536809e-03
1.017502034533995445e-02,2.045181986119731961e-03,2.093681919757401505e-02,6.660890891290222049e-02,5.286106462047115897e-05,4.353119004288923837e-04,2.283533713052525449e-02,2.749523578659699222e-02,3.109270749793523192e-03,3.099725790146479285e-03
2.892239359852730521e-03,1.031356329199894974e-03,2.045275594691972967e-02,6.102008135378225728e-02,6.767887773000582209e-05,5.111660666951372244e-04,2.294129172373906428e-02,2.362232800084204665e-02,3.529605925774139535e-03,3.454475333309133694e-04
2.210489784949122918e-02,1.072189869652812304e-03,8.148453529926732997e-02,3.330962900345717237e-02,8.264990725355541852e-05,5.757311107776200490e-04,2.057534473273862907e-02,2.769528455401372435e-02,2.215864054001933509e-02,4.202434951663160285e-03
2.503258453762109356e-02,8.878951163373684317e-04,1.301299748167574766e-01,1.174406377563874844e-02,9.829291328541025640e-05,6.275889662423039372e-04,1.558557234132644173e-02,3.215464537422457747e-02,4.598714719553175651e-02,5.562724446509841048e-03
3.035686604330933153e-02,2.467599048578197028e-03,1.381402239646126462e-01,5.660656932343487852e-02,1.147380805354060603e-04,6.652732300106512300e-04,9.655806667801292847e-03,2.265476251960030912e-02,5.667401261580767846e-02,5.327582970713078472e-03
1.324102114109423911e-01,7.266401993603556660e-03,1.091037739458924211e-01,8.317358943339672739e-02,1.317457618489703097e-04,6.878725581914447431e-04,7.089900962462014275e-03,2.467828439653868902e-03,4.821918305952995615e-02,5.632232220817992401e-03
2.109584063001598564e-01,7.695806951371789856e-03,6.580425286853927580e-02,8.580281063872829961e-02,1.484489915539399471e-04,6.956124049300759817e-04,1.020680862175897020e-02,3.140825855946931255e-02,2.745619139155679178e-02,5.518477928119309636e-03
2.243724509689063451e-01,2.877413432294828946e-03,2.258892574763546671e-02,7.209664649032263006e-02,1.633533959792608618e-04,6.886491386404539885e-04,1.197412773764510753e-02,5.701173179970287636e-02,1.358745524831504389e-03,1.644884242360720788e-03
1.995565933763168709e-01,1.383465756832236594e-03,1.612501197097605463e-02,5.252910036078786704e-02,1.769339888176844932e-04,6.658372579578412465e-04,2.029856032891820365e-03,7.806062936499802429e-02,2.723856337504643177e-02,6.179586442145864125e-03
1.731638336352937790e-01,1.609207479911929292e-03,4.314033722625791600e-02,3.322162313189308547e-02,1.917448602619332076e-04,6.272861471598136429e-04,1.723883477477450646e-02,8.806184415252039932e-02,5.266826829368656537e-02,1.311447276318592273e-02
1.459339569456401808e-01,6.133062634137906571e-04,4.634972525767003249e-02,1.714153472570144679e-02,2.059562707929932582e-04,5.770454311426514082e-04,3.170742035023233624e-02,8.522333242729562830e-02,6.530356447885579674e-02,1.474058373700076231e-02
1.086838148732794385e-01,8.465316278276266686e-04,1.572275461823231801e-02,5.087683451752673426e-03,2.129573999881047861e-04,5.176733063266044516e-04,3.540410431607161207e-02,8.447845650707527798e-02,6.270353388821413299e-02,1.178073062783059448e-02
7.251133430731646068e-02,1.617010965161729181e-04,4.410152937189350947e-02,5.803308459681492601e-03,2.156132011890877392e-04,4.442921471931861820e-04,3.680843440030349273e-02,9.732700860809948007e-02,5.622359679410038336e-02,8.095522894397202962e-03
5.628820304871163388e-02,3.140061106749083945e-03,1.050574952944278440e-01,1.790152988889381208e-02,2.275186186210439163e-04,3.559410825421472431e-04,4.238038425975360762e-02,1.114892823179392534e-01,5.907453710578512707e-02,6.816472040065355183e-03
6.269885089935994804e-02,5.983462415175031662e-03,1.349645505989125471e-01,2.528463803793165945e-02,2.423934943155385156e-04,2.684526084769687051e-04,4.687526528383879898e-02,1.085370804526280125e-01,6.865515679800723858e-02,8.818967561099696692e-03
7.673197666667887218e-02,4.902749291317598165e-03,1.303141905097156272e-01,1.720458581624953465e-02,2.306092211321295895e-04,1.904095765763556423e-04,4.429658439400242786e-02,8.795624609851036835e-02,6.794023635949912598e-02,1.202004271823534087e-02
8.152175102494343961e-02,1.462791887372736016e-03,1.120407128509664924e-01,6.788463887283272685e-03,2.045660793717390187e-04,9.486762538718580199e-05,3.755927435403805248e-02,6.139876635345997008e-02,4.777475646990238939e-02,1.234264224562015184e-02
7.163462743279062905e-02,4.066987004702859836e-04,9.132030618476565109e-02,3.188896452255822467e-02,2.278335202273131714e-04,3.019814406919949347e-05,3.221447238166934290e-02,3.864227675582240090e-02,2.099116089573228872e-02,7.682345440665943118e-03
5.326345247960032753e-02,3.919994896347937276e-06,6.230491683586096563e-02,4.278776187993635349e-02,2.757157232066623611e-04,1.203514650653715894e-04,2.824827102599234904e-02,2.777116292753741694e-02,7.670234369688816618e-03,4.644075535558065131e-04
3.406849750242914310e-02,6.247197107619212493e-04,2.409458019347958044e-02,3.767699542191258605e-02,2.119530628438581776e-04,1.410016210419523216e-04,2.304232879321593125e-02,3.367871086656851892e-02,1.268348459698608391e-02,4.952190522894132918e-03
1.428383863384461404e-02,5.097191797300988083e-04,1.345230086394090877e-02,2.419955854716360558e-02,8.589922762432257409e-05,2.219242943099624667e-04,1.732928079854553077e-02,4.905996687457916949e-02,2.579285950353521484e-02,6.659635874450705109e-03
1.108326100323705349e-02,2.971814196807390403e-04,4.457746997601288313e-02,8.473512638844368783e-03,1.929375237185413392e-04,4.340552949177455835e-04,1.320304741918513526e-02,5.800657314805570536e-02,3.791722119994473533e-02,6.183609708811201207e-03
4.126327179168447212e-02,2.235674429744375497e-04,7.079294958467660659e-02,6.701898855915605288e-03,4.452627822482887478e-04,4.936446027574237314e-04,9.399509854553945304e-03,5.317964489918924897e-02,4.838663239319811182e-02,5.849933609394623174e-03
6.310113553857514546e-02,5.947165208924592278e-05,9.000601043344863550e-02,1.869393955134443161e-02,1.677026823784314715e-04,2.245680121274084748e-04,4.058485193887810885e-03,4.310765410792614938e-02,5.897557284459500893e-02,6.462281480414211292e-03
6.051377850103625139e-02,1.448784340054271957e-04,9.906181938953786958e-02,2.694588395494956420e-02,7.231626291210723617e-04,2.570264841321490720e-04,7.666245703298905576e-04,4.064117031156330023e-02,6.811910946342518425e-02,7.425361834425632870e-03
3.382081257358030002e-02,7.429974778436314320e-04,1.075101923624997846e-01,3.425347253197220942e-02,1.113810986555903394e-03,1.276451230752716258e-03,5.562105283743875098e-03,4.774156994269759119e-02,7.254440934018448195e-02,7.743755001110202811e-03
4.504779762881102462e-03,1.094896173963141135e-03,1.254958079327050113e-01,3.980539001313751490e-02,4.340727940294358171e-04,2.535652786145235933e-03,1.713522429285567472e-02,5.319561017923369467e-02,7.166260513917475927e-02,6.812438605870428134e-03
5.289516536058498988e-03,5.034753259667322034e-04,1.316122681542465922e-01,3.558373991575827788e-02,1.138038124730893165e-04,2.526435156981836003e-03,2.593734698749571715e-02,4.441340780714043285e-02,6.763638749296066455e-02,5.207362586891074903e-03
5.953698726358918648e-03,4.396223683858105444e-04,8.591262776091504461e-02,1.726066568566545986e-02,4.621128274515373387e-04,1.249043347249802292e-03,2.523255951821044840e-02,2.082805785125343284e-02,6.192958754706220925e-02,4.190730814784514313e-03
2.223333064715143220e-02,8.312616017406681667e-04,8.280877394440869579e-03,5.913960873545376015e-03,1.166172027956825265e-03,2.121568247915708362e-04,1.840083226701316049e-02,2.895516651447407191e-03,5.511700955601106511e-02,3.704265212143936087e-03
2.793519031421536417e-02,7.656716484728431265e-04,9.107105175421494059e-02,1.938451068552238948e-02,7.978278883959013081e-04,1.634291009553613498e-04,1.289375843763196708e-02,6.893997808093567554e-03,4.973338121065460499e-02,2.241881450535127690e-03
1.944213008075564714e-02,8.146231657610413911e-04,1.143708791604114566e-01,1.758734053004165632e-02,6.780662586925187234e-05,4.178611942760915819e-04,1.071634794371052399e-02,1.481727856837888185e-02,4.884085650135335660e-02,3.122578331928355013e-04
6.254339046869734908e-03,1.053353338658036004e-03,9.066820691744906235e-02,6.449038266400124002e-03,3.207668990088961879e-04,3.456410077745042321e-04,8.167536331085627210e-03,4.322550412518721963e-02,5.071392378417464986e-02,1.698715154168581060e-03
3.354414117974455298e-03,1.228796508413842808e-03,5.957809643724946980e-02,2.993524752996711003e-03,5.644730231404030741e-05,1.232278315894782725e-04,2.761480142512213153e-03,5.078599458708685926e-02,4.887086140643039089e-02,6.584890574699300229e-04
1.782182073357731905e-02,1.292500454409113448e-03,3.863832143015492188e-02,2.452068001468089928e-03,5.473186772977346005e-05,3.464398898765133595e-05,3.741337748748715768e-03,3.143642081862856041e-02,3.988005926848912919e-02,6.316654660099665138e-04
4.192483223474793158e-02,1.355944679803547642e-03,2.172631601107536531e-02,6.486649003472831111e-03,5.101941373474021431e-05,9.155838076935204971e-06,8.785766923945202006e-03,4.696709386138772299e-03,2.892723497686515780e-02,5.586851645766038182e-04
6.091583668860028888e-02,1.438769007205905909e-03,2.285277406383971234e-03,1.360585355800826395e-02,8.862142975455894272e-05,8.288578234919015506e-05,1.180059734925599166e-02,1.065313905633239779e-02,2.423939191938419974e-02,3.579159301096332488e-03
6.790845837677882135e-02,1.485374726124528370e-03,1.791818956293584481e-02,1.171032261162393250e-02,6.108061615187475204e-05,2.068428048493157166e-04,1.325776891300386486e-02,1.567552105118568892e-02,2.668486970529394819e-02,5.444854575680287134e-03
7.006655675930018035e-02,1.483119033526337713e-03,3.483553606785678991e-02,3.572118253025662049e-03,8.483354804394538200e-05,2.983122222896893269e-04,1.361620156125172704e-02,2.234093151234894242e-02,2.924107991135783957e-02,5.038712998099261972e-03
7.557052040917591751e-02,1.456120655097903858e-03,4.707284008662613456e-02,4.778878285582993310e-03,7.247274218975204615e-05,3.694321244514508227e-04,1.346770596095789654e-02,3.542051945253407719e-02,2.728222412307574132e-02,3.882027668397933489e-03
7.596508901633090838e-02,1.409890245368068326e-03,5.528387037731342241e-02,1.184235064631327869e-02,5.369519133458838442e-07,4.473372120744136026e-04,1.331457051175219571e-02,4.804893820060005677e-02,2.399931036007432392e-02,2.925909007726437087e-03
5.552437867146479966e-02,1.333571800235048123e-03,6.083690982173047684e-02,1.865631365842239028e-02,9.596347965179049719e-05,5.237072995277391920e-04,1.318079298866993432e-02,5.182934123626792289e-02,2.362490549226989311e-02,1.625764786939706353e-03
2.032735754346135654e-02,1.225889221657757442e-03,6.590684570840657508e-02,2.414960368851090666e-02,3.231181366810028928e-04,5.830381456053532110e-04,1.282893972386137289e-02,4.813547284473285170e-02,2.478927955171810610e-02,6.196357199380998033e-04
1.932289840434565052e-03,1.094379677931687491e-03,7.247825225251125492e-02,2.635289364974858703e-02,1.237099920078686764e-04,6.266759994634221124e-04,1.188728250832661940e-02,4.699563349899381348e-02,2.385595730065539349e-02,1.604816854463657176e-03
2.953618951208025409e-03,9.431743748923806679e-04,7.990984539338230608e-02,2.571147513288095376e-02,6.395236325306459394e-04,6.599310151019468140e-04,9.582329346523537836e-03,5.293050975769024447e-02,2.058311491477012034e-02,3.789128221692404565e-03
2.036791727012477252e-02,7.731229823318473780e-04,8.495068206345601780e-02,2.441239759832841694e-02,1.100442084954022202e-03,6.807134260531178069e-04,5.255026707464071148e-03,5.747533147770986228e-02,1.715452690226717397e-02,4.547681360291652881e-03
3.240531189318483080e-02,5.874088879522996716e-04,8.556016758621391716e-02,2.363689128689563934e-02,6.145615337287976083e-04,6.854657006438065470e-04,4.033788384440759132e-05,5.267631576236321556e-02,1.440249775144108665e-02,4.071327552188097783e-03
4.005465825270822233e-02,3.914317404120292950e-04,8.355102420487510451e-02,2.314374001792151442e-02,1.815174281718295521e-04,6.745813640172362196e-04,3.244671943130663164e-03,4.523411394831429455e-02,1.163823488128376896e-02,5.006554758616257352e-03
5.083059883654977851e-02,1.900321722532707014e-04,8.198341928664355793e-02,2.257234069215863920e-02,4.143829494698257100e-04,6.497065349477358512e-04,2.114549974451587419e-03,4.700576001767040046e-02,8.547874889736722243e-03,7.365217682595476094e-03
5.791902644403276734e-02,1.264470588324894350e-05,8.127045886908022820e-02,2.184726854220562717e-02,2.049096369058293183e-04,6.111700121880651914e-04,1.861465617116726725e-03,5.755641344443612750e-02,5.406388903726394753e-03,8.097194283307612012e-03
4.667100712068150692e-02,2.120181589497469076e-04,8.003834326769039553e-02,2.100791873270976481e-02,1.179653078300058836e-04,5.592031635607896739e-04,4.858801390744676464e-03,6.741790341577179324e-02,2.314607498140333446e-03,5.945825022811560001e-03
1.927191473026461724e-02,4.031656848151208769e-04,7.878337310020243345e-02,2.043465667883381104e-02,2.242924453412653161e-04,4.951337947385973373e-04,4.944258430607633738e-03,7.394337528664096659e-02,6.860273494256503846e-04,3.137230745692334236e-03
2.135378383723944389e-03,5.815259720171379485e-04,7.915287813914784198e-02,2.034090854583976010e-02,2.789750176984422039e-04,4.207936631240199229e-04,3.423832821065143309e-03,8.108138461392508378e-02,3.419506024616776173e-03,1.707522568494043887e-03
1.269480381124713300e-03,7.430318980908563568e-04,7.947834756315212690e-02,1.977712278127116696e-02,2.372126676145910700e-04,3.379052905522650797e-04,2.179549125003695572e-03,8.509382013523239530e-02,6.129234885401187161e-03,8.934708777082098728e-04
1.498249021033657737e-02,8.839432904009549008e-04,7.670112540101133025e-02,1.808932704749124931e-02,2.136966507964457136e-04,2.482949374690959277e-04,1.507597777675321552e-03,7.539336322076344021e-02,9.244125199251572444e-03,7.757100336931335542e-04
2.968412990904542928e-02,1.000930767491874660e-03,7.470052827630344061e-02,1.738068767171557436e-02,2.396195882455455874e-04,1.541177044610448114e-04,8.606033297379861967e-04,5.273096446675062943e-02,1.201840909456590792e-02,2.901488190446417127e-03
3.728125180781871606e-02,1.091287333735500419e-03,7.997234949136600157e-02,1.918950153054967481e-02,2.577378023543630873e-04,5.769015193720167597e-05,1.319992396510706839e-04,3.368573589757428710e-02,1.331263563541196411e-02,4.439191991327337376e-03
4.679977916096676044e-02,1.153004697545202380e-03,8.117201801962105334e-02,1.761845257952337693e-02,2.338014454985791956e-04,3.869372784877039384e-05,4.386408900820301226e-04,3.297633969692423395e-02,1.502895196387069206e-02,5.794264522043646518e-03
6.522071029381568130e-02,1.184765959438669304e-03,4.882207296452162337e-02,2.858036821080130532e-03,2.021590835044517124e-04,1.327679752133455139e-04,7.682180128572791344e-04,4.947308935476218278e-02,2.175636795542732274e-02,7.473132689342192221e-03
8.061695650585035122e-02,1.185976132442899140e-03,2.611737890206303550e-02,2.447099197792980060e-02,2.201390248585350718e-04,2.222887017088283422e-04,8.958826763676146655e-04,6.948954397642251313e-02,3.412840744096221068e-02,8.266963528452101959e-03
7.069175952225573156e-02,1.156806080228304709e-03,1.068707938459879658e-01,4.960994065746043152e-02,2.568645292194138828e-04,3.051065939838317679e-04,8.788633176345011849e-04,7.832932174414980464e-02,4.559105133230325485e-02,7.357445198943500346e-03
3.286730591513870037e-02,1.098191644819658704e-03,1.461710830823818030e-01,5.905621852160851393e-02,1.979764957600331401e-04,3.792484169149040740e-04,8.217933323049356545e-04,7.139334858675110140e-02,4.920112782391068001e-02,6.483026916853163076e-03
7.126442258692080103e-03,1.011798316671320627e-03,1.361712787175809736e-01,5.353953392872459749e-02,8.797529648171810662e-05,4.429663812912144091e-04,6.511447635938243323e-04,5.590117596326209942e-02,4.473969105386590983e-02,7.205614488681345332e-03
2.562900357070026919e-02,8.999791687972767988e-04,1.042852774252055886e-01,4.246119194996583746e-02,1.713892169311752073e-04,4.947651709304295162e-04,5.512488590612768177e-05,3.842863473391728429e-02,3.660700299775612732e-02,7.904168439672041441e-03
2.571697173317857854e-02,7.657225666222708437e-04,7.310344985538205775e-02,3.182298492817003249e-02,3.784430976724126468e-04,5.334160352078701380e-04,8.385374449523322338e-04,1.529422567111503664e-02,2.861087126905650577e-02,6.500522516623640466e-03
2.208612728435633416e-02,6.125783167321473613e-04,4.493961012411656214e-02,2.137259927207067756e-02,1.454075772398600902e-04,5.579955821842023629e-04,1.221443378388974675e-03,1.665830256729790640e-02,2.309825161677795183e-02,4.363344638018584916e-03
1.777070625701138856e-02,4.445660599525662121e-04,1.637652889806322232e-02,9.878452288304100451e-03,6.504258940570367860e-04,5.679631775547704705e-04,7.459399756357177648e-04,4.662529309789481546e-02,2.098808863379885564e-02,4.247043720600540001e-03
9.582136859719822888e-03,2.660741409512189454e-04,1.131924978507771809e-02,6.406722669959959583e-04,1.137986289921316674e-03,5.631661524218424357e-04,1.103678451525075439e-04,6.203495874218673684e-02,2.041728319687993384e-02,5.596899951616975122e-03
2.774501258204996844e-03,8.175064524385978874e-05,3.512958394024710135e-02,6.578105312722594238e-03,6.767341634921256698e-04,5.437212724979437455e-04,1.545399093362236813e-03,6.970786566970883780e-02,1.876204487565199391e-02,5.046519551710353796e-03
2.792463140903738567e-03,1.036134477692756225e-04,5.317872547483384199e-02,7.227792965892779198e-03,9.396417447684690758e-05,5.100196361614770229e-04,4.281982695543282841e-03,8.531027586939750329e-02,1.703405401455099916e-02,1.333459505457915053e-03
3.164473206208601522e-03,2.852056898654184436e-04,6.480103347622069576e-02,5.512426048128245271e-03,2.996317835218438867e-04,4.629791577562081891e-04,7.182012106697079762e-03,1.047102570984813213e-01,1.847040838030575630e-02,2.512033619888510202e-03
8.644462338230000757e-04,4.583137918945020270e-04,7.198469341885764539e-02,4.283698549056964670e-03,6.625997247456660313e-05,4.040140641363329206e-04,7.846856799002927332e-03,1.087095970179960125e-01,2.216569492096431143e-02,2.391164169069063747e-03
1.144302471681526295e-02,6.184445341623422913e-04,7.788850053585255617e-02,3.892963444373606641e-03,3.161069093870663677e-05,3.344392216092731017e-04,5.994656926667872761e-03,9.284652074017704648e-02,2.278910708434228952e-02,2.316661716666253493e-03
4.577041382426442345e-02,7.614375647721679510e-04,8.123426873624807476e-02,3.406563013152242789e-03,6.915533260151167827e-05,2.554391599489757138e-04,3.238087207107302398e-03,6.900291805692984615e-02,1.796489445688524006e-02,7.975025764608040246e-03
8.406468312309700597e-02,8.835711351804315062e-04,7.855548032872075592e-02,2.415582915072793900e-03,1.017377266142155650e-04,1.692377208840903564e-04,4.544551327870206218e-05,4.338219106848519718e-02,1.138345860205056820e-02,1.057239689619995579e-02
9.677081621509603382e-02,9.816567963450461339e-04,7.560805836119165180e-02,1.454156677796275337e-03,3.751353330226869066e-05,7.907316392770840979e-05,4.029546995513840803e-03,1.602081208204243767e-02,6.925171936579013927e-03,1.004648306393795057e-02
8.143915369798190862e-02,1.053120669054398526e-03,8.298913981991727640e-02,1.297746267893752116e-03,4.041988039624131579e-05,1.343978550777769027e-05,8.047585374907130842e-03,4.636725496961901713e-03,4.202287353589450984e-03,9.708441429349854226e-03
6.058607200843631885e-02,1.096069346225048927e-03,8.876185329361416243e-02,1.480277330658174130e-03,1.092714435758812715e-04,1.084788007176086869e-04,1.030839977855662302e-02,7.595595950645558057e-03,2.150914129299146341e-03,1.111945696269040981e-02
5.192996335976360345e-02,1.109338723116488857e-03,5.492069158771322596e-02,5.782311429347814294e-05,8.035033763063556859e-05,2.025475571899685591e-04,1.069792635426664550e-02,4.876835982990865292e-03,2.329735241154162924e-03,1.167352022436852522e-02
5.491875983749339857e-02,1.092524426944367546e-03,3.362503221874748455e-02,3.482206468259299668e-03,1.479258957085370556e-05,2.881413316644992548e-04,1.058793332707888731e-02,2.058292119735340153e-02,4.987904269479787912e-03,8.999466945251149291e-03
6.075144773919608637e-02,1.045993048054085287e-03,1.328665295361968202e-01,6.156091252578294037e-03,8.956327968085141819e-05,3.655834185432834185e-04,1.058624017811201495e-02,2.999683652170037282e-02,6.026253874477345215e-03,5.231953933449358732e-03
6.378982160152961434e-02,9.708738840701838400e-04,1.824051128627284801e-01,5.050406447562228937e-03,3.246749552721317445e-04,4.442169202604332227e-04,9.699769636460303310e-03,2.803580036371756262e-02,2.385615580340557512e-03,3.490021250649229505e-03
6.232080157538550519e-02,8.690313687322651342e-04,1.714786478994643482e-01,1.685200911845403850e-03,1.182427220756652759e-04,5.173200310499481355e-04,7.125338242307105094e-03,1.343630151498658234e-02,2.990562021425336760e-03,2.169537598553615554e-03
5.490101987379852888e-02,7.430188331255644339e-04,1.356275755017132545e-01,2.527659044581029866e-04,6.442817790525993613e-04,5.590581808987901691e-04,4.006495995264829427e-03,6.103370654594693009e-03,5.682254252904460692e-03,2.664208343008446674e-03
4.079097119805119576e-02,5.960147345232282273e-04,1.018882183071319614e-01,1.097902102067656403e-05,1.093178225645621967e-03,5.781149977695760689e-04,2.482776358473518137e-03,1.623915288973544133e-02,5.780441688085000314e-03,1.039919028842121659e-02
2.270649579345166216e-02,4.317429391390558975e-04,6.740460190536221030e-02,5.202969671694437697e-04,6.135764062869342259e-04,6.257274790499684977e-04,3.169904055515102362e-03,1.062292009842705567e-02,5.739392173707847863e-03,1.639511030524157253e-02
5.560122958853629116e-03,2.543790442154531288e-04,2.853970827819731632e-02,2.346713712598424116e-04,1.634649304397024360e-04,6.814533675491119642e-04,4.560263058604989948e-03,9.635198742807150191e-04,5.838640779179227192e-03,1.878945043426296160e-02
7.480643437727427583e-03,6.844507852663584975e-05,1.546507809851939766e-03,2.262463839843763475e-04,4.192911102169289209e-04,6.329746271997349800e-04,5.018931044599697112e-03,5.752313255366833800e-03,5.223131077233135466e-03,1.978286244180219727e-02
1.637367401807624662e-02,1.213047783284070718e-04,5.082673206788825004e-04,4.014867017728455077e-04,2.576799903976329073e-04,5.195725078816884656e-04,4.079169968902526464e-03,6.478995045820059098e-03,4.344418843686734255e-03,2.036578415856953039e-02
2.309942293899942822e-02,3.100045840030955118e-04,1.475933425615563906e-02,5.346000682745142814e-04,1.298426288813143417e-04,5.845490138118707721e-04,1.634877054660989135e-03,1.627366561885495652e-02,3.513210712675564514e-03,1.880382994007366582e-02
3.003944009546901522e-02,4.928000964761419063e-04,2.972679381142616373e-02,7.820830883515067066e-04,1.428260705444819357e-04,7.605206889894284335e-04,2.046932875438729760e-03,3.465797486858675225e-02,1.793051143606912319e-03,1.494818452886473997e-02
3.819204169544582889e-02,6.649721966591835148e-04,5.354121354889341405e-02,1.052255764057227847e-03,2.959148652494877126e-04,4.854291517977086298e-04,5.130731975928808607e-03,4.298311978743223766e-02,1.340546837878409635e-03,1.162425610096944582e-02
4.647775641604975222e-02,8.220571491281445731e-04,9.804565604517251343e-02,1.368086011936598973e-03,4.806191930758176500e-04,3.623924748975056068e-04,5.584385218263123590e-03,2.966226425954126070e-02,6.626390596893944225e-03,1.043162432616872096e-02
5.226100329342053818e-02,9.599606527446655473e-04,1.490538211527856483e-01,1.661701676038343164e-03,2.463061041968199103e-04,9.114764669201033155e-04,4.145932589902647306e-03,7.126542001361643036e-03,1.639851701528373049e-02,9.570392691838422103e-03
5.209057553596355833e-02,1.075062783827966835e-03,1.788754413966597567e-01,1.398992986101703275e-03,5.080647545535249337e-04,5.216452137905944371e-04,3.468815617467702495e-03,4.526132214177649993e-03,3.027690250962760884e-02,7.339251895288473326e-03
4.456468247894515566e-02,1.164311158708573532e-03,1.762898177058496996e-01,1.215863786862737697e-04,9.662051678057066500e-04,1.708788675214558349e-04,4.436335752831180659e-03,1.524798580245853054e-03,4.147707095728923876e-02,4.801767800785237787e-03
3.411337401350272164e-02,1.225299934296384405e-03,1.497814459037929147e-01,1.496907220488693938e-03,5.050076341695539182e-04,2.984930683141647531e-04,5.702470179918265464e-03,4.082063282195470474e-03,4.278979276628486900e-02,3.096927877819807481e-03
2.742504857038444502e-02,1.256332617872081385e-03,1.126496039785568753e-01,1.867563655018259069e-03,2.640439064678129131e-04,1.345887041715248346e-05,6.341066515218395962e-03,3.351006146721830989e-03,3.423168655255567211e-02,9.509014505123256685e-04
2.323159991159471152e-02,1.256467061966063401e-03,7.441070564060117687e-02,3.695843569539499635e-04,4.874847892835212416e-04,1.995324801320933308e-04,6.649359333468185008e-03,7.083997522672460731e-04,2.168260407513284208e-02,2.808243567928530790e-03
1.195644486357007839e-02,1.225541466655035707e-03,3.959071952536396405e-02,1.630082427264109655e-03,2.722652071675644037e-04,1.893288769719168527e-04,6.827727665925050794e-03,4.682418461990712003e-03,1.089586072101568839e-02,6.683676680571485826e-03
9.653175803542794753e-03,1.164180688677136271e-03,9.080358044430126424e-03,2.468533839315790231e-03,1.550007018697708260e-04,2.235519129674571693e-04,6.790524354411576514e-03,1.289068306589326654e-02,4.523349229789126388e-03,8.632487193168496276e-03
3.057107868455822067e-02,1.073782652556775881e-03,1.620871807815635335e-02,2.151780463676932625e-03,2.193005133348767670e-04,3.393686719232918481e-04,6.888428884122896681e-03,1.245042985603780211e-02,2.155748153728042314e-03,8.922912783517242263e-03
3.841910655978777317e-02,9.564851609964931294e-04,3.487553834491399773e-02,1.736701620605147784e-03,2.759804725709040095e-04,4.229403539550953897e-04,7.316866671395176429e-03,2.000431098804672340e-03,1.590195960106594465e-03,9.217325919778815782e-03
3.339849039220012250e-02,8.151138974528996609e-04,4.978676933624767015e-02,1.640284618989900018e-03,2.639009982945179239e-04,4.529303847025440604e-04,7.313973464073528392e-03,1.822792853186195813e-02,7.628267714543520914e-04,9.800651658534699495e-03
2.320932808687722546e-02,6.531128905484501592e-04,6.551801376449975511e-02,1.530894023742793413e-03,1.827881644763466580e-04,4.802068500198660751e-04,6.218623746683583399e-03,2.253399006851621381e-02,6.953156031018511811e-04,8.994510143079122166e-03
1.247890112627796436e-02,4.744591557377019148e-04,7.586924006203683846e-02,1.226838397557396135e-03,9.309668042191090358e-05,5.136246205588723690e-04,4.638116670498317745e-03,1.811615861887724832e-02,1.380651381923948297e-03,5.758004834673225228e-03
4.550841039518457865e-03,2.835636331447589746e-04,6.541319852698818105e-02,8.832302127255451177e-04,1.861744157245913043e-04,5.283196819255786894e-04,3.486886424470307666e-03,1.532462806908474647e-02,2.329543065065328884e-04,2.186800812704077241e-03
4.877996170111833368e-03,8.516089144481372303e-05,3.260105075042774025e-02,5.957811740059758407e-04,3.838592099505169449e-04,5.193122056175175508e-04,2.687378794330119725e-03,1.293351799184606736e-02,1.084442500923048615e-03,1.586966731689217662e-03
1.376841483607597547e-02,1.158096428886227916e-04,9.032935390217581087e-04,3.037780886192085333e-04,1.474395649041129307e-04,4.978547992432118090e-04,1.671184885073151959e-03,4.988646164453660117e-03,2.172129980313309118e-04,3.756912922611291457e-03
2.254734980504869563e-02,3.143279511382261098e-04,1.387629894335500914e-02,2.714763911511481069e-05,6.409016780924282723e-04,4.662966041748277846e-04,3.853499510239860159e-04,3.617406204115092543e-03,3.951794131796192676e-03,4.493422360089969515e-03
2.368998908537240169e-02,5.054200570060668821e-04,7.110509767134360476e-03,3.575202727970897194e-04,1.122224673798019991e-03,4.204256719754635415e-04,8.433991717865490633e-04,5.613950506690780842e-03,7.244089469450257744e-03,9.405843901052204307e-04
1.837190286869031311e-02,6.842838373306238311e-04,5.858619810454672797e-03,6.592526704217759655e-04,6.599765850778780167e-04,3.612674896088794493e-04,1.936867033358607645e-03,5.322045052496218384e-03,8.787006732859224678e-03,4.601331549344089486e-03
9.998963240475406550e-03,8.464108288177991371e-04,1.763998841480980684e-02,9.392271248144511446e-04,1.128497762708308627e-04,2.920798759134627396e-04,3.091353238289046290e-03,8.948515563497998898e-03,9.748399312580363976e-03,7.767743506140224914e-03
1.392060295589574604e-03,9.877009439952099019e-04,2.907710842096953435e-02,1.199962262505507729e-03,3.267105034311546950e-04,2.126552291067241413e-04,4.313957406312012889e-03,1.111340882945155775e-02,1.099686725739085214e-02,7.116546579417852743e-03
1.381426033692680772e-02,1.104567180918735597e-03,4.063367200258072992e-02,1.428361526221597500e-03,1.027357060042159432e-04,1.249202295528364188e-04,5.285608571162776596e-03,3.151254829472976450e-03,1.241234706474573547e-02,4.051346917266665341e-03
2.104889106425509443e-02,1.194027656416931727e-03,4.923973351711046637e-02,1.614242911513947762e-03,6.149017556828276741e-06,3.592515854270133239e-05,5.935252600677468938e-03,1.335431733081497707e-02,1.410711613377715890e-02,8.654344653494878883e-05
