1.151630081926253643e-02,1.699475182214992691e-02,2.512784863200310734e-02,8.754681422754394260e-03,1.025633075794564822e-02,1.915450251310469101e-02,1.622411820852550091e-01,7.820641584681181646e-03,3.850909671887481345e-02,6.729695996123561189e-03
1.464676762136897167e-02,2.310468661162951368e-02,2.611993079682854019e-02,8.576061095472202467e-03,1.055930913584145724e-02,1.909406305342406171e-02,5.263029161445618304e-02,2.981386499686736538e-02,4.083585642456055015e-02,1.004820714393106669e-02
1.713351006016496092e-02,3.342609869469330419e-02,3.048434945379616470e-02,8.356739819834901536e-03,1.084571823174620628e-02,1.886599704751730847e-02,6.909159810368516175e-02,5.174152754889800587e-02,4.494651669811258049e-02,1.433995677775165220e-02
2.155374836394979496e-02,5.055782186040044812e-02,4.290258670074797998e-02,8.088277828116002474e-03,1.107716381209406659e-02,1.926538130028326509e-02,1.768169205243541875e-01,7.126981193533421521e-02,6.086204634275602099e-02,1.899373476428331542e-02
2.934862874154014339e-02,5.677846407352047514e-02,4.729368580499745955e-02,7.761941787935891512e-03,1.125052465197345919e-02,2.065763467988609645e-02,2.950190170471075346e-01,9.138821256368592771e-02,7.258757002195272146e-02,2.234783620160182491e-02
3.786471245979345507e-02,2.908762549305766651e-02,2.187626496876543536e-02,7.367858919552440836e-03,1.136999251585678328e-02,2.177833068697386520e-02,4.253407804241762791e-01,1.097621404544070617e-01,4.259158034051700736e-02,2.260405170591522558e-02
4.326745773121543764e-02,2.470870575995172402e-02,2.493177938755876399e-02,6.895182461906072119e-03,1.142330147946388902e-02,2.085400654579639551e-02,5.007233129924519854e-01,1.176283825006981532e-01,3.402636907866259802e-02,1.963947567661609300e-02
4.425953756352363905e-02,6.574286317593917850e-02,5.689107563896392966e-02,6.334442858594180152e-03,1.139461537054945080e-02,1.808443528036196221e-02,4.606715968720542786e-01,1.105735120594056597e-01,1.075290000347376845e-01,1.509104199628533496e-02
4.130280629758088101e-02,6.508601279242305637e-02,5.238623673475904796e-02,5.677832353956136814e-03,1.127587116262311791e-02,1.556389295285798106e-02,3.312849457471901404e-01,9.372090455672120457e-02,1.293767813578648729e-01,1.059739233903096538e-02
3.445310643514679083e-02,2.812755103599979753e-02,2.367869501720697850e-02,4.914790804187245052e-03,1.106145538897214571e-02,1.438978999871939023e-02,1.804569146519136302e-01,7.355057520774825608e-02,1.030047981464015244e-01,6.216088171528219401e-03
2.441612857687478627e-02,1.970656011695195997e-02,7.186805946925830385e-03,4.031891520603956766e-03,1.074346868946111921e-02,1.344023644663720242e-02,2.998171200124682620e-02,5.049726527154246164e-02,6.065759992347174306e-02,8.911857565121556130e-04
1.463873257275062970e-02,5.500098130377487765e-02,3.170909811254448568e-02,3.022869203551695975e-03,1.031367286971155220e-02,1.156059528155788454e-02,1.235025600699431597e-01,2.599375816026691308e-02,2.034824450511372312e-02,5.015539491890697726e-03
9.916507243365697138e-03,6.858912278783084460e-02,5.265972756639739072e-02,1.889710198555983028e-03,9.765024488798177901e-03,9.422519781702212369e-03,2.275058690496335190e-01,1.272407598694377806e-02,1.591932711363431077e-02,8.595230494536552912e-03
1.171860403474551948e-02,6.723660570445227913e-02,7.440124287388712176e-02,6.218170439789066570e-04,9.092420624054770029e-03,8.183007347112211324e-03,2.088654989822734676e-01,2.483721341746324487e-02,4.826906410792075608e-02,7.600408675129536815e-03
1.534390997296124562e-02,6.165949564912974468e-02,9.879926220942179815e-02,8.063572736580221917e-04,8.294085963192478553e-03,7.289917769061863596e-03,9.958852936242948428e-02,5.499439116795302313e-02,8.064122072073102998e-02,3.795873820434125107e-03
1.412371705317179253e-02,5.527432278355740719e-02,1.220264798359035618e-01,2.390425371047587462e-03,7.368252156212158274e-03,5.135351643837512622e-03,2.841861154142735074e-02,7.592774181086682506e-02,1.159115946724559587e-01,4.887325742287416735e-04
7.226846994749561680e-03,4.812647735835549889e-02,1.346589927957776989e-01,4.089461473824571557e-03,6.308273925489422604e-03,1.562490097644791704e-03,5.567311458555339321e-02,7.167584294406736944e-02,1.384462041645430908e-01,2.046127652178900309e-03
1.359419547753157125e-04,4.069404501588089196e-02,1.306869294661019143e-01,5.921388082408644664e-03,5.110653376418508066e-03,2.099886290110087022e-03,1.114697396112054040e-01,5.277521109791503962e-02,1.240834465443000217e-01,5.092385941046263104e-03
4.876541905791538858e-03,3.091291980752094645e-02,1.154021380448263384e-01,7.979361200631912912e-03,3.786698340191928681e-03,5.346927914524889427e-03,1.275409812832544731e-01,3.523439702540147322e-02,7.782994557222709664e-02,6.552825168937537539e-03
9.271072133326258013e-03,2.245724304190337833e-02,1.012291567228649769e-01,1.022822693476232309e-02,2.345239560077334168e-03,8.532716468990739558e-03,1.226848604220561328e-01,2.181523052435743737e-02,3.846627851437926793e-02,2.435129894247997986e-03
1.534403341130718273e-02,3.419564025468432855e-02,9.898749547531239534e-02,1.246377096747276932e-02,7.667200656278255798e-04,1.090669026529582537e-02,1.221490760430977984e-01,1.025893541837405443e-02,3.627004858325564435e-02,5.811494960748510644e-03
2.184243769295437371e-02,8.148587771281601277e-02,1.139914330543134874e-01,1.474876207308659440e-02,9.605571643360540004e-04,1.164739676021296286e-02,1.088332809455722777e-01,2.835527656440021711e-03,6.701752802578170298e-02,1.040971754770887193e-02
2.776859494060332154e-02,1.483101795197745987e-01,1.433155075256653255e-01,1.752345513665668625e-02,2.784179506120967960e-03,1.258250512467552935e-02,9.738017865569936760e-02,7.348204499161704699e-04,1.114750291189111620e-01,7.146943082745049747e-03
3.371687202882558965e-02,1.952230897206249649e-01,1.728356859488208164e-01,2.064114849660260084e-02,4.663969264414874992e-03,1.636026650827045875e-02,1.384444632659302121e-01,7.360229492726955841e-03,1.569625892369439502e-01,1.902595961658078670e-03
3.883850261262058318e-02,1.975782317512032316e-01,1.836478608083470243e-01,2.280038467369284796e-02,6.694586993717717253e-03,2.200005821549438911e-02,2.079802948311842148e-01,1.962567429256656393e-02,1.949658509054691680e-01,1.762721068587332508e-03
4.105961278142460091e-02,1.694877161975171798e-01,1.689780781034231349e-01,2.305288932575216138e-02,8.946059304189995370e-03,2.589354089963629910e-02,2.144661064801125505e-01,2.982554292329050311e-02,2.188260723438258393e-01,4.078817279653099495e-03
4.130361921572318212e-02,1.501058620843541136e-01,1.407124349858935031e-01,2.239810691750794905e-02,1.119791379337593644e-02,2.730457752646073960e-02,1.517546579380368299e-01,3.240317667114243905e-02,2.288765143246866141e-01,2.628722558791467094e-03
4.340524419763005376e-02,1.631566546791909655e-01,1.111456525907855986e-01,2.268445630374522903e-02,1.327301916021229530e-02,2.948915933033635639e-02,1.236667328482372180e-01,3.515981392320290111e-02,2.241429716927234306e-01,4.924278745654824593e-04
4.895328126878114444e-02,1.886343137974191564e-01,7.601212488131903200e-02,2.452216785239388561e-02,1.562014284751832814e-02,3.508539543029273733e-02,1.895883758669723029e-01,4.942177943188699046e-02,1.925807822627615407e-01,6.160898408568394116e-03
5.587618404809224087e-02,1.876459351345908522e-01,2.865634251715799483e-02,2.681578378619075415e-02,1.863000147128651696e-02,4.280584042727880040e-02,2.913384714480651838e-01,7.261236781535546081e-02,1.294486029090474166e-01,1.907221899125002146e-02
6.195404157667071948e-02,1.566322599604520749e-01,1.864559885357791255e-02,2.708898351338488372e-02,2.126948002929824125e-02,4.900045458019086642e-02,3.504259719943950135e-01,8.911620415546181451e-02,5.896339155544114835e-02,2.960439118469235936e-02
6.595505175756093130e-02,1.343164504461314135e-01,4.368452994845321846e-02,2.296934585154022587e-02,2.208396314833008939e-02,5.145886275182016967e-02,3.561881356707352064e-01,8.892689409528502231e-02,1.712412030650931061e-02,3.309405280137438926e-02
6.647588482999677861e-02,1.484719988812636393e-01,3.847924318672035771e-02,1.591145367715435591e-02,2.203546906332180116e-02,5.128403487132711380e-02,3.413045109168212354e-01,7.877035252359589068e-02,1.782857827638516246e-02,3.499793822063584914e-02
6.383300504878755555e-02,1.777234983350541309e-01,1.474093977183494643e-02,1.201689999256067183e-02,2.402868783215227413e-02,5.121101277146698771e-02,3.302101013774102478e-01,7.312182259870587953e-02,4.498276432938010105e-02,4.145136892601131162e-02
6.236784229027800275e-02,1.804269005564767547e-01,1.145498945206360406e-02,1.612308861308721711e-02,2.878688900207556842e-02,5.352750945195188653e-02,3.483572595727777443e-01,8.133133188932700763e-02,6.840568469687072217e-02,5.147629543746321673e-02
6.729811564727739004e-02,1.494960184901560907e-01,3.650892298295280169e-02,2.665980613653493730e-02,3.382164518427517585e-02,6.011462095440284897e-02,4.475563166221584455e-01,1.061779270480285031e-01,6.912873637833896745e-02,5.995042746811606732e-02
7.886704821619475170e-02,1.168710501929214191e-01,6.490054376036410999e-02,3.802825352806363246e-02,3.734369507812688310e-02,7.151727649346070748e-02,6.561805306148486006e-01,1.458871827563584245e-01,5.944570159181764707e-02,6.392716110833290832e-02
9.133795657376607424e-02,1.077677201732478995e-01,8.714269818231329401e-02,4.546239032315549378e-02,4.020115507700785379e-02,8.408577307687099822e-02,8.967227985466985629e-01,1.901074306707318806e-01,6.600277850476123087e-02,6.463903572298640432e-02
9.788952074294837713e-02,1.210338045321002476e-01,8.464382909422389634e-02,4.683053884044359461e-02,4.275796967116314573e-02,9.056189194203147219e-02,1.014327604955030493e+00,2.190581896963600117e-01,8.979414578870267838e-02,6.530136467534347622e-02
9.519795036819632406e-02,1.501213372591739814e-01,6.627446834434264078e-02,4.285710899179999422e-02,4.285080913399601926e-02,8.557851725552413635e-02,9.191967323813531321e-01,2.161111112996361161e-01,1.097297493158742587e-01,6.617410570625294197e-02
8.373046152743625348e-02,1.809660086279054614e-01,6.262880099497629416e-02,3.626233852377091366e-02,3.886860593515267803e-02,7.034896874317539406e-02,6.722456211449163721e-01,1.843459294506047674e-01,1.218901829787418234e-01,6.070225343390323741e-02
6.703381235804277416e-02,1.758951010585199926e-01,6.450461630620725473e-02,2.867881040352593391e-02,3.319353226040005350e-02,5.314612371798552864e-02,4.322132783417358404e-01,1.494155749599848093e-01,1.315724446467362585e-01,4.249735015346393224e-02
5.204248656123008909e-02,1.107939633460092305e-01,1.759786498749764394e-02,1.923932147633874643e-02,3.061542248449671683e-02,4.550034005659073927e-02,3.523065666423963460e-01,1.430021972725438184e-01,1.116924325198816181e-01,1.950928327184917044e-02
4.496767715250014896e-02,2.542619912112874248e-02,8.957364421235948504e-02,7.800853531445155198e-03,3.293651220180045247e-02,5.261686312912960961e-02,4.789990738670588111e-01,1.736366723873538354e-01,2.798938883261982077e-02,9.737832437826842574e-03
4.279129165334710772e-02,9.329785277054778586e-03,1.874122343000064750e-01,2.875044796785952098e-03,3.544265244888272770e-02,6.355386355693311284e-02,6.675360452179148751e-01,2.071089173953992724e-01,9.181654458458889112e-02,1.521323720199344726e-02
3.336539341670323455e-02,2.478507713002506968e-02,2.145778883560636729e-01,1.023236537384323262e-02,3.044190847818066537e-02,5.701221497095296936e-02,6.472355879207721818e-01,1.909206228000969174e-01,1.758850762702465764e-01,1.480876748467256990e-02
9.159434691657784150e-03,7.696842978218387810e-02,1.941003274408451551e-01,1.467003946047126632e-02,1.617405989132238847e-02,2.446056975763693728e-02,2.870670744303684963e-01,1.149693632319128828e-01,2.012987551027928812e-01,5.357140141856977372e-03
2.134897859313377583e-02,9.477725083983427889e-02,1.824372188411943208e-01,1.743440573969465279e-02,5.239845337792780645e-04,1.604226901316662540e-02,2.205289869728725982e-01,3.336063067656219738e-02,2.094882380545284584e-01,2.841681571112341514e-02
3.949140606916150265e-02,7.504885545915447598e-02,1.909982004612450768e-01,1.801028470285248942e-02,6.662603412601610445e-03,3.652010468952118782e-02,5.386448572831812331e-01,6.842321480100452616e-03,2.242467962780274882e-01,2.841413232970015079e-02
3.400868460058211612e-02,4.366599609724228920e-02,1.952533370863284989e-01,1.536083574252626247e-02,3.500504185290231711e-03,2.794935874084005997e-02,5.481411820018678993e-01,3.776289395827922557e-02,2.161681959868382019e-01,5.999070621404178558e-03
1.343942922444885807e-02,2.509608809015378278e-02,1.827871303183950247e-01,1.087522101415899778e-02,3.248184731733486184e-03,7.281610215462010205e-03,4.571283940691246439e-01,7.867810595463077539e-02,1.632376074638350050e-01,1.251495494317839477e-02
3.456533567366025170e-04,4.120302858943096502e-02,1.590882830927878300e-01,8.565450453520322485e-03,5.449232841779384079e-03,2.551795279400755935e-03,5.340266984359249847e-01,8.979898228711635788e-02,9.636283972787849927e-02,7.665998410770198494e-03
5.641361496622812437e-03,8.830721096936801351e-02,1.321530227850098160e-01,1.126495006291986130e-02,7.783991049712711899e-04,5.234569362415403791e-03,7.943954427125463624e-01,7.063221439045985761e-02,6.333633553494348589e-02,1.436582472368096164e-02
2.166989030560036861e-02,1.103430842148863250e-01,1.135686276492172547e-01,1.663789485802614002e-02,5.831898655619758426e-03,1.950962666136648455e-02,1.017729772077946127e+00,4.559346739284528965e-02,8.006980688919218547e-02,3.415487933732376524e-02
2.828178505267756743e-02,6.249885396675381594e-02,1.132055915365592635e-01,1.861578952522701530e-02,8.020784194933724964e-03,2.788084289345661368e-02,1.045073584079691420e+00,3.476925899271662845e-02,1.321053177076162433e-01,3.893534071588271306e-02
2.001562641436139406e-02,7.433309169865376029e-03,1.210645280920616962e-01,1.406668541786709227e-02,5.325894956864321572e-03,2.989293412075091916e-02,9.428918292427866943e-01,3.684010011096091469e-02,1.929323233291442563e-01,2.973129172921495922e-02
8.950360733723293147e-03,2.463623438879231770e-02,1.149647099013994811e-01,6.433677800352774999e-03,2.794046628546872652e-03,3.134019183533563735e-02,8.508394940504837578e-01,3.264781055542528843e-02,2.249638322219263686e-01,1.733176646024524314e-02
6.335908469584369991e-03,7.145491985008754592e-03,8.893217605028033712e-02,1.159259011049429758e-03,4.000901295527316444e-03,3.238749208161702947e-02,7.997954241388190999e-01,6.046922934016599888e-03,1.964967113387780517e-01,1.134546815555857388e-02
1.074214735163509134e-02,2.576297432835344264e-02,5.850359469086597458e-02,1.421817097551603647e-04,8.140059100966354905e-03,3.064804063660343109e-02,7.433235675550268207e-01,3.911421653800590398e-02,1.220344656338948619e-01,9.702536384220626989e-03
1.621494669645545672e-02,8.485066039665747906e-02,4.736616278451000195e-02,2.426692192152061014e-03,1.334411477615962335e-02,3.126982268341146898e-02,6.674587266072223857e-01,8.620198354226353554e-02,5.941427990052064456e-02,3.558718417883822375e-03
2.110001284256314905e-02,1.417303591931316775e-01,7.415819350136582111e-02,5.473733178465431393e-03,1.768283070744003718e-02,4.076477142171194834e-02,5.965000297468708856e-01,1.235568419360906223e-01,4.728573096049402957e-02,6.979519193648722926e-03
2.493910672803780967e-02,1.991412341338558989e-01,1.282962260143659106e-01,4.016179675191985585e-03,1.739513580079455821e-02,5.337183516531801564e-02,5.402579762507194738e-01,1.488882907288522905e-01,7.098019566916712042e-02,1.147685356897334280e-02
2.671740999817465503e-02,2.802262852407172433e-01,1.621991705372977932e-01,4.604134494502590096e-03,1.078009465832845300e-02,5.759479779765160068e-02,4.864641321099448801e-01,1.633878774721254368e-01,9.964283887331436274e-02,4.249299100226130999e-03
2.859073966273786849e-02,3.525873708159638631e-01,1.399878439933553986e-01,1.211812955844771000e-02,3.559607421489122472e-03,5.363668650562345569e-02,4.279111673269353489e-01,1.658622076932224909e-01,1.183924750882469068e-01,8.916218855534258081e-03
3.408923660407321699e-02,3.706825922001535933e-01,8.602501900411503588e-02,5.884792592208073179e-03,3.115217878209520716e-03,5.029198407883175848e-02,3.701171047140645598e-01,1.509712209078852563e-01,1.144855002858857912e-01,1.950022875667308669e-02
4.508853779856338007e-02,3.634028108114002453e-01,5.574834503250800793e-02,1.444132194984995218e-02,8.024251182264760182e-03,4.853270702010092225e-02,3.177613211679066740e-01,1.194141417410296974e-01,8.280409524194044801e-02,2.247475802538435180e-02
6.422273045678258963e-02,3.961164870598414267e-01,6.836428748935627353e-02,3.566867255680039595e-02,1.087531865443758933e-02,4.287817950269888490e-02,2.682302561785938622e-01,8.918615376867103373e-02,5.715836124307967919e-02,1.460359589143294702e-02
9.177581607668616748e-02,4.667137304166807388e-01,9.031546577558242916e-02,4.671574782657902242e-02,1.063034372628026900e-02,3.597509797649184327e-02,2.180371547327181192e-01,8.210207694979453075e-02,7.889096601225341343e-02,1.470327531855482404e-03
1.180648291064528288e-01,5.103000628069612743e-01,8.020282624794804194e-02,4.780041374379915414e-02,1.415102922071419071e-02,3.775314688653440276e-02,1.680569300440217240e-01,9.673821632027257422e-02,1.287108011701793842e-01,1.131320043329157171e-02
1.286067552021328275e-01,4.922518243580419339e-01,3.767767194534076686e-02,4.503350196145227552e-02,2.464453750375105237e-02,4.985765837383360211e-02,1.214481446842155393e-01,1.073828378164295577e-01,1.532667913614120803e-01,2.363835207260907116e-03
1.172896108647545066e-01,4.346992103259423312e-01,3.212805061700591686e-04,4.226459329852569335e-02,3.536693435991764695e-02,6.163916209186352108e-02,7.954589785860953499e-02,9.352711171952167446e-02,1.504896146860802975e-01,1.581048802023211214e-02
8.850403920572201544e-02,3.566372303730259152e-01,1.127419674471568517e-02,3.780748345797634719e-02,3.732228515419182963e-02,6.348719839350877581e-02,4.040527388938844333e-02,6.137580325594057390e-02,1.541019082936996853e-01,2.231557382418807023e-02
5.074178095581707848e-02,2.501289776113923002e-01,2.729014671884147369e-02,2.643968895011327563e-02,2.950440178526439472e-02,5.619347465831770611e-02,8.055002840876429593e-04,3.224788743149416270e-02,1.529424728682104995e-01,1.305519440938694535e-02
1.528755344421950380e-02,1.368095267747244659e-01,8.205601851082966469e-02,7.531545534497627314e-03,1.993102035380807380e-02,4.630687638979757992e-02,3.958810552495260759e-02,2.096624578048413012e-02,1.104452261917911460e-01,1.227527223118885305e-03
2.244165314085732471e-03,9.311740433605518452e-02,1.467615347535357329e-01,7.555210695966994676e-03,1.861151516713407950e-02,4.042261694215092127e-02,7.684493092745262044e-02,3.340310603008624091e-02,4.916818620811490986e-02,1.601513589380289954e-02
1.044758769603763154e-02,1.655593626665203544e-01,1.524559947385089875e-01,3.377138340269785453e-03,2.940521876254744912e-02,4.415794203295667769e-02,1.079242954196607540e-01,7.131591916020556254e-02,3.452564604493528477e-02,2.787905951282318787e-02
4.708539702843607400e-02,2.874254861915827575e-01,8.511320896676696779e-02,2.019314577796095175e-02,4.655448148834057109e-02,5.771503880945931531e-02,1.351078771292315295e-01,1.249635474534438601e-01,7.668487676332072511e-02,1.876211750916383786e-02
7.998137055084564295e-02,3.385785776451539220e-01,1.173008558249994358e-02,4.377024074536636777e-02,5.885816534166117553e-02,7.070680690551744974e-02,1.614482255845602898e-01,1.671357891482633806e-01,1.111051738803004868e-01,2.381510461861597802e-02
8.264062900477811557e-02,2.808432585325519315e-01,4.427373235454996718e-03,4.880137391178147183e-02,5.854509593291230829e-02,6.870503807713618238e-02,1.858676087650658615e-01,1.695668772654886358e-01,8.221403237928047447e-02,7.486947089840820246e-02
5.706761108989031467e-02,1.859580927512182180e-01,2.570822460961860040e-02,3.678967468042704247e-02,4.712180184070257488e-02,4.820064649269464874e-02,2.075559145083542834e-01,1.314989372016990843e-01,6.354237372522074379e-03,9.220696581746992693e-02
2.940275827935896411e-02,1.351068786409186651e-01,4.926909905704290188e-02,2.390416873342224302e-02,3.271373734150161139e-02,1.996885088153603841e-02,2.290774040771505760e-01,8.244095549529355249e-02,5.584698177635680216e-02,7.012735142497174279e-02
1.565062695644089258e-02,1.380079977338985187e-01,4.238317744520331276e-02,2.020796946089456134e-02,2.148877617343776178e-02,5.061382936480433685e-03,2.501545615495219810e-01,4.727425370773032792e-02,6.724600438314667916e-02,4.369575067180508920e-02
6.044410667686361122e-03,1.551831399915301057e-01,2.605947329398207793e-02,2.066967401379062735e-02,1.310621666252013984e-02,2.568840651960386384e-02,2.658711601479852860e-01,2.258145441243363666e-02,4.280441914546211785e-02,3.784615737429578713e-02
8.733752732878978867e-03,1.569287522778347321e-01,2.404820510583379617e-02,1.760918789580933480e-02,5.817233482369289256e-03,4.125548857596366553e-02,2.752672188637316220e-01,1.112933073329127470e-03,1.664271071109181196e-02,4.075195923339974130e-02
1.609495245424052978e-02,1.379423694055320615e-01,3.163711082742307057e-02,1.308842889701227266e-02,2.073543350783435893e-03,4.324185345573879069e-02,2.836333613136692855e-01,2.825719558679783833e-03,1.912590720888280964e-03,2.972499638563961752e-02
4.393879838122486184e-03,9.645314223105018459e-02,3.702518555998016159e-02,1.166139815375788653e-02,3.995612290035307351e-03,2.712703561668872165e-02,2.934288387437955503e-01,2.122606128347217375e-02,1.011175512906404856e-04,1.678720250137647006e-03
1.190722089362286629e-02,2.826633953678214795e-02,4.980656097499166352e-02,9.149835793477221688e-03,6.558366378537641705e-03,5.670142588525510854e-03,3.010634051234974962e-01,4.831744646425700090e-02,2.489362635643649346e-02,4.133652888231860445e-02
1.326037152711210219e-02,5.442333823285269712e-02,8.229223971308763375e-02,4.921299269976869492e-04,2.450136181210461894e-03,1.571413667359994326e-03,3.042381232857476747e-01,4.498310603263368235e-02,7.966277737717906982e-02,6.393228260285400977e-02
4.281268166732311517e-03,1.206342227900185915e-01,1.190933337465284597e-01,1.324418284501178988e-02,7.697997631352590693e-03,1.045660337950116321e-02,3.051836990089130675e-01,1.601538999904684665e-02,1.310639380612491911e-01,4.889649334910630557e-02
1.609487131126060688e-03,1.628585374493894400e-01,1.356873076995812610e-01,2.084887514790250557e-02,1.636245296604800850e-02,2.879253236239909600e-02,3.056766385607714298e-01,4.001612952814840793e-03,1.494291601914300993e-01,7.105101660652963710e-03
9.862817636518902975e-03,2.236545802713885145e-01,1.358654782433368624e-01,2.375786215210812929e-02,1.939164239041529791e-02,3.830684837817082550e-02,3.040526823058387063e-01,4.108802006049024069e-03,1.593884897792020305e-01,2.925529551232448899e-02
3.273242023794769445e-02,3.296377867439179710e-01,1.399002375733143511e-01,2.828608209959380948e-02,1.986068156930596851e-02,3.704999034147488796e-02,2.980546571046442939e-01,2.720041663531190534e-02,2.037458821983013091e-01,4.788872666971295822e-02
6.256502393286977881e-02,4.136663952370754904e-01,1.469049800806705719e-01,3.495545091559586898e-02,2.250917933205506469e-02,3.647895986829131909e-02,2.878988554023168556e-01,3.920960341365305885e-02,2.713380023692091303e-01,5.945474843530353104e-02
7.922652865716854620e-02,3.783870469482535914e-01,1.402302707559198447e-01,3.865165416120551478e-02,2.844396545865258627e-02,4.700771105060978089e-02,2.756817737000331059e-01,2.715599177687081853e-02,3.103786040152574088e-01,6.278234887057564106e-02
7.665008498185792163e-02,2.351135474631170230e-01,1.154358312930602037e-01,3.721305784572946640e-02,3.491442073859773315e-02,6.403340230460519145e-02,2.629823033309951485e-01,2.403889988384196735e-03,3.013282231880518025e-01,4.109858467963259376e-02
6.506395182885933715e-02,9.884774889866349001e-02,7.560625153081299010e-02,3.258253961128451670e-02,3.792886024359005265e-02,7.172698182836559355e-02,2.496374913212738023e-01,1.344366097535215285e-02,2.638827133229408317e-01,5.834454410974957393e-03
5.186517346131416795e-02,4.557677514124605644e-02,2.224433727824384061e-02,2.592893445026669963e-02,3.550911920037791436e-02,6.156353104476584848e-02,2.341898927084282434e-01,1.438929311509177383e-02,2.051332853218634789e-01,5.096080689544954523e-02
3.520958740480659155e-02,5.449825765805196842e-02,2.721428256217268277e-02,1.720136166926029136e-02,2.919110567498970840e-02,4.215755236233641179e-02,2.154636976181475150e-01,1.320838380040490444e-02,1.220339530375406656e-01,6.807056458245314134e-02
1.577909639912951009e-02,8.696102910332413616e-02,4.384195351564749987e-02,7.869621833634292060e-03,2.182152039571420496e-02,2.786689254256455653e-02,1.942223426109603579e-01,1.822066579997101698e-02,4.811375477341023332e-02,6.025838947919091859e-02
2.922046162154415955e-03,1.399296701433555001e-01,2.628676786284097483e-02,4.697898822666230108e-04,1.491466513138520536e-02,2.354604028818688480e-02,1.727041028448136339e-01,2.269364002358701879e-02,3.710061973244773575e-02,5.089083342021006456e-02
4.365555503642220940e-03,2.147183672423914058e-01,4.221884348723406455e-03,3.521476042735473093e-03,9.613227552887827765e-03,2.513852356134961899e-02,1.515955089593174487e-01,2.163037503098336548e-02,9.524526346912833008e-02,4.807747787136509854e-02
1.444103650656024598e-02,2.923111580922221342e-01,5.441409964474622912e-03,3.787910497952311131e-03,7.729760737354858177e-03,2.815957469845378064e-02,1.281262344509284390e-01,2.088009160035893610e-02,1.668807693204192311e-01,3.483871641166415289e-02
1.925085801110224676e-02,3.448891431028066612e-01,1.380333828613391003e-02,5.470463192571448433e-04,9.180318196570124573e-03,3.002036217810431437e-02,9.922625336265410156e-02,2.578583180261198246e-02,1.870250967064940040e-01,2.071964200845038441e-03
1.510793335540047341e-02,3.462642351099585181e-01,2.738821681293034799e-02,5.221682890249278869e-03,1.154327881780765896e-02,3.102624506319414180e-02,6.645119434077451093e-02,3.934123646889528536e-02,1.312862464377858029e-01,2.923362533766821203e-02
1.318043438506916534e-02,2.948738186305092657e-01,3.228260499222571772e-02,1.158995948890133298e-02,1.389273338864820823e-02,3.460876592540170632e-02,3.425960434652335768e-02,6.567320258467633509e-02,2.667897449643588659e-02,3.483598334197714197e-02
1.930751328767755723e-02,2.464502951705815903e-01,2.068720482748315562e-02,1.595169320674614047e-02,1.565593096081299013e-02,3.690615928321398787e-02,3.333039393297078379e-03,9.027134407211007128e-02,6.782523239969281970e-02,2.115418719968856567e-02
2.105848225175035657e-02,2.742670223953395103e-01,1.021053957655184558e-02,1.612946350273634921e-02,1.187130363500892016e-02,2.197869074397477973e-02,2.909424743872397051e-02,7.519651076163358372e-02,9.722742746248816403e-02,1.401408618541563102e-02
7.352892241604166990e-03,3.619228973081854983e-01,2.100951348423538839e-02,1.253150862378882291e-02,1.084751376170278638e-03,1.521980601818669759e-02,6.287982628672694752e-02,1.146759649110441065e-02,4.686559459170014375e-02,2.135510385994051144e-02
1.137287190953143595e-02,3.957687311996729296e-01,4.523817752494294075e-02,8.333122855550514213e-03,1.578592762894491519e-02,5.075138571383874808e-02,9.670190203751498348e-02,4.907354477819408922e-02,4.511561954179808820e-02,2.593865689385507073e-02
1.896825398129071277e-02,3.125017450056792878e-01,5.766163663639791576e-02,5.777938579964825121e-03,2.114024050714835221e-02,5.961222388460643562e-02,1.338756274088934162e-01,5.843702131400152489e-02,1.179467949778310598e-01,1.321029648460836196e-02
1.870870577152242836e-02,1.861527231604752641e-01,5.248702660956038740e-02,3.578377466881508054e-03,1.820568117198578806e-02,5.045999522961688161e-02,1.753164758609283835e-01,3.788572599858084505e-02,1.439140336488696492e-01,1.190108557579347935e-02
2.442550385511487940e-02,1.108126720548817945e-01,4.777087312604474945e-02,2.854421890339724037e-04,1.701908940976929602e-02,4.795251982068905738e-02,2.121645704989418291e-01,3.296417669126119887e-02,1.482797280442302579e-01,3.593725323289852919e-02
3.430920647739405666e-02,7.554450036365073506e-02,5.131776139440968887e-02,4.756363297267464547e-03,1.984152659542274752e-02,5.350917257343143496e-02,2.408842977844155575e-01,3.921719488089160655e-02,1.599928205110525137e-01,4.854489139265187603e-02
3.231494615921433333e-02,2.595199573996701675e-02,4.560683371932983815e-02,6.778574133871164906e-03,1.938436850530526195e-02,4.933924243047339148e-02,2.756031044815971387e-01,2.124019636163543973e-02,1.607067993133529660e-01,4.455540579273614687e-02
1.317180557865625483e-02,2.836355845318494495e-02,1.578619100782441276e-02,5.692930146985730570e-03,1.254116608749046916e-02,3.130724342474658362e-02,3.270233949987941258e-01,2.282050465385639104e-02,1.139561762279864138e-01,2.697208206241411693e-02
8.579721704464249310e-03,4.899176243769534644e-02,2.532487985464628236e-02,4.924168217461950825e-03,5.911504052574583293e-03,1.503426031940148511e-02,3.841101121557403686e-01,5.715867061076926325e-02,2.765656839481883331e-02,5.299513216812070521e-03
1.487659881071679360e-02,4.933795725962003553e-02,5.374481186879801614e-02,8.524022957387179106e-03,7.106792531285078228e-03,1.399804948235051395e-02,4.330627838582672973e-01,5.297696967333934137e-02,5.429860087619887976e-02,1.514281385383164577e-02
2.228414989535039154e-03,6.252827613943501284e-02,6.481791095508740441e-02,1.634307915984596973e-02,1.611895372602261886e-02,2.572194335578869076e-02,4.754175909938405109e-01,1.556013444471683951e-02,1.086024354048894941e-01,3.480494738666114335e-02
1.547840048918498745e-02,7.377657165467525757e-02,7.035449154069052524e-02,2.349633382388479144e-02,2.571324353373972971e-02,3.737694246201191117e-02,5.173085487636198687e-01,2.348766116672466181e-02,1.387815985591779044e-01,4.795839242324168028e-02
2.079274412922409859e-02,5.013069842815859323e-02,7.281653749291956690e-02,2.520567370792148668e-02,2.832445965265393412e-02,3.840587676509463894e-02,5.606155951535710669e-01,3.609068973483479936e-02,1.432768964459052163e-01,4.316698439326356607e-02
1.129442847619375329e-02,4.634800588694781842e-03,6.654238449635541119e-02,2.149537564388469962e-02,2.258248915228368986e-02,2.864713624925918981e-02,6.077865788448759687e-01,2.464713998408097489e-02,1.196763067185645651e-01,2.253647574465927200e-02
1.292319717772114421e-03,1.690552251948373996e-02,6.153686444421446744e-02,1.591910461777402280e-02,1.339786196871944370e-02,1.724713821459381013e-02,6.587800303868065477e-01,1.464791162001320354e-02,8.528262676935863262e-02,7.891269385186229501e-03
3.819916330442972054e-03,1.359657450502428297e-02,7.453040750972173001e-02,1.067071913720341741e-02,6.714201348063877570e-03,1.613790132187981410e-02,7.084626677207931378e-01,2.519955180449599819e-02,6.307879766019922063e-02,1.993995571851595386e-02
1.797818838875111722e-02,9.526684672529062148e-02,9.514879334508723197e-02,5.691012413810907049e-03,5.572852225063389467e-03,3.261010177896690038e-02,7.617176407847248143e-01,5.746922739572077332e-02,6.408378483833516992e-02,5.696937247895015460e-02
3.410435073067608069e-02,2.076735128702920097e-01,9.628346816960976773e-02,2.088267149027770581e-03,9.414908581947972060e-03,6.070959212175569553e-02,8.302426381448085868e-01,9.795974090756563724e-02,9.758083618595347897e-02,9.549509332219291435e-02
4.220817228429671331e-02,3.152995396957717356e-01,7.892055867557848381e-02,2.061807248490388125e-03,1.429077240468994148e-02,8.056237217661509076e-02,8.824038472162418767e-01,1.200680928129543718e-01,1.682588179196804479e-01,1.092891930180145688e-01
3.495357228456742044e-02,3.847695682448772359e-01,6.819691890167879633e-02,3.919061928607073773e-03,1.447292073369036911e-02,7.501530153373565935e-02,8.198359562344352813e-01,9.955224877149751461e-02,2.469846290498751706e-01,8.960927007244315345e-02
1.076502564744221888e-02,4.054553426196129684e-01,6.638914979788411441e-02,1.433995850544303148e-03,6.353810623025401769e-03,4.538090092026884903e-02,5.568097108897364089e-01,3.765153623722008319e-02,2.776738919920493931e-01,4.710727868979897731e-02
2.231158396011287404e-02,3.887934903868092151e-01,5.064679132154396857e-02,8.204674776490266525e-03,7.723238944352311952e-03,6.022642672071068862e-03,1.234907822129522048e-01,4.149313113979869599e-02,2.382082705297687286e-01,3.081260083844562531e-03
4.835063673570704629e-02,3.548946874784099093e-01,1.711389258939005620e-02,1.861454199976242743e-02,1.953780193990335701e-02,2.813072130737412010e-02,3.370578893306570567e-01,1.101110046041021001e-01,1.738448641096162206e-01,4.856594982837671853e-02
5.421113140764115268e-02,3.146278434936714552e-01,1.125443260675014663e-02,2.130150213620554678e-02,2.149682706560372691e-02,4.533478460656976960e-02,6.657776903289687187e-01,1.445670135092133601e-01,1.457159281531662798e-01,7.576943017750831233e-02
4.137664125717913088e-02,2.533795256450168121e-01,2.376338732973722057e-02,1.706128014160928838e-02,1.469747178463768136e-02,4.182593457765936690e-02,7.810889497005133464e-01,1.320534963811540452e-01,1.587815440260622601e-01,7.622186068616464139e-02
2.412341872481321356e-02,1.482655934654300012e-01,3.630469753253230680e-02,1.465063265013804433e-02,7.876220731578873618e-03,2.815298905958272049e-02,7.226220477574794021e-01,8.558610782164716158e-02,1.668826058525555989e-01,5.859836259207569509e-02
1.462453386130654377e-02,1.111351608279787830e-02,6.120947633671176141e-02,1.877356320066463080e-02,7.436588851828363975e-03,2.088847345641813361e-02,6.188163520370619786e-01,4.074993807811858049e-02,1.391685582067658244e-01,4.130463565288942235e-02
1.390366953859225631e-02,1.096194146442095035e-01,8.843334445497114116e-02,2.540940255943008666e-02,1.201150649025290416e-02,2.558502740147457558e-02,5.707580860731692463e-01,2.385326255451581529e-02,8.654307067773824025e-02,3.282522766651174706e-02
1.632587019356587094e-02,1.757992887918072844e-01,1.020896857434745453e-01,2.879033309578891975e-02,1.703819508720873233e-02,3.434189771268591346e-02,5.685838192028889182e-01,2.939774638331690143e-02,2.572043699012274351e-02,2.890406840367192379e-02
1.696864536935238643e-02,1.859681975884682203e-01,9.487531655716990864e-02,2.710193495232875172e-02,2.023745240532969641e-02,3.918448003640036259e-02,5.647559126681562791e-01,3.815095226417875018e-02,4.153970969852378847e-02,2.613326310139755387e-02
1.511764751155089681e-02,1.623745877431962414e-01,6.320279578384077612e-02,2.139759095172282660e-02,2.158435171662682200e-02,4.097696215505625822e-02,5.790785831173999032e-01,4.723801056501301249e-02,1.047624781926910359e-01,2.734299146676836406e-02
1.476059209060398385e-02,1.362006582097204932e-01,8.793601305392650253e-03,1.427544014522758725e-02,2.151046750402348107e-02,4.443789468908010409e-02,6.351049461809775698e-01,6.705837501297098879e-02,1.373111283470832833e-01,3.368336872549813205e-02
2.077615882424938692e-02,1.296649897045047684e-01,5.023009787134570525e-02,9.621495668629558712e-03,2.084298569279471533e-02,5.009899177392170694e-02,6.540520996308780699e-01,9.700944261606705976e-02,1.314316374942340604e-01,4.133822751170368459e-02
3.246817756646832448e-02,1.324036308876836154e-01,8.661972903537523694e-02,9.425452815227202547e-03,2.044651765833922427e-02,5.399772573384134522e-02,5.457221581631537255e-01,1.217300768765060270e-01,1.174336126241471850e-01,4.750461599097850762e-02
4.234504315850965567e-02,1.182093380871285238e-01,8.742573046058874087e-02,1.116408297920339944e-02,1.956738478188001229e-02,5.188940561728334205e-02,3.522588327839784594e-01,1.253531078528885845e-01,1.293986898790153439e-01,4.997481752182368619e-02
4.277668860160015185e-02,9.367202595821493005e-02,6.198883826974908168e-02,1.101212032846364541e-02,1.612932615777332157e-02,4.177152274685803218e-02,1.702832682911885887e-01,9.812825860221029151e-02,1.654050711559758857e-01,4.105430254171896914e-02
3.323777965091921638e-02,9.140648548055978206e-02,2.842781835961607009e-02,8.264408683971713465e-03,9.919343877302243609e-03,2.555419631535559011e-02,4.866013722264625474e-03,4.145072755167765466e-02,1.995740231942907117e-01,1.550400197955834058e-02
2.030246464644680851e-02,1.069742404284835802e-01,9.156826091964173978e-04,4.620613020299591846e-03,3.871650434874527799e-03,9.814763151584006418e-03,2.191910191167553701e-01,2.240253776347583131e-02,2.258204250793698353e-01,1.473268655417051334e-02
1.069460100587921354e-02,9.222610155915668406e-02,2.125996230876749452e-02,1.072627012679561870e-03,6.721147092374566562e-04,2.030609197342084574e-03,4.000492626253672190e-01,5.991345562715867656e-02,2.576548647408937187e-01,2.832104782612789723e-02
5.836739437382682666e-03,2.844763943957427654e-02,2.537790970578413657e-02,2.549517623534431395e-03,7.756844796016166763e-05,4.994506554891042956e-03,3.949411550502099910e-01,5.523765406900097569e-02,2.690496060170947668e-01,1.833518326692178471e-02
4.033927461872000367e-03,3.846463687285748417e-02,5.771048590996292679e-04,6.070442824950002085e-03,5.778261744300789218e-04,1.622308137172601833e-02,1.665579836752576759e-01,1.891282127854516937e-02,1.812431609697641444e-01,3.023975728934117854e-03
4.839370612709281705e-03,5.701647814306114170e-02,5.082393284657978072e-02,8.177576423768168762e-03,3.545543330976049044e-03,3.105064761328616557e-02,1.385973916667988526e-01,2.980607079420768274e-02,3.682935246355015235e-02,2.144479877366721465e-02
8.068387812959789546e-03,3.034825048490895696e-02,9.736873022317907300e-02,7.236598952274365601e-03,8.982623691378267480e-03,4.374875517279853271e-02,3.414328337492553711e-01,7.261791746476931042e-02,2.877297923138252278e-01,3.183770243207554446e-02
1.068884821575936603e-02,5.407950411050494767e-03,1.077039235402073719e-01,3.199657051277689408e-03,1.377504581431632583e-02,4.814358255333730380e-02,4.049973204135426386e-01,9.045174627504265485e-02,4.312968939687987224e-01,3.468153723962218854e-02
8.333243613782815098e-03,3.808842576937358781e-02,8.589173518547313368e-02,1.810008790181435144e-03,1.471671112035362675e-02,4.109917372045386597e-02,4.097109821531895735e-01,7.360098052528221690e-02,4.303007378270489180e-01,2.955483012394644754e-02
3.262122999367275678e-04,8.470951760466345626e-02,5.769352357003303816e-02,5.414858274314806805e-03,1.196155763657701099e-02,2.529584586657621093e-02,3.879817862752757418e-01,3.416584503284676028e-02,3.575287283431056173e-01,1.411228320547102712e-02
8.135060782117283645e-03,1.491736803420632418e-01,3.648347203981192749e-02,6.186128948147513566e-03,7.635022262661553955e-03,7.413978788439952103e-03,2.912772090360898347e-01,3.625839126815030324e-03,2.859177848141307154e-01,1.135396974627832060e-02
1.068400777896440917e-02,2.015330170929607867e-01,2.122907491242786993e-02,2.758220600605405717e-03,3.272515605216804770e-03,5.997939217919219870e-03,1.312843059157695613e-01,2.424557690601118407e-02,2.267468060901033644e-01,3.846099219753801313e-02
7.040187209325946167e-03,2.009035220304637437e-01,1.079462425519610996e-02,5.305663397765353166e-03,3.213144929135019600e-04,1.142036345895787106e-02,2.498794799438666323e-02,2.697317471193952376e-02,1.630779126591302142e-01,5.368892840562801416e-02
2.434298118412984383e-03,1.319095681186734093e-01,3.376923100888665902e-03,1.482971649506041600e-02,2.217506707409486189e-03,8.979087664308851163e-03,5.322395424646799572e-02,1.737455906530981087e-02,9.455805642855340254e-02,5.055606075082923201e-02
7.939887645750027308e-04,2.786919396201455179e-02,5.803162669459398237e-03,2.044096893781248772e-02,1.537192132922688206e-03,1.230152230398868368e-03,1.729170071213270710e-01,3.377067370368084381e-04,3.503107399453134208e-02,3.610414383850664433e-02
5.654134174350397730e-03,4.263155673368913823e-02,1.740253167176381358e-02,1.998398215585596091e-02,1.341296589851306755e-03,8.662546356764364713e-03,2.990002442010852857e-01,2.350567878850865280e-02,1.055287818448103973e-02,2.182050900834194701e-02
1.332173488834023645e-02,2.969720880203357422e-02,2.849542296241008854e-02,1.584511032984773152e-02,4.452611657081608290e-03,1.807246940986791117e-02,3.885802039374940953e-01,4.722098442296712023e-02,4.683069802657116587e-02,1.099716661473492708e-02
1.974008153761588197e-02,5.074976106110028889e-02,4.093446007708494844e-02,1.045695765720846410e-02,6.028136562152072199e-03,2.465262169208707124e-02,4.279452018202150598e-01,6.369381374797740414e-02,7.332700654429191722e-02,2.960202603106749540e-04
2.101902983053251933e-02,1.253508075787886367e-01,5.654601565069169999e-02,4.019585865805955574e-03,6.140330960751421395e-03,2.580733270007262367e-02,4.080943261669058297e-01,6.752405618533410814e-02,8.582617217330450188e-02,1.182406368825896642e-02
1.703284035239748667e-02,1.222472318658281293e-01,6.535578409128238453e-02,2.434718687252404503e-03,5.840550798857604975e-03,2.067507165770033489e-02,3.344089961553648460e-01,5.962344988410960694e-02,8.933065924069925889e-02,1.690864988728395246e-02
9.140457662395894481e-03,3.567895047158679833e-02,5.415383137689437631e-02,5.714788679676326665e-03,5.484747566662045298e-03,1.304179650335058824e-02,2.320978356976653445e-01,4.451041904212429956e-02,9.498979491650320905e-02,1.354588359262728567e-02
1.200880842872515796e-03,6.290410346075876735e-02,2.786681499665887712e-02,4.369814014080644279e-03,4.646258926810628576e-03,8.587069848418234230e-03,1.395122753496439161e-01,2.659591033057876266e-02,1.044978525766444982e-01,9.165045814735390400e-03
1.130223022172840985e-02,9.162487914122668942e-02,8.377599255038661527e-03,1.043218436517113741e-03,2.861201747876534422e-03,7.550675288386061307e-03,9.127681925849250033e-02,9.879269007657049892e-03,1.085960365345790685e-01,1.023596487401743846e-02
1.749696020218259249e-02,4.035499678822906250e-02,1.008274046217973521e-02,7.732591005729901393e-04,1.748753131680923787e-04,4.608179462144658053e-03,8.780102009337906188e-02,1.294983545652747797e-03,1.013903273685443640e-01,1.484989655565973482e-02
1.715604424733307640e-02,2.402839224131732287e-02,2.635037676299634840e-02,8.082941038930493115e-05,2.202877602749368866e-03,1.786447174247023963e-03,9.521986135144913654e-02,2.429621481101516996e-03,8.791346842125027927e-02,1.868967589933181322e-02
1.102768293898833719e-02,3.591225021240155441e-02,4.047006305385481006e-02,2.014088370044226847e-03,2.406471394346925211e-03,5.987592258709149504e-03,8.932683463083518349e-02,8.025895523431230555e-03,7.713578264076823010e-02,2.103146089555701231e-02
3.970532309509872300e-03,1.089565755519468840e-03,4.454940787189961421e-02,3.953156708139640013e-03,2.106833771223422269e-04,4.397943006081671269e-03,7.270599095674351586e-02,2.403766484029671094e-02,7.468612631159812776e-02,2.252476294039315943e-02
8.166859674810567939e-04,2.244263382622280201e-02,4.720836888406506476e-02,5.122384321648163624e-03,2.353281683340543041e-03,1.293416603137557833e-03,4.674021621181978503e-02,3.482528731198691885e-02,8.205012690867043157e-02,2.254597776938382925e-02
6.367079065324791030e-04,9.766915961411694325e-04,5.996961426883125335e-02,6.181270867267557242e-03,3.447951006262748447e-03,1.478928075154891872e-03,1.966751406945168625e-03,3.545210068719441970e-02,9.391582304089750310e-02,2.045472486096336015e-02
1.358921334600391145e-03,4.336472361057448766e-02,7.511119775584501612e-02,6.798518927781692540e-03,2.759064791447256131e-03,3.987838189743727300e-03,9.237446965331268245e-02,2.979583256990386841e-02,9.736956980519527460e-02,1.699359722302985765e-02
5.819588221303031127e-03,7.359351969430473484e-02,6.925961511226706724e-02,4.361146394627702684e-03,3.216052270519757263e-04,6.753505293281942927e-03,2.294020971999230774e-01,2.114103349044868865e-02,8.564116856484303708e-02,1.402228420750791307e-02
7.804569017598629067e-03,7.908632930083921153e-02,3.607496278992244204e-02,2.237213743932170689e-03,3.643707252108480295e-03,1.088203822321834151e-02,3.623296393478300792e-01,6.860270322269688276e-03,7.057224753814915486e-02,1.315199187523441102e-02
3.820454037732827317e-03,6.700561050380519912e-02,4.550087909825132303e-04,9.338557343010348358e-03,7.834547930838041060e-03,1.684996949446786879e-02,3.933181152026462568e-01,1.375424559636807473e-02,6.652938079518462555e-02,1.383571188765848892e-02
4.341048017950635898e-03,3.639563379867830073e-02,1.097733324315579816e-02,1.230624257837348474e-02,1.063603451353727081e-02,2.177954992726651579e-02,2.967876870242739384e-01,3.247368573552882054e-02,6.524468562060642407e-02,1.330784091219824362e-02
1.286888026926156017e-02,1.501574214795008133e-02,4.859258288264309972e-04,1.083625700323196869e-02,1.128942495730620582e-02,2.305906861734585353e-02,1.893344635048222757e-01,3.896372232799032859e-02,4.569763429421681844e-02,9.913631707473554572e-03
1.872235951645695104e-02,6.133901263106267959e-02,1.145774647140617580e-02,7.816589686732948808e-03,9.703692322746119633e-03,2.140483910320446423e-02,1.965471939947809887e-01,3.335816316390202013e-02,8.399778519108662411e-03,6.218100838331902872e-03
2.001289510194740467e-02,6.105180201630728415e-02,1.607574028185802459e-02,4.923882807181606362e-03,6.733160360938454658e-03,1.970161437614210628e-02,2.947624134446001909e-01,2.810657178814085499e-02,2.003036821354127472e-02,6.843685283941630150e-03
1.783844791311055972e-02,2.144572289103249124e-02,2.029955677163865907e-02,2.320601348370076537e-03,4.933114942725960392e-03,2.077070966467987195e-02,3.631599784716712520e-01,3.531699950040434466e-02,2.029546682804718449e-02,1.198177994671755127e-02
1.660959341079506699e-02,1.540879790326190463e-02,2.636585187572867972e-02,1.276933152854403675e-03,6.835352389769227578e-03,2.531884275453633038e-02,3.441153328353980245e-01,5.380517435642255542e-02,1.796017370339708999e-03,1.462774943987790559e-02
1.943128652170972651e-02,9.482343120586098073e-02,2.544658909100526098e-02,3.577615266179128353e-03,1.171925272414135744e-02,3.080907305754225153e-02,2.812217201658684940e-01,7.272509774416277550e-02,1.603448093998192589e-02,7.529236725305221180e-03
2.466585633126398835e-02,2.127625702803304097e-01,1.451702976499754348e-02,8.324893421766932020e-03,1.575890322797759979e-02,3.346375929101788604e-02,2.313146879046171778e-01,8.559335841565825220e-02,2.982160306266470537e-02,7.208097719582153527e-03
2.836984774424290701e-02,2.722279091375782722e-01,3.520747106384097130e-03,1.218111445640246426e-02,1.610003075376531187e-02,3.133072174336436200e-02,1.912824608349224520e-01,9.219698789959437923e-02,4.739824440856849064e-02,1.924191517593626388e-02
2.771646258876645993e-02,2.388265408466048456e-01,8.751735438498197024e-04,1.310999795159398414e-02,1.345330719058195242e-02,2.454542537968509852e-02,1.114020822010690082e-01,8.931776030398469457e-02,6.464297716912960345e-02,2.092152779486225467e-02
2.167421638403665279e-02,1.719446483850795571e-01,5.692487881785415066e-03,1.178107507777228016e-02,9.958042684880057463e-03,1.423143013974582406e-02,2.979903909853928723e-02,7.161714181836446869e-02,6.457381335779237286e-02,1.336641494121017237e-02
1.148394945789634261e-02,1.464597840410097607e-01,1.863605096432017702e-02,9.469070288657528006e-03,6.111977732726332074e-03,2.934749961557643790e-03,1.685620488292235708e-01,4.268241344378283231e-02,4.142637442804491393e-02,2.949820683528581091e-03
1.779800206515625132e-03,1.715481202779075842e-01,3.501510945273650366e-02,6.791768353784528693e-03,1.733178473175793618e-03,4.486584163698763804e-03,1.900169624948504221e-01,1.840532109396949070e-02,1.045302114994166136e-02,2.985392819419985765e-03
1.056346140164004209e-03,2.001682663004262508e-01,4.624584343273561299e-02,4.846196614373803231e-03,9.218563268129521121e-04,2.536337049576249843e-03,4.238105445370477647e-02,1.674331645345360914e-02,1.032105350890943213e-02,1.482367859694641056e-03
5.877025486182617733e-03,1.991034407748507595e-01,5.401487054151286882e-02,5.479280847385067064e-03,1.731085303747648824e-03,9.747699270111044936e-03,1.835650671134848866e-01,4.096021193009269368e-02,1.574008892876944260e-02,1.611807349330515726e-02
1.861873065452779308e-02,1.807428255542152806e-01,6.430128930258338649e-02,8.734430897629673340e-03,9.383490896399181852e-03,2.533205363870131774e-02,3.328999813571643096e-01,7.301718814261172474e-02,1.046640521259015362e-02,3.216780880074968790e-02
2.926674585875408893e-02,1.676005685377520704e-01,7.081036049189200210e-02,1.118812535062944750e-02,1.663234429921145799e-02,3.432411630389278767e-02,3.591244975208947587e-01,9.037248381842914735e-02,1.245425330774052770e-03,3.965479511774724908e-02
3.196544004432445157e-02,1.587890142668942350e-01,5.951171855791152765e-02,9.170127455648591913e-03,1.856948757245749024e-02,3.307486637257666534e-02,3.512750193520488007e-01,8.757941179535616572e-02,8.770915003363560086e-03,3.709431782287406221e-02
2.679321512362752358e-02,1.489235462133740862e-01,3.347734925365533631e-02,3.405602415391517819e-03,1.542312066070087619e-02,2.565691405833173469e-02,3.767019149711531845e-01,7.464424820142022410e-02,2.035718188126479922e-02,3.109684240509956801e-02
1.961576552927391665e-02,1.541562308281907157e-01,1.947210471360433931e-02,1.349377619856096484e-03,1.061833365220101431e-02,1.794342047651553348e-02,4.007067645009285140e-01,6.179721681981770881e-02,2.669240640137971951e-02,2.780646449760341282e-02
1.651474527075211945e-02,1.902229508749055109e-01,3.828623403035315287e-02,1.464162922289633309e-03,6.317436363634800281e-03,1.286835191139646534e-02,3.772500269700020947e-01,5.327437856705363739e-02,9.476465046992097602e-03,2.774983159767308027e-02
1.646133239640396040e-02,2.361221494207210447e-01,7.561156597567410265e-02,1.509275535869646859e-03,2.389319557431954753e-03,9.231658228398222435e-03,3.037354311071768231e-01,4.643209201384722318e-02,3.715557991251683401e-02,2.790578933525712443e-02
1.306296192449322817e-02,2.476080079796302846e-01,9.608746414069158082e-02,2.496977657649075005e-03,1.316619906404102591e-03,4.007588255089109854e-03,1.855416670053311734e-01,3.339119598705758002e-02,8.762070751805897673e-02,2.576181048445591593e-02
5.271073167171932798e-03,2.061371404149293096e-01,8.271229089322652828e-02,1.050288541975821343e-03,3.759133819448176421e-03,2.125360101414943033e-03,5.796782541894140994e-02,1.371783746316899803e-02,1.076410893899576587e-01,2.102733894580901403e-02
1.621851203141427833e-04,1.323505520546758574e-01,4.915689813865199709e-02,6.092463258315547990e-03,4.041931966770143450e-03,3.617036121238505035e-03,1.556399003139970205e-02,2.179475783909236297e-03,8.827600557303560969e-02,1.517743969527669476e-02
2.828831018847648236e-03,5.096092845001395227e-02,1.807379955587595094e-02,8.168288059258534822e-03,2.190251428594222442e-03,2.970026342225952180e-03,1.144688731906800955e-01,1.257233053660509678e-02,4.733558159844226954e-02,1.042193877414589014e-02
1.083054492767903179e-02,2.750071078261724297e-02,2.325031409726553006e-03,6.516920067324752375e-03,1.657694997347145113e-03,1.464180612818751469e-02,2.900902686228616911e-01,4.069133429189246420e-02,1.101523170760426024e-02,8.563049052219162682e-03
2.042912778648420941e-02,8.267773752164320200e-02,3.344591446440779367e-03,3.346216354931273989e-03,6.718790491463983751e-03,2.666773318437086482e-02,4.480156198316695981e-01,7.142079056809882975e-02,1.256515153202067067e-04,9.660173817655806974e-03
3.023479743636193692e-02,8.405116165349073298e-02,1.283534118967050511e-02,5.597482760927622539e-04,1.021277365793613577e-02,3.658005083566726046e-02,5.663641545280576617e-01,9.290669251119541838e-02,1.661852796092429599e-02,1.158917904795262604e-02
3.707219548053428820e-02,3.795385176226263174e-02,1.681111436574583146e-02,7.262274017200432688e-04,9.235486428625823419e-03,4.203134614362215304e-02,6.482408235541813335e-01,9.908389647052755211e-02,3.841239626729664458e-02,1.170159302574986897e-02
3.574753472836517815e-02,1.949888844452192516e-03,7.386446853968534412e-03,3.053843832325695007e-04,4.397812349124205315e-03,4.000893781348471151e-02,6.545044502734590486e-01,8.851143299677464993e-02,4.045261280176151025e-02,9.195606014332292563e-03
2.498682020971595627e-02,4.922029023485548216e-03,1.052659390060084986e-02,3.021324248538977738e-03,5.346324464721775339e-04,3.047672486917549911e-02,5.495224108837467591e-01,6.489064118027204620e-02,1.994178897867510819e-02,5.341325732799532058e-03
9.187850465291682797e-03,4.569902288370383814e-02,2.794266915333976781e-02,5.183851173867456627e-03,2.808090669752172624e-03,1.779336178473427815e-02,3.640958048520358536e-01,3.441699509257763190e-02,7.908906962797420184e-03,1.524411604637052921e-03
6.278091422964582162e-03,8.770700858088070762e-02,4.203790525192968586e-02,5.384237229751773213e-03,2.855627610811949536e-03,6.738071015047716536e-03,1.656819894562881479e-01,2.524212854656623754e-03,3.083636875026644214e-02,1.989413490320813670e-03
1.880528922254047150e-02,1.201875792867991288e-01,5.433224269231733822e-02,4.454755419881185723e-03,2.459963155480487332e-03,1.571245308998470234e-03,7.052101796548884000e-03,2.607674505703607565e-02,4.659812192923443869e-02,5.437905141523168007e-03
2.785448060115783275e-02,1.490830851122485756e-01,6.515158705294131491e-02,3.768602904562950821e-03,2.422661362802806025e-03,8.749659125474080687e-03,1.534246349491505401e-01,4.784887021882507779e-02,5.758614675770925423e-02,8.743585435483584856e-03
3.299575761750582481e-02,1.755351361767679141e-01,7.423852912607351029e-02,3.512311314528855383e-03,2.476174240861352821e-03,1.545345327357802723e-02,2.783996344102764309e-01,6.256569752688817543e-02,6.764060470756050325e-02,1.124051622296333083e-02
3.438628009490710125e-02,1.949321213668791242e-01,8.211254646728614881e-02,3.214791327660738215e-03,2.386300689196250036e-03,2.061016443503880385e-02,3.782124065117122846e-01,7.296157718317353158e-02,7.955487635572675020e-02,1.177169863681169250e-02
3.440898388121092777e-02,2.071580214846338308e-01,8.798098423606957874e-02,2.793099803508503932e-03,2.329714974702933906e-03,2.377625031007571735e-02,4.505495281571122446e-01,8.173580191100843217e-02,9.108790306211564380e-02,1.005744934510136891e-02
3.552339549766650451e-02,2.173490015566561240e-01,9.006140337500322113e-02,2.463787112042863971e-03,2.437945668932879097e-03,2.578109120187410327e-02,5.020180315043072383e-01,8.934820562474291017e-02,9.773336213037782383e-02,8.211076460004684829e-03
3.597287987686027116e-02,2.266348241507108729e-01,8.857883598276936055e-02,2.270180809236791841e-03,2.526324674748665292e-03,2.677734974446914148e-02,5.432432483252368494e-01,9.408549157127960028e-02,1.001523615706259307e-01,8.635141739889072576e-03
3.199538027598577278e-02,2.283330308762838712e-01,8.506138705553849266e-02,2.112419727934881572e-03,2.473896970720392691e-03,2.609290078980967473e-02,5.769902327031690703e-01,9.455682560983284801e-02,1.021987694113626471e-01,9.869662100238131563e-03
2.487787330385398191e-02,2.193630642504393879e-01,8.036347523836992468e-02,1.968004072887217289e-03,2.584185635420232184e-03,2.468110614687787571e-02,5.897140990570479691e-01,9.215604173234508145e-02,1.020482684023368836e-01,7.933392108992206801e-03
1.969592450592726543e-02,2.095043041537092421e-01,7.546789390114115592e-02,1.880653446346769800e-03,3.050624703941991547e-03,2.474918202240625545e-02,5.594480878463085061e-01,8.767477864314685010e-02,9.292869155008283422e-02,2.769151342046277664e-03
1.608724578055544321e-02,2.045814479887264059e-01,6.745663359655687530e-02,1.857042757085207397e-03,3.226799807164984837e-03,2.519329465347217023e-02,4.719548344277426644e-01,7.429864068638657171e-02,6.988874553148045898e-02,1.162708759627461988e-03
8.030373214431247436e-03,1.850936390973471346e-01,4.235144401494213284e-02,1.870876496136791422e-03,2.411175467005440606e-03,2.094871887240128128e-02,3.281335406626395557e-01,4.183137903416808689e-02,2.681963099551890745e-02,2.021153553023306328e-03
5.031578077527035231e-03,1.265372621303056111e-01,1.386301231528732150e-02,1.911443493432597816e-03,1.350097953286325068e-03,1.028227742900564810e-02,1.531082936893386759e-01,5.668318592795932448e-03,4.597031978961640258e-02,2.712604921836960468e-03
1.494958798394963387e-02,4.221190594644894101e-02,8.961729061094260429e-02,1.982481153726559607e-03,1.550829519414417606e-03,6.500357033705236962e-04,3.187191626028505753e-03,4.500941891157494990e-02,1.444726405779346301e-01,4.405737727165382443e-03
1.597224409505187959e-02,2.285371721890757171e-02,1.486568986541213777e-01,2.079644023667027823e-03,3.005035828868999562e-03,4.606409767877154768e-03,6.663411572442473618e-02,5.676514729397456882e-02,2.353989431964609302e-01,4.088979333457848538e-03
1.181559485780270431e-02,4.479678966239017401e-02,1.656628090326324465e-01,2.191020290395563619e-03,4.196112225736127813e-03,1.536366893207083764e-03,5.272478534356463825e-02,4.611486415174982645e-02,2.780250654030746449e-01,1.346615768942177301e-04
8.258333824586079619e-03,4.010019750405957595e-02,1.477011836867341832e-01,2.307940878249740806e-03,4.372254537120740144e-03,3.508553555987650209e-03,2.728910538848175471e-03,3.146044136493372084e-02,2.624898524434710056e-01,5.101245175795915930e-03
5.106384929059300248e-03,3.038705386881448631e-02,1.161563629567309297e-01,2.425089350122925941e-03,4.214904305834089177e-03,7.489780878425290542e-03,6.221783623843332722e-02,2.055219014887102458e-02,2.123019942464560161e-01,8.897307986068589761e-03
6.552461637648063567e-04,1.739326769881618245e-02,8.377384734758715201e-02,2.535714612731497161e-03,4.349366100945333165e-03,1.089756639170889364e-02,1.126158381441912382e-01,8.908773613000797731e-03,1.549849622714448150e-01,1.020850647277997750e-02
8.278183305992673630e-03,2.370164784759237753e-03,5.461270462878214937e-02,2.631883069968751505e-03,4.595360317534853169e-03,1.433160793980791693e-02,1.484345032012177601e-01,5.132831590478005926e-03,1.057262278709280440e-01,8.839187348881664963e-03
1.381786530191456315e-02,2.293146340383895448e-02,3.164780530915354412e-02,2.706972097539161841e-03,4.666617305663395276e-03,1.679000447610903834e-02,1.669428968176223660e-01,1.674097253506742766e-02,7.115452553922109458e-02,6.081360954469099307e-03
1.550191759404496127e-02,3.748427048106972581e-02,1.607927168503362619e-02,2.755614577043215708e-03,4.632554667924638873e-03,1.727966700814512202e-02,1.766889275159711503e-01,2.382463624435659372e-02,5.192020969835396682e-02,4.888981597387622585e-03
1.547434949192627932e-02,4.761431301298907348e-02,5.335976546456585798e-03,2.772756983983435883e-03,4.622095895226339783e-03,1.634676153969297219e-02,1.903220998223138782e-01,2.959328606319348159e-02,4.294097200363042321e-02,6.735134612525756938e-03
1.615551339288859994e-02,5.752839509302812987e-02,4.235136875766118934e-03,2.754307251338431514e-03,4.600815568254279855e-03,1.525943373707417706e-02,2.087072993501944418e-01,3.552926302282437276e-02,3.727457701363133535e-02,9.577616415874934050e-03
1.718488828509089766e-02,6.625156952047633885e-02,1.478042434621092138e-02,2.697735626385867370e-03,4.505647512593396325e-03,1.448767933486741141e-02,2.222323797609804807e-01,3.914805710620818113e-02,2.852737173430480028e-02,1.057699239352421182e-02
1.700332897302984578e-02,6.950224542855767962e-02,2.632824557593936576e-02,2.600956403736700943e-03,4.351012735654840452e-03,1.370654743303036452e-02,2.241161690095289649e-01,3.944790281429759460e-02,1.225533840909807243e-02,9.379113539112797493e-03
1.560270330981622031e-02,6.588295635160774932e-02,3.630775692896644202e-02,2.462108878575735779e-03,4.167125743273086130e-03,1.271458024000696012e-02,2.109707579824883217e-01,3.866538005505670145e-02,9.787876993224508756e-03,7.572963975972219104e-03
1.415068162424612530e-02,5.831541010312023265e-02,4.098203198839697053e-02,2.282143589024780705e-03,3.949543420365106243e-03,1.165340901862044198e-02,1.736245945885645514e-01,3.759939298154946902e-02,2.884525219284737180e-02,6.327887414470668645e-03
1.306186527424157279e-02,5.030296358945130636e-02,3.937736595308784227e-02,2.065033954120752864e-03,3.687413707685492301e-03,1.062264749507254094e-02,1.057266748731176820e-01,3.409972040122959125e-02,3.602436538461223359e-02,5.547160810944938569e-03
1.186100152127865515e-02,4.288927500128268677e-02,3.473380170102402520e-02,1.812219564310677293e-03,3.387367201342297938e-03,9.565106988514090330e-03,2.522931990218729714e-02,2.758749793513238374e-02,3.036907654116281774e-02,4.432347314936108985e-03
1.039847072595630889e-02,3.545106784309932924e-02,3.094339192955457285e-02,1.522094366348878845e-03,3.060431022451945426e-03,8.443209125484015670e-03,3.177469840619098762e-02,2.144189365378990769e-02,2.070886112291445841e-02,2.355737034845453021e-03
9.090291218982677821e-03,2.769568061577579177e-02,2.881081577071445410e-02,1.201689703458734331e-03,2.710550070073098304e-03,7.294868358909203931e-03,4.624682282180583859e-02,1.936209184346500758e-02,1.736276463874983703e-02,4.809931245655641157e-04
