3.431601012677868573e-02,8.306927031554011548e-03,1.994662982386444586e-02,8.222126289996587248e-03,3.693873523160395942e-03,3.377547444450577311e-03,3.496765341533415467e-03,7.995735696515481050e-03,4.657929191791807672e-02,4.967274859833141140e-03
3.683319148249184632e-03,1.136953666740627214e-02,2.639935624049074073e-02,8.375872127230316044e-03,3.835485652400662596e-03,3.149104395241343352e-03,8.559360562170577683e-04,1.177255444560254723e-02,5.818983063205093731e-02,4.103764234054388046e-06
1.301102639120117754e-02,1.149691858484918824e-02,2.843920079007786900e-02,8.453621699272384493e-03,3.938546286613866555e-03,2.826812494744335505e-03,4.698113746637924519e-03,2.172335344809477736e-02,6.353464157882260377e-02,6.440995375576050001e-03
1.421407803301578780e-02,3.551271685275817803e-03,2.771859957112478984e-02,8.453537464702783749e-03,4.013760707807340414e-03,2.669585800949379230e-03,9.017559082444160518e-03,4.268944485995269933e-02,6.005864194066922596e-02,1.395580855592829135e-02
6.881166606226395144e-02,1.055478072323593093e-02,2.747108684376169813e-02,8.375062767358444973e-03,4.063640588436737144e-03,2.503467687838148090e-03,1.220328738543592466e-02,6.722857184179156786e-02,5.117499896166467777e-02,2.162983487556760856e-02
1.186629675218060787e-01,2.031743214234530900e-02,2.759080818501349550e-02,8.218903466596767793e-03,4.083063034260546280e-03,2.018599457068346106e-03,6.007933137865748355e-03,8.333802055798196495e-02,4.153922534491370083e-02,2.672297482139769642e-02
1.359120707249443227e-01,2.057319310254970141e-02,2.629534038771693880e-02,7.986977532046114769e-03,4.071030252923092847e-03,1.487238868835441628e-03,1.205104284033212125e-02,9.320803720138051696e-02,3.487019009028523298e-02,2.719862116615559197e-02
1.197765258886455825e-01,1.763600680588594746e-02,2.281910586670501256e-02,7.682335344938787808e-03,4.031451527930302904e-03,1.777285936298982332e-03,2.921704881118158265e-02,1.056591581955932252e-01,3.278660890106551568e-02,2.379090437223884205e-02
8.711639925234304638e-02,1.652533387151650449e-02,1.633752239688249230e-02,7.309053670265059852e-03,3.967594383372651835e-03,3.277321988139820109e-03,3.023018471844153218e-02,1.155025525040985351e-01,3.314389111390082798e-02,1.726543659623937937e-02
5.197312258797093937e-02,1.226650521120731079e-02,6.154676797133197541e-03,6.872102554901309522e-03,3.879555748457034440e-03,5.071190662569547564e-03,1.623315231819988727e-02,1.092790339275366007e-01,3.224234220075165164e-02,6.867049022530219080e-03
1.661185008635049018e-02,4.585929133901465744e-04,4.963530662514751245e-03,6.377186072312497102e-03,3.766665820644510883e-03,5.578410505756017587e-03,3.134759272676357171e-03,8.617766803168232237e-02,2.914742153365570271e-02,5.683061722469948986e-03
2.442003856901960382e-02,1.352272578310945508e-02,1.229948686341922164e-02,5.830567868430540195e-03,3.632908165389011745e-03,4.030240600015447955e-03,3.617085001266368439e-03,5.711520290879749939e-02,2.476875676562665177e-02,1.457396090397835610e-02
6.911945419424872505e-02,2.330353880639373515e-02,1.618799296484654468e-02,5.238891018100075118e-03,3.486019294838692013e-03,1.285948781483090995e-03,1.788382097985503558e-02,2.849268813613334977e-02,1.842961427010089345e-02,1.612609754803668791e-02
9.886227068961435382e-02,3.025381509352617279e-02,2.161223208745408422e-02,4.608981817902446133e-03,3.325630636927780475e-03,9.630357925321784453e-04,3.952412209470728549e-02,4.943342316673067852e-04,1.023327287458245319e-02,1.331681196805181537e-02
9.694332979553914320e-02,3.656727034204677179e-02,2.784087661433661681e-02,3.947630984212364101e-03,3.142611953099085781e-03,1.869196800958274150e-03,6.012574386985519020e-02,2.284968496628620935e-02,4.823889508175151740e-03,1.094421294022990959e-02
7.229792643824456411e-02,3.874221597924112914e-02,2.515572798946218852e-02,3.261389223941760056e-03,2.944108583190984188e-03,1.796569952531345280e-03,6.739150734729150438e-02,3.496884238322385541e-02,6.886539320532883771e-03,9.894947161912791625e-03
4.968980559455082879e-02,3.457369832139401550e-02,6.976966379414484450e-03,2.556407641299279429e-03,2.756289681608647870e-03,1.207454206603054492e-03,5.207249669162389294e-02,3.828039605983007965e-02,1.389293827823109492e-02,8.573411096623538563e-03
4.233937215006006172e-02,2.868847498414009087e-02,1.929557665167538905e-02,1.838260562946385235e-03,2.570722527786672984e-03,3.492852752281538128e-04,2.221363213702058637e-02,4.297755493899156620e-02,1.827180589270279917e-02,6.240265212703745290e-03
4.795451775322515792e-02,2.630831761447795583e-02,3.867704289961759745e-02,1.111699626691621621e-03,2.336424962995711525e-03,2.047624921790943710e-04,1.498463857279975532e-03,5.133874640858312327e-02,1.591802103373590044e-02,3.117271073123464766e-03
6.086930355439775647e-02,2.803918411461183563e-02,4.343967390376297921e-02,3.804860408408309094e-04,2.073965350775710658e-03,1.052244364749921975e-04,7.770898745817605632e-03,5.314371012434720987e-02,8.829429054607566482e-03,1.464602115835598670e-05
7.130928089307206341e-02,3.198096194111876844e-02,3.743921481044690247e-02,3.525719291989449838e-04,1.895569502316352302e-03,1.224330480673338842e-03,6.543411182476383675e-04,3.869927033308290937e-02,8.851681360901448832e-04,1.229084847042234826e-03
6.670689942015851914e-02,3.488533637094611006e-02,2.732019190126217661e-02,1.085674013619734044e-03,1.761836207361321387e-03,2.549332612406520100e-03,1.216955888202069999e-02,9.781612697610625809e-03,5.673846621796368485e-03,8.636046418103299465e-04
5.178673090944494600e-02,3.328204777356934957e-02,1.504030863113755417e-02,1.818443630055256114e-03,1.429325287100740270e-03,2.889651154774534794e-03,2.270932451878751590e-02,1.892815450797184773e-02,1.096868528977389817e-02,4.580856816146236000e-03
4.484914656086621404e-02,2.775188838735880362e-02,1.619796062854202048e-03,2.552066202018576316e-03,9.647739879958302633e-04,7.612196663170070401e-04,2.249243881906548212e-02,2.884954190618422773e-02,1.615342985077056898e-02,5.297025479076428178e-03
3.698597305128446117e-02,2.063712737762052329e-02,6.753120781147850006e-03,3.288553968144631787e-03,9.290359748417387296e-04,4.078792622355693377e-03,1.235334856689992641e-02,1.955076411440052897e-02,1.968189700536184666e-02,4.602683444509946421e-04
4.916933703644993034e-03,9.045450935768714271e-03,4.426757506800639563e-03,4.030479706509714453e-03,1.443017221542995535e-03,9.540204350026906810e-03,3.650284433391475652e-03,1.473189548486389562e-02,1.722093928258013051e-02,6.700603555621478802e-03
7.191506905179918807e-02,9.634365416122671680e-03,2.736770242135135207e-03,4.782485427865311271e-03,1.635018982356048305e-03,1.249080372482869877e-02,3.993543692511885082e-03,2.863184665022841871e-02,9.396144466791548494e-03,1.058648108976857280e-02
1.012518625963340912e-01,2.717538141954935552e-02,2.281187159645269719e-03,5.551733648930769031e-03,8.630158587306288858e-04,1.139830424596461299e-02,1.226666977312259633e-02,4.160213327116430576e-02,4.760357369131671193e-03,9.554363936991093834e-03
5.889160233665680089e-02,3.194724852833372847e-02,7.057639324512988629e-03,6.344441096174258804e-03,2.404499345707015361e-04,7.470080330697686719e-03,2.539300260740421505e-02,2.989049031201395160e-02,9.100597840588841789e-03,7.010820778543072097e-03
1.432887344100283213e-02,2.440868125556612533e-02,1.365902015577157361e-02,7.164474630211784337e-03,8.086731824728499683e-04,2.955580081900386832e-03,3.676061080692017563e-02,1.283297082046357639e-03,1.774466105879995981e-02,6.772354554840405785e-03
5.982660434062133520e-02,1.597075830674176203e-02,1.173029481980562838e-02,8.020281509698029207e-03,9.644799145259900586e-04,9.784544475577542245e-04,3.406337007501339387e-02,1.771363807694182474e-02,2.429560654877328113e-02,8.134986179073802962e-03
6.107722739669808193e-02,1.580086113181762564e-02,9.376794220204555039e-03,8.927557126657105838e-03,1.277145837032094174e-03,3.994443275412236719e-03,1.239276402236489695e-02,1.436897674838225406e-02,3.029438072327953965e-02,5.899637824322984114e-03
3.607289885416117836e-02,2.198176388381709381e-02,1.453862571392126705e-02,9.893938640508522647e-03,1.828758992279584661e-03,5.875825050754305591e-03,1.597558150798970844e-02,1.505507457204773285e-03,4.051690196099207164e-02,2.746417463265325969e-03
1.100208802915073406e-02,2.229602138135383313e-02,2.481836745154041707e-02,1.091228264323538047e-02,2.377238185268309208e-03,7.423559544424996985e-03,3.332367179079563646e-02,9.483922809307517368e-03,5.389038020383610933e-02,1.241529974892909872e-02
9.740853223509794712e-03,6.891359025148732602e-03,3.581559622892130368e-02,1.199251772469724781e-02,2.867079722918543412e-03,9.728320982131468536e-03,3.170476903227383014e-02,3.569436958831840798e-03,6.414349192203701311e-02,1.588751747445194679e-02
4.187165446163450960e-02,1.741889881024392267e-02,4.955506194175907791e-02,1.317615226040047202e-02,3.421276344872638264e-03,1.158488062727682649e-02,1.515847383816855236e-02,3.186485303961961169e-02,6.780957731917829079e-02,1.460064384183621528e-02
9.625571379216564527e-02,3.393833791441279446e-02,6.750141158838800226e-02,1.446794528263610144e-02,4.107143522847957369e-03,1.092426463270172558e-02,2.943068169213614981e-03,5.999034590652622956e-02,6.838327049171399885e-02,1.481164080539161369e-02
1.500462964758027817e-01,3.892846949524894629e-02,8.091727378026396245e-02,1.580247220252890827e-02,4.861776288704244484e-03,8.882589324363502833e-03,7.142622340772689093e-03,7.858642981840856245e-02,7.165625331845022761e-02,1.605689125498968930e-02
1.731712432115050659e-01,4.531324807864561127e-02,7.827357438195570172e-02,1.718854826213044376e-02,5.583574334910793545e-03,8.412405231521263502e-03,3.533214138285084571e-03,8.048758650704992967e-02,7.960249571584047945e-02,1.328577163103258213e-02
1.384501703203804002e-01,5.926435461711494074e-02,6.213180838792147637e-02,1.878382745515327218e-02,6.325742905245214376e-03,9.764417356044075361e-03,1.040804231421862264e-02,5.765472359509378475e-02,9.107201977944595628e-02,7.473959713834169363e-03
5.727619594791517194e-02,6.655570539309063616e-02,4.860296155369955851e-02,2.058765344846539072e-02,7.299186974393776645e-03,1.137247411925692599e-02,2.727918723734097141e-03,2.094841088685206812e-02,1.046146487821038168e-01,3.877460311696949609e-03
1.096127682860072346e-02,5.238942502616130564e-02,4.877968363849856381e-02,2.227273686313582454e-02,8.450455961898098445e-03,1.324732368969847029e-02,2.766773740811449833e-02,3.008990421679772279e-03,1.179803202027843168e-01,1.980133305930655615e-03
1.949110690261984802e-02,2.527167681234613120e-02,6.001558603374843037e-02,2.383857754732869594e-02,9.296421767462289057e-03,1.563284613745876545e-02,4.242995307369230862e-02,1.938645012685813809e-02,1.299660647276283387e-01,3.554610368024616572e-03
1.144974448928570351e-02,7.744460467285664909e-03,7.437462324224758392e-02,2.600233300516558918e-02,9.666467900701429874e-03,1.657154981740701152e-02,3.993065509216328635e-02,4.570177536325742418e-02,1.434212080927633748e-01,1.299162332323971873e-02
3.327593064936226752e-02,7.082947991572013761e-03,8.521467952693248527e-02,2.878332275579018745e-02,1.025185000588895411e-02,1.427339659232231515e-02,3.288385574255000415e-02,5.404845827826450233e-02,1.586028660855845207e-01,2.008595512780822837e-02
4.208434029224245032e-02,7.180209048500057166e-03,8.677896043505248236e-02,3.027407727601686555e-02,1.179633783837214650e-02,1.034860257003545822e-02,2.957485010489026636e-02,5.322995556983486920e-02,1.653148150536571659e-01,2.056247784715751342e-02
7.289246711749959584e-02,8.778071578637315284e-03,7.754698383146861607e-02,2.889330117715521382e-02,1.406507075528968739e-02,8.270023539721454639e-03,2.275955877185994666e-02,6.976476092314157218e-02,1.538507103421086764e-01,1.707532464291424551e-02
1.343572980102242798e-01,3.516749232038129946e-02,6.503807294046055898e-02,2.635036105452776695e-02,1.591701430424099714e-02,9.306567108449098624e-03,9.995250285974834753e-03,1.038219484424036942e-01,1.322073258931454054e-01,1.532864314203989491e-02
1.895790983682320574e-01,5.066458644702871716e-02,6.021190861707803599e-02,2.561467656109676569e-02,1.603656195178980795e-02,1.133079699282016350e-02,5.076389219167634290e-03,1.283458187209223222e-01,1.183141026909625693e-01,1.751050112327686217e-02
2.002232681865927788e-01,4.659571495195320018e-02,6.521488202911909782e-02,2.640238441614030374e-02,1.393877971539925903e-02,1.188553702316284995e-02,1.705980781166296228e-02,1.234450095290944155e-01,1.166037336531957902e-01,2.011032633586296373e-02
1.672964111959680811e-01,3.654301280619851738e-02,7.027360231587122252e-02,2.534557807384762648e-02,1.078661174570215604e-02,1.170071225446428671e-02,3.378179351352364468e-02,9.292025139303539127e-02,1.147791073760726088e-01,1.909678495953901281e-02
1.294262128344870755e-01,3.348417372885313659e-02,6.243452492452718910e-02,1.975789091618819840e-02,8.334253845468134539e-03,1.335131910828128016e-02,3.672233914493207990e-02,5.376757305921946173e-02,9.859435250915982163e-02,1.635839672158492797e-02
1.247309406192601694e-01,3.165038155228144801e-02,3.558685303185418758e-02,9.362211040841176418e-03,6.647442812478686694e-03,1.601711033223826922e-02,2.324814246378523186e-02,2.451286299038958269e-02,5.834634981496762685e-02,1.613719860088312641e-02
1.480422961495550249e-01,1.882055151655990383e-02,3.993196473253478145e-03,3.877791128265057220e-03,4.427351267673003063e-03,1.496319726222557385e-02,1.071144616664830747e-02,1.868468823343230611e-02,9.743445935673358121e-03,1.564783120101297456e-02
1.496440272752682099e-01,5.794552584421459700e-03,3.954077049903541308e-02,1.616458684380112434e-02,1.787831172580000346e-03,8.497538263435746100e-03,2.094824662405148780e-02,3.347639304629155405e-02,9.608077400355222175e-02,7.636343792814991038e-03
8.436851504023497317e-02,3.180357543413092625e-02,5.589764012596813714e-02,2.356063517882018080e-02,2.934741736415539919e-04,1.463058338991280079e-03,5.466114089438296048e-02,4.368775009402474374e-02,1.774812964098818335e-01,7.254287618315376218e-03
3.817809132718319454e-02,4.601342727084638262e-02,5.146957396095136472e-02,2.414592419056929215e-02,1.882469141289372459e-04,1.821400464460899791e-03,8.198867080162187959e-02,2.165717223551574463e-02,2.299314775957186363e-01,2.048113279595046438e-02
1.565454013645173892e-01,3.996896016179918992e-02,3.796946266081695220e-02,1.954351482958727182e-02,2.026541521110531655e-03,3.926047665977454824e-03,7.007321967498472692e-02,3.458677874897138349e-02,2.412144728111265957e-01,2.899868870937682280e-02
2.198031407664877701e-01,1.738957793783107303e-02,3.373056112142494567e-02,1.594648797878754631e-02,6.513124420574042950e-03,9.385717615711993561e-03,1.747600940602259123e-02,1.036933647822519400e-01,2.191223143664083883e-01,3.846989751894086540e-02
2.425026792500754869e-01,8.676942117234140786e-03,5.550213610658677466e-02,2.100171491920876932e-02,1.193623099328729523e-02,1.732445257337656558e-02,4.685199194524662658e-02,1.616194594242908456e-01,1.886228022749088240e-01,5.077725268245115997e-02
2.703416059059834398e-01,2.883902842949053608e-02,1.036562988608560471e-01,3.573295659275596559e-02,1.510401873361148090e-02,2.277439919399106005e-02,8.879303930056371696e-02,1.844828491619785182e-01,1.667008472073456815e-01,5.755052901250927444e-02
2.991648679861845239e-01,3.881890235925144345e-02,1.539211293688869664e-01,5.161312834825568935e-02,1.356908628847173712e-02,2.213952424670895605e-02,9.055304494404148308e-02,1.503859367486938547e-01,1.417519628690720179e-01,5.037637406835954179e-02
2.802761437679543999e-01,3.201604600407591261e-02,1.762088744630536385e-01,5.882175721952075803e-02,7.418629088132251866e-03,1.536158754887742041e-02,6.488380357224111938e-02,6.437630404247249305e-02,9.577668318576251782e-02,3.148634248858569323e-02
2.054458182984139902e-01,9.501587954479501219e-03,1.623445046243953693e-01,5.506832452656974797e-02,1.937868594487719611e-04,5.870566542932621409e-03,4.546887211026293119e-02,3.026310710232117673e-02,3.835440915901647957e-02,1.048053333502951649e-02
1.259841463972369568e-01,7.406592030646077726e-03,1.258900578036077356e-01,4.433850949134610087e-02,3.538418795667772759e-03,9.972502454491897084e-04,4.556015136992368902e-02,8.771298019442397287e-02,6.674615678009412564e-03,5.879581251365879543e-03
8.215412441471144078e-02,9.470970940010097101e-04,8.117653921195951139e-02,3.058168640365230978e-02,2.905114828288893510e-03,2.688825252815214232e-03,4.057223471996650177e-02,1.003328596351381052e-01,3.638763913972735409e-02,1.774880107959157099e-02
6.674306909050083114e-02,2.281005111560044374e-02,3.678105390907269318e-02,1.587633459865224125e-02,1.493107274821438638e-03,2.379233996817668902e-03,7.868224592206866930e-03,9.017354587747460071e-02,5.947153391592389926e-02,2.815915194234009863e-02
6.020286025037988042e-02,3.260607303903718945e-02,2.411273308713644294e-03,2.720591812734668696e-03,2.208415173252172622e-03,4.372432115460365108e-03,4.188084969878701908e-02,7.128385639182834022e-02,6.670678792711114136e-02,3.698845925089860875e-02
5.461157131282477067e-02,3.009891201670061162e-02,1.593628782279361833e-02,5.432250687708384609e-03,3.149771349099651091e-03,7.557339627252851813e-03,8.575654839988688938e-02,4.133432551554187817e-02,4.741176923804855947e-02,3.955288306234575058e-02
4.244211681821158377e-02,3.259805757585983871e-02,2.548633300260307738e-02,6.681302932684034246e-03,4.839292972161053728e-04,7.052411999693847418e-03,1.099153660151538925e-01,5.805672804511781415e-03,2.148532640302403679e-02,3.282061015923264102e-02
2.240898495858519718e-02,3.674504876941820514e-02,3.778513517732338262e-02,2.690748184826785572e-03,5.976705478205728179e-03,1.855285939476283147e-03,1.055788955736692569e-01,1.566390598682306651e-02,2.015718252508760799e-02,2.254107044186291417e-02
1.497565159386329142e-02,2.371966253804701913e-02,5.247230189017634827e-02,2.612383948708315706e-03,1.255516977276460722e-02,3.353500729832579498e-03,7.670348034105348156e-02,1.365165645219249338e-02,4.552267505813005488e-02,1.889734082568186868e-02
3.619173442483174241e-02,2.875130981150567522e-04,5.988187992851867758e-02,6.257934796129212621e-03,1.630374474910957494e-02,4.932465527708378324e-03,4.660378022909126422e-02,6.031513534998706643e-04,7.403805404762284215e-02,2.374323207308914885e-02
6.259287230879637121e-02,2.193391403125561842e-03,5.655478215123656283e-02,7.245896806992477117e-03,1.731028927761430261e-02,4.907217827882248175e-03,2.787514790847217885e-02,1.319739103901417833e-02,9.108656951921405287e-02,2.938766991165558951e-02
6.003224668086491050e-02,2.621597961619163281e-02,4.974211695070479555e-02,4.796561337234011950e-03,1.680980291079189545e-02,6.667830003792039190e-03,1.896318794517549327e-03,1.542563414003817260e-02,1.050304588966473190e-01,3.107953787739992785e-02
4.011105021360793915e-02,6.118890843078258340e-02,4.838675417233571224e-02,1.604851856299497909e-03,1.538202388277263785e-02,9.318586163711102197e-03,4.994451141995170929e-02,5.500005981236693112e-03,1.274940040476487402e-01,3.023288911434873771e-02
4.453963667577243851e-02,7.996477274535240820e-02,5.422790666132832477e-02,9.580938523939552115e-03,1.317914807106029124e-02,9.820509936548146163e-03,1.198183847094371340e-01,5.817149257456893929e-02,1.487465862698625352e-01,2.527051773300693222e-02
7.555195583223422995e-02,8.142592523202936416e-02,6.089620682050997380e-02,1.476917988893233953e-02,1.014070084827159955e-02,8.160129540524535194e-03,1.881727314156736997e-01,1.261169845349865426e-01,1.457670592677308974e-01,1.405170085412495509e-02
8.884225508027034091e-02,7.144210182572217904e-02,6.149577831627629082e-02,1.598941736472396860e-02,5.595907528658228096e-03,6.054652301198394128e-03,2.348261721255135159e-01,1.754816789582112901e-01,1.156423780896898568e-01,5.391170150357196128e-03
5.895800872194074255e-02,5.348139579433981716e-02,5.529293311951673923e-02,1.574913888186774483e-02,8.871780645724599776e-04,3.204124578983189552e-03,2.411060827041843491e-01,1.887316775867870777e-01,7.724866710244329693e-02,1.117087944234688122e-02
4.110533700933644875e-03,3.258901891081428942e-02,4.235176182107507070e-02,1.440630411707523491e-02,7.760609083956827511e-03,2.743685273525391186e-04,2.119656189849099814e-01,1.764506941339046564e-01,3.520956384093514024e-02,2.713259242034870428e-02
5.709264911548406207e-02,1.261510080082516548e-02,1.766415952899335132e-02,9.290619985873759326e-03,1.225738457107843071e-02,1.113588049261174991e-03,1.790130479344263226e-01,1.525931035879280750e-01,2.347941123112018066e-02,3.757649259343297243e-02
1.219203479495551690e-01,7.729753358249413439e-03,2.097078167146609190e-02,1.277527326750166293e-03,1.371142181833516147e-02,1.888384300602295989e-03,1.594647470109837595e-01,1.175100397565056604e-01,9.291834114952524093e-02,3.774209636279012015e-02
1.703221851272933574e-01,3.041064684202090737e-02,6.742872336165788016e-02,4.361779259691478047e-03,1.433157701026044339e-02,3.376528512677840019e-03,1.381690740392342853e-01,7.501739550059995099e-02,1.489037351999726866e-01,3.722747228362936756e-02
1.684384782622949384e-01,5.663784889080773072e-02,1.132237284042995340e-01,5.603258077258301169e-03,1.583946351315656739e-02,2.229767048816435390e-03,1.016312777247842802e-01,4.286008622646803046e-02,1.842540023899503776e-01,4.219919717448039620e-02
1.220873746933984899e-01,8.826529621047903007e-02,1.458726255996319054e-01,5.480751512570151106e-03,1.725682147243804213e-02,1.190181501723661973e-02,5.990428758347220162e-02,2.788808098938597158e-02,2.025501972904811543e-01,4.592408415397899318e-02
8.246445405065702672e-02,1.174150451803432915e-01,1.475492189726670955e-01,5.476714560739493615e-03,1.652503779425982394e-02,1.576099918985865780e-02,3.066535916495082351e-02,1.055442342226975243e-02,1.924250192232982992e-01,3.950757294554762405e-02
7.324719890583070159e-02,1.197052082218135749e-01,1.181017177984125116e-01,4.447636914401685050e-03,1.221167840349648287e-02,7.488908531154437123e-03,2.768535322571644142e-02,2.622814515608108688e-02,1.554612208789893646e-01,2.571828721761981046e-02
5.148583937599431753e-02,7.977079205723366928e-02,8.812405345286328240e-02,3.998411585308180721e-03,3.694970037149257307e-03,9.154935731403622892e-03,5.964520247991460938e-02,6.775887146958874119e-02,1.336455526701887386e-01,1.586491233306282569e-02
2.105997521483298981e-02,2.079522397286645563e-02,8.125185429020261030e-02,6.806123141964564964e-03,7.668124454625378263e-03,2.491452800727734368e-02,1.150335502641127716e-01,8.326139794381717807e-02,1.531360014868452246e-01,1.136865629487684992e-02
1.066282893592894604e-01,1.796705982535081944e-02,7.947106051517957570e-02,9.835114032850634375e-03,1.748838246059811891e-02,3.448826815593285938e-02,1.566046721191743096e-01,6.005853978560322937e-02,1.707592579650236420e-01,4.017336862506163536e-03
1.428248027109311757e-01,2.964083829229698097e-02,5.612679616466308835e-02,7.454737980198396750e-03,2.097362937205078659e-02,3.859068481611671597e-02,1.494634104445723422e-01,1.310290157029785421e-02,1.372067381607311176e-01,4.298549952465323398e-02
1.267138683054636894e-01,3.471409424739915067e-02,2.205737210414876470e-02,9.248870253944411037e-04,1.717104668034892534e-02,3.786966335017861313e-02,8.744059909545934262e-02,2.773208252134650928e-02,8.261491583688622409e-02,9.012523196638019818e-02
9.346825335981381877e-02,3.471449775436079299e-02,5.024195363337490700e-03,3.243393767287610849e-03,9.422348155238857020e-03,3.063571579816368531e-02,7.140454272237378545e-03,3.550396546978144829e-02,7.723597174802586396e-02,1.144833565749082127e-01
5.616777172133865376e-02,1.168136684350313398e-02,4.091396285171184158e-03,3.518926437495484630e-03,1.732518091193019230e-03,1.779323373247778534e-02,9.326759633043484043e-02,8.494357779279822218e-03,1.324061232089467632e-01,1.057052488082235453e-01
2.295303241999989419e-02,2.667346729302617556e-02,3.108060503093582581e-03,4.251300206618451906e-03,4.042229863162716264e-03,4.607570945258186897e-03,1.304714610601653557e-01,1.817897236484143295e-02,1.947455159675564595e-01,8.187234912698500289e-02
2.446565570328074549e-02,4.478526004530007654e-02,2.688532337123553800e-02,7.777991399021634902e-03,7.477303669656534466e-03,4.392749135312633973e-03,1.076573554178955616e-01,6.067987965513230511e-03,2.177335293942883609e-01,6.229988382804010211e-02
6.241944564197669104e-02,3.087814339599188190e-02,6.440008679554201643e-02,1.237615249526124658e-02,8.357924860090681918e-03,9.092333859038785604e-03,4.985411604003184283e-02,2.881404431342808950e-02,1.966467372415905412e-01,4.805292410102560141e-02
7.447440308132333153e-02,1.078445118504904425e-02,1.067711490321489320e-01,1.530378733796182271e-02,6.982859425937654185e-03,1.108650148639502356e-02,5.165635578387157631e-03,2.638987671931396217e-02,1.502663308716442880e-01,3.221780260069589258e-02
1.387771553560114383e-02,1.864353824020673327e-03,1.251672008955094506e-01,1.214626417611032461e-02,3.185707245634565067e-03,9.034544919904097596e-03,3.118835874900663038e-02,2.600290203520658899e-02,9.945192276183115188e-02,1.814994254578012126e-02
7.041191668439669704e-02,2.794328428413143592e-02,8.376165241864891309e-02,1.814317999175260512e-03,4.548954933017343091e-03,6.044495191233649131e-05,2.186378769937649680e-02,6.093716758418303570e-02,5.613110253273253386e-02,1.782841580732954720e-02
9.438892007918842086e-02,7.794961520671270239e-02,7.548722136834011033e-03,2.367251811044188137e-02,1.526676617923958777e-02,1.352251944829924168e-02,1.585988389070355428e-02,2.666204588861183916e-02,2.119076197947027812e-02,3.355693064592118330e-02
5.288347302481871681e-02,1.229649416765129649e-01,8.737926818296035125e-02,4.183770396780319561e-02,2.319404294280441939e-02,2.242650198213271343e-02,7.160903308989076399e-02,3.768563251205896136e-02,5.751558585235834117e-03,5.223513785798633569e-02
1.597996578353886102e-02,1.299902835483359165e-01,1.123688514840544966e-01,4.735424983983991393e-02,2.410484110802981264e-02,2.211988773193108992e-02,1.338419400186987851e-01,6.372077165842551794e-02,2.289864044426995204e-02,6.119661100977122348e-02
2.984848879724311121e-02,1.003853108347463607e-01,9.923361680602399426e-02,4.098233943927132722e-02,2.024480019616103910e-02,1.630579079817858282e-02,1.984483941796268969e-01,3.883538128253782168e-02,3.660988091391481625e-02,5.955300611589683241e-02
7.050150689690339034e-02,6.348147453945987562e-02,8.348514596351969130e-02,2.809367949810363113e-02,1.511552417950616685e-02,8.391744296887257426e-03,2.777832379315463007e-01,4.592351751484255624e-03,5.946734203136624236e-02,5.197578778766479002e-02
9.173095619336552042e-02,4.782466689183399733e-02,7.406843606205154584e-02,1.379804248830672486e-02,9.482059791689121525e-03,9.442678222026475903e-04,3.710294175934294447e-01,3.748041233150162244e-02,9.165042696766434460e-02,4.271034580462469699e-02
8.295014026865818457e-02,5.722194318328167190e-02,6.342375321141896505e-02,3.185559806451570154e-03,5.015784742600082682e-03,7.474825982993880784e-03,4.338618104578825241e-01,4.815348192733152899e-02,1.181858041442005042e-01,3.583349651720850459e-02
6.767757460578140150e-02,6.729976235300354215e-02,4.939690047642428250e-02,9.450957640852171524e-04,4.251162782965304740e-03,7.813013345236492768e-03,4.263042320146227526e-01,4.461792143280943895e-02,1.309953283313421701e-01,3.053056150258620996e-02
6.252481932865563974e-02,5.318149389591011328e-02,3.256301484777589239e-02,1.169704964824210035e-03,5.233568853643182257e-03,9.160438497707095937e-03,3.725187790871744564e-01,5.094006062769184523e-02,1.409918788532678324e-01,1.889191389731839296e-02
5.867668085299516945e-02,1.948826889107692709e-02,1.304689655568548601e-02,1.968696985358923176e-03,3.052823378702695586e-03,2.122583152673137435e-02,3.171641746968151820e-01,7.689763612121895686e-02,1.552910444333788775e-01,2.005251907190469876e-03
4.009973841028304647e-02,9.146221334115200302e-03,3.133241894377969405e-03,4.411158594903001086e-03,3.048324409061110764e-03,3.996319344291612841e-02,2.552622313410791710e-01,9.889698707741327588e-02,1.520211354542205517e-01,2.213635354688070142e-02
2.678752331526737009e-03,2.148474733313248883e-02,1.049785322602010858e-02,7.358187152355551326e-03,9.720212316281819087e-03,5.218496073442456529e-02,1.657813705524089631e-01,9.132283371632636537e-02,1.040774677366377576e-01,3.212908971963630844e-02
4.187253899612965180e-02,2.884349218085395863e-02,1.813282972436588286e-02,1.153876418926027062e-02,1.545476626738764847e-02,5.432394577239053196e-02,7.474918739212936536e-02,6.287869718544711328e-02,2.765971594348463555e-02,3.630527335014915868e-02
7.141917905181194293e-02,4.497379364037035199e-02,4.125894574275095622e-02,1.867507466677118672e-02,2.118851436639257804e-02,5.359952310858118879e-02,2.477311190414425643e-02,4.203601486783164337e-02,2.578796131138365658e-02,4.207247646322616330e-02
6.802081161644216167e-02,6.930998110963948466e-02,7.545344602338119322e-02,2.752129955325338315e-02,2.626511887027647985e-02,5.250435995186801541e-02,1.654746628071978101e-02,3.749459730926327228e-02,3.270142312606146018e-02,4.634519468234148815e-02
2.954053167378395406e-02,9.017943254969357225e-02,9.272067716036959395e-02,3.355565045123302947e-02,2.841463973331697854e-02,4.608581273499007952e-02,2.664340119093634371e-02,3.128682342207448480e-02,2.101874502746862300e-02,4.548592959019705922e-02
3.139248477455560543e-02,9.883172003857920718e-02,7.172465376746861576e-02,3.276528817755124112e-02,2.685920796126455012e-02,3.368451093474127828e-02,4.814176350231866991e-02,6.503066738546422858e-03,2.328423317876633300e-02,4.868775594158369219e-02
8.691396135165652126e-02,9.910443268537186268e-02,2.632731687124935729e-02,2.513513220075755047e-02,2.239149540259921176e-02,1.975684611224308440e-02,7.533860120262203530e-02,3.166939519942529868e-02,3.508045221217919590e-02,6.243084373581405527e-02
1.024386102535226883e-01,1.027203661818004848e-01,5.137053843467368798e-03,1.515080090776873070e-02,1.576429227825492871e-02,4.210686093966098734e-03,7.991699475761572524e-02,6.036415376790309900e-02,3.061035112640201478e-02,6.855564206394020033e-02
7.635622978126058169e-02,1.154069333614049231e-01,5.540818573346994319e-04,9.148795413638517032e-03,8.333300840468902890e-03,1.498196974913172663e-02,3.848006325935266619e-02,5.457689793828807145e-02,2.671919279942874467e-03,4.309408537920441512e-02
5.674970739261215452e-02,1.307990118025424697e-01,3.102633165077475774e-02,1.121713042352392824e-02,2.568244461119092471e-03,3.196579420150724715e-02,3.547036528376401598e-02,5.141276217397279177e-03,5.838331307137756276e-02,4.597974103885791794e-03
7.623844714496502695e-02,1.370931934555534304e-01,6.093742160287839854e-02,2.035657087447267227e-02,4.788975335297291237e-04,3.859411168179529422e-02,1.119738036569689205e-01,6.334564778981045807e-02,1.252891959821589851e-01,3.747295503118541760e-02
9.104614112126024894e-02,1.263975211778012031e-01,8.367031014141519674e-02,3.044286817825148095e-02,2.826561291265579368e-03,3.674155331323306073e-02,1.795796913564527419e-01,9.843937623454039609e-02,1.904618358414948420e-01,3.544951873858778052e-02
3.844185507138191821e-02,1.004451054041135827e-01,1.080687118077176823e-01,3.411515040922102893e-02,6.729114340061342382e-03,3.435760217170082120e-02,2.398484671156293213e-01,6.236998210349799926e-02,2.358283978696693040e-01,1.172020466173573708e-02
6.451742966844570271e-02,6.967797989245393120e-02,1.324406669806613701e-01,2.983576696528957711e-02,1.167164656103193351e-02,3.364534341813108648e-02,2.858143293434783905e-01,2.948876034227260190e-02,2.498923123329732932e-01,1.229784168820093927e-02
1.336392790970628575e-01,4.249669381757033293e-02,1.403669710661328007e-01,2.412536787777926767e-02,1.557559388124636450e-02,3.163260449386640777e-02,3.076567039871895282e-01,1.191727675986701540e-01,2.395323174356455143e-01,2.702249427899926226e-02
1.175780062937302473e-01,1.610162760630574896e-02,1.206420570570678058e-01,2.273909308342365876e-02,1.727821648362031642e-02,2.778703139688313076e-02,3.039237740573828006e-01,1.537097727538764003e-01,2.131955299397605974e-01,3.242768167813851743e-02
4.767685676407273920e-02,1.450918066875416315e-02,7.930827695844494540e-02,2.197425593369973368e-02,1.673895328059197413e-02,2.433030285497544618e-02,2.725497887624659943e-01,1.245233298252144821e-01,1.625262406465681209e-01,3.341924654175081749e-02
5.525492670738400489e-03,4.242794597610127783e-02,3.475947670212604923e-02,1.430970042183963599e-02,1.417562134466083049e-02,2.169138171716783817e-02,2.126829875349521837e-01,6.627353646493797101e-02,8.368366898407329779e-02,3.845405639808807674e-02
6.303643916547189974e-03,5.616150752316552419e-02,4.717042898206995176e-03,3.314815082707343180e-04,1.006969494965774189e-02,1.753152036303499972e-02,1.382214841252983328e-01,1.595489490454710807e-02,2.712121025592947529e-03,5.240391754233224980e-02
1.944214989970145108e-02,5.531455110784846974e-02,6.936612526153445452e-03,1.477170415754647075e-02,5.719658609439532554e-03,9.134238419907828380e-03,5.776297379758611739e-02,2.546282361660966165e-02,4.728860302966125806e-02,6.954850705167260616e-02
2.784680021171682257e-02,4.374806189459894135e-02,7.474409140184216233e-03,2.283539435797903028e-02,2.793682094280179173e-03,4.175075878996511308e-03,3.614289332332318999e-02,8.199561508987017466e-02,6.269468258663031535e-02,7.915355186096949269e-02
8.052129934463246250e-03,1.761536220948173997e-02,7.255742702035848646e-04,2.299772576487266185e-02,1.773719542827225867e-03,1.873877270725726740e-02,1.072928589009641276e-01,1.542801715089523462e-01,6.289635257731743256e-02,7.647714881085582173e-02
2.125397891598514166e-02,1.956697149956907258e-02,2.053284467220120937e-02,1.748175319493631974e-02,1.905233376884283647e-03,2.620523216465648481e-02,6.159922858567042081e-02,1.990917524632064561e-01,5.838742367940930045e-02,6.219802528722295082e-02
4.065498274351077995e-02,4.302821156443960987e-02,4.567477152490540676e-02,1.088690936192268297e-02,3.050331074725793137e-03,1.991060656347001454e-02,1.261189898857112968e-01,1.720211107232900993e-01,4.099170947935176779e-02,3.540375518610968525e-02
4.117942065474573116e-02,3.338720217712937838e-02,6.233695509695062753e-02,6.327220275117049521e-03,5.416483869867856280e-03,4.020422454199383891e-03,3.341134237621688485e-01,8.252650986414915291e-02,1.994100296565680386e-03,1.289829074002397675e-03
2.755492325350520494e-02,9.033506237579641898e-03,6.484390277513654710e-02,1.313516597234502988e-03,7.160136169068674096e-03,8.840762554915691795e-03,4.252548797151217697e-01,1.366125864668689058e-02,4.802082300058579251e-02,3.262972515323646350e-02
1.758598193065558091e-02,8.768538198415824769e-03,5.815654178048820788e-02,8.673728859241303449e-03,5.367204045875411528e-03,1.171049751845325282e-02,3.928765315707575811e-01,7.126882735238194988e-02,7.812366700962548871e-02,4.180599631714425335e-02
2.582245942830727753e-02,4.294243374237263766e-02,4.560589154960260905e-02,2.100800001589397253e-02,5.288111724138013512e-05,8.506483137915962084e-03,3.102198086014034684e-01,8.112004463729534376e-02,5.855504100897400421e-02,3.079389324949118392e-02
4.845173078567045766e-02,7.715263367352298562e-02,2.346507624356501329e-02,2.533711011371522770e-02,5.359290475386252993e-03,3.735604280979569480e-03,2.053500925399461829e-01,5.138199299833029476e-02,7.875563591216083389e-03,1.554031035837311059e-02
7.085361154186960164e-02,7.058798439722438478e-02,7.999129918239679393e-03,1.631202681577713712e-02,8.025477360742213490e-03,3.571725648668456175e-03,6.048843356145854055e-02,1.363613179259931182e-03,7.792490221294084973e-02,1.607353335001741358e-03
8.707016726119566619e-02,2.257002972315555467e-02,3.466291605754113353e-02,2.388449573656275214e-03,8.501072121134933823e-03,1.349025942979242658e-02,1.029847101988890096e-01,4.895935670872201412e-02,1.068447599705693862e-01,1.815433665349153528e-02
1.051352095878037990e-01,3.177626925874681846e-02,4.150821881643521755e-02,4.533995869439232280e-03,8.809992888918332168e-03,2.135478665104380974e-02,2.119788370114828735e-01,7.038074257405213530e-02,9.427271670916143043e-02,3.894099070135041696e-02
1.311378129315129981e-01,6.587453939692948512e-02,3.338358641787302072e-02,4.278509939477914518e-03,8.732541951831580482e-03,2.229633906494694895e-02,2.228485380729805787e-01,6.945003021684421907e-02,7.340227760588760586e-02,3.775826192029458489e-02
1.570912068870704281e-01,7.903395398072689260e-02,2.750004323122452743e-02,4.815029525259587745e-03,6.416200783966264677e-03,1.565535301984742611e-02,1.734824025119554580e-01,6.423727725645504705e-02,5.900702266157908937e-02,4.997389048146009399e-03
1.708636117227539108e-01,7.460550690472471380e-02,2.700970136005566985e-02,7.471755278051628660e-03,2.739980226675290450e-03,5.874382369265025716e-03,1.359095832953008398e-01,7.405764288849374377e-02,3.263566764752596355e-02,3.282652881544390056e-02
1.634785588548148261e-01,5.220713386044122106e-02,2.247590211290935100e-02,6.863164351304175577e-03,1.290485688801488139e-03,3.522055201058781450e-04,1.444480834625660182e-01,1.059040615725349993e-01,1.664901153756954966e-02,3.968884917276457869e-02
1.204295118190275432e-01,2.244768533913285569e-02,1.761289338198772716e-02,3.232696326237387979e-03,3.044138215464866487e-03,2.600572666932944631e-04,1.885888011639547668e-01,1.270526103163411580e-01,6.443552789229871347e-02,1.147838944318459696e-02
3.221426573158334833e-02,1.085323262036313238e-03,2.571399895650804818e-02,2.471946717880345919e-03,5.022736969146954396e-03,2.892221784937662118e-03,2.446990295184422459e-01,8.263229418484224764e-02,8.251122144364189670e-02,2.408418075116901952e-02
7.586727531968100180e-02,1.151432392614303718e-02,3.933730586634660159e-02,4.956444490847096429e-03,5.057572722819784691e-03,4.721329423035462367e-03,2.773532557604009297e-01,2.347318350357501665e-02,7.889089541375272907e-02,4.115323842200355187e-02
1.534505446438311493e-01,2.143183932386871424e-02,3.660345739905490614e-02,6.625846188917899893e-03,4.236213817281461215e-03,3.312535504169139729e-03,2.329365322236464642e-01,1.098197991886926544e-01,7.843152393434550673e-02,3.468368237011971306e-02
1.724623554681911364e-01,1.782794780275624366e-02,2.204916421345550284e-02,9.342084234316422667e-03,4.131082655004520571e-03,1.474888732296366061e-03,9.444444623069155054e-02,1.162578953741143228e-01,7.760954615917919908e-02,1.396412969527914723e-02
1.405542011989008855e-01,1.385946616445828984e-02,2.473381695872245087e-02,1.754301466447490132e-02,4.641642104957662864e-03,8.053187888092970537e-03,5.461706026555352561e-02,7.209260489750352052e-02,5.400359923704065729e-02,6.222015327344088478e-03
7.748335333983727424e-02,5.890967679616872232e-02,4.883347195495871262e-02,2.727869876688069142e-02,4.929255229814849017e-03,1.341972411604433826e-02,9.594199275527284798e-02,3.766007613079015715e-02,1.123973535568478441e-02,1.434174057880692119e-02
1.022826014044455646e-02,8.183391807769689608e-02,6.331379295134186014e-02,3.085090948056756766e-02,4.356494064899210823e-03,1.651752478741166236e-02,3.576204998858927009e-02,3.032555217559450636e-02,2.218634322065216741e-02,1.671314707928062138e-02
2.588933744551007859e-02,7.021035939839233297e-02,4.882358947928742282e-02,2.878234786862134131e-02,2.612686086352722196e-03,1.891044203781754723e-02,1.840929253952172315e-02,3.062463129342374649e-02,3.363057600975308953e-02,3.426971518993066068e-02
1.536193486603316775e-02,4.798144613054903390e-02,2.217542376179769750e-02,2.668928194575635043e-02,3.477953248910576061e-04,1.960284244156699704e-02,1.302370975439281764e-01,1.920158151152814158e-02,3.787382654634192242e-02,7.107193778951752250e-02
2.549724726480426251e-02,4.252972547402358861e-02,8.305863221632358434e-03,2.540851923797805834e-02,1.229719603276548286e-03,1.438955857523445056e-02,2.767618470102948258e-01,4.513453108358613484e-03,5.216766840558264423e-02,1.018357755645662582e-01
8.062149757407376105e-02,5.618791315903068351e-02,1.290609497611472367e-02,2.282190546433041783e-02,2.171837935967173370e-03,4.418299954190213485e-03,3.222998454855212636e-01,1.659280584087417104e-02,7.543555244663817383e-02,1.064787470403793651e-01
1.446445913480817191e-01,7.293820354992058830e-02,2.661881230179629146e-02,1.994254236362753493e-02,3.337337859202189547e-03,1.758551928700655348e-03,2.636394307536261139e-01,1.033578272514268023e-02,9.067059446614413043e-02,9.636231260383583408e-02
1.952140775434706987e-01,7.877386622064481980e-02,4.190161258056084026e-02,1.919447999172316927e-02,4.166372765274386179e-03,1.889642132726068388e-04,1.894051837694185336e-01,6.630044114679541079e-02,8.551451262724629743e-02,8.981917321932958442e-02
1.982473065543666757e-01,7.072753724227343053e-02,6.087571351758121890e-02,2.075946709326351169e-02,3.356663979824663861e-03,1.582737385892146438e-03,1.417583752815685383e-01,1.040546866835531659e-01,6.900281204356389919e-02,8.394117974880481448e-02
1.455023483382240634e-01,5.439159910713457086e-02,8.553597612024249619e-02,2.260529527154143611e-02,9.434398260671571874e-04,5.191992116544452349e-03,9.164224217304425824e-02,9.044995026767214952e-02,5.921234150734695778e-02,6.671014951728264364e-02
5.743124406038226104e-02,3.672324416808837172e-02,1.039419894662478722e-01,2.157434941870146894e-02,2.111342934161901039e-03,1.881070544963026753e-02,1.205070727922031605e-02,4.141304586316093411e-02,5.629233646052411721e-02,4.028493494566891958e-02
3.919402339380789746e-02,1.956251063393842776e-02,9.903711861364863922e-02,1.586183444645573870e-02,4.766363395955832381e-03,2.962354064958801908e-02,7.628418522809474189e-02,8.288318993693663409e-05,4.169279039486276789e-02,1.931655740938300475e-02
1.131280684402697911e-01,1.380204576900760996e-03,6.966021205183821341e-02,7.429929694735607631e-03,5.997377508574271154e-03,3.142855664919027431e-02,1.316158525292875081e-01,1.082934049676630671e-02,3.894356204432368462e-03,1.202209371954001023e-02
1.325682582870909287e-01,1.576635251641601843e-02,2.812772186315521186e-02,1.022249733913359153e-03,6.402563464495009300e-03,2.802528506213746926e-02,1.461631226270110884e-01,6.070887590482187089e-03,4.613179711813469169e-02,9.229920170702466883e-03
9.450670951081519000e-02,2.589355941844456027e-02,1.527900085329807547e-02,1.011293825804823396e-02,8.656381500416530581e-03,2.834036822120366769e-02,1.604476707614825304e-01,1.432880594839166036e-02,8.324197560578043553e-02,4.577772499652006319e-03
3.252367736763538131e-02,2.358347728034246651e-02,4.795945025476358592e-02,2.031295962110992240e-02,1.343766210854993766e-02,3.549222662573146836e-02,2.123202975954676386e-01,4.139958554269457247e-02,8.626104024728104003e-02,3.018559224837190011e-02
2.318132275906859691e-02,6.460765922709710979e-03,5.046926228085774763e-02,2.711113436500303675e-02,1.660582065179119424e-02,4.249364459057451693e-02,2.775368349849777760e-01,6.285777969486357197e-02,5.398499175311693987e-02,5.167437394854229593e-02
7.544659536552174306e-02,2.013356774353097095e-02,1.949245350302771657e-02,2.536948724583109813e-02,1.399320954361945278e-02,4.097704233121782225e-02,2.881889684012177710e-01,4.957822354396122094e-02,6.262810948970904193e-03,5.734868946511979121e-02
1.344306407637917977e-01,4.121216272638066058e-02,1.893412279297523870e-02,1.637084930130335014e-02,7.455574030564343993e-03,3.207357762532569295e-02,2.196308152024505633e-01,1.263323054757434054e-03,3.578394334926339460e-02,5.257893303667372786e-02
1.798899111762186920e-01,4.431873193251893717e-02,3.737490389390641515e-02,5.548674613271173395e-03,1.928549469629594866e-03,2.312813458675759201e-02,1.178648467039161707e-01,6.471612926469098859e-02,6.603635957134433576e-02,4.709758535936415386e-02
1.721685730857406560e-01,3.154047330450725911e-02,3.215088820791428548e-02,4.025592953129104867e-03,2.052437598505198798e-03,1.482263574055146631e-02,2.109833677522266610e-02,1.175977745858713397e-01,8.434323694072391742e-02,3.855192492211779315e-02
1.046564716441372722e-01,1.399484327664167992e-02,1.303001193824883039e-02,1.122500131352016303e-02,7.514638042291939615e-03,6.800957410348429984e-04,8.459462542940755780e-02,1.539946226857326073e-01,8.633016711100538476e-02,1.750407239337268411e-02
3.200354647299547689e-02,2.467085145573943462e-03,7.500632135132247538e-03,1.376291744840681640e-02,1.385720107139074356e-02,1.887306396401321890e-02,1.983845962321535983e-01,1.681780297100639865e-01,7.671620362932035642e-02,1.503592611243345992e-02
2.343575240548148586e-02,5.099922753146968191e-03,1.078439158686888069e-02,1.085573241069114070e-02,1.668404283813384320e-02,3.225258353029899355e-02,2.620123927428759658e-01,1.504610283606969412e-01,7.682453264734223630e-02,4.445775045278455018e-02
8.359078612673391528e-02,2.124419953085050425e-02,1.373145107811913831e-02,5.921562827325924788e-03,1.481056289892671018e-02,3.198123493110330284e-02,2.319191316493677546e-01,1.123820968331676329e-01,9.846200398122398334e-02,5.844059500149422631e-02
1.461526639750317103e-01,3.750649557922364902e-02,4.654244685323392916e-02,2.395844371854089459e-03,1.230170682927013079e-02,2.644584224800054784e-02,1.446614929418116313e-01,8.757518567905407669e-02,1.218946657382864729e-01,5.981201398569783306e-02
1.519265004224866766e-01,4.150684590058424661e-02,5.420290717419318921e-02,3.671150419226626048e-04,1.294677424245099101e-02,2.878712609205958534e-02,6.285133816532093021e-02,9.015095356734950660e-02,1.187684107234193293e-01,5.801579304406907084e-02
1.027985214342574533e-01,3.534200364324477373e-02,2.955802492986505520e-02,4.137245515056978303e-03,1.609587045637295502e-02,3.843567267690534139e-02,6.895314593148230663e-03,9.458965466637764274e-02,8.768625534525813225e-02,5.191584443557750034e-02
3.993766818568397770e-02,2.700619773915274857e-02,2.129856009023389958e-03,7.622308909673188720e-03,1.882154452672176251e-02,4.341328459941366791e-02,8.361420129395862044e-02,7.661686577422804900e-02,5.217902328308435256e-02,3.514196248178447918e-02
3.153248038545116740e-03,1.813772935403255501e-02,1.731449622751462733e-02,8.179325615081998666e-03,1.990210652050316761e-02,3.965664236057805936e-02,1.330683784951434689e-01,5.402295721293653291e-02,3.199083516884543288e-02,1.734753707799294511e-02
7.640311797782878278e-03,7.450714745013996450e-03,1.976035678683405600e-02,6.214102380317105059e-03,1.974487439834349614e-02,3.529138039084422918e-02,1.095367185369882923e-01,5.822935102997419538e-02,2.810027018614535965e-02,1.611262693524572256e-02
3.409186344162193349e-02,4.793534083996078658e-03,2.899823673542334737e-02,5.183763790239976840e-03,1.762652044926736952e-02,3.397267195380879873e-02,6.002791725828147962e-02,7.988121467462575009e-02,3.050931547010996350e-02,2.546289309881688556e-02
4.717462485402244138e-02,2.027655616600730279e-02,5.183207717549487281e-02,7.335811638223345942e-03,1.229916054863462380e-02,2.904946807721280749e-02,7.699705225283351440e-02,7.998320258824745399e-02,3.188877256319563869e-02,2.150505202777940397e-02
3.520456729623881037e-02,3.999127218519608201e-02,7.325380019580579605e-02,1.145397060421496707e-02,5.608472564047524596e-03,1.833752508280504095e-02,1.495320299211983506e-01,4.969172480524527286e-02,3.155376368162241679e-02,1.194751715607649282e-03
1.973465684571893558e-02,5.797350025795354467e-02,7.803577921356645575e-02,1.525988874440932508e-02,1.796198635547659357e-03,9.527383030508236941e-03,1.754282606035964531e-01,2.017860597130237757e-02,2.734926259851036198e-02,1.536371917199973701e-02
1.870014890030188143e-02,6.935279374218605852e-02,7.316859959326502127e-02,1.835471996096349478e-02,1.832600341911401736e-03,6.862319653936323031e-03,1.233137117666502636e-01,9.846033160549607158e-03,1.132350088151832385e-02,2.109410223883452853e-02
1.581719564048463672e-02,8.173589320871815778e-02,7.626647787180730609e-02,2.126134509389183622e-02,2.129318071096447142e-03,6.668286187314923820e-03,6.824197298849363214e-02,2.184248028516414669e-03,1.842353000010830272e-02,2.920289259852312455e-02
1.457975184827469718e-02,1.031242925264013871e-01,8.534301771142609183e-02,2.222896478859484951e-02,5.527017582179221018e-04,8.065984362033099681e-03,5.985041825964885348e-02,3.677222135919095553e-02,4.903333199322496005e-02,4.442298002490122771e-02
6.088322595260439035e-02,1.203291869033735473e-01,7.781153178272427751e-02,1.801437047494072394e-02,5.737765184838077709e-04,1.375242014582817029e-02,6.763630836012679559e-02,7.753287167177669303e-02,6.735206042516488079e-02,5.616008819422927539e-02
8.353940575703827642e-02,1.086087603589546008e-01,4.260984749879781486e-02,9.341301200307169927e-03,3.247187105949195934e-04,1.912467906882937482e-02,7.132481832023192247e-02,9.634019909066665610e-02,7.449679906492331916e-02,6.160371338539626096e-02
7.126054682773810822e-02,6.521559452499772758e-02,2.172858511942999879e-03,2.115939358247953712e-03,6.142525006676323798e-04,1.455302018152715079e-02,1.020593658553118760e-01,9.750014720923712297e-02,7.419773462174028555e-02,7.029950260708968390e-02
5.149603476496605881e-02,1.432768199392910578e-02,3.039377404483229947e-02,2.161868504761239266e-04,1.807991198388600364e-03,3.885690029490938358e-04,1.716355501543770923e-01,1.040475854026126773e-01,5.958398412377682168e-02,8.242448271895284895e-02
4.374443623213847970e-02,2.418911548252211316e-02,3.583972937473658277e-02,6.509942558845628960e-04,4.610569081701809506e-03,1.143726419873478638e-02,2.411303741084201702e-01,1.114372789545218928e-01,2.748998145785183644e-02,8.384502526653418719e-02
4.296140442318446828e-02,5.069726597268835178e-02,3.048751208626434075e-02,5.134175985235672496e-04,4.985109326000120716e-03,1.301299550028558495e-02,2.731946863651502078e-01,9.637806037197826914e-02,5.423673679142097109e-03,6.948726310737490808e-02
5.079701369809518779e-02,6.789524620965925461e-02,2.100404011758107842e-02,1.327037916009124116e-03,3.938390393182386769e-03,9.321894184807119968e-03,2.603434516327802761e-01,6.560660603131075741e-02,1.673746692122599078e-02,5.484469674115192983e-02
8.171928420745101784e-02,6.909684459994105965e-02,1.471315362249744040e-03,2.401227109536184512e-03,4.014894594343169053e-03,9.285726212089822490e-03,2.143845742938141896e-01,5.103334699762167997e-02,2.181668387988034384e-03,5.383749859015424244e-02
1.306575815756013392e-01,5.109756506369466517e-02,2.648543574083766713e-02,9.482163380909219147e-03,5.721122755136288061e-03,1.461737745039272916e-02,1.695984087576315469e-01,6.205408711390746068e-02,2.377068075339095962e-02,5.778203068947963816e-02
1.667156710389904317e-01,2.232850749594030015e-02,4.349532012705691758e-02,1.412410431839864963e-02,8.180794836133013434e-03,2.104976475986242504e-02,1.614052061629589474e-01,8.387003729946100605e-02,4.526369112967725677e-02,5.076899475206773926e-02
1.677800894447823432e-01,7.447311799224643793e-03,3.612557963482692508e-02,1.336676794704066973e-02,1.085531765849215638e-02,2.609910991996283736e-02,1.740639177719017217e-01,1.095653067155364785e-01,5.613607387674659360e-02,3.794510948695976882e-02
1.404570574420010709e-01,3.414320244775487234e-02,1.608878011054083734e-02,9.706017269403307765e-03,1.295768778807025214e-02,3.028937260294263523e-02,1.542811157766733332e-01,1.334987602945042762e-01,5.790170403397468246e-02,3.898654697395945168e-02
1.050555874328121114e-01,5.468853951813360675e-02,8.549470970282248630e-04,5.958337485533036701e-03,1.289896146758376383e-02,3.164685202881174775e-02,7.842349204107862404e-02,1.325508772608341990e-01,5.341334792870512660e-02,5.261155389567431784e-02
8.179385549106384101e-02,6.666835669147477828e-02,9.887056523653309920e-03,1.443106964984618460e-03,1.007304347774531754e-02,2.520989733743739247e-02,4.334971675528283275e-02,9.451669803635806555e-02,4.208919980984972276e-02,4.923996892906321726e-02
8.629322213423443189e-02,7.335820324758478284e-02,2.369335184465585359e-02,4.534639135238565169e-03,6.550192635357481724e-03,1.084312921566856804e-02,2.020292997394696477e-01,4.637627092772220183e-02,1.965811678158951858e-02,1.092212310586190317e-02
1.123537867909783772e-01,7.976566344374343143e-02,3.497555128807205982e-02,8.694285326443514095e-03,5.223375362906484097e-03,3.515568469192269403e-03,3.720804055330564353e-01,2.036087997255913579e-02,1.310363186793813209e-02,3.941506562642571598e-02
1.259318743777352589e-01,8.449833619340796353e-02,3.025050626785980717e-02,7.135918722682515168e-03,6.167539160443468067e-03,1.008184017704780513e-02,4.906214835752026326e-01,1.261107517405993077e-02,4.155791536659412394e-02,6.541499624471404373e-02
1.047337522903146606e-01,8.253791537428391278e-02,9.397424173242047152e-03,1.262833217614487942e-03,6.636205808359562502e-03,8.424325973544271109e-03,5.003190911203114766e-01,5.538731500911548214e-03,4.672473867110138457e-02,5.857745170437374943e-02
7.435453962801735761e-02,7.155036765203540150e-02,7.618977732291826871e-03,3.342337486164802772e-03,5.058216312673700227e-03,2.023940441917536966e-03,3.988421208975455601e-01,8.099973450034183425e-03,2.556603217201007180e-02,3.573849353310777632e-02
7.283920561509588110e-02,4.895125328217174443e-02,6.267486040776757902e-04,3.601507833106269187e-03,3.029909998250512968e-03,6.872768130231170919e-03,2.375874743356922725e-01,3.914382825853453263e-02,6.385838300417045858e-03,1.188908398060923091e-02
8.988269249017452611e-02,1.109357513268636151e-02,2.539719634125972916e-02,1.269444472799916837e-03,2.527897243650925260e-03,1.579970289321235705e-02,8.763880388201285287e-02,8.551289529411570944e-02,3.175956926583394652e-02,7.294843481183876238e-03
7.994530055858008188e-02,3.636414178287655785e-02,4.590499717574138966e-02,1.331449422189861370e-03,3.181316129442088997e-03,2.054729869268489065e-02,2.048099025479723639e-04,1.099449871642115134e-01,4.170309484178615772e-02,1.972253918080055582e-02
3.162667331295979795e-02,7.594005427123562413e-02,4.916327593024821807e-02,4.304908646787454843e-03,3.650904714423843823e-03,1.905326589449921060e-02,1.438127579192672104e-02,9.420813083359022566e-02,3.251787232045340315e-02,2.932372993446193121e-02
1.392290630778806985e-02,9.384821610869446828e-02,4.604982892854444371e-02,8.011628661183134090e-03,3.882387177793520088e-03,1.355631050347196401e-02,2.798457690779241128e-02,5.065511178625019956e-02,6.177215138237364053e-03,4.484567033107537959e-02
1.564925543607079139e-02,9.111295474821747009e-02,4.518473565198591335e-02,1.088600120126636747e-02,4.376657283930393896e-03,6.497357402478944749e-03,1.063850300401681243e-01,1.441587420453149110e-03,2.306239313081229203e-02,6.410795990323008009e-02
2.430162283914736807e-02,7.671927425126469358e-02,3.970731021923708942e-02,1.090048021508110108e-02,4.744183140450822754e-03,2.000142631413264014e-03,1.941234918494711970e-01,3.246396816684773978e-02,3.550513613126556056e-02,6.708988799697826466e-02
6.949855511527343321e-02,5.884522858687946806e-02,2.405065391172588746e-02,7.935227069848007145e-03,4.434944952493083230e-03,1.100416027953935068e-02,2.629630487342980438e-01,3.728343998484250077e-02,2.480474699565268781e-02,3.803750788564527058e-02
8.239391695441874996e-02,4.380508462149780569e-02,5.258465268033452565e-03,3.978670119218548351e-03,3.759447961350533864e-03,1.735833911327051143e-02,3.022074836559312527e-01,2.461995040288901537e-02,1.405933561968018830e-03,8.740132813845002957e-03
5.222889149891812854e-02,3.428464738401639650e-02,7.854304946026749445e-03,1.309616221383299922e-03,3.259479971741410451e-03,1.902894530489451091e-02,3.140062123339629752e-01,2.785063303224991765e-02,2.345641798646216220e-02,3.916575239087436572e-02
6.037787439682304642e-04,2.697791207379643744e-02,1.405889900890780128e-02,6.099336794931658383e-04,2.927333913015180665e-03,1.710332977616992739e-02,2.946493077291730822e-01,6.040390131997657591e-02,4.636623664223569335e-02,3.748900055741232612e-02
4.283217754742497940e-02,1.724855636962756289e-02,1.547003435894921293e-02,8.383455656060116766e-04,2.523434749484769132e-03,1.379061236602809916e-02,2.476678545701806733e-01,9.531808826006758772e-02,6.348524850888224991e-02,2.153418470869992302e-02
6.690990412459715819e-02,5.068201812175925948e-03,1.337433937877403889e-02,6.733241152875513082e-04,2.043564600914110022e-03,9.911181310149909038e-03,1.970896250688871643e-01,1.007977942986134495e-01,6.725757134604239129e-02,1.482647314896958120e-02
7.299734804703879310e-02,7.197494581618783110e-03,1.076403434730819654e-02,4.121308175594887765e-04,1.599981503168169342e-03,4.747853158077440690e-03,1.552630939611884808e-01,7.466152288620678257e-02,5.814823417283492696e-02,1.697375637656390115e-02
5.442774051182296124e-02,1.949242966257493798e-02,1.254453854057294496e-02,2.160494517576576432e-03,1.197768462514952432e-03,1.606355537456784222e-03,1.055647317797006740e-01,3.403722223106461081e-02,4.815790145638521036e-02,1.337091996175321373e-02
4.151148587391278316e-03,3.237596989369564277e-02,1.974609828868599190e-02,3.747311359177346850e-03,7.868567254488441744e-04,6.420704365429509737e-03,4.898751425710810153e-02,5.249527640041339732e-03,4.252444846715484894e-02,4.996125115462834304e-03
5.883922310932285238e-02,4.338057078239462155e-02,2.703078417662926891e-02,4.247958253469135033e-03,3.680608305707731517e-04,6.532690200270309736e-03,2.704495028412795890e-02,3.182542121003843760e-02,2.934539894387057368e-02,1.260278211377144700e-02
9.642369810205646263e-02,4.912939747152021003e-02,2.923412764803272682e-02,3.586804422927697932e-03,3.096885202459782622e-05,2.234371895320435165e-03,5.839176268901702382e-02,4.111877608359373881e-02,1.575707935930269026e-04,4.895265583997283898e-02
9.690207505622562556e-02,5.028029021916761293e-02,2.825474892325280721e-02,2.608809196522576118e-03,4.073189333780536043e-04,2.660042295070347111e-03,9.172979318246549107e-02,3.959558985472641512e-02,3.108334410027062053e-02,9.605605044584428209e-02
9.178274493455843008e-02,5.107229117158902654e-02,3.055960889453150989e-02,1.914853954420048850e-03,7.703378444678706926e-04,4.350881793019706345e-03,6.503320377624853543e-02,3.740420906484104996e-02,4.370375408425510727e-02,1.187686168309942669e-01
1.050280367517797270e-01,5.249014247496594510e-02,3.849626938835486872e-02,1.350591858803455812e-03,1.114188864187509861e-03,1.682642275491144038e-03,1.798022523726056088e-02,3.899604395920337752e-02,3.504882511828857211e-02,9.931750737536684803e-02
1.066566349085748266e-01,4.877207903015977342e-02,4.596473156207339650e-02,7.288127630313685724e-04,1.427629729413008646e-03,3.719238729373337913e-03,1.090416145443110774e-01,4.370902608487634011e-02,1.860342112009908538e-02,5.051235043592743057e-02
5.114553303562878461e-02,3.489546807673738621e-02,4.438793574610386261e-02,1.833725866889974110e-04,1.714240376827367608e-03,8.799623103332728999e-03,1.857621361568120577e-01,4.638014877748921488e-02,5.721412536472071132e-03,1.304472197400360911e-03
5.323711593147965881e-02,1.517367273470250806e-02,3.318060173004522967e-02,3.160150173842137000e-04,1.979585789718451075e-03,1.147026613268785702e-02,2.561963146996562024e-01,3.571685494898044211e-02,3.319860858426403310e-03,3.433108220885838086e-02
1.502013248944757406e-01,1.064325343601919350e-03,2.115208307012400243e-02,9.686826861502075134e-04,2.206296671572407879e-03,1.214435020980844486e-02,3.054823262884620583e-01,4.509412084870188103e-03,1.456797037348196711e-02,3.533232798487849491e-02
1.980448582381375833e-01,9.541248596748340416e-03,1.583960489968950364e-02,1.487146146592432808e-03,2.377952928695958694e-03,1.180215178273130022e-02,2.875621505679954448e-01,3.613638533611033404e-02,2.967445928610965705e-02,2.144757861746953917e-03
1.940635641753641338e-01,1.137783685647083057e-02,1.473075200754594798e-02,1.431888606930442837e-03,2.524560931703810369e-03,9.564051815130300560e-03,1.889926908645269410e-01,6.427423177302350743e-02,4.013134987882397559e-02,5.002819170057003217e-02
1.516590329643335289e-01,7.752487395802613521e-03,9.388457968827937372e-03,1.552055679894465698e-03,2.674331691498813782e-03,4.575911803730075764e-03,6.896810103095452060e-02,6.973641017394907604e-02,3.607738494430898224e-02,9.237415980226547363e-02
8.796232838057205239e-02,3.637344525176887909e-04,3.400328419037583916e-03,3.347168359801081915e-03,2.759531053784876255e-03,1.367423477502729620e-03,1.069014854730926086e-03,6.034474991383904224e-02,2.017850650582974498e-02,1.018408641849657820e-01
2.841378632233326068e-02,6.538411560031699016e-03,1.709662953423111281e-02,6.431708659534783080e-03,2.716561733698004844e-03,5.904948115308546706e-03,7.037504913996784489e-03,4.782283849094380590e-02,5.298676159189327078e-03,7.731363205358977864e-02
6.371218235942196877e-03,1.040973086635480285e-02,2.324951820543301462e-02,8.047519868211661792e-03,2.688113977180819989e-03,8.654202925248048045e-03,3.862359281946534800e-03,3.501267380421682618e-02,1.471019830048622126e-03,3.544868418189742881e-02
2.266050263707180407e-02,1.420039357363426374e-02,2.138391367725211642e-02,6.564645274406932969e-03,2.815440171982553415e-03,9.363768291192208978e-03,2.235573157723996091e-02,1.575199597652874109e-02,4.093880496405791734e-03,5.089289736279513365e-03
4.098028866860568831e-02,2.069795285350745084e-02,1.698129487400769355e-02,3.783391562782810035e-03,2.796863983705847375e-03,6.614379245099687166e-03,6.926133452201466145e-02,1.474967196793053673e-02,6.753022921323121978e-03,3.427392489045709423e-02
5.327756341099889464e-02,2.481598083931858129e-02,1.231472271341366165e-02,2.254423003083642473e-03,2.303940058316914213e-03,7.920586953600314891e-04,1.312348223452056151e-01,4.752315860214883364e-02,5.498917272147168384e-03,5.160151259518998973e-02
1.607014393720178694e-02,1.779150380591800612e-02,5.993764462703097574e-03,2.127494950215717915e-03,2.029644632140224867e-03,4.609652910389077166e-03,1.573544021847317065e-01,6.034068550856596519e-02,6.795911170146422958e-03,5.846651874310942326e-02
9.070172996500334983e-02,8.775889141108281569e-05,7.467814152613987989e-05,2.316046470142502176e-03,3.292399185444752543e-03,6.863760171571613687e-03,1.313204640934727552e-01,3.694137182458132052e-02,2.831051013794331009e-02,5.034058165777213073e-02
2.170529822907645290e-01,1.791531549486138561e-02,7.849890669208910718e-04,2.818838809223467041e-03,6.149376232299840622e-03,6.862253803938321746e-03,9.437963682327517312e-02,1.380665399294588036e-02,4.249845926883288882e-02,2.338906638017262951e-02
2.898590370916886982e-01,2.914102202445479142e-02,4.808912010143578941e-03,3.878429453736896224e-03,8.942886088707271280e-03,6.684758524343456521e-03,8.679981939656972179e-02,6.237152350453211563e-02,3.202722439881358629e-02,1.199980234617093258e-02
2.927329527184996394e-01,4.020663147416238259e-02,1.149437883515329328e-02,4.449722677693047218e-03,9.930394834014670200e-03,6.358435368434930957e-03,1.056745324077630055e-01,8.288671482932605250e-02,2.451182842225430990e-03,3.738515614895957656e-02
2.641842598564024258e-01,5.723332133639046082e-02,1.364161556003810373e-02,3.488047207894341261e-03,8.490202706146641673e-03,4.410336669920378663e-03,1.231581454285604199e-01,7.365860292561773881e-02,1.976523509545019194e-02,4.638405084436255515e-02
2.341130568878989904e-01,7.262964241827889189e-02,9.775791378683180988e-03,1.714282138339896962e-03,5.260070856972967786e-03,7.274487899379636791e-04,1.195206895592844376e-01,5.713054161628081107e-02,1.915206147588041641e-02,4.530477023448339913e-02
1.993453740165247734e-01,7.454198734802215676e-02,1.901068329039512983e-03,6.037769151994045293e-04,1.984294358812104322e-03,2.566589817507930037e-03,1.001307881551435075e-01,5.570146300310190035e-02,6.709839382744348796e-03,3.697542086458875665e-02
1.509155676767135190e-01,6.277479741516923950e-02,6.714593095962881342e-03,4.213938195144810656e-04,3.177805264037965663e-04,3.710590793206186653e-03,8.888983559194395256e-02,6.350998695766314761e-02,2.736558631441063111e-03,1.883951641924207915e-02
9.538187725969109187e-02,4.663674880164511705e-02,1.261521488802859990e-02,3.817176066060686034e-04,2.225010223870713122e-04,3.528383612903509148e-03,9.828781329569161174e-02,5.349514956626275769e-02,1.033200954212408137e-02,6.722799266103811518e-03
4.495658175606120216e-02,3.211846228567341588e-02,1.357266174215706299e-02,6.760790630524007600e-05,4.096441894115363924e-04,3.619619808543044284e-03,1.153897705695043907e-01,1.698430393336696972e-02,2.050129755026550843e-02,3.206912339471545276e-02
6.029926111618226503e-04,1.839495443811101777e-02,1.066802592650884993e-02,2.838225364571525522e-04,1.708316960488225067e-04,3.730556548491103554e-03,1.286405506773213581e-01,2.239885860502727546e-02,2.620386940735018946e-02,5.010172855270865477e-02
3.867854179862996455e-02,4.913431319332289132e-03,7.583020487592235029e-03,4.807149503011921539e-04,2.076515220618521847e-04,2.635179072361614177e-03,1.441590775969997518e-01,4.014992495797511940e-02,2.038394464795531200e-02,5.526012562101781378e-02
5.402864187336635371e-02,3.809978222122753673e-03,6.596916830700077714e-03,6.192882479170857971e-04,3.754183166630428769e-04,1.588320319600483501e-04,1.589629400818520222e-01,3.433875152119780783e-02,1.010852475561898646e-02,4.600325903169334707e-02
2.359213043915220007e-02,2.797975127248083886e-03,6.779148256732171578e-03,7.836526614944529885e-04,3.682519744203799914e-04,2.994922999164417558e-03,1.505694857900388428e-01,1.193429567140068259e-02,8.342269777847726581e-03,2.918183608332231699e-02
3.651592183015481274e-02,6.366664227703711099e-03,6.444059979099091111e-03,9.253735649216631104e-04,4.185128820266906247e-04,5.709848775263625005e-03,1.146558092472983875e-01,2.280938158079418021e-02,1.909666349418694120e-02,1.611970015438919657e-02
8.295138375062187375e-02,1.659419794736549311e-02,4.839246566083653216e-03,1.001349003308731663e-03,6.851396502489336647e-04,6.071238835618574838e-03,7.923053093139892367e-02,5.654397630213160025e-02,3.435000188409605137e-02,1.281885594600615068e-02
9.761874581057712608e-02,2.249752996239964484e-02,1.157272841979254101e-03,1.032007087539074880e-03,9.202885439114373827e-04,2.818327114826394298e-03,5.971375953365799794e-02,6.845438970990547212e-02,3.864578426168046449e-02,1.547711257801926560e-02
9.557485542356802810e-02,2.353771792443963909e-02,5.252073079195968691e-03,1.037532983483321772e-03,6.294035904265761787e-04,2.285412617044281676e-03,3.496049413711351667e-02,5.694466717129911815e-02,1.987930680308877193e-02,1.491912485898037530e-02
8.761444732026882343e-02,2.065909408221092841e-02,1.343399409745115597e-02,1.009817421745629832e-03,3.431771760714527305e-05,5.591563259429494295e-03,1.117166546094130672e-02,4.359843758586775392e-02,1.601842575879941499e-02,6.242249839769167460e-03
6.776391957500758900e-02,1.302277281601420429e-02,2.153575427449606200e-02,9.419160725633916008e-04,2.810616828487429750e-04,5.023602437022058574e-03,5.810793048518614334e-02,3.982021902889202464e-02,4.708795295675123616e-02,4.515643722896021429e-03
3.191221805162677838e-02,5.434579214064856265e-04,2.788832407917444731e-02,8.414548815508170968e-04,4.985792428619970854e-05,1.223407286241293395e-03,7.866507430865180006e-02,3.224150519990007235e-02,5.828697597950752846e-02,4.340085731380356054e-03
1.371584558448689546e-02,1.089990016025697492e-02,3.022631431284054232e-02,7.168797298434018790e-04,9.303928852035566605e-05,3.329428295064034132e-03,7.680988497451896047e-02,1.209013994652774655e-02,5.349671563372102034e-02,1.458708253393860288e-02
5.995964961166105889e-02,1.217530782888992004e-02,2.658696064189246602e-02,5.708639827119679115e-04,3.981927652551192675e-04,5.597704160390039145e-03,7.845277531684860528e-02,6.343800752535698820e-03,4.224642324559504253e-02,4.505305273989313603e-02
1.009029011097855866e-01,2.341080510436221659e-03,1.828193443381102151e-02,4.064953239401645048e-04,2.047655428715879154e-04,4.663076384812260555e-03,9.314643070368583411e-02,1.147360763039566474e-02,2.942960646061184085e-02,6.685392917332738660e-02
1.349279166693689025e-01,7.767078543458733053e-03,9.645886952343089155e-03,2.302476876369168013e-04,4.067730903373242401e-04,3.499421204552862451e-03,9.806735271505948037e-02,1.587055585756348003e-02,2.251876045211994443e-02,6.283458905856777188e-02
1.630321136258233716e-01,7.943383360484439215e-03,4.515338535133080894e-03,4.891542810300951227e-05,6.418634408349661912e-04,5.431387826943094924e-03,7.112494214976707030e-02,3.521627607620617106e-02,3.167869672538808912e-02,3.644023574002046295e-02
1.836539928430314383e-01,3.109027081615672004e-05,4.033268052365145649e-03,1.320304434206091989e-04,3.970358923302990707e-04,8.714290896656999921e-03,3.318204569671541482e-02,6.220753070207642871e-02,5.304193620639142959e-02,9.473788790573057020e-03
1.890142919614549721e-01,7.463520417823841895e-03,6.304684465303916560e-03,3.072457142789255472e-04,1.940899846421392176e-04,7.787087224017428568e-03,2.964580270970412768e-02,7.529419253694408232e-02,6.586861703103744081e-02,2.323982558055218400e-03
1.766147850926041984e-01,1.052064785062470885e-02,7.351403701109237784e-03,4.709464556991208809e-04,1.913484184099454016e-04,6.855959743132135483e-04,6.855522300268426794e-02,6.417812270050329837e-02,5.927844436180385729e-02,7.082355880433417392e-03
1.680785435536802652e-01,1.210956289094069355e-02,4.947427418518657131e-03,6.176737107519555611e-04,1.788750996884923760e-04,7.801612200905382044e-03,1.099886761457251200e-01,3.986363601797879297e-02,5.121101375395781252e-02,2.233605084129749660e-02
1.914843790946759716e-01,1.470807836806039409e-02,2.253297494285221719e-03,7.427678516125665702e-04,1.204165848752083035e-04,1.173606609987897821e-02,1.200310013449761015e-01,2.272332337075778225e-02,6.480437194637275744e-02,4.606623602887054136e-02
2.259006127244440332e-01,1.637163063009129324e-02,4.698498261543764681e-03,8.421996583317913889e-04,1.003403988909852838e-04,1.032547608488186032e-02,1.041874041679888979e-01,1.991861164919611626e-02,9.362788606977752448e-02,5.567386591339932439e-02
2.007640889217132685e-01,1.430984900890874302e-02,1.265032069177150949e-02,9.125086999299829218e-04,5.230982818021768610e-05,7.305924669574324036e-03,8.773463435506748120e-02,1.835018942560906474e-02,1.092692996088740348e-01,3.876199497754045931e-02
8.829743718613990155e-02,9.396812680167824020e-03,2.071914880986940738e-02,9.510196053352112065e-04,3.039793723460960381e-05,6.389837476554307075e-03,8.823962871384416484e-02,6.371875540562834880e-03,9.899674310737308081e-02,1.061584385562589113e-02
4.343470270255295196e-02,5.318750014984787410e-03,2.515074484069789937e-02,9.559836274882854918e-04,7.465926813558292844e-05,9.087821014339934889e-03,1.063063429086172490e-01,1.101589813210875242e-02,7.658079191319194790e-02,5.579060995287177596e-03
1.115538330195058325e-01,4.291554749907652844e-03,2.749768760503613213e-02,9.265587929070907489e-04,3.213752567231591617e-04,1.510083566795527785e-02,1.294397881911770465e-01,2.867094485043281127e-02,5.762908412003949626e-02,3.022008300212560179e-03
1.073383551189195650e-01,5.618716612487144497e-03,2.931426537230045690e-02,8.627909164286147415e-04,1.564761447448230719e-04,2.222468262904400693e-02,1.439400324276406962e-01,4.934877017795637894e-02,4.250098891327910161e-02,9.141180437256219565e-03
6.772651864247973552e-02,8.128303829752025686e-03,2.787912575610327140e-02,7.656370999932952210e-04,5.540055918205421094e-04,2.655275316632397381e-02,1.423339159335704485e-01,6.234930518012703204e-02,2.620971377329449348e-02,1.692793199522617253e-02
1.273818292929960669e-02,1.141075406166085562e-02,1.994268671241811522e-02,6.369560903987979764e-04,9.464472308651345183e-04,2.533678715680096061e-02,1.202912363860466211e-01,4.361467754021525201e-02,1.128852107752127513e-02,9.924280424920696453e-03
4.772967039112223364e-02,1.434120192927985232e-02,7.069505548089672839e-03,4.794457544525298565e-04,3.796289906889309743e-04,1.983647872617289726e-02,7.773132943794421046e-02,5.304381008940659351e-03,3.584521944705523246e-03,8.071793119475298428e-03
9.143219358841427058e-02,1.519906129332345909e-02,4.626967175075105514e-03,2.965643079147737855e-04,5.083700559757166424e-04,1.363620378324071833e-02,2.520742196399491930e-02,4.486593560501905137e-02,1.553769189529893499e-03,1.894200184474651230e-02
1.079726520512159643e-01,1.422891610774232318e-02,9.860689910985404039e-03,9.244721198058535191e-05,8.431103785558703495e-04,8.364116270213141358e-03,2.260075434909907324e-02,4.502783723532458732e-02,2.568987087797021396e-03,1.284987968666967406e-02
1.147344315692786776e-01,1.384027755725483234e-02,9.349021637435849658e-03,1.281943526599070679e-04,7.437742756880127808e-04,3.013307782393651393e-03,5.981534056441994984e-02,2.495863256202305452e-02,1.194830739586530410e-02,3.618951053261923977e-03
1.240420743024772676e-01,1.511736168274159346e-02,8.589646632807052679e-03,3.601956438274035569e-04,7.715502675734157599e-04,2.570692361618553967e-03,8.493658733174382081e-02,2.223312669935586378e-02,2.157695659030260671e-02,1.018963861055452620e-02
1.270694168154061499e-01,1.617611750975572402e-02,1.105039177684288138e-02,5.980705047755020213e-04,9.920393900686426489e-04,5.951897946725286971e-03,8.950080371943062996e-02,3.948735582123692051e-02,2.633447248287144882e-02,3.153761646752833991e-02
1.266009971692268476e-01,1.572127759063592783e-02,1.496016022035976702e-02,8.361478340729353682e-04,1.158763975985562054e-03,4.923605959786034672e-03,6.753939673947349787e-02,4.986469976351201594e-02,2.754652248289275393e-02,4.878899561629564813e-02
1.399817785747488053e-01,1.589740198361318246e-02,1.710703551713298187e-02,1.068712475663085833e-03,1.229144395035149714e-03,6.656534371412689208e-04,3.033893132373407381e-02,4.253271531370002301e-02,2.977538779650131667e-02,4.507617239437568257e-02
1.488774756334347027e-01,1.792311485528292475e-02,1.664058234529187247e-02,1.290148170174393967e-03,1.312423722975207757e-03,2.943109670614397523e-03,6.424585399876342126e-03,3.207531750791905306e-02,3.497506570273938020e-02,1.923035526653237015e-02
1.012794823457196375e-01,1.669332851790123612e-02,1.477777953892143656e-02,1.495077408031842293e-03,1.425717415630165007e-03,2.679319471104380217e-03,4.122006435006810021e-02,2.988149995502508219e-02,4.155412804603828697e-02,1.380189501200238672e-02
7.845269253768032830e-03,5.806571162808886986e-03,1.316461493173343156e-02,1.678494194034349345e-03,1.514164418898794042e-03,1.518416020053597318e-03,7.210406204712317690e-02,3.177702174375708621e-02,4.632112423595239475e-02,3.348112557992573984e-02
1.121165738949873730e-01,1.198643097165940849e-02,1.260834436747739797e-02,1.835887235137735910e-03,1.565508282244671605e-03,6.787193145135466538e-03,7.867225336492696119e-02,3.017486950704899654e-02,4.652178875248284134e-02,2.829052148904824884e-02
1.564593805784360858e-01,2.589962144291155233e-02,1.260274606814886303e-02,1.963350828773292606e-03,1.602214964532855954e-03,1.004862625833614215e-02,4.639432037202414344e-02,2.337795283412121006e-02,4.257737582860188913e-02,2.965962071999284945e-03
1.523795783008320415e-01,2.939011553149994613e-02,1.257424809144195958e-02,2.057680427855973406e-03,1.627805883698201384e-03,1.072372697629354887e-02,2.560809521599755837e-03,1.572454393288844066e-02,3.852250817053737980e-02,2.674522291783057448e-02
1.326671021817817930e-01,2.536133891115974551e-02,1.257335452679251252e-02,2.116450469581720919e-03,1.629953880442184611e-03,1.032367473431541893e-02,3.100879781172384206e-02,1.225305561263719673e-02,3.718786609654691627e-02,4.568728343160725902e-02
1.046444070541991678e-01,1.897257846346961374e-02,1.150597943097025552e-02,2.138072795384699486e-03,1.605697524046700679e-03,9.691049617811552108e-03,3.212297426188075178e-02,1.128118549600870199e-02,3.677346130238439564e-02,4.759639996448802868e-02
6.770305264608421358e-02,1.132050373948948960e-02,7.332164844792682379e-03,2.121834376117899806e-03,1.560329824878696437e-03,8.392108257186730799e-03,2.878835972323677203e-02,6.248561244933113420e-03,3.491449236735517936e-02,3.414114936357081492e-02
3.418605968299476272e-02,1.892254662132528175e-03,1.116421691080738028e-03,2.067913433612248320e-03,1.495590492049525240e-03,6.819633981217807818e-03,3.304765686370174371e-02,5.380507835136905462e-03,3.277034407086017870e-02,9.183097131563703816e-03
1.343135574403539825e-02,6.989954639410740980e-03,2.424564072543828296e-03,1.977373629650613050e-03,1.410036247166904276e-03,6.379330678795348819e-03,3.055522606804167082e-02,2.063884049223372458e-02,3.194954050862815892e-02,2.054365200517184464e-02
9.386139188364730872e-04,1.162749794345110596e-02,7.576931835653545784e-04,1.852136598841618324e-03,1.304550644886798717e-03,7.123327535789905976e-03,7.908990622976286300e-03,3.541465805967634883e-02,3.117458536362777838e-02,4.203184930555058096e-02
6.049183176199614438e-03,1.168839788275521929e-02,3.152770169746233614e-03,1.694933612170151623e-03,1.182197156143411200e-03,7.593656857454986198e-03,2.458127388842503563e-02,4.648365879272721435e-02,2.885507631280026866e-02,4.510471146020130634e-02
