1.410107353032003311e-02,1.747219996949643528e-02,2.874003565918891584e-02,2.483987682153349780e-02,1.551047606288225413e-03,2.498552947956866888e-03,1.237344020683347513e-02,1.759808394958719754e-02,2.534370665925845915e-03,2.252389755909127976e-04
1.867084963790965196e-02,7.804253764189283613e-03,2.681992346158672616e-02,2.589348077418971231e-02,1.541125441255387874e-03,9.051870759097701419e-03,7.164005090854270487e-03,2.151253445106919918e-02,6.998829778322382920e-03,1.868566810069408057e-02
2.604036450001799910e-02,4.066302427106921816e-03,2.116045849457834360e-02,2.532023180433205789e-02,2.829946085148219272e-04,1.184985415743625668e-02,1.162494251567276933e-02,3.889826115820527869e-02,8.963202246971913381e-03,3.780979564771623502e-02
2.603834614888311458e-02,5.435244653353635616e-03,1.350574002479156682e-02,2.061253168058581331e-02,7.142555412870001509e-04,1.176985626318582771e-02,5.286437095224810409e-03,5.053483036011339330e-02,7.511061439409036367e-03,4.545260380165567354e-02
1.302600669156950101e-02,8.672823878270853257e-03,4.791642145192140032e-03,7.590819670749062581e-03,7.354400767277003304e-04,9.502934615397081591e-03,1.657197443752939786e-04,3.918724128486740510e-02,5.317508641858766094e-03,3.944041756319489889e-02
4.820530874359205652e-03,1.618583705830167752e-02,6.554141933214330772e-03,1.424245184798687835e-02,4.627543065731578730e-04,6.662669238986039695e-03,5.751262877904872103e-03,1.084787763962264187e-02,4.406644377115561360e-03,3.295328449643034757e-02
1.517686071187853217e-02,3.193629906547185149e-02,2.085369162070936644e-02,3.751940539125385443e-02,5.102141281439477550e-04,6.467023153023722729e-03,2.208326080216605619e-02,1.174413586590361373e-02,3.648450906786059565e-03,3.544389062667336471e-02
1.378382908580686600e-02,4.948450422011638206e-02,3.244781525834904146e-02,5.314678477895208586e-02,7.289964886530202670e-04,9.632312484219588550e-03,4.236124367958808701e-02,1.208802621930130626e-02,1.502433619654768102e-03,3.932932307010868211e-02
4.100096631597806296e-03,5.449339973044749902e-02,3.317054306600879937e-02,5.883494518164910508e-02,8.645278492668006815e-04,1.232183071423217230e-02,6.112978651529368812e-02,7.740061217150146292e-03,1.377427806572670277e-03,3.398849065755631810e-02
8.327515678056124013e-03,4.170410146749545938e-02,2.283559492259825893e-02,5.791594223128797986e-02,9.386860987610799257e-04,1.087313079094374101e-02,7.617593694193174059e-02,3.318772550477912947e-02,3.040819745028673030e-03,2.216221070212405497e-02
1.821332453844783095e-02,2.114858717400317986e-02,1.172799990328209779e-02,5.312207578520619644e-02,1.038553181796768830e-03,5.826201058330086890e-03,8.364802448302162408e-02,5.075384900547889183e-02,2.434005160433224801e-03,1.280985861088834027e-02
2.154684779610895398e-02,6.062410260116472480e-03,8.353248825729357036e-03,4.536442418897413537e-02,1.249201760916288225e-03,4.546009902943398489e-04,7.867415398854102349e-02,5.735567055323872315e-02,5.778539430896683423e-04,6.977238938184113053e-03
1.685419333495201052e-02,1.096836983638088854e-03,8.902859802598032252e-03,3.568486719611371760e-02,1.618432910044926946e-03,6.577375110552810718e-03,6.208313849472386903e-02,5.887772678409678578e-02,4.180381322843576466e-04,5.869928874360427762e-04
5.857752502209077200e-03,2.071973751230242466e-03,4.922199115491613167e-03,2.524219298711978185e-02,1.885058205545536757e-03,1.061097890878077640e-02,4.119394746762183868e-02,6.018822836230978968e-02,7.273866051252003868e-06,5.159253057032595589e-03
6.847136463391918781e-03,6.917956950848727291e-04,1.949990472602704987e-03,1.503546253771849764e-02,1.564718609244748065e-03,9.659538640432379503e-03,2.408445924910607161e-02,5.884429454164340212e-02,7.270622232007664621e-05,4.980224052827221005e-03
1.657536528704295700e-02,1.054879935716045158e-02,1.587881555699198650e-03,6.602881394049622474e-03,5.832602643642049479e-04,3.610085303953456011e-03,1.580795792934088645e-02,4.981119272960759375e-02,1.283829656163897959e-03,7.271117369393633855e-04
2.172148859676355237e-02,3.147432625026644337e-02,8.639396698457152066e-03,1.239960847966443177e-03,5.055045962237606199e-04,3.641295965530780450e-03,1.615873431921416650e-02,3.438558221137634485e-02,2.367057996546084037e-03,3.646190922526613802e-03
2.284584950023580557e-02,5.041356800742352595e-02,1.928107306542580293e-02,1.168884149528289732e-03,1.223637062163948110e-03,8.686901148859491051e-03,1.884324038545784341e-02,2.128379398741020445e-02,1.008140042224477638e-03,1.060436092604581226e-03
2.091080843901364089e-02,5.255631020804656106e-02,2.237242220649843932e-02,1.211297588585259592e-03,1.856817244813100971e-03,1.154600840691170915e-02,1.859754646933091046e-02,1.619412367013964987e-02,2.131488311664153645e-03,4.070465025303918356e-03
1.816552112071575728e-02,3.475330652456353614e-02,1.969856852457902915e-02,4.183685142649952969e-04,2.929235778315239166e-03,1.308583802743816006e-02,1.860531627951596614e-02,1.294184375351346492e-02,4.533553063153420055e-03,7.631075168372709189e-03
1.638492801621612219e-02,8.516633608515733478e-03,1.482828773415860966e-02,1.404723984474891881e-03,3.766308409442441218e-03,1.292052966174614750e-02,2.325539891077997925e-02,1.841364336756076865e-03,4.969862938398689721e-03,2.895086800904017599e-02
1.340211616605777555e-02,1.233015393935175431e-02,7.662145098720942425e-03,7.424273146792383267e-04,2.475641826416618511e-03,1.108196733384075872e-02,2.836957241076024094e-02,1.489203809753209158e-02,3.895159877054657233e-03,3.902123168201752923e-02
6.640613870828794563e-03,2.245251393581277483e-02,1.411073016853434982e-04,4.727802659806004670e-03,1.362244968690857214e-03,8.768327977700345402e-03,2.842134631951184418e-02,2.528408936715817457e-02,2.211490068805630448e-03,2.791838048430198699e-02
1.611404835968897279e-03,2.410010943043488021e-02,3.646839264298422367e-03,7.500244867859994467e-03,4.979373721969725802e-03,6.043638655446254178e-03,2.450184929853256241e-02,2.463715597203453359e-02,1.142893627330815193e-03,5.572514028001592998e-03
8.733169881556717210e-03,2.146415826032751009e-02,6.548773817376635914e-03,1.071160998927665753e-02,5.737345866612502711e-03,1.139854472919193647e-03,1.515464603238971322e-02,1.976237610438950215e-02,1.289357579525643926e-03,1.795682458335612700e-02
1.742163927588784647e-02,1.705761503895058054e-02,1.589700598502277740e-02,1.828765793972563641e-02,5.040366800761059141e-03,6.153003981791040598e-03,5.184354274876639204e-03,1.490611696091878081e-02,9.001503859938324434e-04,4.279867733001300328e-02
2.843303031781318699e-02,1.166386504002514361e-02,2.724359066342423724e-02,2.658133177116253285e-02,5.599372283031526197e-03,1.217935750444388600e-02,2.667702303559216573e-02,6.589291031605494856e-03,2.363264639367450813e-03,6.574165972188310281e-02
3.270805257590021081e-02,7.762939843545592702e-03,2.312477199829207630e-02,2.580323195045996013e-02,6.019700719809894206e-03,1.284755229719225164e-02,2.332592280662546327e-02,2.512110491430507957e-03,7.771559954729262594e-03,7.481660524587059602e-02
2.180062385271506684e-02,9.640508812228703456e-03,3.695127208186642278e-03,1.380293737683259067e-02,2.485518958753616357e-03,8.242106903912247914e-03,1.284191897519130522e-02,3.518849011815732746e-04,1.230637546481239651e-02,6.631308478415791352e-02
2.268840898873170607e-03,1.719204367894464416e-02,3.625347388681247895e-02,2.515875842384767726e-04,4.522151053107169999e-03,1.960278379078170957e-03,5.446573579426110950e-02,1.404869269175498120e-02,1.427026012967037329e-02,5.458019053656478631e-02
1.171279601715572403e-02,2.548728858450300880e-02,5.145185936117209480e-02,8.617627089506908061e-03,9.545845251726293307e-03,2.710708489621490962e-03,6.857109837823793796e-02,2.349288827909549321e-02,1.326378716885851655e-02,5.473924082782256201e-02
1.595803352465803571e-02,3.292197143228699913e-02,4.378498627762977824e-02,1.296704850030487924e-02,9.062302082649600216e-03,4.544851916640097952e-03,4.991487644132487633e-02,1.783345721916473545e-02,8.286938887027811215e-03,6.245957975470661783e-02
1.573219318495509139e-02,4.147912292447545474e-02,2.536616089843023170e-02,1.702705478330323111e-02,5.639993037006922963e-03,3.928970097056463939e-03,1.810816781835605446e-02,9.233501358852248125e-03,3.216066527271978096e-04,6.026843794285768885e-02
1.302393089891563591e-02,4.802597008440188248e-02,1.127410358735360385e-02,1.942011144935929315e-02,3.702659485335616819e-03,2.213041024518544973e-03,5.468413293520768548e-03,1.010652404976163793e-02,8.059282347431756185e-03,3.961918593597368865e-02
5.533489506118565403e-03,4.480547856244362914e-02,8.843851621913072919e-03,1.747506079963012313e-02,4.083664414722482788e-03,1.304905757301726837e-03,1.241996230058960843e-02,1.335180453063034359e-02,9.401367783428572766e-03,6.933427504293640520e-03
5.016756706413980950e-03,2.945676494683710164e-02,1.409463598642164521e-02,1.223421990014939356e-02,4.667366714290631033e-03,2.813518504690838262e-03,7.172846070057547520e-03,7.921238141341336789e-03,4.229083728565058778e-03,2.661936731635304934e-02
1.269696797476342273e-02,8.946945594839592064e-03,1.703966599970865511e-02,6.416210593110463836e-03,3.891985296169940284e-03,6.147067911463828874e-03,2.974639043135428665e-03,1.230115327204065433e-03,1.870636336810073495e-03,4.851334642493931176e-02
1.467207702792843599e-02,5.445341583561923854e-03,1.347156593411554318e-02,1.060017750504539929e-03,1.745153462415090749e-03,7.845319647324672935e-03,1.557307138930243660e-02,3.796108326168746386e-03,4.378939406571707819e-03,4.697986573134160099e-02
1.312547328461198363e-02,6.171402509009771276e-03,7.981277435610252893e-03,4.010350263427735554e-03,1.083287068885260829e-03,5.014600065248606998e-03,2.803819947701928841e-02,3.286929747537415281e-03,3.952370670769129665e-03,2.708830442520968051e-02
1.022695695034916454e-02,3.563456801928396520e-03,4.356101177213632901e-03,9.046362361384225129e-03,3.966287973929961616e-03,7.014394531409738447e-04,3.165972569682499321e-02,7.738334488655952866e-03,2.874113101868634376e-03,1.459850260467750876e-02
4.998912205728663592e-03,1.228145734039520764e-02,2.123478879809278207e-04,1.465582774487721521e-02,6.686443238148880204e-03,4.734906468837657596e-03,2.130700189383579954e-02,8.093086987670085677e-03,1.019457298226602790e-03,2.584937093983640313e-02
4.591948293098402530e-03,1.377850010025051530e-02,9.573975353486783441e-03,2.087185467530622979e-02,8.534519569762005764e-03,4.671195191694878235e-03,7.185311581004407561e-03,1.281235513245823632e-02,2.519082009757122806e-03,4.524901999069935038e-02
1.802343516970723522e-02,1.306837664338117086e-02,2.145050743604098170e-02,2.497020119627156934e-02,7.273642859621062134e-03,1.909139685168530437e-03,5.414181303396159439e-03,5.036800032501233260e-02,6.624670148768347505e-03,4.880273934446176243e-02
3.014039390840532809e-02,1.489595042897742111e-02,2.686819311817696676e-02,2.275831773344338949e-02,1.188961435227210706e-03,6.084210647378354752e-04,1.735726253479421416e-02,7.728214392147453315e-02,9.386984008080767952e-03,3.685276970685167491e-02
3.385230757387791556e-02,1.566730552884470010e-02,1.787169154414763872e-02,1.396119537007946103e-02,7.334963985761548677e-03,8.929559081033061662e-04,2.802944609986748534e-02,7.436990520866389176e-02,1.066724466392603501e-02,2.738799166263994334e-02
2.808825486919338740e-02,1.266400014318853906e-02,2.086547894469946689e-03,4.146914333497667658e-03,1.284382868990141188e-02,5.849036215482677223e-04,2.875909084779589703e-02,4.766013886850122006e-02,1.194347888944059626e-02,2.763216491044871020e-02
2.045979331384690028e-02,1.127903595789597410e-02,1.947462140750402110e-02,9.844286093322422975e-04,1.267624440910643940e-02,1.367841033112018401e-03,3.183948286908788033e-02,1.611169845514208790e-02,1.420362885266728339e-02,2.763278411720884731e-02
1.704972587247740451e-02,1.611515306976994341e-02,2.558811942270856205e-02,1.659360704696066606e-03,9.676008588762255794e-03,1.315745632716869133e-04,5.094363761712796673e-02,6.135137848512087558e-03,1.651706543931247967e-02,1.699890462661067525e-02
1.375907462415397811e-02,2.269502381837018579e-02,2.392058462248103368e-02,2.563567291354379527e-03,7.645986244954871940e-03,2.918846282808000223e-03,7.436163441373433436e-02,1.655723383787473940e-02,1.681888431039690532e-02,3.332157764025897757e-03
4.525162631537299127e-03,2.402887066243989192e-02,2.019710223187560702e-02,6.086613510483277444e-03,6.426546363351327319e-03,4.531735059249767696e-03,7.558635539190644570e-02,1.957690091939779872e-02,1.424200740461241746e-02,2.510597114706911159e-02
7.086593745281572973e-03,1.962336183734817927e-02,1.431604870408230597e-02,8.456332093446523521e-03,3.645108893519542412e-03,2.403741793478751491e-03,4.722292190687613772e-02,1.682649891160923825e-02,9.699018595599656622e-03,4.223121952998550727e-02
1.310610656309047981e-02,1.242118631381484116e-02,5.734158253183524109e-03,3.939639580245077669e-03,9.168244773444691846e-04,4.144192020656099762e-03,7.922233185981342185e-03,6.036571770846182149e-03,3.941072935355366402e-03,5.544546962104576759e-02
1.310385670859923538e-02,3.519440579166304523e-04,2.643028963202645638e-03,7.085574716558857254e-03,5.474690943953045008e-03,1.104478354972462766e-02,2.104751784951965771e-02,1.011049331854721456e-02,2.500336163148815342e-03,6.846148746205930891e-02
1.213940735716765792e-02,2.207712722716923676e-02,9.272848839845899624e-03,1.682786687448219187e-02,9.000291892229264970e-03,1.168513891041584284e-02,3.282012769618496834e-02,2.193096411836025633e-02,7.083095295324139465e-03,7.883468364162278530e-02
1.198522267876009698e-02,5.180032360696048416e-02,1.433134802289330080e-02,1.781009289887655611e-02,1.140320773755674338e-02,4.448665373657192945e-03,3.297395219844655861e-02,2.104854839180327411e-02,6.893739810929427198e-03,7.597293230227998573e-02
1.204266418769206308e-02,7.262543409211348611e-02,1.496510392861818278e-02,9.532416334616327855e-03,1.238202448067687346e-02,4.995635991750376273e-03,3.194284871299438860e-02,6.368628818530334967e-03,3.509950158469308818e-03,5.404136343152331906e-02
1.294675994132216124e-02,6.937522334563818449e-02,8.729709782542335178e-03,2.763231057712014962e-03,1.176999645127161515e-02,9.975670838508064048e-03,3.801299954899663852e-02,1.484221160395587241e-02,2.323517226774439275e-03,2.429205810395011073e-02
1.385257728953140886e-02,4.449041958869250774e-02,5.472027069545336471e-04,1.356245830624065209e-02,9.982094546043223174e-03,8.486054882673108035e-03,5.099799861638317638e-02,2.913710703989237302e-02,5.882544373105979239e-03,5.018108615255660945e-03
1.158541962438881107e-02,1.497088260407834423e-02,7.547572637075418249e-03,2.074985965473868238e-02,7.541158895245936473e-03,3.119327670919090547e-03,6.156841536293561346e-02,2.685152436821822836e-02,1.077363835183829666e-02,4.601922281749146193e-05
4.151848522086753687e-03,4.089088949737147705e-03,1.074158522951947428e-02,2.431176091286887941e-02,5.049311877798904648e-03,2.204432502768379539e-03,5.925499672689887171e-02,1.209694882964986069e-02,1.191431561538579438e-02,1.799095191083008912e-03
8.077236779322328683e-03,7.921296438529871684e-03,8.533651794610627034e-03,2.277966766407937826e-02,3.440529949273935396e-03,6.201979372298313531e-03,4.272271960597985585e-02,2.923381363405129843e-03,8.161268598720707729e-03,5.939407610076774535e-03
2.213638265796526866e-02,7.921156126177329379e-04,4.984056806437106059e-04,1.467606324834440021e-02,3.566361863858529078e-03,1.187932601088331243e-02,2.207134249617074065e-02,1.276532801337539220e-02,2.798240315735580925e-03,7.826834509499645126e-03
3.223459774578962128e-02,1.661201273685359789e-02,1.058396415725476429e-02,3.579359043367442289e-03,5.679689652363602292e-03,2.294964133490465935e-02,1.107345506810154465e-02,2.131234035413828373e-02,1.006006007812537337e-03,5.542919737063299601e-03
3.407483655162612396e-02,3.546187535254811951e-02,1.290684279365842541e-02,3.856602556305937721e-03,8.864047394205274225e-03,3.704732550180066947e-02,1.610029321651839165e-02,3.163650641031084954e-02,3.784824954042855134e-03,3.892896121679390812e-03
2.903665766243547150e-02,5.687216656583414520e-02,8.522800749349468408e-03,5.960850114359279167e-03,1.048476643237607198e-02,4.384336696088147328e-02,2.885510583015562375e-02,4.214549956247682500e-02,7.419368629469314316e-03,7.447142341806463686e-03
2.044236392803721117e-02,7.904562426847963619e-02,7.348846714233088495e-03,6.674334305254110700e-03,7.959786058519865981e-03,3.533064532073880437e-02,3.116643794224506145e-02,5.169594799076412950e-02,1.085296310031100449e-02,1.775520066522622703e-02
8.237058301809915828e-03,9.276304413203792509e-02,1.457874593522758000e-02,8.194842769433708513e-03,2.555051247887510021e-03,1.824367998531518237e-02,1.393564928700365309e-02,5.897605693590571296e-02,1.190904322225674189e-02,3.165336134719257122e-02
7.812016969493153044e-03,8.850280562579186661e-02,2.652707706319678421e-02,8.993436770970439018e-03,7.904879993559802212e-04,7.024324413839128957e-03,1.018879830419946141e-02,5.873655130778008410e-02,1.221341619465660805e-02,3.927304556582754402e-02
2.177383907194187229e-02,7.005643020489130124e-02,3.822285093178223042e-02,8.530462852521845593e-03,3.885762534971802388e-04,3.535388191205045272e-03,2.032174976592656529e-02,4.889790739845347595e-02,1.446232701396915968e-02,3.162621037605435614e-02
2.524434825902954760e-02,5.184100072653905628e-02,4.739884925724649478e-02,7.565670863416023607e-03,2.557011482969088426e-03,3.890619455634765703e-03,1.023467462812022860e-02,3.737360081459151911e-02,1.513418728496209939e-02,1.027698193349267305e-02
1.825843343485988868e-02,4.295108697424161043e-02,5.258164813437991164e-02,3.921179586654659210e-03,1.423584176710034500e-03,1.966487847037939538e-02,9.431728910334943178e-03,3.075983393520022660e-02,7.487844446309193172e-03,1.632482862921242131e-02
9.533285573347944492e-03,4.138196821379411944e-02,5.445893501986344420e-02,6.050957180656006684e-03,2.108359338229038715e-03,3.214963705770761820e-02,2.785669019987710091e-02,2.265378099487964925e-02,6.829394078283722302e-03,4.182651622336708980e-02
3.406386296934627456e-03,3.882510631225340181e-02,5.788112510855612097e-02,2.075346775345608685e-02,4.349893689420082296e-03,2.936769949417944101e-02,4.369080868314221405e-02,6.381392153148826574e-03,1.695176915028630271e-02,6.108403878333325265e-02
5.409360042306587263e-03,2.400092109248532987e-02,6.421753584824702044e-02,3.249200503961342107e-02,4.341665994725765060e-03,1.483390910761623466e-02,5.781726101214958863e-02,8.135515375652898826e-03,1.695522108872435374e-02,6.674700095203509043e-02
1.927255194553753950e-02,9.340551757534122992e-03,6.210434757407715806e-02,3.433100644579667460e-02,3.732027951733078372e-03,2.958450966969617280e-03,6.691203892190311642e-02,7.708094501849436543e-03,1.443218867415274782e-02,5.574835637659227017e-02
2.840525718870676869e-02,5.027686120437092204e-02,3.752540313667336591e-02,2.540015202193263155e-02,3.439564758769008117e-03,1.777036877570439127e-03,7.110897887176412246e-02,7.502477565881314481e-04,1.959194224053343800e-02,3.403047957443858934e-02
2.280209410800131120e-02,7.635908858066327298e-02,3.839714554343578133e-03,1.085734007940989364e-02,3.034246090103466346e-03,4.527591206221721204e-03,7.938362493484002469e-02,7.726702280035979004e-03,2.998617190815080352e-02,6.395555969365970990e-03
6.660722303482326939e-03,7.721852879795006175e-02,3.753255419160442946e-02,9.576740245579220406e-04,2.105220302023154411e-03,5.797928961711538683e-04,9.576305207605062542e-02,2.933205163293760298e-02,3.329130465130436534e-02,2.989390293522549424e-02
9.459943255228621395e-03,6.389037570939014310e-02,4.808200932005609468e-02,4.347788992153461818e-03,8.484556532563421617e-04,1.489032234703171684e-02,1.063237072301152497e-01,4.775709563262234975e-02,2.443714325290916034e-02,7.140028799298780982e-02
2.397978917193885340e-02,5.275220712395172623e-02,4.280278858923160928e-02,1.359896501947445175e-03,4.538834463041256867e-04,2.680372359167095681e-02,9.333011237592669929e-02,5.879390048860708151e-02,1.275738334723037874e-02,9.998012894505109438e-02
3.849420759077649967e-02,5.158249696949620405e-02,3.583580442206757422e-02,2.342701383149862517e-03,2.087520508795635225e-03,2.496286499525692329e-02,5.788900203910725406e-02,7.597925084339404722e-02,1.033113432797262352e-02,1.016699229627541362e-01
4.419865095871881866e-02,6.255518408112130391e-02,3.273274410326426631e-02,6.048737656907062811e-03,3.772641992981428608e-03,1.118362963559738077e-02,1.698976675643137924e-02,9.923093476291587611e-02,1.876229090962179546e-02,8.651299099815500104e-02
3.171687881229764971e-02,8.418101845515545134e-02,3.297866651477252692e-02,1.233737865286787735e-02,2.942526932138430241e-03,2.116641754647169242e-03,1.465062858196281709e-02,1.062289122830861743e-01,3.004667913300876000e-02,7.720688646715595516e-02
9.907187287528051306e-03,1.063841065556238863e-01,3.651837554983363571e-02,1.852697600323962440e-02,2.694238940335758753e-03,5.879333464318042823e-03,2.916317089881100000e-02,8.489983146398458191e-02,3.630008374577465419e-02,8.079164600136888585e-02
2.366052207686811758e-03,1.152136827889116422e-01,4.389478312832588436e-02,1.793335130218159587e-02,1.079143006116310352e-02,2.278653916301333696e-03,2.227691099123308566e-02,5.341444826489914061e-02,3.528836278225782469e-02,8.196890840360931962e-02
4.200772575199400883e-04,1.039762648046145960e-01,5.184042861289737264e-02,8.492542654302562277e-03,1.670011149410644685e-02,1.046426698376858554e-03,3.180432941676764741e-03,3.577386172115976787e-02,2.853511210181580715e-02,6.530651365520501184e-02
5.041919808884414919e-03,7.393568424260199556e-02,5.065821253626327098e-02,6.328116840022580958e-03,1.950874742144413643e-02,2.400553247760149242e-04,3.605183351128066899e-02,3.306381883427399887e-02,1.787042640774000324e-02,3.307687847829637179e-02
8.226633290048867425e-03,3.162967582085968871e-02,3.284590765881491292e-02,2.087781923187928199e-02,2.129844837891251355e-02,2.821422999774246109e-03,6.477788993240647664e-02,3.256715116700065193e-02,5.066060976021354717e-03,2.335081525115940450e-03
1.491574747036122743e-02,7.877179715590137271e-03,7.612573620934579878e-03,2.580996910695204996e-02,2.190787954135783172e-02,4.245860385495824237e-03,8.661872630112177340e-02,3.322421105115742207e-02,6.755268889309212245e-03,3.124742398778740382e-02
2.680285031326925388e-02,2.747112817828788536e-02,3.083984714585859786e-03,1.212869436033995468e-02,1.901946075187280899e-02,2.071422386001576035e-03,1.098098975944888506e-01,4.209422915791581621e-02,1.361760177461496940e-02,4.883767530833330039e-02
3.169960813617501288e-02,2.696292750952841710e-02,9.469898920813353549e-03,1.531142587183209440e-02,1.270226512495906471e-02,9.005440629674635756e-04,1.402817402772055244e-01,5.022937716657881191e-02,1.375541759015960937e-02,5.882599143738609371e-02
1.732729945032805696e-02,2.458317665304703831e-02,2.804380934830638661e-02,3.731124535750767607e-02,6.570317343304359764e-03,1.841661395191833764e-03,1.619822166562898680e-01,3.595455867586770660e-02,9.373154724238830227e-03,7.428350471111314079e-02
1.119934811076537043e-02,3.277682784462995769e-02,3.233056500371978698e-02,4.002962236456096556e-02,3.831391640080704115e-03,1.357971610486743974e-02,1.472803060610556047e-01,4.452051629498078936e-03,3.649126292550258690e-03,9.697776294097867900e-02
3.512652818444617075e-02,4.539795407622267132e-02,2.435031157484093128e-02,2.721036224307792420e-02,3.939237986120809089e-03,2.936120955517708062e-02,9.554675410568762295e-02,4.934091055511509449e-02,2.798762254789859561e-03,1.020841436608827535e-01
4.074985002155514374e-02,5.381280514021939687e-02,1.861102742468480342e-02,1.035410277073913442e-02,4.914094744772332275e-03,4.110397475590361893e-02,3.524602694436210909e-02,7.710907394731668363e-02,9.642023525822107644e-03,6.858704722130627707e-02
3.029920623190944864e-02,5.836471634214760590e-02,1.850389297626107987e-02,3.764530538725666380e-03,7.198442523293074012e-03,4.616122549125607072e-02,2.083127811477368529e-02,8.177257453014311062e-02,1.344099985360895644e-02,1.745473186742065724e-02
1.678648591041896274e-02,5.711631353986707654e-02,1.799540859566251330e-02,1.399962905929985450e-02,1.152647408666465298e-02,4.748020039839716960e-02,8.696019686292905115e-02,6.585906529081193839e-02,1.096862122866123015e-02,1.164314598169928147e-02
1.088843424078041189e-02,4.119746435887497449e-02,1.604053309034195879e-02,2.135951639778618447e-02,1.501699472762774677e-02,4.735425901455365266e-02,1.640972360974254640e-01,3.645332250480255720e-02,3.803602282914956331e-03,1.560861288640513593e-02
1.191744059053993950e-02,1.069000564747362228e-02,1.407831374861399747e-02,2.678274739000563454e-02,1.433489067655498335e-02,4.593135277459917815e-02,2.269951385071447836e-01,7.336819719534979842e-03,4.188668744736973037e-03,2.608240431104484267e-02
1.081537250418670472e-02,1.690507449770237494e-02,7.304895652394418487e-03,2.894202460437917193e-02,1.069235230546680855e-02,4.501988104754932329e-02,2.583447407069184298e-01,9.660598148397293861e-03,1.173243461470386238e-02,5.587081153751039669e-02
1.860262447132305687e-03,2.212164220992048416e-02,9.890131333785155687e-03,2.494317070565994776e-02,7.328005746917920157e-03,4.712297030523648900e-02,2.649858954562132607e-01,1.614160963303235691e-02,1.969983185258983652e-02,8.060193122309511349e-02
1.012444656326325944e-02,3.057571431251669605e-03,3.383795070390015203e-02,1.480304157125156977e-02,4.568140718024618976e-03,4.941167399884045797e-02,2.572736879098375118e-01,2.061833440474624898e-02,2.761114764415506170e-02,7.701426442368147773e-02
1.570632194943635471e-02,2.437869369820888643e-02,5.264878773045799515e-02,2.997303873655525301e-03,7.897987621809639345e-04,4.455708409831017625e-02,2.341720799989982227e-01,2.061224432195022521e-02,3.272011461498047780e-02,5.479779362205976917e-02
1.252591657073413162e-02,4.404672676175534068e-02,5.559694477040062754e-02,4.344309379962285785e-03,4.414659407182799228e-03,2.981881365420631369e-02,1.928010937225451971e-01,1.768307240821859628e-03,3.198625350454648020e-02,4.276715263439753029e-02
6.909896418987832717e-03,5.260058748043047738e-02,4.058613828252950750e-02,1.521822450895594231e-03,1.043270891258355447e-02,1.099875368051819909e-02,1.412534727652010880e-01,3.964282755481950138e-02,2.429390972728811757e-02,5.580140584510717705e-02
3.104899034102585279e-03,5.346490363228087461e-02,1.552953535042830846e-02,1.290500465047381487e-02,1.648281938324263826e-02,3.474114909323321437e-03,9.597796752204118542e-02,8.223007999065584661e-02,1.205160235844615103e-02,8.174121675089400518e-02
2.707100080064266459e-03,4.565018318553117072e-02,5.920879870979839019e-03,2.993994204425398653e-02,2.072354001191947445e-02,8.891029630065602068e-03,6.968623162002376970e-02,9.847988296739566827e-02,1.021393000401318949e-03,9.623253688804872530e-02
1.363806424114226076e-02,2.660038804991305197e-02,1.318340100600386491e-02,3.526467611348337028e-02,2.114128101702163198e-02,6.299949298788083685e-03,6.371202261604447248e-02,8.393977419508975857e-02,3.842191305549831105e-03,8.630347544958898165e-02
2.471894553999257407e-02,1.975899104896621048e-03,6.801168193641556579e-03,2.663052749668943717e-02,1.878711011127619929e-02,2.649988551649264286e-03,6.551820598429025644e-02,5.680478766304693228e-02,2.854406211086857933e-03,5.986747375615426164e-02
3.105554117644323403e-02,1.603998877036177592e-02,3.507103158270939887e-03,1.825066428056119211e-02,1.728716034949274311e-02,6.537046382944833312e-03,5.299712251371312827e-02,3.390314561832408896e-02,7.943961204560858087e-04,3.447777102641401414e-02
3.535651548228296859e-02,1.970629190331357750e-02,1.012561348705619604e-02,2.274630541497799086e-02,1.773601175732629140e-02,1.951223531257805302e-02,1.405216462417679078e-02,2.051818068063502795e-02,6.918467114705762443e-03,1.964390019634602164e-02
3.944262969893699844e-02,1.042085535074230296e-02,1.370738830495943014e-02,3.713620127318236624e-02,1.785288243699528071e-02,3.580609894833033935e-02,3.776988840984323026e-02,1.773037411211461634e-02,1.723530941444730361e-02,1.131462754864364512e-02
3.796710931042568404e-02,4.910273333859904721e-03,1.713987057221159904e-02,5.121822497902342453e-02,1.756151664073778845e-02,5.411169664938567103e-02,8.111120792217105246e-02,2.251992430440230564e-02,2.877257002332300750e-02,5.409940262399003802e-04
2.929285445769361229e-02,1.642585375312235682e-02,1.946744049317299455e-02,6.162963221562652028e-02,1.975097323077597625e-02,7.902350721896612973e-02,1.106231012119449353e-01,2.478470251940499691e-02,3.386702260497488626e-02,1.636494762179138696e-02
2.227454197158237892e-02,1.292801513194182482e-02,2.005713806483304731e-02,7.189431655874936600e-02,2.340497322345028164e-02,1.034231579653504540e-01,1.239688251894811022e-01,1.936765858517538672e-02,2.838983581214697682e-02,3.627446080556257640e-02
2.268249442451908751e-02,9.467348477637763104e-03,2.276039897026770065e-02,8.328966248239368098e-02,2.313337021046628014e-02,1.060758758711287386e-01,1.077775512677508901e-01,1.363703380647909164e-02,1.627704988446571771e-02,5.462467313202593738e-02
2.092024392435977778e-02,3.775475970441732193e-02,2.924068209478427466e-02,9.080068918812422840e-02,1.827789250367919949e-02,8.111377169179621871e-02,6.625122279074907583e-02,1.057651215146682665e-02,4.732422111767614278e-03,6.877078516376400330e-02
3.800263233932405470e-03,4.965912515521012094e-02,3.348332462592405745e-02,8.803676979545534131e-02,1.450591417964491522e-02,5.244899560542548578e-02,3.850459115629924212e-02,1.435451578711453239e-03,1.965132397328292306e-03,7.656774762114622324e-02
2.449869713790047213e-02,3.693944644060884186e-02,3.019067547495780240e-02,7.543982400654977716e-02,1.388718844130295768e-02,4.232289943836967799e-02,5.533069670434771770e-02,2.749503866138749628e-02,2.901373808806443754e-03,7.761522137635366858e-02
4.447956727361610657e-02,1.580796096740789275e-02,2.465927999241360538e-02,6.241318270011306929e-02,1.217322342433108801e-02,4.380561508939466442e-02,9.895398248953236886e-02,5.055712938580017579e-02,2.840797074158562911e-03,7.736458296579376559e-02
4.627123865199021802e-02,8.269446270860885545e-03,2.941796906331455366e-02,5.845170765457745332e-02,8.003835470684939751e-03,4.112926245621879862e-02,1.291747435444693670e-01,5.266615992613155744e-02,1.688676399848583129e-02,8.288347128052223067e-02
4.085162663997541493e-02,1.810782799863850170e-02,5.141891900576895519e-02,6.256329669556123796e-02,5.551797110778857250e-03,3.761125345336720910e-02,1.326942801352154477e-01,3.976196129421305514e-02,3.612402960932080409e-02,9.264331242547843570e-02
4.143112306111781939e-02,3.163272859898747652e-02,7.944897004818034236e-02,6.424519079296052426e-02,5.696270720710676708e-03,4.304684324155085007e-02,1.276228378398404084e-01,3.211931027921956228e-02,4.918345319262023424e-02,9.800682162398288710e-02
4.630705412945417682e-02,3.584904814603984829e-02,8.649805767646329135e-02,5.341664595295912699e-02,3.450007142124791263e-03,4.866711689085675974e-02,1.264162235275095858e-01,3.800522897431771185e-02,4.589975197013670266e-02,9.590594700412265194e-02
4.807976226046271201e-02,2.730027662156824658e-02,5.705758431523111351e-02,2.607592400645249164e-02,2.738959412590084505e-03,3.762820680531436812e-02,1.127244832255951679e-01,4.580544652193990068e-02,2.976422956730289879e-02,9.157739639408932208e-02
4.851633894513453227e-02,8.913439718089105970e-03,8.629153233938582565e-03,1.747026016792850231e-02,6.887111174377562317e-03,1.295621359248846048e-02,6.455187002333273583e-02,3.828317401079869148e-02,1.347665282313563820e-02,8.803225399044924127e-02
5.358412990048004587e-02,1.188467964866812832e-02,2.969676749176097461e-02,7.266372899918119299e-02,4.319037075869975630e-03,5.792297675124844988e-03,1.061083199912222358e-02,1.084516866353862387e-02,4.551377495201200038e-03,8.265554762367721686e-02
5.931123831595759566e-02,2.569037017412147822e-02,4.996447793764301204e-02,1.262218140730708704e-01,1.947488185613176128e-03,1.068740309739939220e-02,8.117280893716505297e-02,2.397689118167769737e-02,2.692032128536529529e-03,7.560946732175120866e-02
5.265262384771820375e-02,3.027732247280876671e-02,5.871228635863086354e-02,1.591821134160071316e-01,6.925209967677349587e-03,1.239130848051591891e-02,1.264841565274562596e-01,5.116903488516746923e-02,6.142077924914854034e-03,7.015901276916311491e-02
2.696982202037142423e-02,3.491548097127541994e-02,5.581217692550086151e-02,1.618733665493322094e-01,9.136666505997467769e-03,2.010754491770024022e-02,1.481091818366037371e-01,6.869699809795605516e-02,1.247273162154110930e-02,6.027513850238473692e-02
9.538478009146172942e-03,4.885048738942227020e-02,4.219896745968912399e-02,1.414085167593042425e-01,7.392730235825451315e-03,3.009529598624513178e-02,1.492823984088098577e-01,8.227506792591542106e-02,1.783415623236087044e-02,3.027398106476306833e-02
4.202477414610504558e-02,6.577850010152658244e-02,3.097842036572515112e-02,1.098638456491863313e-01,2.899515634764923428e-04,3.513101987093056322e-02,1.227728006444994274e-01,9.018909224200710728e-02,2.061839440166707629e-02,2.063660720801054060e-02
5.982697987452400418e-02,6.610045019943580624e-02,2.992973713100962468e-02,7.390855159629951265e-02,1.055585733918559289e-02,3.332063707367662747e-02,6.532084559475140328e-02,8.350658781110913143e-02,2.114655744852299984e-02,6.122119120200442827e-02
5.824690188311776318e-02,4.030668475061757045e-02,2.686698646447433295e-02,4.112216034130156822e-02,1.449912691628011362e-02,2.577174233289866029e-02,5.678306444540236371e-03,5.743860111239702110e-02,1.732609661822824554e-02,5.686453260685539468e-02
3.835373880160770910e-02,6.662317093671580107e-03,7.852868432986579578e-03,2.344938533294883484e-02,8.043299382361196806e-03,1.428720857710973763e-02,5.997387758283469900e-02,1.438305802285354783e-02,7.348443129169952154e-03,1.607146109553136970e-02
1.112165303302782744e-02,5.860906524580436310e-03,2.165726068537352986e-02,2.448842215534813294e-02,2.363913673730819870e-03,3.209323029369924064e-03,8.062088356930664779e-02,3.637297747930250125e-02,4.613991996506951188e-03,1.704563201242469128e-02
4.722324258222740032e-03,6.776890102160653892e-03,4.540536607839894961e-02,3.200592961697440453e-02,7.341221557519376356e-03,2.163419692640317256e-03,7.460730895207028091e-02,7.416516306210595155e-02,1.158558380633676818e-02,2.179835264184865062e-02
1.477218315989942956e-03,1.894954500440182085e-02,5.557613729097938410e-02,3.144187840209885371e-02,3.901235132193904553e-03,6.053146947835002893e-04,5.441837235243100757e-02,7.528553839125039226e-02,1.151219598555014434e-02,2.045084610605654024e-02
1.995812282103652524e-02,1.146099653065729175e-02,5.195483836725466043e-02,2.162999576754810055e-02,4.503135276740458798e-03,5.141774018878520272e-03,2.333523540760216314e-02,3.711163226903217011e-02,9.312508632192538494e-03,2.753540607304643534e-02
3.103959501124349887e-02,1.368197906109873147e-03,3.190533628066612171e-02,1.169091250078290942e-02,1.323003299676420511e-02,1.451950023235813909e-02,1.182586180681542178e-02,1.531928431378252325e-02,1.231417758748040887e-02,1.865104178618411795e-02
2.714009626221297600e-02,5.561266388911494628e-03,2.599459706424258210e-03,7.429106499185841525e-03,1.925917328846715390e-02,3.042090624579080541e-02,3.074408010977104297e-02,5.187999867202409965e-02,2.263614235022158236e-02,2.555889924740223709e-02
1.830786506658181600e-02,2.454624775231532829e-02,3.558570358122799954e-02,7.787192401149526863e-03,2.193645074034009448e-02,5.096539202804395430e-02,2.000386561356070139e-02,5.743174643236929194e-02,3.347436108451544434e-02,7.764510313319279711e-02
1.595251877442850630e-02,1.724140883415415867e-02,5.383177188940830443e-02,1.195265873444247701e-02,2.436767147907418704e-02,6.598515323834830415e-02,5.818735280959790382e-03,3.247745544523826522e-02,3.612158822085451831e-02,9.569132578473936446e-02
1.843315200342979937e-02,3.089010610712796326e-02,6.534442198108859901e-02,2.086182970869441752e-02,3.148079980741853162e-02,6.803265511934131204e-02,1.817037920174901719e-02,1.034355131192363046e-02,3.050208650504369207e-02,7.480874815222929297e-02
1.759930831125954692e-02,8.223920102877510518e-02,8.162828039021963189e-02,3.031637720563739105e-02,4.266340675183423470e-02,6.195792982451096831e-02,3.719700842344332136e-03,4.992683305073215144e-02,2.365484312860694632e-02,4.212486944828042201e-02
1.338621313653087785e-02,9.267663021643642030e-02,9.263273721098008728e-02,3.112064901545810724e-02,4.951083502747148646e-02,5.756056596595023056e-02,2.774536346536261161e-02,6.991171226173500952e-02,1.782754719028381563e-02,1.941224096568273938e-02
1.254027264646088990e-02,6.597549695639248757e-02,8.033523895539473880e-02,2.050690275361618728e-02,4.543253471555289136e-02,5.621315230070136892e-02,5.120120029619747160e-02,7.083077807709793616e-02,8.454349266758637640e-03,1.033472849761441457e-02
1.588145803276044127e-02,4.024887007008631779e-02,4.721018062834989037e-02,7.896002670051808364e-03,3.367710613079695492e-02,4.906883634615944595e-02,3.718227675032316493e-02,6.454224432377399234e-02,2.520649331247951618e-03,8.422022028860902745e-03
1.693675352950284319e-02,3.603408492619854936e-02,1.288745075482111355e-02,4.639866601201382383e-03,2.205777612746021715e-02,2.894575590886303007e-02,1.871022516572868818e-02,6.052474711113051825e-02,1.756996920924727788e-03,2.567710199228137851e-03
1.233456256873182930e-02,4.186792482872046112e-02,1.031059215652356184e-02,1.097011791543045685e-02,1.443174810825784832e-02,3.605447875465758387e-03,6.880389153737344332e-02,6.161708685981129308e-02,1.783728848708049375e-02,1.208535905912090994e-02
5.028039140370113742e-03,4.137505768476845008e-02,2.579403189615963807e-02,1.715710719839181123e-02,1.011356059141904108e-02,7.748231782359700850e-03,5.315653234414841055e-02,6.607563603333145574e-02,4.223817516000016870e-02,2.219320967609194478e-02
2.055960701765162379e-03,3.206039234134687443e-02,4.323750277635790562e-02,1.703846937143280865e-02,6.938057638552592825e-03,3.881373737978791386e-03,2.453886986046360449e-02,6.828645912417688479e-02,5.038014747348927569e-02,1.010338704979342993e-02
8.396386235137536652e-03,2.084914616777899452e-02,6.866145506960708023e-02,1.585481652637173861e-02,2.955656820739477331e-03,2.599068135928301465e-02,1.034661477001397739e-01,6.301660767362554649e-02,4.008910494707615402e-02,2.024715937512898065e-02
1.287186243129379709e-02,1.663687130410727855e-02,9.531839260766741817e-02,2.073028617755480474e-02,1.875783406241525019e-03,4.112388586314533884e-02,1.472539951200379782e-01,5.204997530663055955e-02,3.027487024977172647e-02,4.826833069393293013e-02
1.444565560400108348e-02,2.461473586892037879e-02,1.003331878048921294e-01,2.752059688326313411e-02,5.563118828780216907e-03,4.398707875792211980e-02,1.669176520594564672e-01,4.223412507300880470e-02,3.669984066960390451e-02,6.287338084052411513e-02
1.517354114870512333e-02,3.859211161162885012e-02,6.584744064667094610e-02,2.583500700784274046e-02,7.407448552109110670e-03,3.534864139879526773e-02,1.691933838027562254e-01,3.806339068127747444e-02,5.371354486349322332e-02,6.500562742597083832e-02
1.783331559868235952e-02,4.255999050633651332e-02,8.752353833929384791e-03,1.529846930720121963e-02,9.802473963962004752e-03,1.404149047847487973e-02,1.404175256907832514e-01,4.057591383235274740e-02,6.402518907343750232e-02,5.232508359571756695e-02
2.147847522701738440e-02,2.609863163617082496e-02,3.008077042028934125e-02,6.193163835269589398e-03,1.451505743349430430e-02,1.557528949203764237e-02,8.288860899629053869e-02,4.985675026557373490e-02,5.960526779246023282e-02,2.485972710356647297e-02
2.367340729408749789e-02,3.500525044514752552e-03,3.263284727741339736e-02,3.197070803538386644e-03,1.879004330942241757e-02,4.022935088227271722e-02,2.404842802068848928e-02,6.420610586091338168e-02,4.599138384040954430e-02,1.459340471302226138e-03
2.554557157696045813e-02,2.786919082735120345e-02,2.030769301414087763e-02,6.621323601866788318e-04,1.809927612355024737e-02,4.780796365518392987e-02,1.166297242167644438e-02,7.844370382968518518e-02,3.126561328268123024e-02,6.546879736687704135e-03
2.903583215305034076e-02,3.736532515219573997e-02,1.924275462526080921e-02,9.626380000739297865e-03,1.243671159903160864e-02,3.472265846852989196e-02,1.706918665355383613e-02,8.374005442700949153e-02,1.914026275407056110e-02,3.811714243965912130e-02
3.136900080818832287e-02,4.174594953571505312e-02,2.989007509325106865e-02,1.445615959649108363e-02,6.980795437496545644e-03,6.489636209941986554e-03,1.076548683309849763e-03,7.235511442656804293e-02,1.052298296379845961e-02,6.705296197006206660e-02
2.994926705098364950e-02,5.409134311458056732e-02,3.857413188441907032e-02,4.200981402071334893e-03,6.244189745691728667e-03,2.331117353104301959e-02,2.172778788796279892e-02,4.933798962975589897e-02,5.318373487397228851e-03,7.129147423988098364e-02
2.911188269515143853e-02,6.434172991577939704e-02,4.202177644545145724e-02,1.730488136213477815e-02,1.041118815748375177e-02,3.974066939739766963e-02,1.892227791908337661e-02,3.271481299024617262e-02,2.384316702046370730e-03,5.465906351270956309e-02
3.173289674446982955e-02,4.524167727751628176e-02,4.777102665592641156e-02,3.525761912021019989e-02,1.712541251381191273e-02,3.502221490810378951e-02,1.397587613628325891e-02,3.166053342207120203e-02,1.878995163559320225e-05,2.871513284827790016e-02
3.032429873639171450e-02,6.300743917065572061e-03,5.781812164331787823e-02,4.043483029929865330e-02,2.339750903424303932e-02,9.654805917924634551e-03,5.865734960069103610e-02,3.782234938685670456e-02,2.848983350097503316e-03,5.168788347670059957e-03
1.950474002532820092e-02,5.377833137440123784e-02,6.440079647013752240e-02,3.462507260467022341e-02,2.666171505296794503e-02,2.718705895012620000e-02,9.623571965155730545e-02,4.726933332871710580e-02,5.698115654081290123e-03,4.503125836713915697e-02
8.796867209405402621e-03,6.289204810415566227e-02,6.102402659228382820e-02,2.283623152241765278e-02,2.717674664535566637e-02,5.478946141402540881e-02,1.252257380240084372e-01,6.499478534820135600e-02,7.688499932010664506e-03,7.473356334872970075e-02
8.430503011036977537e-03,3.903881707098767750e-02,4.784935583777548407e-02,7.401139214623481469e-03,2.718786009848744509e-02,5.160483549763725253e-02,1.491076756620961785e-01,7.627887586132081621e-02,1.057591696493097137e-02,7.720033696098789477e-02
1.184390692406967795e-02,8.082029597975382007e-03,2.693534740994187743e-02,1.069432884232672694e-02,2.575498913317609412e-02,1.827196260344133086e-02,1.579750635753500165e-01,4.846195003665008938e-02,1.734185793871549988e-02,5.449046276253735610e-02
6.494345315292282192e-03,1.678274438404812191e-02,1.527851925139921477e-03,2.861603230523159652e-02,1.921348739894008020e-02,1.897294395506802026e-02,1.369688024455871234e-01,2.137487663107461369e-02,2.671087687995448920e-02,2.289061047709041105e-02
6.217419565755178019e-03,3.273052131340042220e-02,2.122685877681150871e-02,4.062449733274781094e-02,8.666256257984495531e-03,3.444548673106293674e-02,9.391751387376946758e-02,9.196373353304194975e-02,3.367124480048383495e-02,4.980132089403048294e-03
1.311676936404530293e-02,3.482818108715935584e-02,3.444989154821281874e-02,4.194056065580264309e-02,9.539318874521663175e-04,2.368956789372820768e-02,6.534145893769092994e-02,1.250901871770035423e-01,3.650883737736500961e-02,2.411907398565580132e-02
4.748031456640986955e-03,2.409252718880783295e-02,3.655327508892118604e-02,3.599270512666147281e-02,5.374488409209260409e-05,4.636735412696999306e-03,7.926432712253569934e-02,1.178368031630031426e-01,3.710716608858378313e-02,3.161227142231294585e-02
1.834711653538538198e-02,1.447458513641453580e-02,2.940996086785218136e-02,3.392258301258862380e-02,2.911861442403854833e-03,4.272024309651120677e-02,1.143971847436453249e-01,8.210816259324206501e-02,3.411185670050337349e-02,2.528865628916464672e-02
4.862595354539035047e-02,1.945976210275439378e-02,1.608011151750229906e-02,4.223855045848127349e-02,5.201989790361677760e-03,8.137731081040368297e-02,1.195071744463091085e-01,2.916360480855105519e-02,2.464262458095281202e-02,5.860304696978128197e-03
7.512456652483416597e-02,3.738751271372285634e-02,1.848503633269504148e-05,5.513914097827593563e-02,6.597292197000434455e-03,1.070090441906284412e-01,7.966123168876611260e-02,1.654380262522816766e-02,1.330726253007168992e-02,1.754901234990248818e-02
8.734900723272348566e-02,5.403383446826813541e-02,1.840272887648137026e-02,6.369503221857238107e-02,8.839649286851549229e-03,1.124703117458838025e-01,3.408204461077128655e-02,2.431993214857336438e-02,9.110473176062896042e-03,2.487335558503540878e-02
8.092287862145965127e-02,5.769766283194655010e-02,3.972469925024520176e-02,6.661119417898189732e-02,1.126128826484973887e-02,1.033638376582665663e-01,1.659816372971006232e-02,6.951466345205879402e-03,1.200163836433543879e-02,2.227221166019373311e-03
6.180105788385137355e-02,5.143400188546804613e-02,5.639949842248260375e-02,6.555670149111236800e-02,1.019259842886678299e-02,8.668770864296941603e-02,1.551567125695848572e-02,4.288719395051873023e-02,1.273079248425368869e-02,3.560762346538429851e-02
4.219226060372568282e-02,4.683344458145075745e-02,5.454270376876016457e-02,5.661372661768642595e-02,3.269331797242808983e-03,6.445258969437060725e-02,1.298179753383900230e-02,5.454722129528266628e-02,7.721653398937835221e-03,5.765358796720716772e-02
2.766314317747197229e-02,4.380648724905630148e-02,3.365314102039804189e-02,3.637897779618774752e-02,6.933804288801407277e-03,4.346523451954329570e-02,2.183244871631132011e-02,5.012755591223469476e-02,3.884966861084988583e-03,5.466890573647824325e-02
1.131956205935007349e-02,2.758063150870281727e-02,1.526655391879571180e-02,1.319381360633666879e-02,1.562578838225292185e-02,3.414275150126795666e-02,4.826399254987305543e-02,5.623968824905637570e-02,5.751599887092333219e-03,4.498229532128806413e-02
1.327350633740441953e-02,6.745879496949025098e-03,2.050384217234376902e-02,1.865056204881096816e-03,2.095277655218296189e-02,3.286853585882652112e-02,5.621583562391644501e-02,7.804007445339282423e-02,7.786087258104726523e-03,4.201553561881634508e-02
3.822848570725827927e-02,3.960666758512069313e-02,4.401667501644981190e-02,7.430572780540761237e-03,2.367860412211339471e-02,2.387881149965718694e-02,1.785778768660032864e-02,9.265243455713567666e-02,4.829704745089358903e-03,4.023029399887233931e-02
4.953848528629443970e-02,4.809997601584163618e-02,6.036365724792506354e-02,2.279182273623755334e-02,2.363910914227397228e-02,4.135646460721334981e-03,2.729429258222838828e-02,8.250770813664372316e-02,1.603121526892650056e-03,3.615045389739046655e-02
4.748814611482619907e-02,3.157247870065209294e-02,5.233930239717671934e-02,4.235083846351752473e-02,2.033179878877702448e-02,1.164493118942872343e-02,2.022687794310176757e-02,6.047025554026618649e-02,4.713332139258472574e-03,3.801448183706050699e-02
4.895201024078968399e-02,6.623545332146303297e-03,2.413757622006016540e-02,6.685009770280468666e-02,1.549755439341414867e-02,1.344966869716852399e-02,2.416855728074291526e-02,5.258346425919336459e-02,1.184848828810229453e-02,4.732712372029789644e-02
6.566690214560846894e-02,1.363963593813879993e-02,8.592210179163659034e-03,9.014283640323327018e-02,1.139838326221067309e-02,6.476547491937606135e-03,3.043014464059060412e-02,6.589488354121159075e-02,1.610076477242127629e-02,5.138817633763118065e-02
8.842083849721854572e-02,2.649778459187316151e-02,3.158137463494634783e-02,9.458249281886084436e-02,7.905008180678263843e-03,4.842226622213050002e-05,3.318291095876326618e-02,8.471339120577486836e-02,1.599458904526014635e-02,4.165402945797514606e-02
9.912000683451012428e-02,3.477335205220423442e-02,3.829566179485606459e-02,7.275748384764635368e-02,4.297598471002592527e-03,2.177049846355382824e-03,1.220183156845425360e-01,9.136151038661231849e-02,1.521079693785861234e-02,2.428668350970428214e-02
9.171498021419259572e-02,4.349289868005523640e-02,3.358447753840970024e-02,4.364832454590283212e-02,1.758685470709444145e-03,2.245684125127729580e-02,1.876981262666555517e-01,8.042938700613164182e-02,1.621461917493807747e-02,8.310595842845398123e-03
7.606580289348677248e-02,5.348975321380777109e-02,3.081879331571405964e-02,3.127802210896774709e-02,1.104710497138126522e-03,5.932335342434472830e-02,2.225957069906127350e-01,6.069938239703967509e-02,1.852056869895003788e-02,3.598551886285060279e-03
6.738841023184417856e-02,5.339576435254327069e-02,3.918541844440999455e-02,3.605936593677011581e-02,7.282108050613765810e-04,9.115146056065330515e-02,2.269653483054004661e-01,5.168904943100020161e-02,2.065796359324700848e-02,1.161658273451394996e-02
7.311924446088782781e-02,3.014388353158779094e-02,5.441782006806299837e-02,4.224851291242522067e-02,1.314595186825015744e-04,9.609175096562912188e-02,1.910161728619400034e-01,6.774136622765723759e-02,2.157150832132389770e-02,1.956172375584070908e-02
8.504088308646853833e-02,8.634174809824262872e-03,6.591779689576271473e-02,4.304105650137041161e-02,1.422488542791202574e-03,7.789818043924577606e-02,1.243906613150539270e-01,9.900743905766876130e-02,2.139162249806981705e-02,3.730527015884977510e-02
8.858213887564257705e-02,3.890317551617125669e-02,7.013734302842286605e-02,4.191856195628683446e-02,7.971769708316081213e-03,5.822303254169140102e-02,6.399163369121926848e-02,1.205402520588810950e-01,2.069427359420936488e-02,6.628574388668645456e-02
8.244154146623361434e-02,5.036065583439549437e-02,7.168748752609539754e-02,3.800555346408841795e-02,1.614743898851938100e-02,4.752633340960994712e-02,3.802366584827528151e-02,1.213143422471729543e-01,1.865301651989296344e-02,8.708680097451253210e-02
7.771152454940855048e-02,5.491935759640837605e-02,7.330080909955241641e-02,2.601569993196364144e-02,1.897255894538016699e-02,3.728365356213792642e-02,4.076418497543731617e-02,1.077368287491006910e-01,1.406417207715898732e-02,8.125924913565692187e-02
7.661095077167427714e-02,6.366325095567239301e-02,7.072326227589134651e-02,6.330446248872753992e-03,1.473602096972167520e-02,2.049594584496762170e-02,4.862037475932446534e-02,8.315058342887059195e-02,8.066151780773767391e-03,5.797555063419744525e-02
6.990382785255179476e-02,7.358073964691330682e-02,5.863853586421780006e-02,1.613971471366057453e-02,9.413047438671651862e-03,5.429509240982323404e-03,4.755372156002796863e-02,4.908699199377838940e-02,2.865028511736260504e-03,3.717933703536822204e-02
5.763821446850663638e-02,7.936361306748690447e-02,3.864905871166062629e-02,3.924402411106820560e-02,8.010705129822626516e-03,1.504432437615607372e-03,3.799368390536125156e-02,2.431459700951818514e-02,1.640687948115045723e-03,2.005728033296800064e-02
5.170714273286815266e-02,8.218625108292766657e-02,1.962072745390747858e-02,6.023732532164428888e-02,8.043297115821922832e-03,2.845264373601288053e-03,2.337952207824383136e-02,3.251349278084571248e-02,6.444682816492932481e-03,4.898661183155555293e-04
5.311901867124108750e-02,8.269022735342772268e-02,9.970854309897095313e-03,6.942514288816908907e-02,4.712502547330783484e-03,2.073407051198963239e-03,5.465862025412917581e-03,6.542836607730043164e-02,8.830168504798716067e-03,1.261709117714493802e-02
4.667749391846479773e-02,7.633799809236369027e-02,1.006638267192060121e-02,5.985813972422959067e-02,2.104222301617004152e-03,1.177294535778243556e-02,1.130837436493251254e-02,8.306006376754888898e-02,3.881327958641191556e-03,8.786039052780709319e-03
2.468197969873497238e-02,5.978410029034445655e-02,1.284814418942285298e-02,4.302590654249387886e-02,9.334306041627642853e-03,1.446226977349078166e-02,1.935804454620705314e-02,5.855425393465624184e-02,6.143407558453596769e-03,6.231778731408027343e-03
7.925293074597990900e-04,3.673262570796823751e-02,1.090628794614935046e-02,4.007860013738594879e-02,1.498472162065494530e-02,4.614908087065673278e-03,1.509463636320745525e-02,4.901299086527451457e-03,8.199407431090651593e-03,2.270876978930059728e-02
1.579503083122930224e-02,1.632969610559461757e-02,2.105404240328652768e-03,5.319868281037869184e-02,1.830937846831404495e-02,1.158646790301049237e-02,5.787564833042442569e-03,4.850187313390200844e-02,8.194607203271680324e-03,3.795550513019662481e-02
2.186692939082382492e-02,6.483335690881462943e-03,9.233651363704483903e-03,6.086668477584039616e-02,1.919917283616663292e-02,2.389190565852547868e-02,7.308419968437146474e-03,8.941334808974205073e-02,3.557401929052760037e-02,4.597095633433779388e-02
2.889127696538915102e-02,6.156280913700895412e-03,1.541587011597995126e-02,4.875497067242429844e-02,1.891613986133335035e-02,2.640088932587667664e-02,2.894944723428630878e-02,1.238819453368674439e-01,5.490048485655235622e-02,3.591711472736801303e-02
3.888475745489575197e-02,5.009634942590842840e-03,1.243747375892557266e-02,3.000058594503176440e-02,1.842881644293844351e-02,2.161846178069331062e-02,5.620037647870140818e-02,1.519162193448657938e-01,5.643972380114721521e-02,9.093830067349602253e-03
4.454476578544881715e-02,5.958216571493635955e-03,4.087481786196988168e-03,2.432774299725331407e-02,1.592567776480966965e-02,1.827006694942985565e-02,5.827134048139637201e-02,1.533711125634705519e-01,4.651994496084057434e-02,1.571193860975985193e-02
4.204318889854337382e-02,2.497312104771118313e-02,3.857567024319517000e-03,3.039884994858899764e-02,9.485314263656195732e-03,2.206649758348603121e-02,2.384806788817638371e-02,1.076311004913184100e-01,3.493905233104827035e-02,2.140248557048474859e-02
3.904097225657163217e-02,4.261238192746252124e-02,1.134992085123204611e-02,3.225329027033035922e-02,1.566310475521207491e-03,2.893563529363192902e-02,2.065610301699146584e-02,2.852269770910344227e-02,2.363345874456898588e-02,1.207184482175237272e-02
4.625640656688078528e-02,5.241895134911886411e-02,2.200541919337679203e-02,2.453867872692623922e-02,3.174532214195060868e-03,3.037447359170876784e-02,4.021432608139465653e-02,3.584908364435093753e-02,9.172637557575332237e-03,5.921007074079665845e-03
6.295994311875588445e-02,5.734854654943175034e-02,3.567139109384997314e-02,1.745968188877124877e-02,3.605043625606180625e-03,2.219612792863498441e-02,2.511421418491296617e-02,4.954507324709730293e-02,8.241702112649473139e-03,9.184910493569224677e-03
7.707802561431187360e-02,6.479427293943200439e-02,4.658810954917252944e-02,1.951157782336337618e-02,2.017073566444254652e-03,5.482714678551908749e-03,1.283603443595171881e-02,2.157824215302828891e-02,2.193949195431258922e-02,7.806063400071273223e-03
8.202645771382574558e-02,7.386666394169930094e-02,4.762083433083315331e-02,2.668051126276900498e-02,1.142243809608265879e-04,1.454600339500469047e-02,5.790138374135325033e-02,1.820126720634972217e-02,2.557904899563109499e-02,1.150400638563635336e-02
8.550339626997230380e-02,7.243623914342760262e-02,3.548341735357127963e-02,3.042972015557334625e-02,3.048270435315734474e-03,2.920242518959207528e-02,9.586909755485702178e-02,5.617379495676719237e-02,2.036544720977799539e-02,4.447408557278346997e-02
9.472950540355305760e-02,5.278184733311527821e-02,1.405024884558432607e-02,2.914999276718956839e-02,6.727886148059276407e-03,3.339609034360126877e-02,1.214167655282701319e-01,9.152958184465385949e-02,1.263865004497154339e-02,7.790620137160905734e-02
1.016566003277153268e-01,2.555297788190367958e-02,7.053165706304774345e-03,2.836563891541414584e-02,9.698009911905620950e-03,3.055665112366739294e-02,1.446015668846376834e-01,1.161974010689464654e-01,6.297199619786190972e-03,1.021367312339256511e-01
9.393262199397436896e-02,1.081272171345687948e-02,1.901650605195842961e-02,3.258522751919878252e-02,9.660134300442458147e-03,2.508468210094072157e-02,1.752372681599421722e-01,1.211103014872331324e-01,1.944062525858951526e-03,1.123813707028357145e-01
7.362370448973415415e-02,1.684959138954661775e-02,1.983668636700625099e-02,3.836178202846574070e-02,5.584811773868862510e-03,1.650637140997659319e-02,2.024676330483252129e-01,1.109530183908233880e-01,1.522728100135096064e-03,1.098586866118664990e-01
5.395528207838866386e-02,3.176163114759383149e-02,1.368964846614167952e-02,3.607140476581077032e-02,4.564936292615166542e-05,5.525545803159341747e-03,2.032838706052884081e-01,9.586578337940654393e-02,7.639464741280385489e-03,1.016313048766300520e-01
4.315888975940356670e-02,3.550368060894383559e-02,5.013961420171143477e-03,2.269742081068975431e-02,2.736618508182428987e-03,2.540335467796716630e-03,1.709424659230920629e-01,7.766099962780852184e-02,1.825358908476999026e-02,9.307560565404429664e-02
3.954703676745383034e-02,1.867786049464570733e-02,4.899726416202811879e-03,1.020123288029098178e-02,5.799327702632466486e-04,3.685511670625185848e-03,1.242343000164759376e-01,5.397172166657746711e-02,2.692110191802384381e-02,8.758953694647923782e-02
3.654024395627549632e-02,1.085734790735900374e-02,1.400145223762269513e-02,1.078685991221145848e-02,4.206280540933421928e-03,7.009679612301927040e-04,8.458984934323499072e-02,2.727392163327158753e-02,2.898629772658744067e-02,9.216066350225209092e-02
2.672112700570929145e-02,3.779092661576598927e-02,1.517800547464320630e-02,1.786178302658422701e-02,8.186193135071679131e-03,5.324782273020614923e-03,5.307475429938303402e-02,4.839105454815176635e-03,2.497769321314542712e-02,1.046266878342307777e-01
6.498232294497911787e-03,5.241097016424502847e-02,2.297175822459977985e-03,1.703301134478136733e-02,9.333338111021308517e-03,4.971814268815103605e-03,2.039514868644748749e-02,4.751525335386218296e-03,1.839960992214510760e-02,1.018078100086427518e-01
1.749969986772779290e-02,5.377842060045818356e-02,1.882318174625262006e-02,1.069887479538457128e-02,7.652256188932547200e-03,7.046806899322410672e-04,7.548485218116468207e-03,5.144763265978652411e-03,1.205116972214970335e-02,6.889995190647396628e-02
3.017044488821250814e-02,4.358132520930235732e-02,3.276737746064992823e-02,1.248508761462637645e-02,4.962727982429066161e-03,2.428409938289537292e-04,1.317182237416281154e-02,3.477102202622714411e-02,6.227688141330804152e-03,3.247970582329996747e-02
2.291577258922406976e-02,2.270046210120787999e-02,3.049076864941947795e-02,2.120002919419631399e-02,3.076352106268297193e-03,6.664899655550827334e-03,1.193144142766340565e-03,7.323606457422317251e-02,1.725533334463377202e-04,3.008158874847354294e-02
6.011580429407712388e-03,3.127949063230322981e-03,1.716993223427401918e-02,1.993038572575693904e-02,1.461611911117081768e-03,1.205548705985810647e-02,5.893751005018403252e-03,9.836660133655018845e-02,7.067099934720376050e-03,5.328033187622634170e-02
1.611365460502151188e-03,2.090381947911123042e-02,4.013312257484227298e-03,9.900079095977094325e-04,1.622773825388536912e-03,9.493507270067277556e-03,1.940578401541393980e-02,9.125607356064693865e-02,1.238420588735026501e-02,5.374838344633988546e-02
4.753864634970367091e-03,2.196891778064234343e-02,3.436958726098504613e-04,2.287458012919563882e-02,5.600820831898908544e-03,4.078801503330938515e-03,6.160794821733715093e-02,5.892471090724150234e-02,1.390121769092043415e-02,2.808644950407245423e-03
1.147516879092458711e-02,1.287483319630695899e-02,8.536918362400820401e-03,3.397321693033520523e-02,7.718253132901580806e-03,3.640731645809859932e-03,1.034223462045177067e-01,3.177818035078315562e-02,1.140125398057680386e-02,7.960901956662808088e-02
6.040136891723789196e-03,8.067464503789758060e-03,2.857987777860524978e-02,2.715555303478883048e-02,6.960119400403896525e-03,6.040341244195078507e-03,1.484795938402379833e-01,2.947692160831606040e-02,6.688077650977886784e-03,1.504221322531164029e-01
8.721875154170735667e-03,1.458070384001752644e-02,4.967168475517760862e-02,9.860341320423475844e-03,5.191780906490679401e-03,5.056034573135750713e-03,1.934474979191678212e-01,4.094289290469880355e-02,1.503537635462219840e-03,1.789211299429309676e-01
2.173953976223879508e-02,2.818563797940127486e-02,6.109666133049163755e-02,7.385560142035930975e-03,4.339357925680306996e-03,2.059154795038951012e-03,2.106151578975709038e-01,4.450470862832028862e-02,2.958203191467448628e-03,1.642794325631293240e-01
2.700915277554140348e-02,4.051293191412720651e-02,6.144135206113803677e-02,1.551477317552535200e-02,4.919812533694319610e-03,1.799128087216428622e-03,1.863426907886476525e-01,3.459340055136530395e-02,3.559998212919036117e-03,1.317993839367695430e-01
2.655253228932281592e-02,4.522840957137737317e-02,5.722711572008838676e-02,1.006444268494879543e-02,6.826756569473441290e-03,2.335578930059971359e-03,1.423713478930665743e-01,2.256829545479130394e-02,3.696098280483809447e-03,1.043989682519120554e-01
2.320110468943885340e-02,4.013947987314257088e-02,5.235935193738652793e-02,1.325712023586168766e-03,9.141349864628275229e-03,3.383380218834521752e-04,9.797573872960463337e-02,1.930292051646114587e-02,1.657173543873216581e-02,7.669623697617561353e-02
1.374887315943802181e-02,2.901241475342670323e-02,4.388291268354902602e-02,2.693174365260275586e-03,9.993431430554370470e-03,2.246211000062279736e-03,4.794601364205998417e-02,2.048433678177383546e-02,2.538361260769799940e-02,3.466082705786904805e-02
5.857336154740624273e-03,2.099326924822185816e-02,2.977014023231616680e-02,1.022918412148679165e-02,8.740810140459246563e-03,3.157985719525796889e-03,2.115683435014079593e-03,1.117671731998812201e-02,2.410439840485880530e-02,4.851695191546503971e-03
2.829526088462515354e-02,2.164636723774364044e-02,1.675462277561930169e-02,2.480678600707487622e-02,7.343605392064269516e-03,1.217518613778134987e-02,1.766531556503534578e-02,1.184470717211185894e-02,1.830991936146704815e-02,3.402548682046006509e-03
3.778241429062857010e-02,2.351608835369776301e-02,1.531913999821708089e-02,3.250659645705197137e-02,7.760196111254578054e-03,1.375121831492482488e-02,1.481048378472604385e-02,3.282496495204512837e-02,1.731877288995454720e-02,4.873719871637685608e-02
2.932956575453149473e-02,1.443455511373608301e-02,2.589187739391318049e-02,3.900282544037007165e-02,9.002118237296843559e-03,5.172978803557685620e-03,4.899755096804694898e-02,4.174272426545352216e-02,2.296017063956551710e-02,1.165523577065206429e-01
1.615655116306063954e-02,3.184088703890830020e-03,3.488519318171278555e-02,4.774633235227132566e-02,8.616147796954234592e-03,3.378732693469041915e-03,3.354428007872031769e-02,5.056450942420219474e-02,2.993914333490903940e-02,1.584089062815100812e-01
1.387618038562567213e-02,1.269279877770415274e-02,2.937199208634678343e-02,5.097035639792846240e-02,6.211962232841618942e-03,1.467466358501532016e-03,1.427247225123384061e-02,6.989960183848788200e-02,3.271513418558404107e-02,1.615722609786776065e-01
2.325853797836404530e-02,4.819753600627765810e-03,1.200342223039168807e-02,4.264635369093702777e-02,3.521718183063930838e-03,1.041859325191449304e-02,3.935479643212620726e-02,8.569422055137783378e-02,2.915787308831044311e-02,1.372541073062704953e-01
3.167298718640400995e-02,1.215560643805394837e-02,4.596500506309603509e-03,2.683962007729510935e-02,1.582278224758718044e-03,2.314694175342928845e-02,3.596896039470849626e-02,7.773490996909861173e-02,2.115363191743878379e-02,9.961751979886665498e-02
2.832302365366889257e-02,2.488636754512916702e-02,1.409263323706768517e-02,1.002752440345528080e-02,2.123420039798181239e-05,2.706475133909766115e-02,4.683877067011307793e-02,4.977444009292395638e-02,1.297508671463170130e-02,5.915879185224385411e-02
1.400653353100544084e-02,2.814130337471445684e-02,2.047772616095462628e-02,5.889938572550310926e-03,1.355637240521775054e-03,1.858698320802752019e-02,8.505936676899646109e-02,2.331669628608171174e-02,7.034057914289477270e-03,2.471591158707909380e-02
3.240841321642364166e-03,2.430653214084701336e-02,2.910672669667525858e-02,2.185059612737921819e-02,1.583104692827451334e-03,4.600577862964862555e-03,1.140178135939122622e-01,9.062943996973788635e-03,2.441263243260930436e-03,5.715024736210848333e-04
1.557997951007017955e-02,1.661600345327038722e-02,3.963680755833602631e-02,3.817500559074038513e-02,6.202686097779419984e-04,1.403970036573587736e-03,1.066958139612064760e-01,2.403555682437688752e-03,1.483060490539795002e-03,1.667983257212546366e-02
1.754173428841463572e-02,5.067824556164056068e-03,4.713754620313030663e-02,5.406465769724091985e-02,2.163944797358116926e-04,6.489507368402746938e-03,7.946009519225727402e-02,3.085227865769496307e-03,3.896061564197423732e-03,3.491656392911063334e-02
8.753529093905261516e-03,1.497592132793028850e-02,4.654257771801294241e-02,6.881527655547962918e-02,2.470255407382934872e-03,1.903777179682470191e-02,5.787105353784252615e-02,1.863931151436570149e-02,5.025337614184074639e-03,5.904323015333639429e-02
3.349448326790789836e-03,4.995697282435690445e-02,3.572608123291248772e-02,8.119642622969369672e-02,6.925885865530343258e-03,2.324138233693867281e-02,4.246288007195102299e-02,4.485616074906508682e-02,5.897751118116892691e-03,8.269928151396407912e-02
8.767474117018496382e-03,9.710455935599252020e-02,1.757570587333290996e-02,8.709291400802564309e-02,9.773349816868543913e-03,1.603106240043097874e-02,2.464384698095180293e-02,6.107849210029276527e-02,6.002283765671103527e-03,8.676696659914011345e-02
3.036709064702393032e-03,1.368444701301526623e-01,3.962229730178046770e-04,8.190184349477928893e-02,7.561533148062869747e-03,2.217845566086647582e-03,1.329627230361017480e-02,5.349161040403958844e-02,5.282945550314431006e-03,5.533772852293356720e-02
1.106340143957686151e-02,1.464805206850448294e-01,7.460783692528690121e-03,6.726790740804253210e-02,1.744436515436188339e-03,1.269552015379360119e-02,2.136036082162865585e-02,3.195342982475603277e-02,6.863985201215563707e-03,5.621986020303698650e-04
2.551006151475887149e-02,1.235622300403834833e-01,5.292655719151797417e-03,5.045674644944344450e-02,2.877120673859455153e-03,2.227322981715358294e-02,3.482456695716094203e-02,1.616481721917017653e-02,1.350853813030244467e-02,4.507181633968616180e-02
3.072553254451560606e-02,8.775831460190322564e-02,7.282519060739895637e-04,3.567434065655003539e-02,4.651193004788127007e-03,2.107138592409439973e-02,1.726364982582411639e-02,1.190523417444013139e-02,2.260133896173688317e-02,5.448491879011476552e-02
2.349759782401112523e-02,5.857426321009815556e-02,6.161951069627984515e-03,2.190235807236675866e-02,6.706714108230994384e-03,1.221739233793892390e-02,5.208838150438616782e-02,8.729783197323070718e-03,2.814864381623164921e-02,4.430456557894611735e-02
1.076838479522919390e-02,3.813239116334304207e-02,1.197018488587293407e-02,9.539058241235985613e-03,1.099987152792142840e-02,5.554030670060492933e-03,1.522398937105703121e-01,1.186456541207826614e-03,2.705295316856579091e-02,4.748550809217923219e-02
4.706096716431476534e-04,1.730219175112465702e-02,1.952982200458091080e-02,2.932086836505083498e-03,1.444231008158881197e-02,5.481381828612179319e-03,2.314337084393385813e-01,1.223737548865998226e-02,2.119316392759517526e-02,7.258149012532912059e-02
8.309726036709246672e-03,8.121867840789172288e-03,2.622185375876768046e-02,5.892368320357989527e-03,1.318277600533489767e-02,6.862972145583194107e-03,2.485047834534255262e-01,1.696226291708529538e-02,1.445408385818437551e-02,9.585837495165618061e-02
2.032808687498481939e-02,3.338142082280026041e-02,2.752804159908957271e-02,1.752345571692558168e-02,7.863948489319351476e-03,3.539567173500160393e-03,2.123845030331203976e-01,1.683933214017174426e-02,9.976475286946322879e-03,9.149971138983098440e-02
3.332113138463435598e-02,5.341707809191990897e-02,2.175773853519438750e-02,3.099556678477590616e-02,1.925445050852559598e-03,4.863662906760287015e-03,1.705062817420387733e-01,1.479319358050158566e-02,9.292172065920241072e-03,5.850867067621665085e-02
3.955703629100909557e-02,6.552262261822791589e-02,1.118147919350500653e-02,3.683777232674913943e-02,3.340292418527074023e-03,1.521067247245544429e-02,1.477235516958768924e-01,9.815080895815453399e-03,1.155350087448329434e-02,1.746690896806378512e-02
3.721400361216607722e-02,6.195872867583362975e-02,1.463917777745892988e-03,3.160631293021393812e-02,8.890772265136253141e-03,2.478566114588007588e-02,1.169044584940902021e-01,4.978280559439055702e-03,1.358424290214114462e-02,9.860844993341628256e-03
3.352410906655636791e-02,3.277266612758383824e-02,1.580263009605134897e-02,2.243739724926277143e-02,1.393947629720562395e-02,3.063535093600487647e-02,4.803633416284011637e-02,5.698931210345846606e-03,1.198337000356692467e-02,1.487399117892147099e-02
3.480783982466346266e-02,1.648541148323401720e-02,3.164482002278840023e-02,1.895758927067393504e-02,1.541501517328424872e-02,2.825690147887778211e-02,3.549617746700212823e-02,7.075151396872373516e-03,5.416595426440693264e-03,3.915089980985210667e-03
3.906002100044021069e-02,6.092299686923793173e-02,4.559784010233118579e-02,2.215468362111421355e-02,1.237179600043215345e-02,1.479943761534500621e-02,7.944749274601277389e-02,2.079814023864092268e-04,4.323563424392046564e-03,8.150137680836661361e-03
4.197631072039450378e-02,7.949996573817715018e-02,5.228437711504570207e-02,2.480080761768292327e-02,8.059864871385069920e-03,5.740082340846515592e-03,6.907095917657207762e-02,1.247781484325100228e-02,1.260881501122768783e-02,6.638487753322125373e-03
4.428327489920977356e-02,7.347001518627964411e-02,4.839148803780167485e-02,2.144797213615379228e-02,5.724124689766552608e-03,2.274999005442808475e-02,4.510915850458319110e-02,1.920668253987500504e-02,1.501320435432195767e-02,1.576171110514543172e-02
4.749127631742921379e-02,5.543825442902665379e-02,3.477442667454568037e-02,1.435492372671369130e-02,4.546699402142413519e-03,2.776888691097182185e-02,4.488265579104259995e-02,2.231457462134393485e-02,1.141952267284629050e-02,5.261329984516192187e-02
4.807682043827411073e-02,3.166550303403089378e-02,1.697348146157844073e-02,8.813537119150147842e-03,1.858782324720652940e-03,2.281158206125688190e-02,5.845715137080457341e-02,3.176870068488090587e-02,5.716783104726048600e-03,8.371552292376836790e-02
4.217383182886614429e-02,4.024408160814551064e-03,4.077830877582466935e-03,5.492714042493898260e-03,2.503622694689038117e-03,1.625469454618073267e-02,5.986427969707557029e-02,4.613318649209472572e-02,1.589319692688440089e-03,9.132611636363396901e-02
3.190826901441005253e-02,2.044506967879013148e-02,2.124229212616192495e-03,6.266950407355820381e-04,6.608934563728266660e-03,1.214419560454284980e-02,5.357003045496753352e-02,5.367658442405717767e-02,4.865095868197591130e-04,7.856080271258150671e-02
2.267321965481268464e-02,3.322223565474777263e-02,6.995600268497001797e-03,7.550157685237963642e-03,9.879295978935630218e-03,8.792874587750170584e-03,6.034194598122999409e-02,5.081181337233811601e-02,2.296451292451765630e-03,6.264082285778858894e-02
1.677426722098618664e-02,3.441866054961868759e-02,9.314798228186021295e-03,1.659992588690147042e-02,1.297442257011112779e-02,4.558100972327566378e-03,7.390806057793689043e-02,4.488967428273768490e-02,5.220075322794641946e-03,5.319452549151770099e-02
1.134173650898839120e-02,3.253508861786885697e-02,6.826696840310089893e-03,2.397371160688108530e-02,1.502932692792057975e-02,1.107600862910323308e-03,6.839714066232621681e-02,3.777996617734777351e-02,6.036167913876005521e-03,4.984364073828349145e-02
2.043803192181038730e-03,3.485163011605073996e-02,4.540538510491905905e-03,3.019551350030383677e-02,1.475527225830498314e-02,8.461083278227175125e-03,4.779769634383270599e-02,2.143716067915752560e-02,3.366551989582665556e-03,5.377089007690100814e-02
9.041496199721657176e-03,3.976114906524071124e-02,3.398881891945663893e-03,3.724036956127142750e-02,1.367501990456295412e-02,1.481519618721047205e-02,5.012926236294452248e-02,3.482505837980463554e-03,4.682487805139611816e-04,6.391150818824851976e-02
1.141133967262919838e-02,3.797650867375074180e-02,7.851997917915357538e-04,4.519858849968287628e-02,1.426718062536119595e-02,1.606502232439854794e-02,8.617855195957914438e-02,1.776972190508986291e-02,1.806043993524402737e-03,6.820009736428798985e-02
1.168761677955927440e-03,2.341311563766123455e-02,7.220093259877121035e-03,5.197182386380680419e-02,1.540283541362915364e-02,1.384493363548024505e-02,1.086371538570355816e-01,5.540338226176595368e-03,6.259358278418033876e-03,5.724599437623114490e-02
1.862429498978707132e-02,3.126473234760656066e-03,1.010136798678825179e-02,5.545529912435039066e-02,1.317032848007600523e-02,1.529920002814965513e-02,7.411097817635398100e-02,2.203823606044568589e-02,7.323528395124415113e-03,4.187980253640470607e-02
2.432211530773871824e-02,8.829133937899158804e-03,9.198497578618729242e-03,5.336363301535814591e-02,5.967709272042411896e-03,2.267293270126305091e-02,8.403292179823352095e-03,3.926380014400480262e-02,1.510032447059087794e-03,3.993309941377404249e-02
1.438705312128488525e-02,7.235765757075589624e-03,1.083803076796690038e-02,4.273098830912060858e-02,3.764132184336524672e-03,2.805452524009422952e-02,2.933913888767315098e-02,3.579467535663034827e-02,7.324038042282766427e-03,4.967400531948413384e-02
9.652205463366831740e-04,1.343966417336576145e-03,1.807552590973313111e-02,2.470720908235082489e-02,1.268871000321779817e-02,2.216633813877622733e-02,2.490589966719591875e-02,1.944724285553881341e-02,1.366952051469700995e-02,5.279357848173470841e-02
1.197438744476855138e-02,1.086670368507898325e-02,2.770826847543937307e-02,7.252763724213916879e-03,1.947282258888565626e-02,6.338398160239303025e-03,1.036771448955707726e-02,2.383299921404693610e-03,1.638901773855537189e-02,4.146359829290937465e-02
1.736797367885296872e-02,2.314290050790463946e-02,3.691186876469838146e-02,3.821471695962931712e-03,2.445257702782842324e-02,6.883211630535897990e-03,4.314563358346546439e-03,2.603595624891070007e-02,1.734263408313645172e-02,2.773932511440847098e-02
2.008415811891087199e-02,3.978640393694805877e-02,4.523506630821089169e-02,1.280353236980673326e-02,2.814489880072369374e-02,5.409797034099834978e-03,9.463454095877177341e-03,4.291199689855282329e-02,1.775834388419041121e-02,2.578867326923959744e-02
2.176994117075311749e-02,5.211918720855914650e-02,4.871675459177779444e-02,2.431495575366260029e-02,3.059611425908076096e-02,9.347427279095234937e-03,4.421209087286857853e-02,4.464770045027355999e-02,1.788249764184965396e-02,3.470748508530689669e-02
2.264485056344208574e-02,4.729283050378533387e-02,4.014146971073410952e-02,3.027278596281821055e-02,3.121088937227467844e-02,2.091155605069427298e-02,7.710694164883606649e-02,3.373795842389892830e-02,1.727548246629747458e-02,4.064419258023328763e-02
2.325199168465461735e-02,2.577600598037462984e-02,1.980078926795311028e-02,1.906427117453926567e-02,2.923509187737224554e-02,1.288821459142088996e-02,7.110610458728298944e-02,1.948590827137131401e-02,1.410106489754769238e-02,3.283045916328634212e-02
2.329518603358868983e-02,4.001476497071746949e-03,4.597962358507426362e-04,4.146417184313276778e-03,2.485840074728310270e-02,1.284596451073989273e-02,2.594489616066263798e-02,8.013101243086205583e-03,6.844495073541749866e-03,1.659533896529035574e-02
1.958688351298269389e-02,4.784589770313741296e-03,9.599766795025912319e-03,1.953579980275948688e-02,1.916297461871933894e-02,3.831007307756773006e-02,1.594118420586575560e-02,4.557983591186507127e-04,2.867087488004215964e-03,7.077987933258996119e-03
9.407091545202399957e-03,3.602594121159135437e-03,8.814586524051105584e-03,1.642960349632585637e-02,1.317763246690035334e-02,5.039467937849709950e-02,2.207942114011936241e-02,3.527070492058330484e-03,1.187231168027123862e-02,8.205877208187745131e-03
2.642643789925364778e-03,1.044207295348503588e-03,5.913702204400631685e-03,4.187987728303803336e-03,8.099442304301885873e-03,5.173091815744333688e-02,3.115417872788499992e-03,1.740216166570590813e-03,1.879418908150951029e-02,6.047644266323256440e-03
6.182742553526568950e-03,2.581302706849088104e-03,3.438506971306996233e-03,2.857401488152225971e-03,5.427201085474670297e-03,4.982501906853410711e-02,1.810997845378096299e-02,1.022929753131952314e-02,2.280343235511963357e-02,1.040045155695570878e-02
2.738556552507080081e-03,1.205870836676498775e-02,2.151954604738660817e-03,2.080578761958358849e-03,5.272742104730238771e-03,4.560987520169178938e-02,4.456035125477595532e-02,2.949345853954784755e-02,2.159760984897532432e-02,3.035463417063408859e-02
1.530632033417921034e-02,2.754888070180222873e-02,1.228754973041843584e-02,4.397029859178245258e-04,5.354475159412398245e-03,3.722379089243885858e-02,9.271156869877131279e-02,4.057225903273454365e-02,1.433992479335552059e-02,3.282149956446028805e-02
1.970391737973827689e-02,4.328469659092509803e-02,2.215797299264802081e-02,3.116346958356151688e-03,2.690364792968564719e-03,2.775457565492168294e-02,1.536893491112846788e-01,3.016921968506347529e-02,4.712093755388929023e-03,1.179762877137785146e-02
1.342241783030792036e-02,5.322960181354185333e-02,2.564900724687253775e-02,1.043402758609621866e-02,3.672354756056482247e-03,2.282540764932586286e-02,1.873821334403788230e-01,4.243353028067007975e-03,2.076643355575785374e-03,1.716939518000419260e-02
3.704898301836389088e-03,5.767043366307981339e-02,2.260713470416352011e-02,2.140441772431582804e-02,1.087012049589389413e-02,2.264114331572986832e-02,1.664144282352163495e-01,1.867867757086528330e-02,4.728469560313550667e-03,3.234549107453066341e-02
5.267191245127108342e-04,6.235526519005166191e-02,1.804345791902137175e-02,3.229478528523128250e-02,1.380656972316083968e-02,2.132941936524454518e-02,1.141906288435200062e-01,2.591665400521542609e-02,6.529018245699136531e-03,2.618246033657788477e-02
3.562629817750036839e-03,6.461646055574560288e-02,1.349900730887282178e-02,3.330380940494011288e-02,1.122729483559718397e-02,1.547979831447751989e-02,7.435614230108789080e-02,1.625368917404926977e-02,1.013506823661128493e-02,1.278247719084752050e-02
1.134783057854066475e-02,4.732797931140907827e-02,4.574927598362102388e-03,1.529761016842393941e-02,9.101054520686725421e-03,1.016697252469216800e-02,5.126045327914519056e-02,2.847288442044032791e-03,1.293919775580042522e-02,1.078792071120924199e-02
1.795926314548831199e-02,2.708920058697140108e-03,1.008903327374318856e-02,1.807656292900297265e-02,1.338568322684246734e-02,1.238628659199581677e-02,1.797095932791202555e-02,1.761142244551359287e-02,9.782928045187174945e-03,1.782587861708076135e-02
2.438848389634366842e-02,4.554972076811840409e-02,2.352262682734043014e-02,5.029320077527305033e-02,2.077664194784616461e-02,1.976995680417922147e-02,2.499189867037154497e-02,1.795044715681466674e-02,3.959904027875816440e-05,1.254424354191904095e-02
3.206154699197887037e-02,6.504556539894539025e-02,2.809281415405778803e-02,6.601589682962871741e-02,2.267262977390494677e-02,2.173594430982258435e-02,4.824856217404745184e-02,8.546247812972229338e-03,1.142644845043904768e-02,1.483461627646106597e-02
3.622584953013543302e-02,5.286625733382482178e-02,2.352671901978235086e-02,6.258682985052985148e-02,1.707804475193704097e-02,1.259810082580644849e-02,4.776656204151687179e-02,8.925301270050593500e-04,1.923402093911489100e-02,4.613294448292119820e-02
3.280607259567717288e-02,3.109828070573263797e-02,1.448512279148063582e-02,4.738756057032279118e-02,9.855309017748010991e-03,1.832625072964742157e-03,4.809648622233773929e-02,3.242078812930772411e-03,2.215327014886413551e-02,5.668459927621226357e-02
2.747017306029557113e-02,1.304702032228634810e-02,4.367465664836840157e-03,2.792243600970202924e-02,5.096431065474545281e-03,1.189869618039015621e-02,5.203645728651630498e-02,8.793615363821366548e-03,2.057437333128900314e-02,4.547185584324235641e-02
2.827284603834952226e-02,4.182706345230420217e-03,5.679638409496939704e-03,7.857513670214233067e-03,1.222066235994735857e-03,1.391275518406624896e-02,4.028914447384031317e-02,1.185608265568831830e-02,1.455985898707252632e-02,3.472533685693544175e-02
3.282342827491360054e-02,1.892911408526952097e-02,1.300936965816218080e-02,8.750933569682463331e-03,2.792231717702427056e-03,1.055373573363640842e-02,2.005639608487665496e-02,1.439175103874904341e-03,5.724058452592965460e-03,4.193985568659692326e-02
3.249462302824178417e-02,1.988493266952157112e-02,1.172559335370888106e-02,1.540182834103207866e-02,3.530349911698307461e-03,5.304528150343574590e-03,1.798409548769878963e-02,2.259923663474399866e-02,1.916097442465061404e-03,6.085235607787448792e-02
2.635158769744834137e-02,5.343459550177832168e-03,1.311329137968587260e-03,9.704916931692371754e-03,1.362996288672112038e-03,8.224286376121931266e-04,2.697651726585799728e-02,4.555900118847414776e-02,5.439142552744601934e-03,7.281162566939916592e-02
2.202515887546824258e-02,1.008425876835239779e-02,1.906802442689809612e-02,1.162878280256780892e-03,7.495795166927113166e-03,7.634734829015635445e-04,1.835398175948787375e-02,5.647379359066815457e-02,5.714109020934807041e-03,7.165146509353244320e-02
2.479048731968902172e-02,1.590792757186681311e-02,2.931923953878218247e-02,7.230131240455593689e-03,8.263542120048402231e-03,6.951121568026049150e-03,2.017625750665090738e-03,6.044754745873703872e-02,5.190018438159149823e-03,6.954581894889620697e-02
3.178040219749627554e-02,1.935803025076196504e-02,2.799655594604377740e-02,6.879835655410196545e-03,3.984924640094172042e-03,1.489952050040996463e-02,1.452423436077348619e-02,6.408054766354533138e-02,5.087536067627888674e-03,7.687517341296910833e-02
3.495698544723942897e-02,2.900196107251568761e-02,2.139345674533991992e-02,6.577984670647879506e-03,1.644185848838079951e-03,1.784668199831513855e-02,5.596121498811004041e-02,5.807233821363719239e-02,5.658128413396091780e-03,8.633648600019099006e-02
2.683801904108193415e-02,3.686366221214017191e-02,1.543802662617987584e-02,1.031875565499966972e-02,5.045394854792971569e-03,1.519326852466797509e-02,9.546448446504507412e-02,2.819508344095942448e-02,6.553620932923173194e-03,8.471890686323284292e-02
6.903213264948622994e-03,2.937812217760399358e-02,9.176537281116749906e-03,1.383713996965944132e-02,9.953575065781266815e-03,1.267395834701730110e-02,1.206944832205130297e-01,2.020450130095147179e-02,6.562947387584516963e-03,7.127861652376532575e-02
1.481949495293650304e-02,9.200084782201736408e-03,7.713618342875994301e-04,1.019877410707694353e-02,1.074231889792169256e-02,1.449256805374339249e-02,1.314431176862549400e-01,6.150008802401964875e-02,5.505948210554932956e-03,5.519970161861524616e-02
2.414542227603955551e-02,5.543627113687179218e-03,1.325146930899604412e-02,1.847997354892704294e-03,7.647492412698952795e-03,1.785637960328552085e-02,1.200483824482466572e-01,7.346565080963815553e-02,5.292736052238543494e-03,4.380385759968371401e-02
1.648192162404610653e-02,2.499277499655499536e-03,2.139055786659972355e-02,1.694647957841069127e-02,4.721416055267480677e-03,1.556487856315935669e-02,1.038129891834892599e-01,5.435905504173169783e-02,6.604638562549607073e-03,4.017201656049638331e-02
2.443466383404216402e-03,1.220807978864497240e-02,1.888626184648307255e-02,2.845232081063094748e-02,3.700372513377795519e-03,4.366731217508494287e-03,1.260448292037098517e-01,2.026444787020083294e-02,7.094699748842253281e-03,4.140343873397839963e-02
3.424671560056916000e-03,2.392680328259490230e-02,7.150055643671923700e-03,3.198405814305649991e-02,3.017364324761326582e-03,9.306191407550722453e-03,1.855548731511919847e-01,7.212579467931978100e-03,5.191689681081686908e-03,3.512833993939139948e-02
2.039991641653440997e-03,2.564313947617506348e-02,6.354208789868910807e-03,2.586890422475168760e-02,1.343827565570386009e-03,1.452221429576185455e-02,2.246493650830754807e-01,1.523305623877012523e-02,2.001605946168942725e-03,1.109982977820713791e-02
1.016377048213952181e-02,1.942473965008630413e-02,1.582945192982533264e-02,1.289145892346824085e-02,8.046416173638301248e-04,7.242079048652133762e-03,2.153694233474390540e-01,8.196855264664577867e-03,2.119601514217553558e-03,2.207531072103255734e-02
1.289011147396390208e-02,7.342099162097710623e-03,1.925172161885901553e-02,8.569030041007552221e-04,2.971189155216238248e-03,6.543700366244107475e-03,1.923402034967413021e-01,3.786441414036806775e-04,7.983619030911125181e-03,4.722665089585197096e-02
9.648792120361541699e-03,9.487615618473001569e-03,1.586572019867712666e-02,3.611179180623884290e-03,5.950071698641654430e-03,1.857859759490945381e-02,1.815230245577118262e-01,1.343377490289987194e-03,1.363116899493417404e-02,6.466445866681672094e-02
3.402580151995813172e-03,2.389602117967613848e-02,7.903009298091408230e-03,1.498187843338830844e-03,1.009614804405303302e-02,2.514315533314917181e-02,1.616604286642908395e-01,1.237780768028903799e-02,1.520349038914008653e-02,8.708434981780006912e-02
3.188975787592861297e-03,2.532801108254886108e-02,1.888027876457840570e-03,2.093297475420185030e-03,1.396229256116619452e-02,2.650263126110816506e-02,1.125471830031751636e-01,3.130604318663899460e-02,1.197650366991946311e-02,1.077374117638002504e-01
8.359666421758565544e-03,1.174143373551762154e-02,1.925362587615005606e-03,5.450811112866696742e-03,1.562717000833527270e-02,2.380575301806070812e-02,5.008566072798604357e-02,5.339200198208584464e-02,6.521472475710499150e-03,1.005323254410979139e-01
1.322918419691585488e-02,9.848586957510469669e-03,4.311702034683654108e-03,1.060011542191347488e-02,1.444180437476612344e-02,1.818088178358302082e-02,5.387467697269363726e-04,7.246817132933457140e-02,1.218924081267518675e-03,6.022374426125561009e-02
2.101478957544210616e-02,3.394092376863597910e-02,3.533584251232594394e-03,1.941730973647863220e-02,1.121356819938975138e-02,1.198085391884479850e-02,3.454108064789100652e-02,8.749283722328647650e-02,2.672954204659524959e-03,1.740139611262624814e-02
3.004979419320872452e-02,5.681946298507550147e-02,1.299908832095577563e-04,3.104187574658637608e-02,7.516417339370544751e-03,8.821850282915230310e-03,5.967714180658131168e-02,1.019181193146088404e-01,4.826011716599400321e-03,2.005525766537012006e-03
3.165613317128591897e-02,6.957938699572073504e-02,1.421540660308859890e-03,3.873908740784903770e-02,4.460489433310025655e-03,9.849178493998344067e-03,7.616343012098589216e-02,1.106520711814697050e-01,6.164345082355266597e-03,1.258674518262783114e-02
1.950840886524959905e-02,6.440531218073770880e-02,7.173509167366252590e-04,3.196380249502752541e-02,1.497221023765827816e-03,1.111252745557244313e-02,7.775150308600016491e-02,9.661966983225783734e-02,7.443776347912271080e-03,3.026972896220630690e-02
2.835789941398946662e-03,4.581792115052997494e-02,4.148778632322194272e-03,9.660535450264235227e-03,2.828442970325835762e-03,8.110232450723415393e-03,6.825742627253029993e-02,5.055929010302361720e-02,8.027344966139783253e-03,4.281025512319782539e-02
2.638113607868147747e-02,2.516054361680540585e-02,4.673229523550394976e-03,1.343147292066563733e-02,8.677276771610840586e-03,1.876163826792952164e-03,6.112234418117138551e-02,1.094819618802991834e-02,7.464219410922004992e-03,4.577748452461227052e-02
4.354428465014868743e-02,6.779900529712728705e-03,3.651433104983449821e-04,2.368081642286883753e-02,1.426571082230715902e-02,2.265454858642472740e-03,5.877316592227990050e-02,5.651361144493739080e-02,6.162773634878666862e-03,3.693591222645772193e-02
4.981313545645064261e-02,1.222761915135436167e-02,8.831218095646764868e-03,2.483278272559736113e-02,1.717461955035399709e-02,3.445236659391135402e-04,4.891726694874461157e-02,6.776883709607350870e-02,3.822990675858423115e-03,1.947964586183633523e-02
4.544110879871782888e-02,3.197606297998654978e-02,1.486622360545762113e-02,2.789933383110217158e-02,1.590587900024106535e-02,7.243041282574070455e-03,2.748009130116229118e-02,5.256800264442392651e-02,2.255896535442917074e-04,2.186575659516825764e-03
3.711664284991730844e-02,4.703628734361259278e-02,1.541078462630789472e-02,3.402134680733489430e-02,1.138391879930278176e-02,1.592908215681064499e-02,8.569778638508683544e-03,3.336649257233180454e-02,2.563049924511893226e-03,7.394202337052676460e-03
3.336171253032617356e-02,5.241388626665829942e-02,1.384984667022762239e-02,3.653159379423914083e-02,7.070013691080564294e-03,1.998264150887005264e-02,5.873513301567651404e-03,2.591329579233997427e-02,1.800445559040895083e-03,5.854147132296761737e-03
3.723207737205688067e-02,4.807446567444517010e-02,1.490527888543155891e-02,3.200309353173667881e-02,5.702596967620568620e-03,1.756713035954652127e-02,1.908682904249305382e-02,2.948281337616681652e-02,2.567564224527326029e-03,5.728216078359809477e-03
4.469782564603417413e-02,3.912687522380823429e-02,1.797393868085396529e-02,2.273063893485214454e-02,6.313846876135252584e-03,1.197809153083212452e-02,4.065695257816921010e-02,3.649442950010020614e-02,7.422693505209063125e-03,2.036450299957422855e-02
4.858740893885851037e-02,3.237142514267477705e-02,1.886248399985263405e-02,1.307954567201382971e-02,6.274751562531593642e-03,7.139738158380269477e-03,6.129891163380777469e-02,4.534267108058281232e-02,8.352221630375040312e-03,3.034616561482536556e-02
4.384956338091172690e-02,2.901817633669230914e-02,1.691478300165922058e-02,5.592516190992321418e-03,4.673636419131074575e-03,4.506431463300486495e-03,7.093447659824209106e-02,5.670144802800978351e-02,3.076030067300752208e-03,3.429767329943930743e-02
3.173767579538257222e-02,2.209404757670067193e-02,1.570432004957641320e-02,6.809172766880330126e-04,1.821139966780150124e-03,4.245982517498934905e-03,6.962284642622648678e-02,6.287107696336742546e-02,5.360016704725834545e-03,3.241985309595827452e-02
1.972182784245436055e-02,6.123230827636186487e-03,1.630805410920844675e-02,6.140116385539168449e-03,2.258999941752825279e-03,5.477566122158543382e-03,7.382483895040074795e-02,5.369592421443086100e-02,1.117275594134017197e-02,2.048804389968723882e-02
1.592358086798900327e-02,1.340014678808763675e-02,1.484920216268969563e-02,6.484794515961011217e-03,6.819105945289338777e-03,5.360136304086189976e-03,9.655960386174004817e-02,3.384900083986009528e-02,1.248403321867458740e-02,2.195837991503080122e-03
2.210872730736866687e-02,2.567028842609027708e-02,7.861301900508016471e-03,2.045869552091356212e-03,9.741140244728722225e-03,1.596911273067566509e-03,1.245568869754387908e-01,2.303805328899355062e-02,1.194182211837996506e-02,2.669895479780835107e-02
3.084979536394605662e-02,2.639565938770544948e-02,3.510354549766966578e-03,1.506713586870257575e-02,9.680858835991344377e-03,4.557327216646641505e-03,1.293599315809536021e-01,3.271938711405009137e-02,1.112971173489567950e-02,4.414563208442767728e-02
3.190369355760224596e-02,1.886597786316857386e-02,1.464321708160078866e-02,2.306040868370590538e-02,8.014711714877206794e-03,9.915897993445828978e-03,1.011910798611301565e-01,5.116294236036628140e-02,8.913927255397137775e-03,5.245544513730025782e-02
2.475229677815657045e-02,6.609899948026369890e-03,2.060416771187418075e-02,2.061148699152802119e-02,7.424245835589591766e-03,1.208191680049516652e-02,6.048453660337953230e-02,6.217015365364949447e-02,5.007076893992952644e-03,5.103407117630440193e-02
2.055824880800182636e-02,8.478516783370268137e-03,1.955622532942911246e-02,9.762768289620941606e-03,8.388206605186843828e-03,1.021096616557179947e-02,3.262145993635558183e-02,6.942121542550797053e-02,1.041341465478547949e-03,4.152777894810600473e-02
2.673313874192905990e-02,2.138468667356744138e-02,1.379624719154221371e-02,3.787293079289534743e-03,8.170371786850132850e-03,6.491897739864300847e-03,2.140772180426538801e-02,8.648956115136201273e-02,1.758954179519892080e-03,3.226040296536072244e-02
3.555418273483405833e-02,2.493496810644384859e-02,6.208465695282199687e-03,1.605963278780360784e-02,4.830196178403749381e-03,5.168291201671729868e-03,1.603906397089566171e-02,1.102038943845916469e-01,3.026935118890607124e-03,2.777865199444503469e-02
3.425367201877277390e-02,1.911171741487758743e-02,2.304475988165481139e-03,2.701467808947398408e-02,9.481797235540553783e-04,6.088495405820829390e-03,1.508689020244102438e-02,1.205109544083810130e-01,2.237115174615902057e-03,1.940045385214936996e-02
2.125320714894269464e-02,1.362810796853830032e-02,9.971752794347867391e-03,3.739871519830544055e-02,7.741320812461630844e-06,3.714545682807963468e-03,2.845927496605926005e-02,1.042333985623219578e-01,1.163671379558909929e-04,7.499150745504221290e-04
6.531807975552193432e-03,1.575839329241461931e-02,1.214741017118217692e-02,4.452687007307506301e-02,2.144721662638723013e-04,2.853471575302101316e-03,6.051357945918894171e-02,6.845197126693694512e-02,3.209877718749870579e-04,2.452477697205393894e-02
1.485802824462575077e-03,1.891694201464049624e-02,5.230837983364457038e-03,4.365255355294193201e-02,2.936950077939966351e-03,5.599944776832331030e-03,1.055575646390596589e-01,3.052774665241972385e-02,2.467835671781866500e-03,3.648692043604058466e-02
4.084077951901590731e-03,9.453280092499828646e-03,8.834974407574174710e-03,3.279681961690249919e-02,9.060257787314597577e-03,8.948528317574906991e-04,1.526130650371600173e-01,1.853962558906925746e-03,5.385564513850644129e-03,2.912456153660570451e-02
6.261329248815491154e-03,1.519150010111531938e-02,2.360702553692439060e-02,1.426956872662901894e-02,1.274403014520643015e-02,1.040893352076108572e-02,1.809342928179598076e-01,1.506289007917008607e-02,4.853280466084551777e-03,5.835049450562720952e-03
7.420868790518796859e-03,4.177125204131352382e-02,3.352425298317424085e-02,6.925845025287554087e-03,1.097536197018633870e-02,1.356393170238982121e-02,1.651440036874259887e-01,1.960624828769191169e-02,2.011577297063736960e-03,2.084487440121574053e-02
3.866504971036325775e-03,5.801639957378827012e-02,3.774768299651827530e-02,2.440414606222854332e-02,6.001336449609915615e-03,9.571956262331289891e-03,1.033040030918982721e-01,1.267673768599185402e-02,2.741101386587078232e-04,3.469025536596601761e-02
1.531753985696209831e-03,6.551515565652131501e-02,3.813130587881392169e-02,3.237910568175508819e-02,9.866764463331706425e-04,3.833702980135335770e-03,2.781021016731657566e-02,1.441955776695613180e-03,3.384345280207076484e-04,2.969761652264065604e-02
3.174845045348839625e-04,6.907594741231634639e-02,3.468734234597493221e-02,2.893865589441622227e-02,3.454839068595456052e-03,1.455074364582314636e-03,2.524558332464924351e-02,4.526258779311247496e-03,9.001109593515194216e-04,1.580547152728138671e-02
1.024194073959178337e-02,6.408943874007666519e-02,2.591692684342453493e-02,1.708745504322009556e-02,7.844874750224939408e-03,7.945176678712299878e-03,4.626226763791262131e-02,1.014245673397452807e-03,1.717141175199340866e-03,4.895392638008573202e-03
2.426320935506887794e-02,4.497503626945636296e-02,1.299226638334144944e-02,1.944243870861134954e-03,1.126938990688127092e-02,1.426018565799084051e-02,4.790151073161663664e-02,1.158264692161694621e-02,3.069728476805540663e-03,2.178980634958832541e-04
3.525634375760197670e-02,1.773379112666263399e-02,1.613491230625826696e-04,1.245972087527732509e-02,1.200944506617288195e-02,1.512469059991528031e-02,4.744874528564530652e-02,2.925980939785790061e-02,3.839688253792422363e-03,2.054931138277107071e-03
3.894689244396717237e-02,5.374807011513986488e-03,1.110169748253027507e-02,2.393141300806918975e-02,1.043224631247838957e-02,9.181965084383519535e-03,5.595656291555099054e-02,3.866015775308405400e-02,2.356148540331163676e-03,1.606830324254045900e-02
3.122801666309974952e-02,1.847927548541362930e-02,1.948528094696383786e-02,3.155734159283879459e-02,9.057945128764743198e-03,1.808343554158528326e-03,7.012710664089871759e-02,2.437248393825573733e-02,1.161281139659038142e-03,3.600848736414984097e-02
1.402931618978874029e-02,2.380958392357965248e-02,2.304148991972967964e-02,3.564028307359483339e-02,9.082322697645060089e-03,3.186782266589604975e-03,7.386403042560120424e-02,7.340784968096231156e-03,4.481168236902719447e-03,4.324820593127649132e-02
3.645713509231845572e-05,2.541206793962689364e-02,1.807047899550858622e-02,3.814300285859891643e-02,8.977192486625255874e-03,8.193402746717424676e-03,5.627545959184983987e-02,2.790589301336391173e-02,6.136171889775340373e-03,2.734339988354362108e-02
9.643162526405818502e-04,2.634787581832743336e-02,6.791285456335270990e-03,4.171637318645309706e-02,7.206052165682555466e-03,1.501484146911192911e-02,2.512861529674231126e-02,2.043155861556764097e-02,6.751821913076203052e-03,5.178545267274287014e-04
1.336469869232853255e-02,2.925111700185802424e-02,1.407116099916534387e-03,4.543798955521098637e-02,4.482295774330127651e-03,2.149957350887652871e-02,6.766343504031316000e-04,2.760192575775268463e-03,6.753615909655065822e-03,1.506515583425798409e-02
2.365497070883200784e-02,3.441169619429523818e-02,1.114013096364849763e-03,4.213807167785388330e-02,2.807310860453729896e-03,2.704723366491097389e-02,7.254034711053473396e-03,2.410669892652170243e-02,5.258540412866382491e-03,8.255076375201796796e-03
2.490696573759674723e-02,3.817739535594399242e-02,1.781593437695386164e-03,2.573092281147484547e-02,3.255319200089026518e-03,3.287480863819943616e-02,4.412833224114024767e-03,4.092344766967523362e-02,2.853183762300035183e-03,1.437989760380848150e-02
2.240393182713200371e-02,3.589837384439290013e-02,1.022704883719533029e-03,1.975395729526427564e-03,4.681015437186238776e-03,3.681895602204320050e-02,2.028713167158328196e-02,5.267087006485084155e-02,2.562958301106641086e-03,3.688382492099626098e-02
2.301940656694564935e-02,2.446001746368723154e-02,9.398072119416516976e-03,1.537068932659350039e-02,4.184568888903221484e-03,3.622977994824265469e-02,2.570060782511160435e-02,5.040402570735512400e-02,5.897481356909753912e-03,4.714852499307152500e-02
2.531030768857599894e-02,2.932875427099407642e-03,1.725773575509119417e-02,1.972307090651325215e-02,3.310646566693841797e-04,3.423157206783435103e-02,1.560551141399676121e-02,3.272444367344840704e-02,1.014332870939439052e-02,4.386529204271843313e-02
2.413718325546309815e-02,2.302736155214138783e-02,1.995773201060521349e-02,1.429871178281345162e-02,7.325590797440515410e-03,3.546781053143698709e-02,6.835756778820433616e-03,1.633003747466742553e-02,1.120300234600668347e-02,3.168836957142723287e-02
2.051626150570785845e-02,3.967575451402483716e-02,1.506434230612281253e-02,1.470524791256189005e-03,1.222505458476280844e-02,3.765597325874751183e-02,3.540168728726228453e-02,1.795735596362743949e-02,7.670922700754356609e-03,1.278181563763182600e-02
1.961031313613626967e-02,3.699788030129986388e-02,2.074324848644823905e-03,1.642218375300245892e-02,1.170337175112874661e-02,3.370221145159921217e-02,6.210749960811904474e-02,3.644028826661674381e-02,1.618890917950622631e-03,1.291051157680338235e-02
2.149216809848649573e-02,2.014455262986553086e-02,1.355084545448716205e-02,2.603109665886634352e-02,6.923166119710688973e-03,2.115984677568585187e-02,7.718985112478370103e-02,6.043522930523909792e-02,3.274071791039133861e-03,4.096427029497292510e-02
2.211320055996997963e-02,1.544283872916990021e-03,2.127919666377427188e-02,1.097991076250200322e-02,2.232627894623907990e-03,5.327469857145418486e-03,6.952182262234674059e-02,8.407533188556806647e-02,4.541701847499917885e-03,6.286663428842248491e-02
2.174405949863236764e-02,1.393749212665127725e-02,1.580569878396584360e-02,2.481344507569227531e-02,9.575813197765460551e-04,6.484589335965979667e-03,2.985130875395474587e-02,1.079738669144540558e-01,3.274457569385821193e-03,7.572341585118487484e-02
2.462130070984022354e-02,2.795842453824046517e-02,3.363449005183505227e-03,5.716535973639334106e-02,2.755771257257774720e-03,1.112582941704980122e-02,3.868198697153837906e-02,1.306062818266950365e-01,3.116490293862648163e-03,8.629755126256881403e-02
3.190917766104474362e-02,3.896497268802914804e-02,5.490131995018485665e-03,6.836116593103166994e-02,5.189717785182296726e-03,1.082989975239554911e-02,1.127522000401858515e-01,1.453648790128226065e-01,5.853324207679673832e-03,1.001140071841156581e-01
4.080263751765234731e-02,4.371654849693436956e-02,6.027391911759563681e-03,6.122288747559437999e-02,6.792630133371673103e-03,1.049516975540950789e-02,1.620742365890231185e-01,1.463322074353264612e-01,9.324094033131502535e-03,1.094880288803510154e-01
4.721567026885184482e-02,4.448018619113146971e-02,1.583567580622181545e-04,4.662254311968560411e-02,7.187265861410070851e-03,1.333701860294101912e-02,1.743357371477384787e-01,1.329634248003693509e-01,1.081297885951695847e-02,9.978630819094568005e-02
4.589911642161752237e-02,4.607692803868512071e-02,8.666947555223684235e-03,3.027561146868726349e-02,5.709030037002717217e-03,1.781490835688669810e-02,1.597058077532653997e-01,1.070823568304060391e-01,1.047605300746924130e-02,6.916014474769549558e-02
3.392641886210911312e-02,4.901154260538603813e-02,1.784628990986291547e-02,1.375589349242073260e-02,2.437420823276063245e-03,1.958519174260847304e-02,1.316079044401189946e-01,7.052565710647981656e-02,9.964639995477283033e-03,3.406125194710582504e-02
1.672004971935700524e-02,5.030316838002522190e-02,2.453174808240088378e-02,1.300302353370161833e-03,7.711789890217937921e-04,1.739841250710694523e-02,9.463031550207685882e-02,3.099822002359931689e-02,9.813730400233731249e-03,9.049977084780669312e-03
4.654615596189034740e-03,4.642951729970169056e-02,2.519128484230375234e-02,1.410242951474373514e-02,2.594530299515334249e-03,1.512207077628754080e-02,5.202506614536615837e-02,4.393612849725496428e-03,9.808828738878021605e-03,8.975860920909553911e-03
2.700324283039871529e-03,3.445813240938606220e-02,1.853346706007530029e-02,2.542120257265061828e-02,3.857499257441956118e-03,1.615191989759942257e-02,1.283530968188793808e-02,1.408682349017521124e-03,9.998039653702633922e-03,2.585437232363777676e-02
7.066115339820472525e-03,1.652376175302310360e-02,9.176211039241828626e-03,3.421003324710360227e-02,5.181645170194947893e-03,1.842238391285691904e-02,1.372450466994146884e-02,1.287748982390794251e-02,9.849060166840733696e-03,3.337390230362682203e-02
9.641554398046293939e-03,1.098996097959361630e-03,5.006140652406625320e-03,3.632772541314076981e-02,5.473126833969312044e-03,1.806029118091003957e-02,2.573831818290722717e-02,1.729221711961277663e-02,8.152494142756263121e-03,2.390381079138512513e-02
3.887819603175136831e-03,6.462426819962316209e-03,8.700475304780968741e-03,3.006734531533401811e-02,4.266331616550381872e-03,1.550641640916245595e-02,2.738154696687331024e-02,4.755651975892388229e-03,4.947254964256401176e-03,7.916054686546389677e-03
9.360325101098266112e-03,1.012126038128061817e-02,1.516202272493797146e-02,2.049237231046651883e-02,3.096154488490962357e-03,1.409003288525303120e-02,2.380318228719430912e-02,1.433669679088308592e-02,1.936855462672146602e-03,7.105590103819482695e-04
2.211368036974317372e-02,1.468274091279821517e-02,1.880110256129452137e-02,1.474060931571301129e-02,3.164874028657877533e-03,1.473960180053397392e-02,1.995014226080248781e-02,2.867885166297735877e-02,4.682497059201491674e-04,3.526016109429026477e-03
2.887533789596930314e-02,1.716714378202016666e-02,1.879928126329236115e-02,1.505893081960021397e-02,3.661231347150035315e-03,1.613693852167581710e-02,1.870130534843477549e-02,4.437522009448557209e-02,6.950046018765069014e-04,5.906167167314985145e-03
3.248326715589919950e-02,1.225809250566219435e-02,1.578123778024366833e-02,1.802808488122476308e-02,3.228709696599801893e-03,1.765530188782846177e-02,1.438747221299052463e-02,7.175869138305063233e-02,2.289846448912448776e-03,1.219664027716146296e-03
3.746939659061362948e-02,2.662638503697465839e-03,8.782126665530390688e-03,1.763021931428208205e-02,1.443485297869199352e-03,1.820247209568468319e-02,3.152480272493088029e-03,1.013598457958992949e-01,4.089207200946843451e-03,1.639423191424378354e-02
4.366393920871922130e-02,1.328665457881347128e-03,1.265799316509779067e-03,9.390282784945547592e-03,1.096313014727673743e-03,1.539147915804432547e-02,2.985035176579388383e-02,1.126372115735545798e-01,4.070047331910917401e-03,3.510523143697808629e-02
4.902226026589864838e-02,6.935675059047727298e-03,8.830000893211288962e-03,4.473084028483372346e-03,2.621618556874419446e-03,9.984625834140231290e-03,4.476395294825289556e-02,1.044622206501396450e-01,1.666822984893978100e-03,3.838549518078484407e-02
5.296975125468712103e-02,2.331089401253756688e-02,9.050111148799243332e-03,1.519984830245417300e-02,1.407713704454421552e-03,7.306049913064599846e-03,3.490394560481496766e-02,9.486037951527767631e-02,1.069352537419164268e-03,2.855687321826236996e-02
5.501602363877960977e-02,3.924782912717194455e-02,4.260077301556301765e-03,1.604313209576770788e-02,1.177008487814648922e-03,9.816563613512314240e-03,9.840971251730733921e-03,9.017953423095020904e-02,2.288094635035510353e-03,2.246614304921687455e-02
5.391496914998630818e-02,5.163329734374005192e-02,5.937291049108368336e-04,8.115509906292563483e-03,1.163050463247708964e-03,1.182979142583583283e-02,1.319748640171336702e-02,7.781754014243465190e-02,2.854506084804996503e-03,2.573451125912923354e-02
4.892780368635990529e-02,6.229306477603816644e-02,4.123409083127869360e-04,3.502563977106142295e-03,2.556534316335209393e-03,5.987263264337292987e-03,2.570443642947683321e-02,5.178441225447297930e-02,4.418021292503094069e-03,2.504978074572073929e-02
4.021061151579705117e-02,7.094347800802969228e-02,8.332666423598196741e-04,1.371882111606093774e-02,6.033633177033649077e-03,6.904034005893495626e-03,2.901708289751935010e-02,2.288565902167027238e-02,6.523925097463990734e-03,9.464847986051573916e-03
2.838147766630996077e-02,7.334695879396566087e-02,2.840403507432481909e-04,1.644839382332006703e-02,5.458933999124941649e-03,1.772758965405727902e-02,3.018711198827047151e-02,3.569981344327356407e-04,7.401192194684068359e-03,1.169366149997016699e-02
1.415644101556725806e-02,6.591188548774447320e-02,4.567963820054971383e-03,7.204843513881250758e-03,1.795394223110078876e-03,1.872159428034876616e-02,3.457944378158027410e-02,2.138359901511789271e-02,6.402453893274678842e-03,1.986302574119990991e-02
1.930239274070272813e-03,5.004274326145686375e-02,8.478332609253737620e-03,1.125677355840561979e-02,1.455059595754285614e-03,1.150422280248901766e-02,3.695096254414957648e-02,4.191236311911242240e-02,4.169221702156031099e-03,9.435347098127164558e-03
1.839336454306810670e-02,3.171205221575665312e-02,8.006141439402989293e-03,3.105534570182370141e-02,2.393081033054634144e-03,3.952557974522360150e-03,2.588931788547626373e-02,5.355237148284071325e-02,1.326911792434434540e-03,9.985349382960983372e-03
3.123691745927718519e-02,1.686730223179388685e-02,5.740857597546176853e-03,4.642722873888097124e-02,1.106701668786648322e-03,3.220023552170680516e-04,2.029622340057567198e-04,4.758472801113806938e-02,1.710771187825931060e-03,2.904623803265014848e-02
3.580364017149324785e-02,7.278104373763249167e-03,5.933507428171919118e-03,5.470475891613381381e-02,1.352577851373612224e-03,1.619173312677670874e-03,2.628326370502483827e-02,2.516175953613546817e-02,4.337150238108189969e-03,4.534190256841452021e-02
3.071296166804807909e-02,7.419771955014500993e-04,6.130107338114778454e-03,5.345189987550481164e-02,2.927350372616803736e-03,3.561298243882818956e-03,3.917511459251775408e-02,4.296810860160115743e-03,6.356759843611041287e-03,5.606207157252948020e-02
1.891613210889026356e-02,5.846238046269305356e-03,1.004481075001198822e-03,4.262912204806652838e-02,1.952582019347396530e-03,2.777255569432755464e-03,3.824860178245412246e-02,3.133831737911681875e-02,8.371735066259638341e-03,5.598286688700172126e-02
6.576330664652503197e-03,1.419595564663457890e-02,7.507313282470375049e-03,2.804950798999005998e-02,5.738857771235273113e-04,2.156854698383275839e-03,3.592135160350874712e-02,5.180120630791295450e-02,1.036167263968840874e-02,4.567575326557674759e-02
1.385423903039350538e-03,2.345114559525233316e-02,1.093328041900538256e-02,1.758957277016101953e-02,2.308851111709214581e-03,7.321507771713671800e-03,4.311932157426802414e-02,6.488428030201781604e-02,1.102289949287977786e-02,3.389533570144093871e-02
6.891616314874294755e-03,3.017642197045935712e-02,5.250369011623394477e-03,1.363169152374669145e-02,2.725699901949604678e-03,8.617034279561251731e-03,5.835671491629849245e-02,6.941024022673053517e-02,1.000688429310555780e-02,2.909888931616813265e-02
1.676623540425182038e-02,3.135870194108575371e-02,4.592876567735461150e-03,1.223611002641920853e-02,2.565321783927277874e-03,6.694742921761471025e-03,6.988989197931348707e-02,6.518833468504717232e-02,8.569179646761052385e-03,3.156217724876676095e-02
2.101732984331155032e-02,2.821773665935113987e-02,1.146589458571385493e-02,1.000728306355535072e-02,1.617860294761849522e-03,4.019055362012201142e-03,6.533321449857730501e-02,5.538511499709419805e-02,6.039546240035736750e-03,3.289231036894937205e-02
1.949496413862574634e-02,2.536144422098216694e-02,1.188768781025881585e-02,8.514821574806527571e-03,1.229010802831095005e-04,6.883230840340515437e-04,4.048951224998903475e-02,4.313627706468718681e-02,3.938722780750019076e-04,2.330297668378807432e-02
2.155966415005181047e-02,2.565776512037899054e-02,5.576426533441532912e-03,1.055883876655396014e-02,8.046572513354974081e-04,4.491769234069773603e-03,5.984915037298981985e-03,2.703905930300134694e-02,9.681689426195313683e-03,4.734273798435144169e-03
3.031532723980053662e-02,2.668595339602158889e-02,3.877738240302760261e-03,1.547067048368906857e-02,9.827896754655194266e-04,1.111706699899370210e-02,1.622900799419341525e-02,4.578850764074876914e-03,1.613350891008284022e-02,5.670085611145238638e-03
3.572888203745822749e-02,2.253651801619471762e-02,7.850706898458027425e-03,2.061650352820908194e-02,3.435281700715503515e-03,1.666994439276144740e-02,1.322308235051219104e-02,1.911700048734213397e-02,1.752481001106669795e-02,4.106340411832836920e-03
2.781763673367780229e-02,1.008202696205140123e-02,2.682328066723883679e-04,2.458790815758036055e-02,3.117657266165837441e-03,1.780772791330481955e-02,3.835247005366500175e-03,3.087539443632653091e-02,1.761820104016751515e-02,2.112112261724049742e-02
1.032063825520952542e-02,6.000445697439515079e-03,1.617318861664231514e-02,2.633744575341383579e-02,1.011803560207947443e-03,1.271449660383271001e-02,1.444245798166679876e-02,2.295262189396419725e-02,1.841581676013397811e-02,2.395765455121693505e-02
3.700764636700430276e-03,1.628962503118602453e-02,2.912025694635573744e-02,2.378866294002567050e-02,6.029151386950347587e-03,3.540437412539464406e-03,1.186962748070581261e-02,5.374034936512687467e-03,1.695346191196399344e-02,1.416777909510156565e-02
5.700219986867425745e-03,1.552025496606167058e-02,3.420057082033729073e-02,1.577765203989485790e-02,7.722983385432463828e-03,4.210366083472884095e-03,3.548901919860156934e-04,1.574211375207570582e-03,1.163706715252754188e-02,1.058113083382183385e-02
2.510049242814474564e-03,6.676548218262330983e-03,3.395831262041690279e-02,4.187314900525980314e-03,4.812605236957348889e-03,5.812794613294292555e-03,1.916669051814468352e-02,1.043060033930966364e-02,5.127893074456262891e-03,1.630764898736921514e-02
1.222845762864305068e-02,3.155384998680532595e-03,3.093289365413681366e-02,6.872083237419931989e-03,1.396396647254560439e-04,1.407053229993208846e-03,4.327996505999417293e-02,2.706679523730956202e-02,4.986762671027633901e-04,1.506071362343754973e-02
1.381221004963253431e-02,8.353002595982072717e-03,2.558991327791652545e-02,1.377103096958391670e-02,2.427899261873580402e-03,3.438170459457154122e-03,5.593666137124136267e-02,2.698188230795217982e-02,5.516970680751941310e-03,4.363375317821573379e-04
4.319978691757851881e-03,8.020066991250825519e-03,1.875779530952076737e-02,1.593199853444892192e-02,1.728956780140184901e-03,2.835621779644695133e-03,4.527961819312733421e-02,7.945907144237564917e-03,8.681256387871301092e-03,1.934788567870164566e-02
7.474439143306414735e-03,6.802924169852377079e-03,1.060723537755851875e-02,1.636171449148323548e-02,4.215446422415054621e-04,2.447607266058156490e-03,2.566121517012382586e-02,7.302743548655312583e-03,7.415455547067433505e-03,3.374746787573165707e-02
9.830872847317987523e-03,9.652912769574395133e-03,4.124431282529546650e-04,1.899879123815587795e-02,2.063105569956863797e-03,6.447390448206703414e-03,2.174691907966685642e-02,2.639209783879770989e-03,2.329399515637757545e-03,4.715629092041076498e-02
4.077788699047407359e-03,1.394213622153532735e-02,9.235973250739274582e-03,2.489785358578860963e-02,2.747294799713546204e-03,7.059375772949613714e-03,3.304288012790355250e-02,2.969234780416172420e-02,3.595957066529224290e-03,5.808542102424718578e-02
2.756223526277824624e-03,1.209010015383611344e-02,1.287436795698580078e-02,3.142478585206341657e-02,2.379250832662817890e-03,7.648046785550004743e-03,3.583560765503679413e-02,4.785192442966712534e-02,9.399712522654282004e-03,5.591596357347055485e-02
9.932360996009133997e-03,3.548364448711561862e-03,1.014374358102896646e-02,3.599490473932842605e-02,8.278136096629108102e-04,9.522534812612800867e-03,2.033947656781687902e-02,5.011272263768587476e-02,1.484945571802591749e-02,4.110824632122105776e-02
1.632223039962162753e-02,2.751953395796636476e-03,7.781094345312470142e-03,3.968314037991458459e-02,6.395938345774752030e-04,1.041182423895126510e-02,3.716587983314563384e-03,5.215682972619577890e-02,1.695294873348776946e-02,3.177777700217555151e-02
1.666394532277609697e-02,7.594037876424439629e-05,1.000840883385170459e-02,4.458364381572098301e-02,3.170423040720301059e-04,1.032642729163005257e-02,2.146811069256867807e-03,5.939201473147200094e-02,1.281158355118178736e-02,3.970248141928062191e-02
1.692132278660802430e-02,9.283372314061106786e-03,1.252802255445197195e-02,4.834881353186243347e-02,1.027672266530036196e-03,1.170885948592250217e-02,9.047412420070299194e-03,5.850359384725851986e-02,4.602371884440854821e-03,5.348361524328519578e-02
2.077391418681072063e-02,1.823333328589941266e-02,1.039766332720189895e-02,4.591658737677466878e-02,1.231004549539565281e-03,1.431135734032351961e-02,8.283519906843230321e-03,4.447144437063667993e-02,1.982846075816935109e-03,5.652138606475100302e-02
2.383874370894681002e-02,2.389847553625823462e-02,6.796593192036556874e-03,3.700319708832652127e-02,6.510169205969655506e-04,1.616671372552270711e-02,3.759061690983844968e-03,2.605966532129973950e-02,4.057714213023901929e-03,4.990746493221204227e-02
2.473897259482686975e-02,2.599213182343107151e-02,8.463025743250357849e-03,2.700822597767864319e-02,1.616820912910334933e-03,1.874985702835428245e-02,1.697147672088812620e-02,3.486534897412529171e-03,4.297598505158894445e-03,4.381442849292753461e-02
2.797348018901722744e-02,2.377571028837975955e-02,1.585053489205673349e-02,2.000798450729439348e-02,4.112069370764035239e-03,2.500779890245244039e-02,2.137046215449239089e-02,2.790122914208126303e-02,6.753732633659073267e-03,3.579158585536517528e-02
3.233555722339688521e-02,1.845696833026354983e-02,2.376242317496067916e-02,1.611858442238657194e-02,5.281463244235325670e-03,3.216116114314087476e-02,1.472165171536257006e-02,5.318177722347391945e-02,1.111974926648848054e-02,1.683240038078780143e-02
2.913020608538333112e-02,1.551779433777803613e-02,2.977691921061008037e-02,1.650269877877273694e-02,3.546494544922282072e-03,3.249101288222551454e-02,1.077469584818619916e-03,4.972719485250771260e-02,1.317492455749606946e-02,4.607162890004250569e-03
1.609737750917283189e-02,1.920319888998487171e-02,3.518921332736490992e-02,2.371200160008752819e-02,7.041800270823565366e-04,2.291570767031116118e-02,2.297049388632085506e-02,2.347880645872027494e-02,1.079745366852696842e-02,7.403406682831113229e-03
3.320011516549706103e-03,2.652418358927100331e-02,3.719511399081570913e-02,3.291540594031498040e-02,7.593044307993015388e-04,8.892603674384873258e-03,4.341273515123575399e-02,5.862000512891800234e-03,6.633049843318778761e-03,9.415650773329412027e-03
1.419815955861079143e-03,3.093525590793665472e-02,2.803516925222280382e-02,3.054013745719597051e-02,6.427435626913940037e-04,2.752760055387476219e-03,5.129981610816587018e-02,1.485568209025625065e-02,3.804974811425646322e-03,1.964156227477827782e-02
1.000398901979452325e-02,2.882735979088471914e-02,6.436571950538623813e-03,1.016691945919130993e-02,3.372432528479781606e-04,9.991218638516973297e-03,4.291044028173140318e-02,3.912434520952855904e-02,2.078118173628422296e-03,3.968482962610693152e-03
1.999324777302879594e-02,1.828949202860498044e-02,1.633146418653503087e-02,1.582100865813080431e-02,5.231957247541929200e-04,1.304400371694539561e-02,2.805180158847139435e-02,5.766918819157487719e-02,3.948289754685235103e-06,2.571852424843687132e-02
2.374647334803939649e-02,2.787125534428305535e-03,2.777929564821296146e-02,2.989663566835194797e-02,8.175176272922442169e-04,1.137569811929395498e-02,1.961544386965523301e-02,5.989806635311940158e-02,2.016630955499073685e-03,4.542096967747333985e-02
2.075849336648385654e-02,3.050822917825175493e-02,2.699871606001289642e-02,2.993701012446689860e-02,9.206807441869625970e-04,6.563190580312639084e-03,2.059926744145375993e-02,4.802611278237177428e-02,2.852108394518641180e-03,4.915574707574707491e-02
1.438879881818097735e-02,5.238186119343327812e-02,2.154776254972304989e-02,2.713918474422006080e-02,9.933710182933454085e-04,3.744471621551685205e-03,2.572676359378020874e-02,2.931080949470406954e-02,2.647257428661216848e-03,4.864353007521299288e-02
6.810019351147829185e-03,5.841828083233131796e-02,1.659224688767218722e-02,2.845607439854199242e-02,1.173784017160826127e-03,6.197759477880507469e-03,3.023741007178976092e-02,9.931188815827978605e-03,2.118010671417742616e-03,5.099050118605593512e-02
2.210532931625024382e-04,5.075065978435618075e-02,1.193975497714671978e-02,3.067961581356536474e-02,1.384475763822319008e-03,1.110322315567969197e-02,3.096548802071393339e-02,3.447728972005546962e-03,1.260803063590894280e-03,5.023855139215344795e-02
9.143425807755392685e-04,3.819775783597734869e-02,6.380184044642423988e-03,2.897670100508655325e-02,1.548873388582232020e-03,1.387017682757494576e-02,2.419929384163641006e-02,3.428240144813675307e-03,4.217649032998856107e-04,4.025040338735452056e-02
5.340226335570824601e-03,2.667226929487084841e-02,4.196945353267313725e-04,2.309672050214527442e-02,1.694789561336588037e-03,1.432511124480154857e-02,1.076222322275391732e-02,8.937842499183255157e-03,3.097200439188214482e-03,2.493820761536867311e-02
1.363742131408454857e-02,1.697895685808964439e-02,4.847613666433673620e-03,1.584522080318521986e-02,1.864947946502795890e-03,1.518260484369722378e-02,1.718199909875226493e-04,2.065133897760200454e-02,6.101097511140816075e-03,1.216791149035438384e-02
1.652305466224432071e-02,6.970179180042802673e-03,9.124270679754952276e-03,9.810590587033062027e-03,2.046107717008733770e-03,1.628234815242795772e-02,1.874008929121436396e-03,2.008169231514050912e-02,8.187077842244110462e-03,2.947448736907087516e-03
1.252752974621616083e-02,5.081594001889404473e-03,1.244200880518831279e-02,4.811340592681632826e-03,2.187463648033343734e-03,1.493066767476489316e-02,1.398711112458120992e-02,9.426616931411472763e-03,8.350771931380314775e-03,8.366618391083435746e-03
5.269179367307960660e-03,1.684449045485116037e-02,1.443354079872773664e-02,1.968692655256408346e-03,2.279368446579818196e-03,1.173028862212245962e-02,2.744998025589014470e-02,2.581509522370409142e-04,6.107604443009349675e-03,2.299046596446597049e-02
3.013913746574846224e-03,2.263552478773512427e-02,1.476548253655894823e-02,1.066613653275435593e-02,2.395551724320719392e-03,1.096852357599016267e-02,3.908075661040240345e-02,4.059620209440332160e-03,1.728657974674523579e-03,3.346854749486490727e-02
1.253374032924649793e-02,1.893197820119054547e-02,1.359531775923643153e-02,1.544841857750954388e-02,2.561648466045566858e-03,1.363700721770197237e-02,5.145157309100291398e-02,9.485392030418531017e-03,2.813021171199291473e-03,3.548540057123055619e-02
2.149004667909980640e-02,8.314457048961802418e-03,1.145365681368612325e-02,1.131410650791339449e-02,2.625001417244402727e-03,1.503060105297044161e-02,6.035102215102721573e-02,2.375596165731585357e-02,4.693080186980531400e-03,3.531588577079584901e-02
2.515682659964702320e-02,2.765280810827146912e-03,9.007995627509741629e-03,1.915645003502163728e-03,2.515069567151931740e-03,1.185732709112933755e-02,5.483079804505985866e-02,3.955572423507647956e-02,3.593781090784564213e-03,3.754043027700564028e-02
2.157295823799840195e-02,1.023988027099006701e-02,6.044283387307795331e-03,4.580238041717194300e-03,2.548263124903380871e-03,6.685549937597531564e-03,3.312077853259241811e-02,4.517688475844642421e-02,2.561819395963580402e-03,3.583188233552705299e-02
