3.906895733413148081e-02,2.531511998246645939e-02,1.562797016310992285e-02,8.480974355124515363e-03,1.908363304319928792e-03,9.543765265346733362e-04,4.625322412264186445e-02,2.831214878565758639e-03,3.138316815633997170e-02,1.142438592886656779e-01
5.211706871317424439e-02,1.105904646815361950e-02,1.735029817929933590e-02,1.181205067965680582e-02,2.112457879284422493e-03,8.269637758607774293e-04,3.618192528105759753e-02,2.329478404349622639e-03,2.339442607085485612e-02,1.286525004546149042e-01
2.894309921486557663e-02,6.574926194690933548e-03,8.516567343758532985e-03,1.023960547525548485e-02,1.306986182640296548e-03,1.335887446415632337e-03,4.297169517249632004e-02,1.111270807246151357e-03,1.280042525214337285e-02,1.409152121903968213e-01
9.213492250679643919e-03,8.125102826531158118e-03,1.282501737312063961e-03,3.763877005664376628e-03,1.187104892200756577e-04,1.825782946660689044e-03,6.350888984707651896e-02,3.693021266412155898e-04,5.447471672287347057e-04,1.324419275124559259e-01
5.779401935647027200e-02,6.462213865569258267e-03,7.192464417314370535e-03,4.348775971177813553e-03,7.375764262526996818e-04,2.023095795650163738e-03,5.677762535878250888e-02,1.022025164537100498e-03,1.079726437230953302e-02,8.684454165364734191e-02
1.015048044883744977e-01,4.922380841700274220e-03,1.520741696453055923e-02,1.135960340880690263e-02,2.247777083667501106e-04,1.905135440375554890e-03,8.046628735350809872e-03,4.498761309378608553e-04,1.765745712378431753e-02,3.057950192659180527e-04
9.645394278185009940e-02,2.845034627643460573e-02,2.631901616413778386e-02,1.615517118589905599e-02,3.859015570519311301e-04,1.479968406554527365e-03,1.033911724564684359e-01,8.405561731110622759e-04,1.779383336761198101e-02,1.145627535903248895e-01
1.840454100818732577e-02,5.447058056240411394e-02,3.042010860354444485e-02,1.768699586452573622e-02,5.728382753119214740e-04,1.093945281211757036e-03,1.695977183548720013e-01,2.317612826690256325e-03,1.148938350594859784e-02,2.255515591889988847e-01
8.890110536372571037e-02,5.975322027183128243e-02,2.215204052290797518e-02,1.449859128251415608e-02,7.919377662268168487e-04,9.649157964324363854e-04,1.783342151854461488e-01,3.573024996941884246e-03,1.820036476781525421e-03,2.917394164871751627e-01
1.508171751828420171e-01,2.783306936847459306e-02,1.116421142791323637e-02,6.157311641268527376e-03,1.163730979004619966e-03,6.310154673690738505e-04,1.470876872407054503e-01,3.972833285062435729e-03,6.298871761584525636e-03,2.910333462100788138e-01
1.399548568570874452e-01,2.853627818763036436e-02,8.110986042101815674e-03,6.079739709074745771e-03,1.255142981323127899e-03,1.486649367149519272e-04,1.030560133674924134e-01,3.283339511225601050e-03,1.019445365492657220e-02,2.336259086209852009e-01
9.111052433940017292e-02,7.221773162207772989e-02,6.779218240449226551e-03,2.038387044915406995e-02,9.854449166660024691e-04,7.772328926228338174e-04,5.729151954948051573e-02,2.356946469311570463e-03,1.220311675628482639e-02,1.494938649763752347e-01
4.908440428695662328e-02,7.524764033099716476e-02,8.779702209991675430e-03,3.491700812954029454e-02,6.371358156671903025e-04,9.529068193048629946e-04,1.081776488477987665e-02,2.195936300503891631e-03,1.540736486766837270e-02,7.073238065787280926e-02
3.178977949125239011e-02,4.484649044424168784e-02,3.907789093452410795e-02,4.688083042166008713e-02,3.554337075519928496e-04,1.318649035124255147e-03,3.215548526591386486e-02,2.566998795658665712e-03,1.843145279992242785e-02,1.600516989131936518e-02
4.249918117734971523e-02,7.426561399275354892e-03,6.328021692888681493e-02,5.261658033953530572e-02,2.385468675273798647e-04,2.299203613484520660e-03,6.339924611247876873e-02,2.391918142245226270e-03,1.781146238853063141e-02,2.255601554083153798e-02
8.384126094587027178e-02,2.365928667873238439e-02,6.378440327920743835e-02,5.008074528553019267e-02,2.733444165900301764e-04,3.320553746901191462e-03,8.077360891620748162e-02,1.459134061439603574e-03,1.274548121873094950e-02,6.808561603046632549e-02
1.415223293963340789e-01,4.880559949020760874e-02,4.531079293817753123e-02,4.050918467236076098e-02,4.560225757963306647e-05,3.756853170521685416e-03,9.330897461389306424e-02,8.795944189131474789e-04,3.942804433630033197e-03,1.201532957094653964e-01
1.777516103417824955e-01,6.464765250129102248e-02,2.257568101749352074e-02,2.628743366374439866e-02,1.120745040628840167e-03,3.819254519102932739e-03,1.065134289026644920e-01,1.435909498178455056e-03,9.151411293552668205e-03,1.409545210619067013e-01
1.687498789420082967e-01,6.745699527076499946e-02,7.276173296719589583e-04,8.540565905209813319e-03,2.318257248350173542e-03,4.013710699578824752e-03,1.072928323448412297e-01,2.277239304040286783e-03,2.574087897490774310e-02,1.036196356457845247e-01
1.383850599002177939e-01,6.955107621163671150e-02,2.174765133530441250e-02,1.046455169963985202e-02,2.702279009836709711e-03,4.341589011070606970e-03,8.275555859555286387e-02,1.977636033085087685e-03,3.997357998661232176e-02,4.110765069587282716e-02
1.266759113506179257e-01,9.682460550856979153e-02,3.939468589615508637e-02,2.461256563950472639e-02,2.346198812623422839e-03,4.490410280950866972e-03,5.074389717113415854e-02,3.479618692280114388e-04,4.440910434728750911e-02,1.400536732770808930e-02
1.293105819707616178e-01,1.588004414682165077e-01,4.259773505622439782e-02,2.888315452567648614e-02,1.888664161702596593e-03,4.481888006383554987e-03,4.463119377280819200e-02,1.342045008082857127e-03,3.813366101167699890e-02,3.511635705341527303e-02
1.051751791536583713e-01,2.228159844153542457e-01,3.265639614277927871e-02,2.588643818721927253e-02,1.508664610251892477e-03,4.659143060786751639e-03,6.553095032056048541e-02,1.697119332929177037e-03,2.863335570631899557e-02,5.886146020271344065e-02
5.331737933078347508e-02,2.372202094899291402e-01,2.338106847855820833e-02,2.205438308880222631e-02,1.137280736803594327e-03,4.962348797124909588e-03,7.786388185617011681e-02,7.047001281593424579e-04,2.462693172650917348e-02,4.717339164369335758e-02
3.288789513831473499e-02,1.848957595423535438e-01,2.645525466055989594e-02,1.931689769247184676e-02,8.666613794686467333e-04,4.765716460971400510e-03,6.042043252592926850e-02,1.302778432233857959e-04,2.892080340277542252e-02,1.758942581026625568e-02
7.378629257011493081e-02,9.583733894359129646e-02,4.177792305513387122e-02,1.638845975244071149e-02,7.849714157410051830e-04,3.948435182733424018e-03,3.494537031229384694e-02,4.818057449856254617e-04,3.796542385167996775e-02,1.407135956775534824e-02
1.171230133308875793e-01,8.806672350394308818e-03,6.011798820850971364e-02,1.508324858779303695e-02,9.586462889959292480e-04,3.452401787489544835e-03,2.924434040770517579e-02,2.225599079265267941e-03,4.596603634556364892e-02,4.700696112322425707e-02
9.042692153445623660e-02,5.946275805533686454e-02,6.898562515322351207e-02,1.824562145190480530e-02,1.420892538067489207e-03,3.914490553669897760e-03,3.644544886090667762e-02,4.143804611454323002e-03,4.949400518614284483e-02,8.318502057522560167e-02
4.323249605012263741e-03,1.054206656097073508e-01,6.090326142938223830e-02,2.383122798700686856e-02,1.924241019442219031e-03,4.587012130007473223e-03,3.402158317263526133e-02,5.837859193490217702e-03,4.934573499857011075e-02,9.490384588185798997e-02
6.504416360773671024e-02,1.141974209468641782e-01,4.267799114473042749e-02,2.758717691642877459e-02,2.068036234209256249e-03,4.618685197862961236e-03,2.375877285023158744e-02,6.760649059888046430e-03,4.818142436560634428e-02,9.352673309099485133e-02
6.588365323660061446e-02,6.598034416893704124e-02,3.074062496381659362e-02,2.964011289519260378e-02,1.689983891984142301e-03,4.369745327142225168e-03,2.360228219998086047e-02,6.141759883901031468e-03,4.784056765408522399e-02,9.850933445455921367e-02
1.864491617415306446e-02,2.115303175489471540e-02,3.208864381396796250e-02,3.292764672470169934e-02,9.084116988429621507e-04,4.393630923891670564e-03,3.441510474359400773e-02,4.848224692262139909e-03,4.978916982993959739e-02,1.002025568597616212e-01
1.588559021688164957e-02,8.246705726301856165e-02,3.693487146499970647e-02,3.719822800624375536e-02,1.488575821228124658e-05,4.233427367972549676e-03,4.591269632129380690e-02,4.962481935415048728e-03,5.528554644579924265e-02,8.158774015666662993e-02
4.383439805436147724e-03,7.057322878367318364e-02,3.469985822275778453e-02,3.970991183513545436e-02,5.008561530204420648e-04,3.417935780174811023e-03,6.135811990632687729e-02,6.299562997475313154e-03,6.344086654508289402e-02,5.256357986464006010e-02
3.272774104101547343e-02,7.713398123992525231e-03,2.969882785746479417e-02,4.065494398417365124e-02,2.525405449091610243e-04,2.707252395019119247e-03,8.429422131150661468e-02,6.243300174798850112e-03,7.157474490021403790e-02,3.323614652330830754e-02
6.456725085372230777e-02,4.710734923980609834e-02,3.480235521373405139e-02,4.353086576418707665e-02,3.574110830924898900e-04,3.092743800395132345e-03,9.555263653165804727e-02,4.179128731669688214e-03,7.798056224077845600e-02,2.374393214188623771e-02
9.016412373244352130e-02,5.798479797907588745e-02,5.207217738878684027e-02,4.960579949310655462e-02,3.807379368672387057e-04,4.140996299957429641e-03,7.595909700161472544e-02,2.743111339265580807e-03,8.213980903350183438e-02,1.157797706518008674e-02
1.144004388217815110e-01,2.649939028189156331e-02,6.473034499798675789e-02,5.486704171265395502e-02,2.195743656788805634e-04,4.402591473489854933e-03,4.056951266322238875e-02,3.368684961372866125e-03,8.371836016345381160e-02,7.522538223515309180e-03
1.168672667067659765e-01,2.193319872254976058e-02,5.375734931080968643e-02,5.469404330808640136e-02,3.601259054610867361e-04,3.306870195999112721e-03,1.979899042787778077e-02,3.917268956487095048e-03,8.407526252382714615e-02,2.567080094158438394e-02
7.937629979275810654e-02,5.265387598935078461e-02,2.327665570527515104e-02,4.990337949890920333e-02,4.099502008978307232e-04,1.945736213210848059e-03,1.158884942949110937e-02,2.218679471986827537e-03,8.553514024623165568e-02,3.057139474892052108e-02
2.317791553088863546e-02,5.047662178634336472e-02,3.583212790925987363e-04,4.439902679928237755e-02,1.312404511051052042e-03,1.623638606966514540e-03,1.823947214158134350e-02,8.150993464373755418e-04,8.532372702304316658e-02,1.773004220287056204e-02
1.183878479029809236e-02,4.314215079116751062e-02,7.281318326064511494e-04,3.826828625292143238e-02,1.640882615456853424e-03,1.966570054060837354e-03,8.323311253718759795e-02,2.953455700943153142e-03,7.399350850590699635e-02,4.748993350035361771e-03
1.020628764489351498e-02,6.800552652652579189e-02,7.641066289268842564e-03,2.908215026969097547e-02,1.234277588635639567e-03,1.445237349462745458e-03,1.498601238444406403e-01,3.365071902380263689e-03,4.442236619767235550e-02,3.029246068693414867e-02
2.066816659804299183e-02,1.101666744702703565e-01,1.279729475118207213e-03,1.952760612294418205e-02,1.765736987698421107e-04,2.469376044429024927e-04,1.764924927701496393e-01,2.487909109617973940e-03,6.804217366434975670e-05,6.182506754192818033e-02
7.683924776457050354e-02,1.120194247318269387e-01,3.227487072552945313e-02,1.630217530779187740e-02,8.216270740728118076e-04,1.838742445598048458e-03,1.601463495193597431e-01,8.941556865681974699e-04,4.832668389887256194e-02,9.127090433539550296e-02
1.497218625924145730e-01,5.797184383135361996e-02,6.431435518424565012e-02,1.952552369899223511e-02,1.057073030207117794e-03,2.620190922609575649e-03,1.313509532462579787e-01,6.349382127555014063e-04,8.838968043267896035e-02,8.794452605167044079e-02
2.002148655028281599e-01,7.743460521960791182e-03,7.579693087479004443e-02,2.007213258305996784e-02,1.572650619570779102e-03,3.239963795981528737e-03,1.163890246374876952e-01,1.145331184261158281e-03,1.117478148539899768e-01,2.966129801411519773e-02
1.833005438272335141e-01,1.864590555726495721e-02,6.643276926689917206e-02,1.116971267028952705e-02,4.113339670849502396e-03,4.545922542205654490e-03,1.190513399462131278e-01,6.312435896315369286e-04,1.158682879828103057e-01,6.516860557046061375e-02
1.127508736123787741e-01,6.874906207504268008e-02,5.118094959970705127e-02,2.729709251072496429e-03,7.670445783730845540e-03,7.227592402911290834e-03,1.347637331223995594e-01,1.593555563201715650e-04,1.042755362238033667e-01,1.526162836738445550e-01
6.261955071699530639e-02,8.918224446311952269e-02,3.812252246178451237e-02,1.313017952948355299e-02,8.616389220230584109e-03,1.168515920308394081e-02,1.658144446019824969e-01,1.870145984844522047e-04,8.225091143409440919e-02,2.033865374550843652e-01
7.408222258308005959e-02,4.655429781174396514e-02,2.109997231891925715e-02,1.933566153563311824e-02,5.361572942819450328e-03,1.677681055521448167e-02,2.110006329443042949e-01,9.776949622970431916e-05,5.367708673553649168e-02,2.252025861576127941e-01
9.489691950754891581e-02,3.648449646193119983e-02,3.927776887720196841e-03,2.773766357570945501e-02,7.443140153044158725e-04,1.990613450492988157e-02,2.496138732610504729e-01,1.172261834563105001e-03,2.513171598199795756e-02,2.507472650685600990e-01
5.007705521088439554e-02,1.173029563712672391e-01,2.343429457051975084e-02,4.125301621635617949e-02,1.460617858487292097e-03,1.923939073591330456e-02,2.540913364704467381e-01,2.116790231771061449e-03,9.963920484390233895e-03,2.935490104295476743e-01
5.769325278795211370e-02,1.618679014733880872e-01,1.676816001029636169e-02,5.514053281341918522e-02,7.748868481551130036e-04,1.520191813033634418e-02,2.183688503436735096e-01,1.842646981431561755e-03,1.943634898976299291e-02,3.224615538420651517e-01
1.571187625169314650e-01,1.600497450635911811e-01,1.812931200998489645e-02,6.368908709145862379e-02,4.662333551831876911e-04,1.025700567528376080e-02,1.633122559703518439e-01,6.706939033684419923e-04,4.719867931702969449e-02,3.073921966440665843e-01
1.905926803559752636e-01,1.358217875063694180e-01,5.809725203463147331e-02,6.545650961000712420e-02,3.754730162467854668e-04,7.278657836482058108e-03,1.153776727744126734e-01,2.734141036649711197e-05,7.090934821760010165e-02,2.667254792721036605e-01
1.533194962819737495e-01,1.263087380820647476e-01,7.716844785074696011e-02,5.989180550032769529e-02,1.027985273192227877e-03,6.777552158130467977e-03,8.432752068611948371e-02,6.157279668877518788e-04,7.562050911825435318e-02,2.261991872550759286e-01
7.379519178389595813e-02,1.366539267381857714e-01,7.017761135049445376e-02,4.487754266030749561e-02,2.572979893396344728e-03,6.277601947783062811e-03,5.949428115844017373e-02,1.469411303541205086e-03,6.974622931895141376e-02,1.706681313252094989e-01
1.019821898922466594e-02,1.302715644952118779e-01,5.234739353867692152e-02,2.241432471820756570e-02,3.147998173927013359e-03,3.798637170953699654e-03,2.575203528683866344e-02,1.326355801121384490e-03,7.088932420031392179e-02,8.993146360814939511e-02
6.128456786348086133e-02,7.821561696863343904e-02,4.068210776628090886e-02,2.802899554097196266e-03,2.657351259082833383e-03,4.945685694186309793e-04,1.689317370782923711e-02,4.200510081956072318e-04,8.211154963728725664e-02,2.464536456871961601e-02
5.335854806834067904e-02,6.192582294264554858e-03,3.856395130293144985e-02,2.338146083886224070e-03,1.971705035910677022e-03,1.430798581635657658e-03,5.113512930890432712e-02,3.550399407527834674e-05,9.140336843671918732e-02,9.866858143651850016e-03
7.329810574754085442e-03,2.929894706899989487e-02,3.655530794591461269e-02,9.298314710921927462e-03,1.781125140402580126e-03,1.569062904405905392e-03,6.139309147050459742e-02,3.074562026053642401e-04,8.833780909605884468e-02,1.613053555261068431e-02
6.775274078564222369e-02,4.581600510044494395e-03,2.474386720468070913e-02,2.869825931811607542e-02,1.993544459040834296e-03,1.148256762720495545e-03,5.286282706098714701e-02,9.395818969475008527e-04,7.097121853686540194e-02,3.489630776768982978e-03
6.215921337354944620e-02,5.781049447860242552e-02,1.806755209866011021e-03,4.263592915937047118e-02,2.214698769858683934e-03,1.586788587476761466e-03,4.639339956933607317e-02,1.906684904162380670e-03,4.261649691223796249e-02,4.594601089815569805e-02
8.903133734075280303e-03,1.292164874467411906e-01,2.516925725486923726e-02,4.352351057024533149e-02,2.099181902734272194e-03,3.381103929705319994e-03,5.436041902549255261e-02,3.389198801687921293e-03,1.280061059760482720e-02,8.008781912292788074e-02
5.799105209552164047e-02,1.913319464768523659e-01,4.374817316018863450e-02,3.534775168243736720e-02,1.557438053670034961e-03,5.520427448963963722e-03,6.922648394405392369e-02,4.222243308994047019e-03,2.781176192809044559e-03,1.029248335879620058e-01
1.382100141630613309e-02,2.212400672345886943e-01,4.050153182197659130e-02,2.907870249539704424e-02,1.110529054247166945e-03,6.470868715683697481e-03,7.839530828353978575e-02,2.963359238709282854e-03,6.408309954621957058e-03,1.353853702278897120e-01
7.799528666349142547e-02,2.063813191750250020e-01,1.080387538284179744e-02,3.065497954549566834e-02,1.216524880607157584e-03,5.873385693979601280e-03,8.001856705096090094e-02,3.324191650875247357e-04,3.429933607413256091e-02,1.810514588289717230e-01
1.122286088324947889e-01,1.769597292407118494e-01,3.342433818957195324e-02,3.614327537429971177e-02,1.234374023909740829e-03,4.589423168965973618e-03,7.695173406196517685e-02,1.306040508727381684e-03,6.305174470861443781e-02,2.176506848718023635e-01
6.409858654952003965e-02,1.791439383758109405e-01,7.114928236847160858e-02,3.901749626199387672e-02,4.789039416809052693e-04,3.579367124638310922e-03,6.619998081322316097e-02,8.828829201585179382e-04,7.817971134371820563e-02,2.234672200107140905e-01
1.041673383020585812e-02,2.044540740185865346e-01,8.920470593755662481e-02,3.710452121854105473e-02,2.420592204186926917e-04,3.358810015721007663e-03,4.714597553426604082e-02,3.805803307312417556e-04,7.614313774268377522e-02,1.990392892487142795e-01
1.830099791291211683e-02,1.891427165075451333e-01,8.888747232328837733e-02,3.142875364398759613e-02,6.056887893248017601e-06,3.855636421595553566e-03,3.159473365619240581e-02,9.074416445726111481e-04,6.121344187666505343e-02,1.680922021109538533e-01
7.615040963575457622e-02,1.096995564844301108e-01,7.721749796850026215e-02,2.418341052936335070e-02,4.100076708064045571e-04,4.294528365185889922e-03,3.097945289794883095e-02,5.237567795609009711e-04,4.017160969712810920e-02,1.620841982102344814e-01
1.413218203165808873e-01,3.707970501552079745e-02,5.820227197044490486e-02,1.982567105174624228e-02,1.922163299686315918e-04,3.674603364808934174e-03,3.969940139014060260e-02,4.123403679500608002e-05,1.865102061219462565e-02,1.888143674588389498e-01
1.950355200335341099e-01,4.689398661895209652e-02,3.395289078951315570e-02,2.224649414935832986e-02,1.321671293007885706e-03,1.733514212036263349e-03,4.323160248536302153e-02,3.551733428401918058e-04,3.466378836073594899e-04,2.056109732366246945e-01
2.267048340790231986e-01,1.027691055922157204e-01,7.744411285714730177e-03,2.799926411083850097e-02,1.873551569139633851e-03,6.149234409692329924e-04,3.700688063394526328e-02,1.467054114395484863e-04,1.464075785792749718e-02,1.488279865397467705e-01
2.136626426014925362e-01,9.772729291917411909e-02,1.736838766784751242e-02,2.794417912097265505e-02,1.845046368491365385e-03,1.995606259640189152e-03,2.834400803864147236e-02,9.918917962073760253e-04,2.198504675497522931e-02,1.467572806076617234e-02
1.538341893068247423e-01,9.006126696129615472e-03,3.866738614938623059e-02,1.864966251672361963e-02,1.905123974894705214e-03,1.769334780042294223e-03,2.408029429282542572e-02,2.718776543831748303e-03,2.437757766983998653e-02,1.153841876391535209e-01
9.034722147969571904e-02,7.050746368076069026e-02,5.184037166896657278e-02,6.417793005108603406e-03,2.253855266662958129e-03,3.533368625213809166e-04,2.313602522199560696e-02,3.944882945548611013e-03,3.000558933240111623e-02,1.593566215001313569e-01
6.728555140869393880e-02,7.825020410747621225e-02,5.446022831558776367e-02,2.464208985231970510e-03,2.590323313965039575e-03,1.289283219246057516e-03,2.205910162897066484e-02,4.431095153045011038e-03,4.426459863977564441e-02,1.208016613324397470e-01
7.427068594780267263e-02,6.677034385334065791e-02,5.024374363785425596e-02,8.231773118483639087e-03,2.598071161910664104e-03,1.945348566128533331e-03,2.347245074916659222e-02,4.867780621332015722e-03,5.983648423216117451e-02,6.817830506672896418e-02
6.448640314188473777e-02,9.802727495688774717e-02,4.289425864458748516e-02,1.145636826168537625e-02,2.168570841293032507e-03,8.088175135061512070e-04,3.210568627080001569e-02,5.278773309494785328e-03,6.278686538964767250e-02,5.449168323715490592e-02
1.885466290787185181e-02,1.528843887029462389e-01,2.893046565731119402e-02,8.902473004146463711e-03,1.494897558011603527e-03,1.210380119965828553e-03,4.386734465427673951e-02,5.058275233736310786e-03,4.890284675540481490e-02,7.692481670025189122e-02
3.318507555305560269e-02,2.076980192651744217e-01,5.466975868696117430e-03,1.064031524196461850e-03,1.127066929067466325e-03,2.073748794837966536e-03,4.866535219670088674e-02,4.070745423087619372e-03,2.659451824836546463e-02,9.947089796501845660e-02
4.975943961846491376e-02,3.005426635920071532e-01,1.908066291586573912e-02,3.544050234382775753e-03,1.584267421784085620e-03,1.419998686134572776e-03,4.429186561092850194e-02,2.360960428641752790e-03,3.116177421535652661e-03,1.004621520666397205e-01
1.622456074861912401e-02,4.447605861880377098e-01,3.132573047953967488e-02,6.503900926571877343e-04,2.469606088046096080e-03,1.033630239377376654e-03,3.812859510051579831e-02,7.546169270290469509e-05,2.200455479853287433e-02,9.424452863173278516e-02
3.951957532850979005e-02,5.588941995521952144e-01,2.624759060870675287e-02,6.774789638895078146e-03,2.581311131299352662e-03,1.840632554402309249e-03,3.506441071602096199e-02,1.565263391528078085e-03,4.628908307521827775e-02,1.048130347076062646e-01
6.332763066709880262e-02,5.542216673290203399e-01,8.475869209576235297e-03,6.171137043471462691e-03,1.746480618013894525e-03,2.658456138180294477e-03,3.264792096963158030e-02,1.358620739767466305e-03,5.743164978797996034e-02,1.320827917990345102e-01
2.332850751475978868e-02,4.353189231153936078e-01,1.363692574068028386e-02,2.841506391906797532e-03,1.324422113297725381e-03,2.465029759963766488e-03,2.981035928116017308e-02,5.724630048634701384e-04,4.578698128143994517e-02,1.582984238131499022e-01
5.838559139275468352e-02,2.741127683946025240e-01,3.038138168979894957e-02,5.944751300527933990e-03,1.684520631132721069e-03,1.787245936774078470e-03,3.196959003439344554e-02,1.716376672300343577e-03,2.038068806720844811e-02,1.713304536707780379e-01
1.349427025627931709e-01,1.391604553296993396e-01,3.368035718720779892e-02,1.349091123989321940e-02,1.270061963301701707e-03,1.632286124965543709e-03,4.106928881458650482e-02,4.646292750766685582e-03,3.838812101105681593e-03,1.639377617864988534e-01
1.783531160728141773e-01,7.002079319173372396e-02,2.366476024373586826e-02,1.651369942475811037e-02,2.585561774397818983e-04,2.633590401940161599e-03,4.664196581873253367e-02,6.432338452433707804e-03,7.568592053694467997e-03,1.276467020812165065e-01
1.849404616641850130e-01,6.180966189745765171e-02,9.909074707176489596e-03,1.514585580514014179e-02,6.852461979893493399e-04,4.737364384192976896e-03,3.805207531662400944e-02,5.232152509671775600e-03,1.825947234430409793e-02,6.646974014031820088e-02
1.669324851837576396e-01,5.318950635250771497e-02,2.439356157653024913e-03,1.750479338846099367e-02,1.107002208596018873e-03,6.456482611949951149e-03,2.273356384763991836e-02,2.166134999549047813e-03,1.631588344936359819e-02,5.221481179977140868e-03
1.493097948236691008e-01,1.935874502311650883e-02,1.765185828625942879e-03,2.512179469002969595e-02,2.985645799150796198e-03,5.752297264733276932e-03,1.860497436264756457e-02,6.529711202697775557e-04,6.819328512799247011e-04,3.027677712065300619e-02
1.523649448760925618e-01,1.289534811917600055e-01,6.331599200492827456e-05,3.122900340208887779e-02,2.859927655021304513e-03,2.989957677350843501e-03,2.868090055832565877e-02,2.233530749244624306e-03,1.502931445580643795e-02,3.704485329067821325e-02
1.755259437445429171e-01,1.663800355399944475e-01,8.176264040620278770e-03,3.259622354428923924e-02,1.378816277455058000e-03,1.040304054370702527e-03,3.712679220199630037e-02,2.767978306246378015e-03,2.317310703105244368e-02,3.139124065974293470e-02
2.057505144846765721e-01,7.718752492549271760e-02,2.074631364619950250e-02,3.304738656540498476e-02,8.163962957967900783e-05,9.605377381409063850e-04,3.274877353923912049e-02,2.781500978796061681e-03,2.624184175305569605e-02,2.561769265418666064e-02
2.226437699898605183e-01,5.862638439596977447e-02,3.296206657330999490e-02,3.447095423622353882e-02,1.241985079217241411e-03,3.819498252188739456e-04,2.329541257438931881e-02,2.642131657416797470e-03,2.707515926402351628e-02,1.895275363718309375e-02
1.959655557364917977e-01,1.335978522413888703e-01,4.189159636736074915e-02,3.176543841677312990e-02,1.621390520009361206e-03,1.843290966138452476e-03,2.066620957406053657e-02,2.616485335316257391e-03,2.718169312551192013e-02,1.078255483036017967e-02
1.170115851693174225e-01,1.414514991385991405e-01,4.463692574140957353e-02,1.901293492361493670e-02,4.647063342177754769e-04,2.920332632859880696e-03,2.275925498998660965e-02,2.911294111310356800e-03,3.092250376614265675e-02,9.372112340772509320e-03
3.405846733044354951e-02,1.351271200926678351e-01,3.958783567761877537e-02,2.214472549528895794e-03,1.203570718912231555e-03,7.380365338936418270e-04,1.890100904347361693e-02,3.215151314934400033e-03,4.217665227303640796e-02,2.344406655990761632e-02
1.308565340249201459e-02,1.207156520834094388e-01,2.964148157467634548e-02,2.165033833551239378e-02,1.315188795306990741e-03,2.220322906561709650e-03,7.576696068280687479e-03,2.608096895147449072e-03,5.884306838414999491e-02,5.153938056500257520e-02
5.606544036385704283e-02,7.442847369765892562e-02,1.767206324166820108e-02,2.762221736590378743e-02,1.514606976445164463e-04,2.438984742251881430e-03,1.670379524456568933e-03,7.393673139751434078e-04,7.549065170693618210e-02,7.979177703230831697e-02
9.236771360395482078e-02,1.758635771814465523e-02,9.234860408621637512e-04,1.786775324671230347e-02,1.306214262000576385e-03,6.622231929146848561e-05,1.546147964296209695e-02,1.253310698403009571e-03,8.845746148641495110e-02,9.082205260120501666e-02
6.094485134709137775e-02,4.955019126526903281e-03,2.247869808576095224e-02,3.788624185328173799e-03,1.295271341186170645e-03,3.112965949534819352e-03,4.454172609118488974e-02,1.872428644450171596e-03,9.457172819841448697e-02,8.000377713981239591e-02
2.344044906523079508e-02,2.472737571990579059e-03,4.373041479001187753e-02,4.981905847682346206e-04,9.533116084576083882e-04,5.767684374719340978e-03,6.173886358178901079e-02,9.259951400008745951e-04,8.823115253192753693e-02,5.909658678798482279e-02
9.610873578859180366e-02,5.155822598857683070e-03,4.942147610168920457e-02,1.085972731325119366e-02,9.639479143222744054e-04,8.224237411836910622e-03,4.470780152306872562e-02,6.544218455520179169e-04,6.614145510291109809e-02,4.214230914219904006e-02
1.109519117117086784e-01,4.549279158751677599e-02,3.827959897652821741e-02,2.303909329527839209e-02,1.105553410114188057e-03,9.954503283408416489e-03,5.396588174235338736e-03,1.937129568585116380e-03,3.625953760348137739e-02,3.732530638530028033e-02
6.764507223687510340e-02,9.316691542067181975e-02,2.325406009910870736e-02,2.469026018919339913e-02,1.065609668200007609e-03,1.006493792679684710e-02,2.373094766323343568e-02,2.115845373397894514e-03,1.577226625120129594e-02,4.779961682755909380e-02
5.984587664190972600e-03,1.216012174698968551e-01,1.494895059925004273e-02,1.402437951506789286e-02,8.956845056006368768e-04,9.205391466153692304e-03,2.869893342507180700e-02,5.593853993392383520e-04,1.308468674817187677e-02,6.542188305560589501e-02
7.223762467433524070e-02,1.234971491001483207e-01,1.191511193399398191e-02,2.857168386186396871e-03,7.672358993508474924e-04,9.364081824316496799e-03,2.184648035952402312e-02,2.223768421607293880e-03,1.407260693222437895e-02,7.186696278810365823e-02
9.408009217236427968e-02,9.954945156381257709e-02,9.208788508117418670e-03,1.782512973731964143e-02,7.708143431919168165e-04,1.055666668872767833e-02,1.759999621111701940e-02,4.708125663578832144e-03,2.889334399626118134e-03,6.136444345726012328e-02
5.942544422981725638e-02,6.188800068221463058e-02,6.794261821807196303e-03,2.439243313551750156e-02,7.981779422182352490e-04,9.294163480168298602e-03,1.960803415912768660e-02,6.119805156338748234e-03,3.497613736998974460e-02,5.468166255081412241e-02
8.134858004803353915e-03,4.343396734135806375e-02,7.297069131950231768e-03,2.294078263981275817e-02,5.863933495363910908e-04,3.083504257271395960e-03,2.744408983713914063e-02,6.901342114525245604e-03,5.128927591505288985e-02,7.852224790682502120e-02
8.904261392471348943e-03,7.472535431596324940e-02,1.225503016362082705e-02,2.057483613927626326e-02,2.558434864477051522e-04,4.871936150268786452e-03,3.934529596629010584e-02,7.358539423152816485e-03,3.117265638095984004e-02,1.330091317604448486e-01
8.093551609630994514e-02,1.493812389022182163e-01,1.988007483600515504e-02,2.068942300054085748e-02,4.691715653994672059e-04,8.930489646194909870e-03,4.943446059347270105e-02,7.346357764918731194e-03,6.367152943434093923e-03,1.848824258155402911e-01
1.557484578035934208e-01,2.257261324101239031e-01,2.363385748205770742e-02,1.811596361899400418e-02,1.312109864929664887e-03,7.648997254205207492e-03,5.233393768769319110e-02,7.153530793226862625e-03,2.619425267141407485e-02,1.991764009089464493e-01
1.497883956522915172e-01,2.631616045098763568e-01,1.855641882879301499e-02,9.153009608118656271e-03,1.699671848216041713e-03,3.856587490303965259e-03,4.705745094774222564e-02,7.252325529155358858e-03,1.915091536790435381e-02,1.803029757482118578e-01
6.624728739857971282e-02,2.542871621204522703e-01,1.002527508717469124e-02,1.397544357220513499e-03,1.049537809596174081e-03,7.715947843890051498e-05,3.179916518309228862e-02,7.291375068729139680e-03,3.339071825424685946e-03,1.661206810596631001e-01
1.057615699243601159e-02,2.249529738254925360e-01,8.947727191314959472e-03,7.163922789293728985e-03,5.257667865735667989e-04,3.534251156268628652e-03,6.402943850604173384e-03,6.542960409965623524e-03,5.647822908810132443e-03,1.697059753644436508e-01
2.732547412298188053e-02,2.080809727096127881e-01,1.954545672403074780e-02,5.616576732639570399e-03,1.170727130148184209e-03,5.633002678558840862e-03,1.574393818889427421e-02,5.267476232279178633e-03,3.799240694043319079e-03,1.527815493793791557e-01
2.646502890080243420e-02,2.199493582448433238e-01,3.870641112933682904e-02,5.765602237385515638e-03,2.079687142330425859e-03,5.375334732899725992e-03,1.631589847431812873e-02,4.536267358464450908e-03,1.386454023203664496e-02,8.335336501896725703e-02
6.779680370760213237e-02,2.520516698407831990e-01,6.260083304961207296e-02,2.847832153243760184e-02,1.950022314188523329e-03,3.686766737830892478e-03,1.302409175338741822e-03,4.654355217511503377e-03,4.976187254296614987e-02,6.848267366995924865e-03
1.278316675700441329e-01,2.698029728979636777e-01,8.485335824359319101e-02,5.460946351051584186e-02,1.164687725990005062e-03,3.033250300962565555e-03,1.337028357209894824e-02,4.644911021766058405e-03,8.776261790305932287e-02,5.895002728279805093e-02
1.377097787333467771e-01,2.283407255450703721e-01,9.280932195323828016e-02,6.881923473105003297e-02,1.042694530553489639e-03,4.813680548824719047e-03,8.048371746414324790e-03,3.445636983091298223e-03,1.022845612421209582e-01,5.780912522088924727e-02
9.085879219177278587e-02,1.160627092874985389e-01,7.856698379566968982e-02,6.322116052807010000e-02,1.945680055942716801e-03,8.682151188072237402e-03,6.027552996865505330e-03,1.185042967177478163e-03,8.954936588706660650e-02,2.857794150818989201e-02
4.441140233143951732e-02,2.028275169069135297e-02,5.404870234613590174e-02,4.443894286052779696e-02,3.016500411730648357e-03,1.395118544936403866e-02,2.539610084522674061e-02,9.312747742399494436e-04,7.376657918735997355e-02,1.337387323724556487e-02
3.549722297900669010e-02,1.125524008679306687e-01,4.144643193707825413e-02,2.536896076010281692e-02,3.536647832462109630e-03,1.901858209734625521e-02,5.600030809116592068e-02,2.073655721179971413e-03,7.452994169927365520e-02,6.642911843329774024e-02
5.749050913945378399e-02,1.253677630595620152e-01,4.588991851066100830e-02,1.597472441218469874e-02,3.836654032020153995e-03,1.949467599148849151e-02,8.390847376831209181e-02,2.679972315557747984e-03,8.328540026139048813e-02,1.106590069547910005e-01
9.447730853472093016e-02,6.887654663859535398e-02,5.224029314893422621e-02,1.862369961927673456e-02,4.057331454200245949e-03,1.082321440713372891e-02,7.475228135859293688e-02,3.406861658298020006e-03,8.183876509839026203e-02,1.130688456379303902e-01
1.245686254508292651e-01,1.571307104266208080e-02,5.102305043042778404e-02,2.444468505770861638e-02,2.841223557963753685e-03,5.236528070343779255e-03,2.107129489412492770e-02,4.014138661001452786e-03,6.907137226989977508e-02,7.068292500183449845e-02
1.182191972442138694e-01,7.664570604121462294e-02,4.925562287181003279e-02,1.967542509879506574e-02,6.309194291873235607e-04,1.956881235225052876e-02,3.545042739189073477e-02,4.044096507481014305e-03,5.719646945878716082e-02,2.147996978982458227e-02
7.937740464975023835e-02,8.784459450311486728e-02,5.258768997322332828e-02,4.142855305679767931e-03,4.108250812550901486e-03,2.396608524410164670e-02,5.227336767343426088e-02,3.699560892364704007e-03,5.301867690479757783e-02,2.487465220753514762e-03
5.468431329074728564e-02,7.155341132937048654e-02,5.602912608836847774e-02,4.134628361737385273e-03,4.531674989640623215e-03,1.897322884378845748e-02,3.747288286194598583e-02,3.435902453060554144e-03,5.418480912397284632e-02,1.205248913563328542e-02
6.849455969377113429e-02,6.577143782135465300e-02,5.669725508136114894e-02,7.283323153245535586e-03,1.971909708197498896e-03,1.108155755916787229e-02,2.764313305134436655e-02,3.410616142887900725e-03,5.790771400217707005e-02,3.144218660021966261e-02
8.985695002194633851e-02,7.923993607906551495e-02,6.040260509942609046e-02,2.596112147258574157e-02,1.309757963083983592e-03,4.247159151637498048e-03,3.104101193047296633e-02,3.511567709012638691e-03,6.564740703652291454e-02,5.621674924371643928e-02
8.557821975539106618e-02,9.827702429295635811e-02,7.335421889400715878e-02,3.205339522434381971e-02,4.372331389322634161e-03,1.949229036049828509e-03,2.401862457239358276e-02,3.384648700624633480e-03,8.085414369771527776e-02,6.792118584413045501e-02
5.843540983642449282e-02,1.139343604539675286e-01,9.606856383866611837e-02,2.641314999554811305e-02,7.399400761561373413e-03,7.712545975711452943e-03,5.014327828118119931e-03,2.629754789319929068e-03,1.038470444684819471e-01,6.802071407349649657e-02
2.149185446953730261e-02,1.131448148587081565e-01,1.198079913654314377e-01,2.502851720373946640e-02,9.474808945755515063e-03,1.203214584861574295e-02,3.913703544201509871e-02,1.385412853664926653e-03,1.223050223568405426e-01,7.073611780708295715e-02
1.299097119365074521e-02,6.870062957885221533e-02,1.226868147308900342e-01,3.173774603035347391e-02,9.596936341348533128e-03,1.555480922424641241e-02,5.959474415801099823e-02,4.172373039831503818e-04,1.054505920345832487e-01,8.130115769865943476e-02
1.548855115524190758e-02,2.591618254542149211e-02,8.316742402448566718e-02,3.415723849360093045e-02,8.796695955431206582e-03,1.937646866647321081e-02,6.530945178386457495e-02,3.950355934723233289e-04,2.708905537914906014e-02,9.885533836151341736e-02
3.334923447762880994e-02,1.300491425131565237e-01,7.733794503556400135e-03,2.456112181348100651e-02,8.384757104798945190e-03,2.136045209406406756e-02,6.190934088082003517e-02,1.289589295429281572e-03,9.241145110497264725e-02,1.207336264270840315e-01
9.553270936518835910e-02,1.936387874151880018e-01,6.609712883036039655e-02,1.071925235439360330e-02,7.317536190136617741e-03,1.803340717792910330e-02,4.788253846293846760e-02,2.476553575313162388e-03,1.877989930774577321e-01,1.327770015194689457e-01
1.129035447702536055e-01,2.037898661317028293e-01,1.013416224614152039e-01,5.711475626863026477e-03,4.235100264473747912e-03,9.948362939920647047e-03,2.147282356106112317e-02,3.266281709457514223e-03,2.089555917274259211e-01,1.150589795291823703e-01
9.212091454838473858e-02,1.743687988456463223e-01,8.970174646045089850e-02,1.348408129682470737e-02,7.802351216320691082e-04,2.079503196815853886e-03,5.904806177693497360e-03,3.350696942081094355e-03,1.632007728441350891e-01,6.424857993620995689e-02
9.404441041905389764e-02,1.169295084130040491e-01,5.130305183269606023e-02,2.290014018985219238e-02,3.012492422773585098e-04,1.041729531244435080e-03,1.547293178319349496e-02,2.970470183590298574e-03,9.276921597424730992e-02,2.043568829507619658e-03
1.376902237074140167e-01,4.808824331065351260e-02,1.593202356100050301e-02,1.649742725585804856e-02,6.056768798511623928e-04,7.692664980707457833e-04,1.823409310659769621e-03,2.899482446562821544e-03,3.195846733502645531e-02,5.718343348077741667e-02
1.771042843156164504e-01,2.595317139649513070e-03,1.413283419279283805e-03,8.817720999227434547e-03,7.387886194090066043e-04,3.717743931264247924e-03,1.957592079242492789e-02,3.875605439039812167e-03,9.340928255286373716e-03,7.264616252818406616e-02
1.783341807233113363e-01,5.750505638686087898e-03,2.827595391025509736e-03,3.400450431546485353e-02,6.499081632625362337e-04,3.369269834215711957e-03,2.638840612505536504e-02,5.457937498779381023e-03,3.920187715612900164e-02,3.454670181941673496e-02
1.573020227753713918e-01,3.856051174865468556e-02,2.305957705648778965e-03,4.002796427924648626e-02,1.453671866059734041e-03,2.198832671583443327e-03,6.139802880794228111e-03,6.101167050310961348e-03,6.952506437806912909e-02,3.420626715291369413e-02
1.300709818076893065e-01,5.583907575852709027e-02,9.646120622673828512e-03,3.095624558176439389e-02,3.310684779615855750e-05,1.146168342144338395e-02,3.666249523930767418e-02,5.261466289238117197e-03,1.025147775261252142e-01,8.993669648573970887e-02
7.964084135417165422e-02,3.983705049266280523e-02,2.130212782613126465e-02,2.376229147026493946e-02,3.120722155447739569e-03,2.053067260454253737e-02,8.197358050749742331e-02,4.504288867339976271e-03,1.244452956977147862e-01,1.086442904155455330e-01
6.006898480233320223e-03,1.453134988152630057e-02,5.612703077271425506e-03,2.358959525342435928e-02,5.519729809748444641e-03,2.572808337663787942e-02,1.059283911337454143e-01,5.269201053468668128e-03,1.075402091115355424e-01,9.088474369775892403e-02
9.388883409704620875e-02,3.042216035650044045e-03,5.763447485992507363e-02,2.232442243872909474e-02,4.931841161074396185e-03,2.631182000624686726e-02,9.842425184882921951e-02,6.460136138224931504e-03,2.527686875458511062e-02,4.647620660296351847e-02
1.288868384305578152e-01,5.397780584340761134e-03,1.570943511134081927e-01,1.498990308756181951e-02,9.745303880322325751e-04,2.431627186696531245e-02,7.004925643528663037e-02,5.856010963253751971e-03,1.137031498324650586e-01,3.610540240568326301e-03
9.521038347522797762e-02,3.497389546434199331e-02,2.483513599547029216e-01,5.350819266939210901e-03,3.830436514845479180e-03,2.150059771200581171e-02,4.180041211042097304e-02,3.430851976262104964e-03,2.491814772714169568e-01,3.869781798336344170e-03
4.207669391135316489e-02,8.910137055002517736e-02,2.898906609259601086e-01,4.654814049310685049e-04,6.332989606271102571e-03,1.767713816864837847e-02,2.731650354397346936e-02,1.488220747331992899e-03,3.186693002082875981e-01,5.186486873273794818e-02
3.531621653064828670e-02,1.469017512798649339e-01,2.824411093937733153e-01,2.262888151129561782e-03,5.871744464343565256e-03,1.220801535226660739e-02,2.178253922004267512e-02,1.212888686449370944e-03,3.261195020225333141e-01,9.394416654058350413e-02
8.830964986078035373e-02,1.762939380901487885e-01,2.583649508073410095e-01,1.486539464048795660e-02,3.778155621457793267e-03,5.888645654492388748e-03,1.085641846527523810e-02,8.268174647366484517e-04,3.248707417879597159e-01,7.944421724957653752e-02
1.559979251780068132e-01,1.442903977473613542e-01,2.354457069433285032e-01,3.197610241223713262e-02,1.074863654587470936e-03,8.005301900244933544e-04,6.408581442350424519e-03,1.739999982699585220e-03,3.345323642531852770e-01,2.489816307739141713e-02
1.866732878498792436e-01,3.748151906485364115e-02,2.047722440932519816e-01,4.455486623907390503e-02,1.400418993566418437e-03,1.215059116461027341e-03,1.104142340566902428e-02,5.788256258767958753e-03,3.232382993011408967e-01,1.075888508185622768e-02
1.584350779042472401e-01,1.151336694200645744e-01,1.607412935728977643e-01,4.742646154380217999e-02,2.213724774231366332e-03,7.188780909625047243e-04,1.651745082832701411e-02,8.892978019783621957e-03,2.705758809787645602e-01,6.034392688395780885e-04
8.156225380993337160e-02,2.558277460345425025e-01,1.129723914987941502e-01,4.090423742953687436e-02,9.239981728286602225e-04,6.815027197145838260e-03,7.884757972005447535e-02,9.762903765764156805e-03,1.950394600719888571e-01,3.232167004807487420e-02
5.520610084307093005e-03,3.395800973005434487e-01,6.778828531235336907e-02,3.074777044896741598e-02,9.954660438976999006e-04,1.606624483023768105e-02,1.605423394771401391e-01,8.726897985678555222e-03,1.177752759746667766e-01,6.594303622428546174e-02
5.513800895160119592e-02,3.525009413782829726e-01,2.500972657365770763e-02,3.121911454912237177e-02,2.763222970816035275e-03,2.545599700617506497e-02,2.325824021302744515e-01,6.671900738285063866e-03,4.627659895931116041e-02,1.077021668428140982e-01
4.875319176372730490e-02,3.078023310179385796e-01,6.589440968212598865e-03,5.748076340188231631e-02,6.334221683345276320e-03,3.124453292930437498e-02,2.626941301837287801e-01,4.603507254411648604e-03,5.513107434813060287e-03,1.571025831400277850e-01
9.533100988223413771e-03,2.455147959773430477e-01,1.530135980501183546e-02,1.063238469852411106e-01,1.391300170686732285e-02,3.119430245509020178e-02,2.371475499746043825e-01,3.074216263742507275e-03,2.176671695654470301e-02,1.785453674537935964e-01
2.594566502584100265e-02,2.134680309201536508e-01,8.175504341227664284e-03,1.522162663877304756e-01,2.423606035051260876e-02,2.549345126288197344e-02,1.726976468422425637e-01,1.628201303360353024e-03,1.101672739957913413e-02,1.463306716556803111e-01
3.319774555605810307e-02,2.245059958146781165e-01,4.105477975007109509e-03,1.690749868170836057e-01,3.280303611122276086e-02,1.645050715173011421e-02,9.874884961672181216e-02,4.103853909449888199e-05,3.058118973838598598e-03,9.110292999164862349e-02
6.287969542311071941e-03,2.477088225589544335e-01,4.027706887151245516e-03,1.524260001106771401e-01,3.559006576717559794e-02,7.038915719566008096e-03,3.342650007157043496e-02,9.653593941170399454e-04,1.503977572676342550e-02,6.333368277644395306e-02
3.643162829664722824e-02,2.491555079399220274e-01,1.029152286300476227e-02,1.195682240680062958e-01,3.165528248076510814e-02,8.922907845463053187e-04,1.430097334054148545e-02,3.937985285100946832e-04,3.632711202655560662e-02,6.840803497856018378e-02
5.993760511563855919e-02,2.212887850456111138e-01,4.309167040616958960e-02,9.165299371357793490e-02,2.281029690094475010e-02,6.546443858788811646e-03,3.366883642189883591e-02,6.744249944527780111e-04,6.475556157845906158e-02,7.233240263413943938e-02
4.576464097270124126e-02,1.716170242206880581e-01,6.992920368968767730e-02,7.569219586542684508e-02,1.255552868868022726e-02,9.370664645142249422e-03,2.436989504243650823e-02,9.648092432060332863e-04,7.981099849482473085e-02,5.536125934567282664e-02
7.320452435172365019e-03,1.061845085916801462e-01,6.524512795414741384e-02,6.266131442907603433e-02,4.734005887492213731e-03,9.937373849614870858e-03,1.038970124794538416e-02,7.710700623719010487e-04,6.821578540785952494e-02,2.796326262718498018e-02
4.211394733721743333e-02,3.155847960334572100e-02,3.106627957916359428e-02,4.093216289376508388e-02,6.893087663924896396e-04,1.035963730170146035e-02,1.797613467628693396e-02,9.877178390567998862e-04,3.761305954841143162e-02,8.250485604547955210e-03
1.127133019059738811e-01,3.761437912903668745e-02,9.660655880992885178e-03,8.241953984992396454e-03,1.837652293076749233e-03,1.232988295323115407e-02,4.268801687892508773e-02,1.298666533012926734e-03,4.267512416762125893e-03,9.758645059679039307e-03
2.011742425207438956e-01,8.022142519136543637e-02,3.749016737995171378e-02,2.675658687400857272e-02,4.934166440525300512e-03,1.536668751272732801e-02,5.526797997920349786e-02,6.715333298183009079e-04,2.151863053135828069e-02,3.474057726693216552e-02
2.565400690011881424e-01,8.416761290916134619e-02,4.740466376431488882e-02,4.994673520928349930e-02,7.356938159113994916e-03,1.690261160906592411e-02,3.685020084112265726e-02,7.398189576671508182e-04,3.809194876441289457e-02,6.133488812188653966e-02
2.328185843819902123e-01,6.528686249098268612e-02,4.521504795575923691e-02,5.346115405225077000e-02,7.481323261038549943e-03,1.414281069918619550e-02,2.614270913754612909e-03,1.455622760077217694e-03,5.032248224741893428e-02,6.000561783331634369e-02
1.613983012039149068e-01,5.980254336344357352e-02,4.186066913281453333e-02,4.615603851987366835e-02,6.699647589103729754e-03,7.608738829029239661e-03,3.542495378749353080e-02,6.591780444661061002e-04,6.684479107028314104e-02,3.160808449068615994e-02
1.150974307190912038e-01,8.450861271248442941e-02,4.638513095832288990e-02,4.502691873248075571e-02,6.966877656682851118e-03,2.148176253701435199e-03,3.853554296583177469e-02,7.249767130965441677e-04,9.256927989586416494e-02,5.083225642209337168e-04
1.149200299277866044e-01,1.145592952428273054e-01,5.786882886110990276e-02,5.415012589613646399e-02,7.605419372349374839e-03,1.906285368655335176e-03,1.026807587556937719e-02,1.439360795992065652e-03,1.202041507336881754e-01,2.879196934139883340e-02
1.305946383229673324e-01,1.164132026240308898e-01,6.656717105861899297e-02,6.255682487821208337e-02,7.217853854024834995e-03,5.715219952870944156e-03,3.175611588930496443e-02,1.394775510356677283e-03,1.347824965893635318e-01,7.118763699892358132e-02
1.505289457247773188e-01,9.200152330941206713e-02,6.635413519792647541e-02,6.294671095712182918e-02,6.278046963017978530e-03,9.873054122175222228e-03,7.019546890415376272e-02,1.147200766797688842e-03,1.322548869697494078e-01,1.187626606327359807e-01
1.844207914958428951e-01,7.180592057815524121e-02,6.259043094273257501e-02,5.919080117306423083e-02,5.738422246810710725e-03,1.322899440319585604e-02,1.001634322550521428e-01,9.231022026345245832e-04,1.275590530302740111e-01,1.388617321182774311e-01
2.091668824752708766e-01,7.396414639992364426e-02,6.420174596768507547e-02,5.537901455036231546e-02,5.444142440871796440e-03,1.676659079715171752e-02,1.207026185587733030e-01,9.186691170099273510e-04,1.357073981748627423e-01,1.215331607392802771e-01
1.759404623159795678e-01,9.189883174437757374e-02,7.189611582866561879e-02,5.238117474792254591e-02,5.353898878400518285e-03,1.996564020779370910e-02,1.269670972268254761e-01,1.562584317951350469e-03,1.515077243230003867e-01,9.672369398899624549e-02
8.168480943046962928e-02,1.153426547337939589e-01,7.940209131983366753e-02,5.693745145586891904e-02,5.979792519648288208e-03,2.039378144076947966e-02,1.190437412226772462e-01,2.720042322790850679e-03,1.591326910871672107e-01,9.343624301116397468e-02
8.693570512627472879e-03,1.376831133882057967e-01,8.343950730900429047e-02,7.704285268266024278e-02,6.758922043102795311e-03,1.668833329130185728e-02,1.095116757989233885e-01,3.479104100571769453e-03,1.536669019207216325e-01,1.076003471369824938e-01
3.386101180845584036e-02,1.437618317612391894e-01,8.643235147398278806e-02,1.010671260324381565e-01,6.371758119760895581e-03,1.069913647178923066e-02,1.121369075859615927e-01,3.321363122815394059e-03,1.392025760738082041e-01,1.217127489451119704e-01
8.137552564254498313e-03,1.181457569476276753e-01,9.060819713667976616e-02,9.907229286992655370e-02,5.009308771493315056e-03,6.277045250236969361e-03,1.244018554002426502e-01,2.864017001165265319e-03,1.149722575316457773e-01,1.337425351930322526e-01
1.952247799855352794e-04,7.107107333076689848e-02,9.363417784314967407e-02,5.871368946198782940e-02,3.897403609601615086e-03,5.419842608544689702e-03,1.284015286364016406e-01,2.950811097399899576e-03,7.968222762215881882e-02,1.508933911718455811e-01
4.773143097986858735e-02,3.374318390503881770e-02,8.947441836729884412e-02,5.536940028026830600e-03,2.834256642882610269e-03,5.930607367325008150e-03,1.134482377858316432e-01,3.282027087823974083e-03,4.202236158799704802e-02,1.654845765470052410e-01
1.210063467779963209e-01,2.326108651426942939e-02,7.358782367810537406e-02,2.636477220471531574e-02,8.030484868881981615e-04,4.315566761882020860e-03,9.256812725723816138e-02,2.528439827882098759e-03,1.418000177539007964e-02,1.517526535773736363e-01
1.621839649565368635e-01,2.904915969162452302e-02,5.071475048615750603e-02,3.065442164557279428e-02,1.544878342846527173e-03,2.805033878218476419e-04,8.628558519891676992e-02,1.908298068599404047e-04,1.341332216871493621e-03,9.399551848485263039e-02
1.542711111067729401e-01,3.194945688481391072e-02,3.554751402412299754e-02,2.447810863513909252e-02,2.571056827335050678e-03,3.461747664913076249e-03,9.416077162138518364e-02,2.330918277351099084e-03,2.657272955495674355e-03,1.790842677386788456e-02
1.332845430423313104e-01,2.041556505236630584e-02,3.822646666537310445e-02,2.168109583573907609e-02,2.118014579184208067e-03,4.510072134718310678e-03,9.997315708263734835e-02,3.534006996343445808e-03,1.423773583140246213e-02,2.172114297813773631e-02
1.352413456999272678e-01,6.619763591683791235e-03,4.915278508391060508e-02,2.191580130610627092e-02,1.065867845876953841e-03,2.352625254706193752e-03,1.035311412942642312e-01,3.799577934041445046e-03,2.937302677663700817e-02,9.777564779932107486e-04
1.451728309352526003e-01,3.699997673317154817e-02,4.783761341305103887e-02,1.804921189759980255e-02,5.409049519325939866e-04,1.380640597963992376e-03,1.204300067928543855e-01,4.130834816530652882e-03,4.146993128478584922e-02,3.829302002639366209e-02
1.221268423315091112e-01,5.171054014179253533e-02,2.957484267356775415e-02,5.445517841076968901e-03,2.620528163154987791e-03,3.301163905139333030e-03,1.436355635316345913e-01,4.120405510925540318e-03,4.628551967237208575e-02,3.744038610548159479e-02
7.158995262567693918e-02,4.675869266382511047e-02,1.283405288915324786e-02,1.346098864807747375e-02,3.597444869342048858e-03,1.282491957828252229e-03,1.386649994044622525e-01,3.031651439337795101e-03,4.206309078621646436e-02,4.993370396081883017e-03
5.094252214515741090e-02,3.883955627588926707e-02,1.566946449342716124e-02,3.029469670818155450e-02,2.459207770665074871e-03,2.445040226892699828e-03,9.447128298155423043e-02,1.766417081228410010e-03,3.284476880001929028e-02,3.702316520405402045e-02
8.931612680720303621e-02,3.754370911801263588e-02,3.441405594139897162e-02,3.793476944039896048e-02,1.067561221375830935e-03,3.402229376729728680e-03,4.663107149420897546e-02,1.839759636324917076e-03,2.824066462855148729e-02,2.469611401093036590e-02
1.465805795745681039e-01,2.769765490378553116e-02,5.040819259663512769e-02,3.696452472449950066e-02,1.774995755745145416e-03,9.753620451787166877e-05,2.940324564030633026e-02,2.969691139969045900e-03,3.334632550751302771e-02,1.246524011954847078e-02
1.701930501785735850e-01,3.203556432283594102e-03,5.128373705408069416e-02,3.311611624078625304e-02,3.655285400461820260e-03,4.485662937422578433e-03,3.581545012894028768e-02,3.340660188395480710e-03,4.313053881721569394e-02,3.632797288267058250e-02
1.521418811326672449e-01,3.544447354078107681e-02,4.169778677865965122e-02,2.916065540472840417e-02,3.350820747593288938e-03,6.393675466152167787e-03,4.148750277648201312e-02,2.381506149514510395e-03,5.004915323944137545e-02,3.003686766417604237e-02
1.150724802295070570e-01,3.873392344774000129e-02,3.493319924582122954e-02,2.253987169064108897e-02,5.711799562923649577e-04,4.680275717733295773e-03,3.582696794198209078e-02,1.694403000766788684e-03,5.040289098586756000e-02,2.415278093951578157e-03
7.817868717619154417e-02,1.468565958664678518e-02,3.845164205029676097e-02,1.249304163817852031e-02,5.361404266363962307e-03,2.067545203123324210e-03,1.782799669853920438e-02,2.360919042668818517e-03,4.308792564122428115e-02,2.331512790489104897e-02
5.170778872316643404e-02,5.932430170225580848e-03,5.201127540950807593e-02,6.511380870057331509e-03,6.665599710117300382e-03,1.718859238702288069e-03,9.682094529305599814e-03,3.001257743948681968e-03,3.164526254920226045e-02,2.717063896381380697e-02
4.122547607374297401e-02,2.976999897225472876e-03,7.274932483136485606e-02,1.383180540922530379e-02,3.493655955966270578e-03,3.384792744769269876e-03,3.370551067118664201e-02,1.949658884448896663e-03,2.626432157197224754e-02,1.376478502041614087e-02
4.478153799884256048e-02,1.868222228035525817e-02,8.981491759002020736e-02,3.202320806629101874e-02,2.553159553444044874e-04,4.284008788378547948e-03,3.878136259522435569e-02,2.492575309440712766e-04,3.288483705212343761e-02,7.412777239105482543e-03
5.557776648820463017e-02,4.898787026893455104e-02,8.236862204158572343e-02,4.699113187795521396e-02,6.062534892572405808e-04,4.247664884067251651e-03,2.290264384755470728e-02,2.019163239547272243e-03,4.163613962646245392e-02,1.895303929405709256e-02
6.717110029445141905e-02,8.195497478462766827e-02,4.135232634010918562e-02,4.848324966063764091e-02,1.500524085320369735e-03,6.583300819876008493e-03,2.236333419597736835e-03,2.978226569078198244e-03,3.619842478626107696e-02,3.536422088100307087e-02
6.885826831868165077e-02,1.066978173794715934e-01,1.136248031092370984e-02,3.977852129455844432e-02,2.702614528925744233e-03,1.156356804938478595e-02,2.003947861527747426e-02,3.655258068831870096e-03,1.433310118717057505e-02,4.922487434596960199e-02
4.876902759445419372e-02,1.131514402728448776e-01,4.069258172902971704e-02,3.122749315644446355e-02,2.705901771281766458e-03,1.316737782953240204e-02,1.628059071435952049e-02,3.987170770908267728e-03,7.619460716708433695e-03,7.372540820430947828e-02
1.479846825211208680e-02,1.115894776970657171e-01,3.284514237566488887e-02,2.877483495109207923e-02,2.989080899534305412e-03,6.614249358236407549e-03,8.924925508086900897e-03,3.241270685448455896e-03,1.134930637271359607e-02,1.129172394741590063e-01
3.854963090129332262e-03,1.277912658284815206e-01,5.224471215461439985e-03,2.840140857343887576e-02,2.071244207008373847e-03,4.052702827021064519e-03,3.461870971402645353e-02,1.256716064922652060e-03,3.988098270318430651e-03,1.397964707305221210e-01
7.644497513186309517e-03,1.660107912270542829e-01,1.417266230978581239e-02,1.997491783265969642e-02,2.416445312960705666e-03,1.048344954294642278e-02,3.908018683027433132e-02,9.330893711139409121e-04,1.901261727410991781e-02,1.258909600648217275e-01
2.695704192468448279e-02,1.882241695991567765e-01,1.288851133425907014e-02,2.083161868901252638e-03,8.189758026701677435e-03,9.739345876238224287e-03,2.934977482246023395e-02,2.148520139886715610e-03,1.292352685610677690e-02,7.854014533739633874e-02
2.029927105842517163e-02,1.550200760943053480e-01,1.148945782702766490e-04,3.177321804410260242e-02,1.029902537439020792e-02,6.061578763747867658e-03,3.801444863944541952e-02,2.480231725455808115e-03,1.337382790552643294e-02,3.313067576984796148e-02
2.225778353690873942e-02,8.649450237129442665e-02,8.534870548527763098e-03,5.575722018469047442e-02,8.187259690818812427e-03,5.178148173130725507e-03,8.559024710057731855e-02,2.910510646914698726e-03,3.621307639112035515e-02,1.921382344737449649e-02
8.330901812392335626e-02,4.631992600731767162e-02,4.479981710506699549e-03,6.569639519692827001e-02,6.214033140832784553e-03,8.848252918123626631e-03,1.522198185364284084e-01,3.550688138151533810e-03,3.431971571776041424e-02,3.910028811203538485e-02
1.335113455323988507e-01,5.475787169992302195e-02,1.247105176489137282e-02,6.775163047432973540e-02,7.158055579875217261e-03,1.298713744875506712e-02,1.908789936564537215e-01,3.477240999333550305e-03,1.275949403743721101e-02,6.615612632119442782e-02
1.453924761507969232e-01,5.912893775434455157e-02,3.222267772839643857e-02,7.534810451523470121e-02,8.852143693377870562e-03,1.114958723282709688e-02,1.717588310533820217e-01,2.569069083250128359e-03,2.195933403899680801e-03,6.502625392676415761e-02
1.087927090205112884e-01,8.282060576947926009e-03,3.458949755050542280e-02,8.890563408258067568e-02,8.168586754929339777e-03,2.473800520312610662e-03,1.168501888919616649e-01,1.891279469854856028e-03,7.947306030086566386e-03,2.764809699898698736e-02
4.441240056223656751e-02,8.163417613489648561e-02,5.278176785931194132e-03,9.102020512866346169e-02,5.865652393943585063e-03,5.267405092065743227e-03,8.393094232726239223e-02,1.874012904470920239e-03,3.521708347117270127e-02,1.558928151200191133e-02
6.436727123589939224e-03,1.527701049074555728e-01,4.909502641391257083e-02,6.820263677809924874e-02,5.159891610361956073e-03,4.019805084107925044e-03,1.068424890219530077e-01,1.759020782629871962e-03,5.874794219022560354e-02,3.314368381565468979e-02
2.315227511750900594e-02,1.690630101659615359e-01,1.088573855866759449e-01,3.037545580951865609e-02,6.130771942288594512e-03,5.264593798838948686e-03,1.601275609063949334e-01,9.579861634830713450e-04,6.864302940818263477e-02,3.007908364709328125e-02
3.399595014996235898e-02,1.434089451299336571e-01,1.546445574170017823e-01,2.475304719534098322e-03,4.931703460325061010e-03,1.561762341508954495e-02,1.956922245315803610e-01,4.693310903239389441e-04,6.624776677675640879e-02,3.176636304966892754e-02
7.431398579036947727e-02,1.187252395549701911e-01,1.689748589086484121e-01,9.947317002731784208e-04,1.373769787182936456e-04,2.312013000156185397e-02,2.005104834119254831e-01,2.314795865595777047e-03,5.088511847836637431e-02,4.057036920156199822e-02
1.192174471575608852e-01,1.284856682256474703e-01,1.428430261092801801e-01,1.058913028617044019e-02,5.377554038251725239e-03,2.770458865093465214e-02,1.964042699423166061e-01,4.028829126660452356e-03,2.436646662345288983e-02,3.207296862928167569e-02
1.079421342670623951e-01,1.707437350696028588e-01,8.908263778814276557e-02,1.817634778523164255e-02,6.877465825957256723e-03,2.815948523585932312e-02,1.944359141271388980e-01,4.648983385027772447e-03,2.504002056658816491e-03,5.180798916932508567e-03
4.133721452307791838e-02,2.183499511764768752e-01,3.533818721909276483e-02,1.785615784961640598e-02,5.497547020679934525e-03,2.297597477384942175e-02,1.780908907183298140e-01,3.793094531012326451e-03,3.691676488699226558e-03,4.543914007945653449e-02
8.406269812036928218e-03,2.487279176446699769e-01,6.140267889008952859e-04,2.200886582279566739e-02,4.140394264018909531e-03,1.499663619866801502e-02,1.343974238484018924e-01,2.202887289622464627e-03,2.833170250443007437e-02,5.184150691693729246e-02
2.675717816274828312e-03,2.582812459759709078e-01,1.872819410097770199e-02,3.532192723703427018e-02,3.387916974575724740e-03,9.798060618011814396e-03,8.176071246331233222e-02,8.124147576011723527e-04,6.026672520340499439e-02,1.986736512205529437e-02
1.327008481066414142e-02,2.554956270662325779e-01,2.448674532349537358e-02,4.333545610885889549e-02,2.367751288757618915e-03,9.092557045523499276e-03,5.316813951934076798e-02,3.134979992613663442e-04,8.217349308677793229e-02,1.767878742065029374e-02
6.956498329098016395e-03,2.494630426768248144e-01,2.557865904893455791e-02,2.975347393916511277e-02,1.290849569600787923e-03,9.051202630260676493e-03,5.624394415950192960e-02,1.711037085997906167e-03,8.273432760211733850e-02,3.195455821884456843e-02
3.323186232225553566e-02,2.397428003000168784e-01,3.691238600668594189e-02,3.605621806701392144e-03,1.068361267794018391e-03,6.136317377215148514e-03,6.572270294877316510e-02,3.298994567964449749e-03,5.875780630798730503e-02,3.160337603375402288e-02
5.014323161145391519e-03,2.123268269811130760e-01,6.580925558701959666e-02,3.628177564671265787e-02,1.913396996379088111e-03,2.113229703345799893e-03,5.930582965289911412e-02,3.984254912424335313e-03,1.868822187373938432e-02,4.386123197627259107e-02
7.788511600065617380e-02,1.577985866422323136e-01,8.929394017561068098e-02,4.628075116051164062e-02,3.107447042653256955e-03,7.584961252252505216e-04,4.209029638559923236e-02,3.068346842708040943e-03,1.952806735703056795e-02,7.495974000751635946e-02
1.542041596766280109e-01,9.678214190547690388e-02,6.879870740301001486e-02,3.179090926819171797e-02,3.311970833134263853e-03,1.358906592094970495e-03,2.598592379793025070e-02,1.653332834010961183e-03,3.787014793625060466e-02,1.080932765042092597e-01
1.775687928096097157e-01,6.205779981977287141e-02,3.771242822445675102e-03,1.408386664785670102e-02,1.502135717198767534e-03,3.572870149034408638e-04,6.771173886604066328e-03,1.563142399343327724e-03,3.023825794381075280e-02,1.310387726246933504e-01
1.543209655838350403e-01,4.653956000216507433e-02,8.918210122771716430e-02,1.164504164919814844e-02,1.765026805737295946e-03,5.500263533870813036e-03,2.128829155062685052e-02,2.950915871325761677e-03,1.096085032234989966e-02,1.443638735564813091e-01
1.093368091700505224e-01,3.325656959299608251e-03,1.364236203846790896e-01,1.867926871105370784e-02,4.881841764436604773e-03,1.060742943594326221e-02,4.617364640041030088e-02,4.066960012996416983e-03,3.890507663639714009e-03,1.468935067589452192e-01
5.147301880044608674e-02,8.643080861783787594e-02,1.273317013953645382e-01,2.101958420977983327e-02,7.308688503843031349e-03,1.271070667772316795e-02,5.424976272091566049e-02,3.387892738279566374e-03,1.239094826759612640e-02,1.294425934499463804e-01
2.036061113925058397e-02,1.831866536407125989e-01,8.594801372788885008e-02,2.365489261430400725e-02,9.881604259165850668e-03,1.210317539269411061e-02,5.331240944316607139e-02,1.081452293472747296e-03,1.234725424622870604e-02,8.441621907178530060e-02
9.884915764959462114e-02,2.485247741993931447e-01,5.232303635719232071e-02,4.340503189389312289e-02,1.268726302704944672e-02,1.060545007694079639e-02,6.080648697056796614e-02,1.599320074056498992e-03,9.995356648270066480e-03,2.277226848271922399e-02
1.645988496180933458e-01,2.943457370013094487e-01,4.887526607184364269e-02,7.644825206838426479e-02,1.420766004483042279e-02,1.029891307468704283e-02,7.902588932641008146e-02,3.603214942899511924e-03,3.045582785840151088e-02,1.829117597218483937e-02
1.999766994427439881e-01,3.399864481856098575e-01,6.683723742860595007e-02,9.342454923836640557e-02,1.332960845991397816e-02,1.299391763759671220e-02,9.728031044241795822e-02,4.503940331894413542e-03,2.062337834306172957e-02,5.235473971008154127e-03
2.090316097240041693e-01,3.637868444333435813e-01,8.109308212348236011e-02,7.570377193731606114e-02,1.101543888807663546e-02,1.793871861471980911e-02,1.101975706183142695e-01,4.238015484877376456e-03,4.262695179467416128e-03,4.670858915662803867e-02
2.152587302505635514e-01,3.452074418680349810e-01,7.784080547851952858e-02,4.223642686946008779e-02,9.133424211248174565e-03,2.131758392490228082e-02,1.225775681426608671e-01,3.298063698695488568e-03,1.006900416227361414e-04,8.736768221910894139e-02
2.305759164798042438e-01,3.137269750489539710e-01,6.799709184858217237e-02,2.518246116864240533e-02,7.989278129812874690e-03,2.074705533476812330e-02,1.411800986105769817e-01,2.932462295855078980e-03,4.665322739806954805e-02,9.626591258856176392e-02
2.420482317565708918e-01,2.998465947352598748e-01,7.143387840827147839e-02,2.775271351010398513e-02,5.709155708253228247e-03,1.869116395135226108e-02,1.663424892814700518e-01,3.830107007831014612e-03,1.010772455813422482e-01,9.849894925028063186e-02
2.438237920123970115e-01,2.783395055453145028e-01,9.031241565939918114e-02,2.601084884944019140e-02,1.161722839866804807e-03,1.883702620388786123e-02,1.889822384862804294e-01,4.729336957249962239e-03,1.243222381246633229e-01,1.130200459502746502e-01
2.551078675218629854e-01,2.176236299802272456e-01,1.060966215550609437e-01,9.453425455278550646e-03,2.825695239815879424e-03,2.050634407531749456e-02,1.969243980927388449e-01,3.946992085295862249e-03,1.123043303706000445e-01,1.230387422571082301e-01
2.763776163208806480e-01,1.427631705162576981e-01,1.017643100246002352e-01,3.333085341081337173e-03,2.373655356472821002e-03,1.902776574232231677e-02,1.846753654105291187e-01,2.015766271526636677e-03,8.362867667331605470e-02,1.054346861442441302e-01
2.605207766689678905e-01,9.389537595550845328e-02,7.728327256248665456e-02,3.957108558001690840e-03,6.474806552040903926e-04,1.120469859826189567e-02,1.552828585959856178e-01,8.294823848516644097e-04,5.274324708458323629e-02,5.973147228839865985e-02
1.751143395598548369e-01,6.617869899188234817e-02,4.473023519898243483e-02,1.890151851934660301e-02,4.475676283662485800e-05,6.887134822234856207e-04,1.207464044071331760e-01,6.191020489717551003e-04,2.928111504893297218e-02,3.152415899556984449e-03
6.356567666643006542e-02,4.020822844957279429e-02,1.638391600945168433e-02,2.072143919919062355e-02,4.894469302588008719e-03,1.029361002604270263e-02,1.022940902401165419e-01,1.627826238061279426e-04,2.510309694375125952e-02,3.740474182080805177e-02
7.858452655815070798e-03,2.387540610940532687e-02,3.592201844020852936e-03,1.180828787579235942e-02,6.586766146868376810e-03,1.293058533719144976e-02,1.096123695650817048e-01,4.804163243983011387e-04,4.132095831035048628e-02,3.467280110112662406e-02
3.015535346074713768e-02,2.066584571437817680e-02,1.900870320852802303e-02,7.752035583160810442e-03,2.520867170667309698e-03,1.031008595100747077e-02,1.179529194045912527e-01,7.127091037059031411e-05,5.765258837982734780e-02,3.412592972673992447e-03
2.651817305601678054e-02,7.204351837005308276e-03,3.378171090796546622e-02,8.259941404237820112e-03,1.289831091350645545e-03,8.057004466379790245e-03,9.624226334468463651e-02,1.294728863894330836e-03,5.148725428831878864e-02,2.199645246693022679e-02
3.153360805128058858e-03,2.398141716402193979e-02,4.821458171645474217e-02,3.522985793752235559e-03,1.014351984828790014e-02,8.347333724109460076e-03,5.574743350388940144e-02,2.148178688688364302e-03,2.220910992971533715e-02,1.500349741871902232e-02
4.308112579792547359e-02,5.291737324170758122e-02,6.174787449313706711e-02,5.940286795396677259e-04,2.287174674077760775e-02,8.187123772532816507e-03,3.414111262665698449e-02,1.947488959880367288e-03,1.149620466259163379e-02,7.077607693569827607e-02
2.147463855226336427e-02,7.970424033671066888e-02,7.171392109070397203e-02,8.679373204030957703e-03,2.779469386611486265e-02,5.813348063637895601e-03,4.022143350820791413e-02,1.579217213419688987e-03,3.065716654209325528e-02,9.000224164613834787e-02
9.867314431103223205e-02,1.180649785163661036e-01,7.303600060736872845e-02,2.282788928731268110e-02,2.296038944324523684e-02,4.009967998363084610e-03,5.290445773490387582e-02,1.643222237334118676e-03,2.919881102386101546e-02,7.410204879900240960e-02
2.304364017162699452e-01,1.330697073481105774e-01,6.625759430280983575e-02,1.804848508672890831e-02,1.592203075840040519e-02,4.713368018558819310e-03,5.913003176489409207e-02,1.657624798249933938e-03,1.581664559269473080e-02,5.899440864336757961e-02
2.557043142023437410e-01,6.191873476298925816e-02,5.844485527163748029e-02,1.012067742238690476e-02,1.088005520662709349e-02,5.071624958304373626e-03,5.721774264601651311e-02,1.251246303549441571e-03,3.192802679568357976e-03,5.255312695952307767e-02
1.694170920833475424e-01,8.132196723977830333e-02,5.261326869605627982e-02,3.769006063780602767e-02,3.840537578295574826e-03,1.933871847704906038e-03,4.314857555853353344e-02,1.125522420314349842e-03,5.943171609955512011e-03,3.977303154034418642e-02
5.496887013446088988e-02,1.864814101859468276e-01,4.783515149665799882e-02,4.155385618153598082e-02,7.478235563230370940e-03,3.479279104582201892e-03,2.187690201720688538e-02,1.976517624223554474e-03,1.597446958639765768e-02,2.856453485209387369e-02
3.308650681543452710e-02,1.689696578803468741e-01,4.901101855918274519e-02,2.226196357634203232e-02,1.586814740582940045e-02,7.891966593502393323e-03,1.045923754209409327e-02,3.043985380883516487e-03,2.416537918574635999e-02,4.419690112947607941e-02
8.662029247932109821e-02,7.401044604057205323e-02,6.078907123760130676e-02,6.568271894401618398e-03,1.341397325160698095e-02,9.921406106617125520e-03,1.080318026278600380e-02,3.000294577657044732e-03,2.128586108531748192e-02,7.877122745926599945e-02
9.837224208319607366e-02,2.554086060517957169e-02,7.419142501205390483e-02,3.324884055821150652e-02,3.441821445502250398e-03,9.902236311140708708e-03,2.221612564194366118e-03,1.891847436128820661e-03,5.513483744703098245e-03,8.676796708239938039e-02
7.757860984447492725e-02,8.751557582476487962e-02,7.662897110860297789e-02,4.509053496473054007e-02,4.746291640062250301e-03,8.572927631088342326e-03,2.139760087080605500e-02,7.964016547829450617e-04,1.608405171714039419e-02,4.362423812006419044e-02
7.438220824879272774e-02,2.043904415255932971e-01,7.287101233386139576e-02,3.171484035208406438e-02,9.019755155099408103e-03,7.526040372242824572e-03,2.977008686827391226e-02,7.619059510995625554e-05,3.864618343864283101e-02,1.945408777403457440e-02
1.254105385676413942e-01,2.806498829225182456e-01,7.842690403088657669e-02,3.030149162778769840e-03,1.299037231509535782e-02,8.140898748093967560e-03,2.378050448671020084e-04,7.050392073989042267e-04,6.017473724252723338e-02,4.617216317863064717e-02
2.010234974471220570e-01,2.885068961031985735e-01,9.210520015307455122e-02,1.614416176483833565e-02,1.551774477768516972e-02,8.743135451675095732e-03,3.685634918929386189e-02,1.703196513589183905e-03,7.319813973963147646e-02,6.305321555371990599e-03
2.445807072868693421e-01,2.644167799793610829e-01,9.239685353239249221e-02,1.869544565476677009e-02,1.162572673927268936e-02,6.238915203609729163e-03,3.092470807783028949e-02,2.534528544576004384e-03,7.047861264433229189e-02,7.107005754393949659e-02
2.331976641657873828e-01,2.331060774321226936e-01,6.710507790872628775e-02,2.036838276355247557e-02,1.739036809671828943e-03,1.512281238762272191e-03,1.112632367497446914e-02,2.742177639592635521e-03,6.015532415207258676e-02,1.114573732533744727e-01
1.790315397459143198e-01,2.064671054864351540e-01,3.276778877548363472e-02,2.840697641534523088e-02,7.718607982480231444e-03,1.154738381522814415e-03,4.195715345923097667e-02,2.271316268724525491e-03,6.100068944538281079e-02,7.383022827069318783e-02
1.072483086704840716e-01,2.204180370713612613e-01,1.299773907502875178e-02,3.377522388208993587e-02,1.181922907300635497e-02,8.663014396766949938e-04,5.000037870000581530e-02,1.554312978580199697e-03,7.867491814502396152e-02,1.377581891345711768e-02
4.533737924804383951e-02,2.614623585630674318e-01,7.774515184515213076e-03,3.716839733725191969e-02,1.073390404963582047e-02,1.593441058116836125e-03,6.550125868149436759e-02,1.088888665431083161e-03,9.816439101617424612e-02,2.423055681336010875e-02
3.390914456579700344e-03,1.922684950037116258e-01,4.805274428031549444e-04,5.023917617953571613e-02,7.458971965973852994e-03,5.818483523838841390e-03,9.602228494966112693e-02,1.167275043690346433e-03,1.042900494151036556e-01,1.151143631458995675e-01
3.727348500245210305e-02,1.031302269298951108e-01,1.232692992294213107e-02,6.826251806971311842e-02,4.822434535457095772e-03,1.076526474634300658e-02,1.119983617997045849e-01,1.882645829426340825e-03,9.965894442296954758e-02,2.011274494204328134e-01
9.498167683305827613e-02,5.120243279543580384e-01,1.872362913767831177e-02,7.252078085502640381e-02,3.767943174636551908e-03,1.235504696493754800e-02,1.002031522969716176e-01,2.889637484570434147e-03,9.584618356529522876e-02,2.120621548896252095e-01
1.551668657248122252e-01,7.692757811485240182e-01,1.572930777982989303e-02,6.043764736442479302e-02,3.508484631904501463e-03,1.024721238826633435e-02,8.480947313117694064e-02,3.492200564920069916e-03,9.459418276833765626e-02,1.620775716176907633e-01
1.811845078517600183e-01,7.381692336129174192e-01,1.464971941730957433e-02,4.672641855769045505e-02,3.710850283126176062e-03,7.466638326215452488e-03,8.629031840654535768e-02,3.415926917971585149e-03,8.769111382495774210e-02,9.552120175274535219e-02
1.530945191856627474e-01,5.173154807022196655e-01,2.030553750353212422e-02,3.748987640288660439e-02,5.621954650260341420e-03,6.325859446066441245e-03,9.342190469497010930e-02,3.064012961588348950e-03,7.258181031558057217e-02,1.875293213533556907e-02
9.792397484333389968e-02,3.006002237452371495e-01,2.296659042014520188e-02,2.461207662495040055e-02,9.773022295404068527e-03,6.411356351397673979e-03,8.514400735871925641e-02,2.876132373422793116e-03,5.629679689312697133e-02,7.400168223219462382e-02
8.132221886776497266e-02,2.164319023025259026e-01,1.537820216429983122e-02,1.478632021595640764e-03,1.353992474877832586e-02,6.802921110182470754e-03,6.054175054573865400e-02,2.892136573702340854e-03,4.310882065589223544e-02,1.401560114518557998e-01
1.460881517785957151e-01,2.690761192722668782e-01,3.087096982293348335e-03,2.840079189255055592e-02,1.297551629809924612e-02,8.500945369427500078e-03,4.264273412052954626e-02,2.872027739588224951e-03,3.077943209019903120e-02,1.173527673427250395e-01
2.558223574418135304e-01,3.684081095155500862e-01,7.037872763176427141e-03,5.041289064627102467e-02,6.813466140756159126e-03,1.280598901045728114e-02,5.720312064400105700e-02,2.594711382677264422e-03,1.932222929217643215e-02,1.882493534231438961e-02
3.300036691217518858e-01,4.226244204988939823e-01,1.544920072359889582e-02,4.139942499467066245e-02,3.366890378827523157e-03,1.839935477449401030e-02,1.039342586558930637e-01,2.270830660120657946e-03,9.159523814024687210e-03,6.324689007880872349e-02
3.343434582628402318e-01,4.150309514757609675e-01,2.201206827800396976e-02,1.213154692956177824e-02,1.588971301081332915e-02,2.247372201330597938e-02,1.534547425871782556e-01,2.477491000075509979e-03,7.062077367507520881e-03,7.526783886257353007e-02
3.025494460350363624e-01,3.865771710077982593e-01,2.177969868880619275e-02,9.152508917997216609e-02,2.824722459180647322e-02,2.370996144236784189e-02,1.777017987907994478e-01,3.177159507493670931e-03,3.429138996818215795e-02,5.695655838302474822e-02
2.743578047093612748e-01,3.700374211315112793e-01,1.490092389790498816e-02,1.546386835339775556e-01,3.506991830940739407e-02,2.170591738109483096e-02,1.697344282015994243e-01,3.450446794474685067e-03,6.032207001530205670e-02,4.822833011378301060e-02
2.523242378957959997e-01,3.611137351333871259e-01,1.120115278291659508e-02,1.737143354861183653e-01,3.233372465792019174e-02,1.585066020924436742e-02,1.346642567133470580e-01,2.943454648448287549e-03,6.721625828180101403e-02,2.194372414478930333e-02
2.267792028560081663e-01,3.372700055992174928e-01,1.816950457638234415e-02,1.558886495938365258e-01,2.332347305503362431e-02,7.955184268390232474e-03,8.573598030203527509e-02,2.431592462491776428e-03,5.488122765001834241e-02,3.963966456253188719e-02
2.128012842363931623e-01,2.961777504752543533e-01,2.869094188183839156e-02,1.242223388532957135e-01,1.567238406339687209e-02,2.750302396483592527e-03,4.513890304582231922e-02,2.181080720675998216e-03,4.131310060287418651e-02,7.730527341834711463e-02
2.383451123802208249e-01,2.701098836539913006e-01,2.669500895541809804e-02,9.129857534745250414e-02,1.273042598255184725e-02,2.398584239605740243e-03,2.341397079737703169e-02,1.472505897832668493e-03,4.030584021203578726e-02,3.715288235638093683e-02
2.966244011061174302e-01,2.821290830480371881e-01,7.569882059718682256e-03,5.862007348678211632e-02,1.168658075210423503e-02,3.848343196643463394e-03,9.238710353849748785e-03,4.411775033905265906e-04,4.624648933132491369e-02,3.520452509285211529e-02
3.316610176994724823e-01,2.991635777932445950e-01,1.173333368326396134e-02,3.073943582402726554e-02,9.693871938377359929e-03,3.626243671691379081e-03,6.732090557795954860e-04,3.322815195384632748e-04,4.258968141586505496e-02,6.553895764828247816e-02
2.951518083498844702e-01,2.643958498759645948e-01,1.330292979612299024e-02,1.565729814609621157e-02,7.822993511339852712e-03,1.184379722866318613e-03,1.343651203231572763e-02,1.429598047906195527e-03,2.337611067866125769e-02,6.711982724933673872e-02
2.092872717869772026e-01,1.684564921307196705e-01,6.450075404866417728e-03,1.280383394641971574e-02,8.187585578882264001e-03,3.384909142337930686e-03,5.590117782864648804e-02,2.620324780181772749e-03,3.517411682273778508e-03,9.212710109494155752e-02
1.391984850943820129e-01,5.433318938407018239e-02,1.784251718822512170e-02,1.188856017416208000e-02,1.018022525339534225e-02,1.020795264719717883e-02,9.056410683247505256e-02,2.970487760626492734e-03,2.981875474816669206e-03,1.185864297676750695e-01
1.090634275309465412e-01,3.928763413070391480e-02,5.195074671254801962e-02,5.212519488587536408e-03,1.096161749184840738e-02,1.739518781252056417e-02,8.178610975216885071e-02,2.183761460712117103e-03,2.086635933007285545e-02,9.318432606511424521e-02
8.827950399150241712e-02,1.057941379347056565e-01,8.225075715706821333e-02,7.357136783807588509e-03,8.187827175774259683e-03,2.199656462250541844e-02,3.845467790617471127e-02,2.060029928697847579e-04,3.602763114952568096e-02,4.286364889101408615e-02
5.410012432532496085e-02,1.477243418353197391e-01,8.741653704840379735e-02,2.578971015218897711e-02,1.839772820811855052e-03,2.328245251102884633e-02,5.048843695580217464e-03,2.288875190476746032e-03,3.786900705149309071e-02,3.940727449589759290e-02
1.866904242746625711e-02,1.601812473786666802e-01,7.567139303819772622e-02,5.039561641226522615e-02,5.378677770234479606e-03,2.170634347389083230e-02,3.103354797797629877e-02,4.001507858648397677e-03,4.041863161191357884e-02,8.477630932722871049e-02
6.397116066009990443e-03,1.462118483104459243e-01,6.505854777620813378e-02,7.248094955252294691e-02,9.760254052214638321e-03,1.609954938623204407e-02,4.360801818390734608e-02,4.559755621363380425e-03,5.638654436517766266e-02,1.173024724454784784e-01
3.099481416346747467e-02,1.270889689255919885e-01,5.801464075830582712e-02,7.859274877147534588e-02,1.003340247588757443e-02,6.311244177248126475e-03,5.157441095236967032e-02,4.928474970091005318e-03,7.542748760861517354e-02,1.067396194941973020e-01
6.438725672600592587e-02,1.200500874058114120e-01,4.623672886314177805e-02,6.901058735353132745e-02,8.635089617299928494e-03,2.822609191253747877e-03,6.355445349187138770e-02,5.818944449056485078e-03,8.075594254096797597e-02,7.612143886727593123e-02
9.537992708733850078e-02,1.175208080033565278e-01,2.758362300300310280e-02,5.920889281715820129e-02,8.845666006345519888e-03,5.085838096979857816e-03,8.634052350751499072e-02,6.791599587717508935e-03,7.136422138250676783e-02,4.978591926948699314e-02
1.054016111058079519e-01,1.069267848810174920e-01,7.313735632769385528e-03,6.001951386025825702e-02,1.135444751997220260e-02,3.638979123920735304e-04,1.136246371344592221e-01,7.017675379313000408e-03,5.703356315566578821e-02,3.260373240662994138e-02
9.409628461671371014e-02,9.929709687618357150e-02,1.002216327749676401e-02,6.806739741416209521e-02,1.385397342837003422e-02,4.846605722270802552e-03,1.238985950497384636e-01,6.032262901695496088e-03,4.447001452974048280e-02,2.584186559496363597e-02
8.084731900600300447e-02,1.180873671817435910e-01,2.186114224536300082e-02,7.544200046206746280e-02,1.366573280756779550e-02,4.690666817291801530e-03,1.011336917713663019e-01,4.046276477108820893e-03,3.517574859324571618e-02,2.570614578100435810e-02
8.163399316305039455e-02,1.681508047998045985e-01,2.570944144936769885e-02,7.781104307848485391e-02,1.098559000797190086e-02,1.571582451542222962e-04,5.540034443328152591e-02,2.108600854674431459e-03,2.707165796808727598e-02,1.864106170350534122e-02
9.759097355998816448e-02,2.278419230966076958e-01,2.254132853081177584e-02,7.472100465953285253e-02,8.982720293226194655e-03,4.076470194504117246e-03,1.560814757339041257e-02,1.374297684405118101e-03,1.552452958062240651e-02,6.108557717083374153e-04
1.249230642748738185e-01,2.673018095862619292e-01,1.931880735258224152e-02,7.040248429912229766e-02,9.968144478143640963e-03,2.655905753814522159e-03,3.483098816727406635e-03,1.803787547206012979e-03,7.648215756272174967e-04,2.330244787239902499e-02
1.580343287142595143e-01,2.746533650592418163e-01,2.233627861425989403e-02,7.207622427478853344e-02,1.272249594612614304e-02,3.265063520321724415e-03,1.958349336477849256e-02,2.110682988067759999e-03,1.595495551105044485e-02,4.828143794328913080e-02
1.849455708234250262e-01,2.635545516905966057e-01,2.911304209242829288e-02,8.180319871885251282e-02,1.471975838214863858e-02,8.669266203895228950e-03,4.935180418859184959e-02,1.310177161924895627e-03,2.348192811214168743e-02,8.414494040356669535e-02
1.996975760665089528e-01,2.468057862240330969e-01,3.268841719278592350e-02,9.161483224847589979e-02,1.552164459745600765e-02,8.869622093516559697e-03,7.395267409409247983e-02,4.674256274944709258e-05,2.389265456581323929e-02,1.218748707105323792e-01
2.166418093403286727e-01,2.159258803016703143e-01,3.371451997859262195e-02,8.974372630874909162e-02,1.649393112709441819e-02,4.100458739893253837e-03,7.940472066256837325e-02,6.436068557186735636e-04,2.356699377015390381e-02,1.330218298840209201e-01
2.501973632769372569e-01,1.670945335434212420e-01,3.925702243144360559e-02,7.175337176988651200e-02,1.817293843517108626e-02,1.962547780856476517e-04,6.566992275145441815e-02,2.533561189745193011e-04,2.752089444534803336e-02,1.075577639799114443e-01
2.816484360314601698e-01,1.268385293851683748e-01,4.646149267643690656e-02,4.548401123250986333e-02,1.956590023755206548e-02,3.485194030102946663e-04,4.522854054933588691e-02,2.921167247361229277e-05,3.472644075954081644e-02,7.110137321956139234e-02
2.751029600556273991e-01,1.231622845268667971e-01,3.985677079926604888e-02,2.428319377884518085e-02,1.982663652990602696e-02,2.960982785629218388e-03,2.611839019580158502e-02,7.140295034586067579e-04,3.997118478587323442e-02,5.254232958600847658e-02
2.344265495719008441e-01,1.493760593361018463e-01,1.361528893028040796e-02,1.453647216861135918e-02,1.894335109473525847e-02,1.707198544753074079e-03,3.354056162269612035e-03,1.627457717279221167e-03,4.055234165233734256e-02,5.497333235441005661e-02
2.106496689018234336e-01,1.800864708899949651e-01,1.510188014312458145e-02,1.219763548811884750e-02,1.653620347112191857e-02,3.024823379836135036e-03,2.429563589243713406e-02,2.120843936392131229e-03,4.032105480949885884e-02,7.003853289665788739e-02
2.334253673704700938e-01,2.026825776079245189e-01,2.525875126972036699e-02,1.241120109595096263e-02,1.208973617789462288e-02,4.654353800364610487e-03,4.033634467758319408e-02,2.760278616457713125e-03,4.441009630308913325e-02,9.865542300538408804e-02
2.675192578428358114e-01,2.153350400935099551e-01,1.515987211215632374e-02,1.685834873439197648e-02,6.894009103777405494e-03,2.654417987307028295e-04,2.823245946384534549e-02,3.904355088601476828e-03,5.015738629937549486e-02,1.407245321914076253e-01
2.629478981964682438e-01,2.164660788003936187e-01,4.501267543257931464e-04,2.739333910377389145e-02,3.390650868454902871e-03,5.928932239191847357e-03,4.483421076453709270e-03,4.477477008997176808e-03,4.826676991447779314e-02,1.825521182894958572e-01
2.208976837259182813e-01,2.109920699249636100e-01,7.812707295319035183e-03,3.750443463721284121e-02,2.593021932776887455e-03,9.857876159611209457e-03,3.504591246783671232e-02,3.624621592065248137e-03,3.533831829760565590e-02,2.127430303379887755e-01
1.816244531546994945e-01,2.060033072916744867e-01,4.062201810989452336e-03,3.702314697612176658e-02,4.245052898161740321e-03,1.207236705186825673e-02,5.309284276599227775e-02,2.243449669811567113e-03,1.944952585091272099e-02,2.344279533719605402e-01
1.626457947517004343e-01,1.915194650598628645e-01,3.767072927509802684e-03,2.413715742989698890e-02,7.569415779020898481e-03,1.346546596351228496e-02,6.398762009309277854e-02,1.401734683833460527e-03,9.191798407835408830e-03,2.441433211115575652e-01
1.381512390826759584e-01,1.505706049880714825e-01,6.882282390220957960e-03,7.226079130071341554e-03,9.543879929825610509e-03,1.227257654528174716e-02,6.926985542637797977e-02,6.581140823124067901e-04,3.913484524230541849e-03,2.211675412399091156e-01
8.655471173022416531e-02,9.497054654462534773e-02,4.426501579077254250e-03,5.375897131356860426e-03,6.237055450237827085e-03,7.689044831032407733e-03,6.281374720331420192e-02,5.672893896542705559e-04,1.479242142352239775e-04,1.628282522620077555e-01
3.537814853288930722e-02,6.047840578016357854e-02,3.900438657636650427e-03,1.256539611341873225e-02,1.455882110826476391e-03,2.557202486443094312e-03,4.732667230076870180e-02,1.407306334260883390e-03,2.953828116524625375e-04,1.065899506851855361e-01
2.961166802229180106e-02,5.869279659292091222e-02,1.043562889309557727e-02,1.631277681612396113e-02,7.637662562912110077e-03,5.525786546279487120e-04,3.877024738212794808e-02,8.577966456844183379e-04,7.767875207820673471e-03,8.960586889763494378e-02
6.738193583829713007e-02,6.499928707176319542e-02,1.999534564584568713e-02,1.583035167658094697e-02,8.859726242184133918e-03,2.781252265913778526e-03,5.011278988543604873e-02,5.134286910993211264e-04,1.827665709147847928e-02,1.082675423259750885e-01
1.053776758379592615e-01,5.858512410669771547e-02,2.621692433875319819e-02,1.053334787200222583e-02,7.344543112804448326e-03,7.502021988124145217e-03,7.749963434757763114e-02,1.417698062291242048e-03,2.294630854892731539e-02,1.363685362572423232e-01
1.205823176646502320e-01,4.250597528911934098e-02,2.838553182483886245e-02,5.979576165254434604e-03,5.961403789629054518e-03,1.144377907293355444e-02,1.023329139094252271e-01,1.407147130958536635e-03,1.920917322586508311e-02,1.546336784856714164e-01
1.240489299262158424e-01,2.357869509182152976e-02,2.815319800583675897e-02,1.070339470488983723e-02,4.837186309278871874e-03,1.140325419311581309e-02,1.046892089029192174e-01,6.536343767448813281e-04,1.362035891110011283e-02,1.461778862614984686e-01
1.180401860461484653e-01,4.081684754529059378e-03,2.432249273808087531e-02,2.602054713521778292e-02,3.761500032409403373e-03,6.154040261173098283e-03,7.961977153118762751e-02,9.495691702271316951e-04,1.283875468971224475e-02,9.445173745889086370e-02
8.664936561702533957e-02,6.201957955675005407e-03,1.584395964715015412e-02,4.286712131600106668e-02,3.592835778925085408e-03,2.339706066195786690e-03,4.379576357429540434e-02,3.543081305208889420e-03,1.620407114004388319e-02,7.786785724056593389e-03
3.518234666237789188e-02,4.409611488809240393e-03,4.495820465614848958e-03,4.987647134594186404e-02,4.261476625383251414e-03,1.004609089517818389e-02,2.142892244239257005e-02,6.436030687905651415e-03,1.965259269991812691e-02,7.371527381083901875e-02
1.213692216039103863e-03,3.150258299481067947e-02,8.564572689129525476e-03,4.139923580951002796e-02,4.451608120302463431e-03,1.413178255662956261e-02,1.926648562014597610e-02,8.185067273862983370e-03,2.236103835691293645e-02,1.152001538054287233e-01
1.521359604909306579e-03,5.881301370243616211e-02,2.234455416362159455e-02,1.970463162476604121e-02,3.850000414376011926e-03,1.497518736864905144e-02,2.031698817647231703e-02,7.917433213398475736e-03,2.509755239979746116e-02,1.211759723109569337e-01
3.283273383367174558e-02,7.711724734967120853e-02,3.010402970391434438e-02,3.014378109501919967e-03,3.570657592874332178e-03,1.414769055054714182e-02,7.887640504801417263e-03,6.188861957111586529e-03,2.516211265737911332e-02,1.187149217552645047e-01
6.552406192922702322e-02,8.611371690189800754e-02,2.226951345123757628e-02,8.172029529141986229e-03,4.289795721344180461e-03,1.161086649961223273e-02,1.202185402926819399e-02,4.004481122619422268e-03,1.822080889211087629e-02,1.164430969711140185e-01
7.729988571209267523e-02,8.320608047077281133e-02,8.350490837503205151e-04,1.116043747669381511e-02,5.700609163939683588e-03,7.042863039330586432e-03,2.251670501693140217e-02,1.722461603513055287e-03,4.460304310236177031e-03,9.989356409548991178e-02
5.891178819745165884e-02,6.484830457550050387e-02,2.590247584741840400e-02,3.836025391882295216e-02,7.653772543897363438e-03,2.972751254589797634e-03,2.174661364806544303e-02,4.079226327812872908e-04,1.108700019317539719e-02,6.478195469143252505e-02
1.362400412105549408e-02,3.634035666428928751e-02,4.018489186940794877e-02,5.234015558906293664e-02,1.012513835324069418e-02,3.548651036012324955e-03,2.304593938894574853e-02,1.798026802821079025e-03,2.432961022740843735e-02,3.288542441664673438e-02
5.313852815161895782e-02,8.576171228416060860e-03,4.287275183666292011e-02,5.378705120531509370e-02,1.204754428859887948e-02,9.477343042260071362e-03,3.369064162990603045e-02,2.241288895808759771e-03,3.484131884123246869e-02,2.556131576159463570e-02
1.369902494526223646e-01,1.124180298550551960e-02,4.038793266763723855e-02,5.917273095092882851e-02,1.190324860117960085e-02,1.617435556693203394e-02,4.626250027914106944e-02,1.948897219953476439e-03,4.259713785213992826e-02,3.396713396378778227e-02
2.186321291903249309e-01,1.807117669885837524e-02,3.646976240887910697e-02,7.493096505859217493e-02,9.713707592825769621e-03,1.844931439218979938e-02,5.087168328132064127e-02,1.003418320528255475e-03,4.556213496374452582e-02,3.141116268371425130e-02
2.653076950398474687e-01,8.981012528274923828e-03,3.135032734290316148e-02,9.072230663555638785e-02,7.099475032538572587e-03,1.617510909658703699e-02,4.841758520894899609e-02,7.974465835862317971e-05,4.248230069754082433e-02,1.446905535328174043e-02
2.661219985370111285e-01,5.351144312500569211e-03,2.644773221029092514e-02,9.372826501040870673e-02,5.690504727258828555e-03,1.359161338990571427e-02,4.935027638187082510e-02,1.461579421294851612e-04,3.637644699383881658e-02,1.221604905493136294e-02
2.422387852811299369e-01,7.287427058180996012e-04,2.418760388431967848e-02,8.013057219280569909e-02,6.372688571047640214e-03,1.333511431836370553e-02,5.978023824413982584e-02,1.061673745775077934e-03,3.260333813525893853e-02,4.418842547130715642e-02
2.096593433994991817e-01,3.766620508779158077e-02,2.457582925543410485e-02,5.553244061045684715e-02,8.599886571324462728e-03,1.330440898498382388e-02,7.077646030440624958e-02,2.184166560987351596e-03,3.311190374919566887e-02,8.785614050868154057e-02
1.676328290950973021e-01,9.855485220199168561e-02,2.670204885877188947e-02,2.957184177833366290e-02,9.841779767709200183e-03,9.920302231661433726e-03,6.623373941420100663e-02,1.964269703169437432e-03,3.528199997479806310e-02,1.046207025901753768e-01
1.326579645353251069e-01,1.549776758103490193e-01,3.234329827326706819e-02,1.003147587486044948e-02,8.062492545010950529e-03,2.752652080061316481e-03,4.185812374271370012e-02,8.701900532485380268e-04,3.767759767753346006e-02,8.531510089991005408e-02
1.364360056923394349e-01,1.851187213625799244e-01,4.286610661325575972e-02,1.523040738020505630e-03,4.837748054996587367e-03,4.943093584647251584e-03,1.111441503440616270e-02,3.227099816455905146e-04,4.307527903068789771e-02,5.471132853192636758e-02
1.764410846534381350e-01,1.830714171574636950e-01,5.362993141182247070e-02,6.228320658247207472e-03,3.491634408772882267e-03,9.355900504298074113e-03,7.432084163019848748e-03,8.044066271046160883e-04,5.274712472184670681e-02,3.917468491988392032e-02
2.066202353941672121e-01,1.578472467153466674e-01,5.677865880634868495e-02,1.993463649654862724e-02,4.819437351111044085e-03,9.021629007265325254e-03,3.317059281914937381e-03,1.487637204225270363e-03,6.154054983714817018e-02,4.513111999539338309e-02
1.849639016352567777e-01,1.254504424493829151e-01,4.945826810403701479e-02,3.036400985649494524e-02,6.875598462761006724e-03,5.112233353149663907e-03,2.157062973788470561e-02,1.589871255332809879e-03,6.280011781762956380e-02,6.844952028949288780e-02
1.131183209549710689e-01,1.014645391694823373e-01,3.589453317417731076e-02,2.688931076318913649e-02,7.739870012968933476e-03,8.141996264006477572e-05,5.326852694172012209e-02,1.236667714526029161e-03,5.552632378018546033e-02,1.063095104127114859e-01
3.941303047266392356e-02,1.004401822939983979e-01,2.233220309589261862e-02,1.009484353923838576e-02,6.817399024053802381e-03,4.549874207970544190e-03,7.383678038744870276e-02,9.431643116129221228e-04,4.375261565929543239e-02,1.471295731038861632e-01
2.496125978982213431e-02,1.331719672910726959e-01,1.337282335238689467e-02,1.172208567417749175e-02,4.593756978923886451e-03,7.038174950804854460e-03,7.614949847682028761e-02,1.018208596715977458e-03,3.244638221447945781e-02,1.629056371678148374e-01
8.304213109864644338e-02,1.928905421110035934e-01,1.244425129814114191e-02,3.049422281306770482e-02,2.029983305163865059e-03,6.993466575179332380e-03,6.576861747245392464e-02,1.503207693001652051e-03,2.625086521734160128e-02,1.320369107721353352e-01
1.573128806177919725e-01,2.483718339412143983e-01,2.051429832877659995e-02,4.028731102174278739e-02,2.635264938181339917e-04,4.642161804231685271e-03,4.846520888535967714e-02,2.128461973962318676e-03,2.717958413573144313e-02,6.781090747728725499e-02
1.822515685439852484e-01,2.663008433988344192e-01,3.223097665753437563e-02,3.813972940385063765e-02,2.129428076597664459e-03,9.594814257743629077e-04,2.804605030845547242e-02,2.332804477034181641e-03,3.112933277244388924e-02,1.018439937496180142e-02
1.501575061498943431e-01,2.453726350806299250e-01,3.772634443941882271e-02,2.786419509579085574e-02,3.356832462661097933e-03,3.214254189270187786e-03,1.265294388085796973e-02,1.783801545674483686e-03,3.149316688734819791e-02,1.420488506823843790e-02
9.859665539848594396e-02,2.166977567318715547e-01,3.083951747801610965e-02,1.931698508597680039e-02,4.077913847953984657e-03,7.992374516117506378e-03,7.575297372169860835e-03,1.018854941123202400e-03,2.694137115194853924e-02,1.543350005607223296e-02
5.557432403410422772e-02,2.028249482001645565e-01,1.286218050107921368e-02,1.992658918635922122e-02,5.123034824911001754e-03,1.321721279066879508e-02,8.898523776083636788e-03,1.078771085000350795e-03,2.059660359854396938e-02,1.780852029638487627e-02
2.628843671883310251e-02,1.909833601791994517e-01,1.124064522764378279e-02,2.896939105040508000e-02,6.561834575225852090e-03,1.636922125844036263e-02,1.839192359306573640e-02,2.173639716046379955e-03,1.295691227039753000e-02,2.230332679816191682e-02
1.553313462265033459e-02,1.610667945146027069e-01,3.540118270638203252e-02,4.187856841515823214e-02,6.740671384345066353e-03,1.395909872204597474e-02,5.030264706572591671e-02,3.260203130547454503e-03,2.310554100821533667e-03,4.558887628830589345e-03
2.654431178992252768e-02,1.215811082804126864e-01,5.196244872749312266e-02,5.507364015727565093e-02,4.464957820949250721e-03,6.292223595923299856e-03,1.057451913417210149e-01,3.272049401500551520e-03,8.834109097143839559e-03,4.995461196897481304e-02
4.425889487276188361e-02,9.457590916881981891e-02,5.485796689262325415e-02,6.215333396265233790e-02,8.774692498590894434e-04,1.607244404549556041e-03,1.552941166989568467e-01,2.251044735737527981e-03,1.507553992630798062e-02,1.188224317785258888e-01
4.987605615927135499e-02,7.992100554985714922e-02,4.531796047991845655e-02,5.188245961885481344e-02,2.796120189877026891e-03,5.641724662721932758e-03,1.668853012975928252e-01,1.059900854880219687e-03,1.681645091210318133e-02,1.566733956512289250e-01
4.340078700940235013e-02,5.914743854409922758e-02,3.173997037752509381e-02,1.992355296241359736e-02,7.508629362620233491e-03,6.410617942721028376e-03,1.412569595142767198e-01,3.847501221058675187e-04,2.055167415806828657e-02,1.376103963558845400e-01
2.934950443587127505e-02,2.611831176700663698e-02,2.346730019871692136e-02,1.933079567032524107e-02,1.395551296994928733e-02,5.811566306925581953e-03,1.043264177264161680e-01,3.074555461420508439e-04,2.777158710111211903e-02,8.190750923226323976e-02
2.815612656033191635e-03,5.255425224078909274e-03,2.640233078250531218e-02,4.209182110329888482e-02,1.969483592136911029e-02,4.067932471172630224e-03,7.344912125362325350e-02,6.779731078535636540e-04,3.132844505549740866e-02,3.497054251678254067e-02
2.582695140057079952e-02,2.182482570563997609e-02,4.245461312253537983e-02,3.768014330659493621e-02,2.112150746798554732e-02,2.190627663166965465e-03,4.560154954625664225e-02,1.366669750624402739e-03,2.752123534902866514e-02,1.997609899758203897e-02
2.447546629502581408e-02,2.891689862837061586e-02,6.794106759541504448e-02,1.699237476028367388e-02,1.728721870798749852e-02,2.636839056320167476e-03,1.386835986035078565e-02,2.057825669358694445e-03,2.342751864390085065e-02,2.112474649239134625e-02
1.492633668773317435e-02,4.185923410426901914e-02,9.316698346696633548e-02,5.570915065037534454e-04,1.039016209498787140e-02,5.235036574926891020e-03,1.765600901154443236e-02,2.357158752190976862e-03,2.617954811775457039e-02,1.458554936012232926e-02
5.683172636180108817e-02,6.002023993739499796e-02,1.095993446658384135e-01,4.502831669000185652e-03,3.261319138769694891e-03,6.772096064672177354e-03,3.775005119799548781e-02,2.271888985528188690e-03,3.276992283882470408e-02,4.589330471904372322e-04
6.836498543253426152e-02,6.129032816999713251e-02,1.168268549373994297e-01,9.678208591996480476e-04,2.750942708274506897e-03,5.998404880549913082e-03,3.943906421786212702e-02,2.249232959340545686e-03,3.661888069471498641e-02,2.807710254289847579e-03
4.994561904181519379e-02,3.473839789624702523e-02,1.186763908448740107e-01,4.276288052995991761e-03,7.741382560585874373e-03,5.055254468568096127e-03,2.387760062282921758e-02,2.594382346768883685e-03,3.821670743152189714e-02,1.643369762315467081e-02
1.229676745117952094e-02,5.761245367486508145e-03,1.188550704101522526e-01,1.517325231511616876e-03,1.190981071875276201e-02,5.449455563019552605e-03,1.198479315942583417e-03,2.935013969154320369e-03,4.355539871388457163e-02,5.121579228017009155e-02
3.437302301273196387e-02,7.520789333501136376e-03,1.238370604790924728e-01,1.150646640206631245e-02,1.487454625705589284e-02,6.021385016723687297e-03,2.308954806922038083e-02,2.660698150398948039e-03,5.468955620054887640e-02,8.275400798026691374e-02
6.535842090416095485e-02,3.626594043563989567e-02,1.366937341585330590e-01,1.413118671046388435e-02,1.624654847785021380e-02,4.946062289661856334e-03,2.964297162996828647e-02,2.073196765930145503e-03,6.642162464572086422e-02,9.298202870416674704e-02
5.743969423667997370e-02,5.788025418633541835e-02,1.443837689439027849e-01,6.417696709626306145e-03,1.632499891654831323e-02,1.585642931482438662e-03,1.679589682785953553e-02,2.071676220074138760e-03,7.338629965119898568e-02,7.222465571342202850e-02
2.320442490197850705e-02,5.365257610667864552e-02,1.291568401549614553e-01,1.116277636956752037e-03,1.625590168809496611e-02,3.027332977880803442e-03,9.120807457622920333e-03,2.187862572239551804e-03,7.709899023644618821e-02,2.134049700050621307e-02
3.020945926205244152e-03,3.765572866304024713e-02,9.455786791732459506e-02,1.233725074567308677e-02,1.754444990480169900e-02,6.421146713619547107e-03,3.259257613719506591e-02,7.533262081935294908e-04,8.095143279768908517e-02,4.681241497172517613e-02
2.545186623618001312e-02,3.088433301238682413e-02,6.099396990285483461e-02,3.650301934500650713e-02,2.027619794054097424e-02,6.507945796042973081e-03,3.568814505765711964e-02,2.189917790360503165e-03,7.988410541540472143e-02,1.078317305154913447e-01
8.250365198339876249e-02,3.987022459684752551e-02,3.911511648281806169e-02,5.590740904857865318e-02,2.177196552606652444e-02,3.849708392659723609e-03,1.660707435482671260e-02,4.578395065448449472e-03,6.474730202739414908e-02,1.358315938824986024e-01
1.292249540609213820e-01,6.236184900082579474e-02,2.737057369770966309e-02,6.120588889497263069e-02,1.948890675030674410e-02,1.398632318648524364e-03,8.602067832010800233e-05,5.563064724011086704e-03,3.942329687446338021e-02,1.231210218653680938e-01
1.146285847111911671e-01,9.234406133374943593e-02,2.657525485362130860e-02,6.175956835853303739e-02,1.556553280032141676e-02,1.884119188094975214e-03,1.227419311642194942e-02,6.104278129205331638e-03,2.206548487135282649e-02,9.097304913640232027e-02
3.612503947892739542e-02,1.146609115155126923e-01,3.607630904586367482e-02,6.935496364383027246e-02,1.470277720003390978e-02,5.758476152922190755e-03,4.943322683452829047e-02,6.210918951818643167e-03,2.367872496191151740e-02,7.076563094019389100e-02
5.048066042304250045e-02,1.159962657782155210e-01,4.542581766562793499e-02,7.923119758413900426e-02,1.698096178235978734e-02,1.153224893960000039e-02,8.445580075952358046e-02,5.035132594280886109e-03,3.686862654772769810e-02,7.258689915558813599e-02
9.083937078990309000e-02,1.066847322872081505e-01,4.662376164874176138e-02,7.743395822060208933e-02,1.769190987005851007e-02,1.731847029509814631e-02,1.050211905297765286e-01,3.443875834255244635e-03,5.119863484593693836e-02,8.481252124874147369e-02
7.475337414137762926e-02,1.115661397878811023e-01,4.344901421865166036e-02,6.240331959362759029e-02,1.491453148864104773e-02,2.112280010653572182e-02,1.199480102207197696e-01,3.099971847713686550e-03,6.567551879016558791e-02,1.006376100480494834e-01
1.675287821474044647e-02,1.368015623888286236e-01,3.729882231131322751e-02,4.552275431623947072e-02,1.127079586450329372e-02,2.090471444489037933e-02,1.308491149234318196e-01,3.692614899536719297e-03,7.844508837057136141e-02,1.246220826249573033e-01
5.582907378603740867e-02,1.639829956815683498e-01,1.976438094829566922e-02,3.342660187280208778e-02,7.313227166032944607e-03,1.681271715131994748e-02,1.263610615677047133e-01,3.814812589966116649e-03,7.891912823585540970e-02,1.593514719030455495e-01
9.144089754839859752e-02,1.736555498220674343e-01,9.597555040358966838e-03,2.528288130857581778e-02,1.259571632040588831e-04,1.231351986702973467e-02,1.098070520378604531e-01,3.234281643014969704e-03,6.150130619579090990e-02,2.068439494038497029e-01
5.097027545507566704e-02,1.580662446622652650e-01,3.537084867382798287e-02,2.381241849669604380e-02,9.574420291521119897e-03,1.094995540784027971e-02,1.039824538280716276e-01,2.274909520947392301e-03,3.749684348530023942e-02,2.677151464991201490e-01
3.189603495333031419e-02,1.205920045048268635e-01,4.610041541282688254e-02,3.128623976023817838e-02,1.558317816891998005e-02,1.376392326129058374e-02,1.170545114985241664e-01,7.003324794943524426e-04,2.454982915139485022e-02,3.137227743628439036e-01
7.627380211812062605e-02,8.222526345577493845e-02,4.533466634199388029e-02,3.694868973743764551e-02,1.426934821097228245e-02,2.045873831704371135e-02,1.257158359858643604e-01,1.261982905270088526e-03,2.998629256872791665e-02,2.866385024116501756e-01
5.127897237538791425e-02,7.923304080823981299e-02,3.606216348064818916e-02,2.651706700693652607e-02,9.475932385282569148e-03,2.854785602031257100e-02,1.046551699926746709e-01,2.244773212697847870e-03,4.727463634963621764e-02,1.637466811940318512e-01
9.088180676549000372e-03,1.283801359640339146e-01,1.308714739050978806e-02,5.378739713368446348e-03,6.748834894752898939e-03,3.121702182802888609e-02,5.902103639626660875e-02,1.206987489485839959e-03,6.249802969496578986e-02,7.991073141094779536e-03
9.008231311054970200e-03,1.916800534425061042e-01,1.688169131790354452e-02,4.299035790737119542e-03,6.444824706522717106e-03,2.302010078110138663e-02,1.850257882199366627e-02,1.127165573787857139e-03,6.450709568760455703e-02,8.438237648303069383e-02
4.277904851891824178e-02,2.012517042145487156e-01,2.294848029890409619e-02,4.584083455163789553e-03,5.480676622313104991e-03,8.282177894586279995e-03,8.389782024511347955e-03,3.032230677212861651e-03,5.500266356544873669e-02,7.852897032523042942e-02
5.874481859204883083e-02,1.334534833792615782e-01,1.933658893668873183e-02,9.809301365042159132e-03,3.554025357894597358e-03,3.116819815079002395e-03,3.335023010518179537e-02,3.760921610073263144e-03,4.557490547283621352e-02,2.106124461695833144e-02
3.193309971520957857e-02,3.731353112561000551e-02,8.824338358198206833e-02,1.152083197293025420e-02,4.019683617889478755e-03,7.485232108770507875e-03,8.027883000900687405e-02,3.913103775205695016e-03,3.841648347605973457e-02,2.052331898949931455e-02
2.331499218417111552e-02,2.689636650501286280e-02,1.318237696663814018e-01,5.230622404819670196e-02,8.792592063257652704e-03,8.434745416904143589e-03,1.253380549573786806e-01,3.831622549112034728e-03,1.924312996005825976e-02,1.332108695983678752e-02
8.730468670986264723e-02,5.215714170895541235e-02,1.259225095166317532e-01,8.768962327818577429e-02,1.480533204695577178e-02,8.811121484870249737e-03,1.449832395326599577e-01,3.075110366386110509e-03,1.827769411097703023e-02,3.847752158971559644e-02
1.434288894476485610e-01,6.264525249638250304e-02,9.153727340061697249e-02,1.069238026476016928e-01,1.590437566096871216e-02,7.362936325360322498e-03,1.360110618315202302e-01,1.875122012877197906e-03,5.327875330985773483e-02,1.130240187525311385e-01
1.691232745156633910e-01,5.297136871636109329e-02,5.398691679664728571e-02,1.165572391473788105e-01,8.319748472893701702e-03,2.092107909818564405e-03,1.209267275025512622e-01,1.316077224735854841e-03,6.142345164600231111e-02,1.759312413133051756e-01
1.558147643109126235e-01,2.176141109125295098e-03,1.660781723667882973e-02,1.205380641897293159e-01,4.040791311978767647e-03,5.518789417075816231e-03,1.194465011039022861e-01,1.407090615460421940e-03,4.853521951600610340e-02,1.880222580987223335e-01
1.315392624028098589e-01,7.817603786835874979e-02,1.409110569374530039e-02,1.137117200874023515e-01,1.108311371820590654e-02,9.889606244346493130e-03,1.234626867737922268e-01,8.363700253485223434e-04,4.350305288849162094e-02,1.370778394012261980e-01
1.343283138492932793e-01,9.983680292236377096e-02,6.833794317434874199e-03,9.240585461504646769e-02,7.113027464015427709e-03,6.926342006350593057e-03,1.138247311423883912e-01,6.295136751204610023e-04,6.306318907010682873e-02,5.871387814813056050e-02
1.670866347912991767e-01,4.231061792976643227e-02,6.186031164180939845e-02,6.112675955094000468e-02,1.830471436887012859e-03,5.693493806705374367e-05,8.727705151137161999e-02,1.390972803617916004e-03,9.386539407483987518e-02,2.771659788922275700e-03
2.032349833961441254e-01,2.401018160402646623e-02,1.628334236290681913e-01,2.848911468557981455e-02,5.479585245992867060e-03,3.365328078091555253e-03,5.468972276936251431e-02,5.918033897163771286e-04,1.098874709709875552e-01,2.380756433165251082e-02
2.293343008056805965e-01,4.164268695494159622e-02,2.336239048650098349e-01,1.083609908944575990e-03,1.511962800219292030e-03,3.670080875837932930e-04,3.028004771838149062e-02,2.664057080340123825e-04,1.076849656088580132e-01,5.972254718311854893e-02
2.554049216600086103e-01,5.978661455156066701e-02,2.466984416736658359e-01,1.795936122660307666e-02,3.851177783511539835e-03,6.426221979437032536e-03,2.802348551814144717e-02,4.758304553828691117e-04,1.162740463935164614e-01,1.280338279647973976e-01
2.874830161534347450e-01,1.453568116686301814e-01,2.297970914473707327e-01,2.765761270739552913e-02,4.601699875441501303e-03,6.594396025013751252e-03,4.675721913459426893e-02,2.145783905751712847e-03,1.578390160043977863e-01,1.953271191758864933e-01
3.101299198152555614e-01,2.587454233874804110e-01,2.137688089799357760e-01,2.916108277776652269e-02,1.032613869001286228e-03,2.123957658446128886e-03,5.818123811061087780e-02,2.882759773354234313e-03,2.090611647467540968e-01,2.128577611719434381e-01
2.962879559277558639e-01,3.117713342301721702e-01,1.934020901191866593e-01,2.550442136965549306e-02,1.731417347617448567e-03,1.379618072873364625e-02,3.254016669068793971e-02,2.318668943557007991e-03,2.242955230197580530e-01,1.837793199919139364e-01
2.355059415326437866e-01,2.986263056851851672e-01,1.508368840311149761e-01,1.934996664052011581e-02,2.285429008882145950e-04,2.095371891501312742e-02,2.456499010406863401e-02,1.572190569286790887e-03,1.884444690178838366e-01,1.524380894069332637e-01
1.584622169229483180e-01,2.734046439298374875e-01,9.064212225589293737e-02,1.243851555942271890e-02,3.268136903363002069e-03,2.265055821268849301e-02,7.602918151461794671e-02,1.326056914313785643e-03,1.258088872497992172e-01,1.261446313939788288e-01
1.130639468582220752e-01,2.439546623428816285e-01,3.775659785968919768e-02,6.862875137222331640e-03,4.643390645254246579e-03,2.095743510796211836e-02,8.834369064630601120e-02,1.551459351319087361e-03,6.569807587251434711e-02,6.518872003685691197e-02
1.028826359486943176e-01,1.791056699976984468e-01,1.161951720493179657e-02,1.697623281754285368e-03,3.374334266073350953e-03,1.550716870180911255e-02,5.803790551015881871e-02,2.435750701387669279e-03,1.779945628695930870e-02,2.765384543723784991e-02
8.170278936405743486e-02,8.898338796844781906e-02,8.783606674449471324e-03,1.164561649711502722e-02,1.240072513243535828e-03,7.341731799631544785e-03,1.301267244078589333e-02,3.874429815239094962e-03,2.150449615790806304e-02,8.163711971237692933e-02
2.514322456274409312e-02,2.491370532511218844e-02,9.756832256409289639e-03,4.125189061414458874e-02,1.024001121768104141e-03,9.813001012825015371e-04,1.487077607875883153e-02,4.685066839016259130e-03,5.105872971462087351e-02,6.237426716226531637e-02
2.977037003805390117e-02,1.045824991617220166e-02,1.246660515470524033e-03,7.861346681523199986e-02,3.099975611143965335e-03,2.241238689648834999e-03,2.076955823174787483e-02,3.934900999406975436e-03,6.220108210139858873e-02,2.703202492761108341e-02
3.818821735305331921e-02,1.606218548777399099e-02,1.242252767905697650e-02,1.016906332869688123e-01,4.599840669451432662e-03,4.884413653243041033e-03,1.404888473869890519e-02,2.486571819831926659e-03,5.541737245095255948e-02,3.435647145954563025e-02
1.315791503483980732e-02,6.020765506107573356e-03,2.049743889842443878e-02,1.000141224296450804e-01,6.312665621842678335e-03,5.038034019711659650e-03,1.703685563353792357e-02,1.830204236835875119e-03,4.555353750925113937e-02,7.096969488282028893e-02
1.183097844991312653e-02,9.819547786446822246e-03,2.176544697927432215e-02,8.632353605360362780e-02,8.354974940370031231e-03,2.899958418531766759e-03,9.206220136034592993e-02,1.936655034602832552e-03,3.847381658931293275e-02,1.006948774526167656e-01
6.485403162960449996e-02,9.739519698679900694e-03,2.441760280476883843e-02,7.656410356366959158e-02,8.100382256675047257e-03,1.735628508222397670e-02,1.960110144692538692e-01,1.570360220950210630e-03,1.931764808203497580e-02,1.218042320195487221e-01
1.394182891461126783e-01,6.793584989812535835e-02,3.465064079314644774e-02,6.861106923439869165e-02,4.275132215812909274e-03,2.893383119849252463e-02,2.876534763118889226e-01,2.547794876329347990e-04,1.637235204616445047e-02,1.459662259491026348e-01
1.696556112784140813e-01,1.003566184549277152e-01,5.377446877250595392e-02,4.956126069652347366e-02,8.027832186418180308e-04,3.134133248577442021e-02,3.412885230566878869e-01,1.313353399010261423e-03,3.969835952735596696e-02,1.662307137209394214e-01
1.143888282130180595e-01,4.446499870466104343e-02,8.151362393782854432e-02,1.751189743728552919e-02,1.869549090131584785e-03,2.529738264033395967e-02,3.493630034095578929e-01,2.520574790873580853e-03,2.623506666900761106e-02,1.639780891834506926e-01
6.225271644091749657e-04,7.205115339289468179e-02,1.080191489233331137e-01,1.246678502292620540e-02,6.061923651955613071e-03,1.347480070883804934e-02,3.051243526213580637e-01,3.358738459837952873e-03,5.543149982369349315e-04,1.257270427045885930e-01
9.569806319550905327e-02,1.537558310820454632e-01,1.090137043127836908e-01,2.419786386091300756e-02,9.180527389047711539e-03,7.538188247885676966e-04,2.154400473178037789e-01,3.643874066455989220e-03,5.934134727365106277e-04,5.675663777559458029e-02
1.192749553031471066e-01,1.529851022643859693e-01,6.999070683806031534e-02,1.891907292184541456e-02,8.803136907832714853e-03,1.266026315434058171e-02,1.080168627533828474e-01,2.794752943029616809e-03,2.911593570884023902e-02,1.120003215245717922e-02
1.016467806484887826e-01,1.148018092498446913e-01,1.156949302101219386e-02,1.309270028240315693e-02,3.774921824744799023e-03,2.141079954773207963e-02,2.625381756222398486e-03,9.259855104634919431e-04,5.089139607562750967e-02,4.148778520258208924e-02
8.282795375930630810e-02,9.027913333072140611e-02,2.938512347803362221e-02,1.590932491835777771e-02,4.729288029659276665e-03,3.066154977027749085e-02,9.114994919594289480e-02,7.748579775136712425e-04,5.341908783873555028e-02,2.034714629559197796e-02
2.736466308574765291e-02,6.544110695493741969e-02,3.915574164102567783e-02,1.782618806718102092e-02,9.991569375906297901e-03,3.628563278703285377e-02,1.304575531830793333e-01,1.509041293103785628e-03,5.269260893884977065e-02,5.372200629326244481e-02
1.107631240431332653e-01,1.565650044632227803e-02,3.070013146566917539e-02,8.530978585512770038e-03,5.027768703476350257e-03,2.300695299787705594e-02,5.225401867170162418e-02,1.789027631581340937e-03,5.353260810002693354e-02,1.793319433897253845e-01
2.769501271267651443e-01,2.183305032762061088e-02,1.609637153869795251e-02,3.359204476666628227e-03,7.323227895658092693e-03,1.423903097319103098e-02,1.296159564816009024e-01,2.235484044898758578e-03,4.079725606555117956e-02,3.195078298605504297e-01
3.609993685224169302e-01,1.442873667682071856e-02,6.522156326049611229e-03,2.917266695171656307e-06,1.647492464115141164e-02,5.490107319754297666e-02,2.942736986929967991e-01,2.484509425878310244e-03,8.991170315806620156e-03,4.000673232538914936e-01
3.276271435696122003e-01,1.151179408150688338e-01,4.075518179320873624e-02,2.121899623174929375e-02,1.661808937115509185e-02,7.297698832173396544e-02,3.303136462008990359e-01,2.030360168399092998e-03,2.547589385690502209e-02,3.779821614467372415e-01
2.342005884485466594e-01,1.808913651218601870e-01,7.662817726720276557e-02,4.344044921973518047e-02,1.105932802979851977e-02,6.491643641186967129e-02,2.454682886528805619e-01,1.344892259908300703e-03,4.221210262620612996e-02,2.796132836677908129e-01
1.588948058199791957e-01,1.114743052408143920e-01,9.062820600426194084e-02,4.956053559714198448e-02,5.609919481111133241e-03,4.637770361323081958e-02,1.280708792142361552e-01,1.294477937360921996e-03,3.172795591485082917e-02,1.586432134341355105e-01
1.594532044893865741e-01,9.299868807059055720e-02,6.712038052320373760e-02,3.849389777813747027e-02,3.746157841723240112e-03,3.037017845043706379e-02,4.205794762085252048e-02,1.827258916168855631e-03,5.274387188950156041e-03,5.678788320208067592e-02
2.375917201572736448e-01,3.280548011748911086e-01,2.285993252956095706e-02,2.203268977155054681e-02,6.039213943255890803e-03,1.939679488687029094e-02,2.895560710604649923e-03,2.113692349300121728e-03,5.838279558861945301e-02,5.224862657128811691e-03
3.013337913909539534e-01,4.725571631331521583e-01,3.287979157159044361e-03,1.167819641849787531e-02,9.173545899408153820e-03,1.273751137576598774e-02,8.429883134879467832e-03,1.825923478006149332e-03,1.047670085662628786e-01,1.702950790892984734e-02
2.452115762053502235e-01,4.712087504621461642e-01,5.348738170904596481e-03,1.111361682535367407e-02,8.139327599783122494e-03,1.167865438682496801e-02,3.674578054782327158e-02,1.350856277922202284e-03,1.196985361553246086e-01,7.026346882969970731e-02
1.092591420908727157e-01,3.544748962060638720e-01,2.375497246729855669e-02,1.742485429431586685e-02,2.660269326129967912e-03,1.770322070880778545e-02,1.314508012462778930e-01,7.783838976035473752e-04,9.831320244957289511e-02,1.236261106348521543e-01
6.172347693653945644e-02,2.045203363818416664e-01,2.248000103507255196e-02,2.473128289972507943e-02,1.781070000341171801e-03,2.898837958188362277e-02,2.372662567435175618e-01,2.118992207919438763e-04,6.037039313989488176e-02,1.483705021117571188e-01
1.749302342953213130e-01,9.275640219707267931e-02,8.036889045074742735e-03,2.745859624331726048e-02,8.167372973704974722e-04,3.951957634657544266e-02,2.963487974480210618e-01,1.235606234650219381e-03,2.881929722470419689e-02,1.367149915247091174e-01
3.228357533397012702e-01,3.556294313817303515e-02,6.651684948339642647e-03,2.421082738242084226e-02,4.199737200857215670e-03,4.248542289379897419e-02,2.740546166836030362e-01,1.226368697452474496e-03,1.023362904742186608e-02,9.551356750205942936e-02
3.650217108315467196e-01,9.364947383107058432e-03,2.020766959063453189e-02,1.799622436852508708e-02,8.695081850373841126e-03,3.535142217620073496e-02,1.828743841852158158e-01,2.515858507906351790e-05,1.068526410855674116e-03,4.492961993157923439e-02
3.261511262412947199e-01,1.384053329521891390e-02,2.495510925452026907e-02,1.042206680795671435e-02,9.423796893984539083e-03,2.068177950856872616e-02,6.624698965440257992e-02,1.186821151838015048e-03,9.756557674291425550e-03,9.260187999177977788e-03
3.038482043971744706e-01,6.529911166308866033e-02,1.187368171362785003e-02,2.276334602913133998e-04,7.077813811735917705e-03,3.003242599854301365e-03,3.641418023375824625e-02,1.331868193467154130e-03,1.848582613717264164e-02,4.459900066946341848e-03
2.931599130276423826e-01,1.622628867084123239e-01,7.829765362112823049e-04,1.203315088546206418e-02,5.805254764536801199e-03,1.224248644104025154e-02,1.035940010198348471e-01,4.340091331695267955e-04,3.224524785580515363e-02,1.064800999596012335e-02
2.242144537419218375e-01,2.420306706620418136e-01,6.769847067595535783e-03,1.696333468773899081e-02,9.100579775389385645e-03,1.935063166610685725e-02,1.251937299119241787e-01,7.344019218059656294e-04,5.143692771847886702e-02,2.235799537427235473e-02
1.198656872455318018e-01,1.804552537929980660e-01,1.669849265017114143e-02,9.613970547926616733e-03,1.577712242517861560e-02,1.759280790105237358e-02,1.062520942072661123e-01,1.341542253833401819e-03,6.516572562833999882e-02,3.604977139851201634e-02
8.862843250931817796e-02,4.620080819795800015e-02,1.299478019089533865e-02,7.223090701276538295e-03,2.116179878028609518e-02,1.385522087779494406e-02,7.095704813917402820e-02,1.094338958635178872e-03,6.451294606341530236e-02,4.350105174583482337e-02
1.691399947700848172e-01,2.818914498000157365e-01,2.257726535737658927e-03,2.859547174463494476e-02,2.162612735472494579e-02,1.537547601572426641e-02,4.417608520360168101e-02,6.008143842433541189e-04,5.852890174152873548e-02,4.657731511705073130e-02
2.724586602059306806e-01,3.524174123915793100e-01,3.932816776746081086e-03,5.354929935841266225e-02,1.652819068391650145e-02,2.264502590645673524e-02,3.731349796763641646e-02,7.793500868827271926e-04,6.370079605561143610e-02,5.691423073968793211e-02
2.838776321191261998e-01,2.472236148459693028e-01,2.300255876347218759e-02,8.109411686908697681e-02,7.111476074563857080e-03,3.254474065355916074e-02,5.790708457189636116e-02,1.545631067243517396e-03,8.123296234667692906e-02,8.827201396951152301e-02
1.693747213170974375e-01,7.928170269330707398e-02,4.851170138831315676e-02,1.011722213348403010e-01,3.959748104551633757e-03,4.344005560217842343e-02,1.112982515821607926e-01,1.780901209926569065e-03,9.697500009008197530e-02,1.440237817347854721e-01
1.733257753386533567e-02,6.444336184111490451e-02,6.947592461669498121e-02,9.565733108820027863e-02,1.261690639217495115e-02,5.344135265187343470e-02,1.853637692004083404e-01,1.131065601574038088e-03,1.001218165227561463e-01,2.068407508370250225e-01
1.944275995709961180e-01,1.647135431016833462e-01,7.864994126086459481e-02,5.691637607780434399e-02,1.596196265750546642e-02,5.875827506000077388e-02,2.516311253114809632e-01,5.797552031879748494e-04,9.141002887119648035e-02,2.517465254295224719e-01
3.093875817020779184e-01,2.203049038115288960e-01,6.924277529149114319e-02,4.057956447301801217e-03,1.536746339595003799e-02,5.772484035211625231e-02,2.850384129658473098e-01,4.341128096339141721e-04,7.687639384175276591e-02,2.677217986259219362e-01
3.550397488075028307e-01,2.344459859442095673e-01,4.329150743769975829e-02,3.164048506595719401e-02,1.499572217718397535e-02,5.250105348391728016e-02,2.747671422400696506e-01,3.663715714596097687e-04,6.354482756429029322e-02,2.510712255422119510e-01
3.471343871446838092e-01,2.387339750319774356e-01,1.848202378259961726e-02,3.864095392269073503e-02,1.734479896957261472e-02,4.496071422726862638e-02,2.282417167716699336e-01,1.803511162176603790e-03,5.941217609557322699e-02,1.948923366830801474e-01
3.044963902196246019e-01,2.781799141483748961e-01,1.286720969521320396e-02,2.958993503301899503e-02,2.207967558593334351e-02,3.569674249663899041e-02,1.770611535239067780e-01,1.918110369912961587e-03,6.952364915673492352e-02,1.135316628213059592e-01
