1.098093830892624254e-04,3.706391634892480108e-02,1.790717860850076003e-04,9.332065759176009178e-05,6.609607899104237875e-04,2.031589091901063460e-02,3.802969214461614927e-02,1.957361745968608235e-02,1.120335474197406249e-03,1.962994561758527393e-02
2.923134916708541951e-04,3.594628104177477468e-02,2.312113800033343744e-04,1.296955234470578450e-04,6.052112159766453439e-04,2.109810374299823585e-02,3.026356629969179785e-02,2.126623399454269023e-02,8.714083625384587287e-04,1.875154720606614714e-02
1.855046743469767039e-03,1.607658298660459215e-02,1.912108841223738979e-04,1.623948506950586169e-04,5.590389839832977112e-04,3.572525479189192499e-02,1.669392130238939870e-02,2.042196041469464610e-02,5.989694229628884318e-04,1.700320748198640153e-02
3.579215616130907753e-03,2.580379347488147637e-02,1.708622805355724790e-04,1.906387474010007082e-04,6.138232154141884346e-04,2.999613659529745333e-02,5.967140782513653818e-03,1.691945854015851000e-02,3.079153166576430547e-04,1.550117450364958162e-02
3.066445417165638079e-03,7.002746486981331620e-02,1.901847994601261723e-04,2.137581553381847884e-04,6.668923074348992452e-04,3.377584696620000715e-02,1.389587678686598528e-03,1.128811347241420390e-02,3.538892176479876040e-06,1.467136909871493734e-02
5.160553952786447410e-04,9.247178974241411498e-02,1.970707252206793084e-04,2.312121786841286452e-04,6.727779304564004579e-04,4.941765881671896649e-02,1.355356725587687945e-02,6.698749050951777022e-03,3.085981529304044398e-04,1.332592156979207042e-02
1.328535498424076363e-03,8.843011952617270410e-02,1.815318530449797269e-04,2.426023207463182238e-04,6.778387914511014309e-04,5.128638060158807743e-02,3.474009344852134473e-02,6.830435004784669341e-03,6.227989775339341522e-04,8.731301882908807169e-03
1.274202524037521813e-03,6.956249657293696320e-02,1.679581662832193515e-04,2.476832548643964670e-04,7.029993527891833334e-04,3.064127118754921691e-02,5.623366556756218687e-02,1.123571269836623303e-02,9.333683296643146849e-04,1.737387194359383364e-04
6.846995577269767829e-04,4.737334923444720680e-02,1.615287662192963468e-04,2.463698393524983384e-04,7.249554124356490017e-04,7.226938863970832835e-03,6.467470080597793880e-02,1.543113388626760930e-02,1.234748889034054196e-03,1.000486730934345425e-02
6.901121985392561029e-04,2.869959299452061463e-02,1.511756145551239414e-04,2.387401778367324087e-04,7.309668961125903759e-04,3.457579857942598596e-03,5.933381071538787466e-02,1.685104008246422411e-02,1.521653809314349676e-03,1.573416061421960277e-02
9.338071050775392659e-04,1.659469176289570316e-02,1.347053547662725032e-04,2.250346235192180963e-04,7.307409366753678161e-04,7.052379009980036875e-03,5.353432056339040013e-02,1.813739813110687785e-02,1.789192141485543980e-03,1.585395304962797236e-02
9.121543853080426147e-04,7.643837980929862191e-03,1.177077719456168746e-04,2.056507261281618148e-04,7.308251146225876226e-04,1.003043439998716618e-02,5.565257232005112187e-02,2.171370004992985436e-02,2.032983993969336451e-03,1.269024506035323040e-02
7.762057430221608063e-04,2.712754887447256253e-03,1.017693394336616734e-04,1.811342208258748699e-04,7.236813681744416705e-04,1.636205743323252510e-03,5.660395574628174220e-02,2.354004098883251059e-02,2.249262541422425692e-03,8.918962077371575189e-03
7.621017770756125702e-04,9.500022205117687052e-03,8.483313434164656405e-05,1.521662571837800162e-04,6.997212672736774107e-04,3.204218740259866249e-02,4.164196532318879818e-02,1.750379975128055904e-02,2.434960322915915697e-03,6.049402457422733102e-03
8.015369223973476754e-04,3.402613961905453805e-03,6.670839542235090834e-05,1.195471616762526935e-04,6.634639904220776714e-04,8.127439241279475757e-02,1.034769307135351320e-02,4.749734399669917201e-03,2.587777657159744896e-03,4.841558996980459273e-03
7.831068259167260626e-04,1.244980293451814282e-02,4.894551699216966224e-05,8.417711547664470282e-05,6.281081482527875936e-04,1.117694526993326387e-01,1.974134205894966312e-02,7.151556947383503129e-03,2.706231443741694345e-03,5.004479473655371914e-03
7.401070051279924795e-04,2.194931083602865568e-02,3.224176562316238099e-05,4.703420701133680776e-05,5.847361049946258205e-04,9.649101297503942520e-02,2.959726334014801952e-02,1.286897804711257393e-02,2.789683118066036815e-03,5.139813025583707916e-03
7.263469673292467614e-04,1.490444880821559410e-02,1.647479650331537570e-05,9.150386116025415774e-06,5.039518618193740982e-04,4.730698459873396849e-02,1.738761804779718340e-02,1.233904769080227705e-02,2.838345059264529846e-03,4.109853875190385558e-03
7.221406424165300415e-04,6.353299156868242323e-04,1.900851929708678891e-06,2.841409492095863862e-05,3.998660448298136045e-04,1.015132931607425938e-02,7.548768570621198701e-04,8.174427311934131038e-03,2.853265271431186783e-03,2.382314515597270567e-03
7.001999052681803868e-04,7.453295079410549723e-03,1.090562092047324398e-05,6.459712513848847094e-05,3.326103079162452377e-04,2.065838281929775755e-02,8.828662796170524615e-03,3.721226283580475296e-03,2.836290681267037567e-03,1.731672621035155665e-03
6.804029916021573548e-04,2.957566819614073673e-03,2.162245570378371301e-05,9.836141550369880543e-05,2.727239654545711585e-04,6.584518288152055310e-02,7.391916248635299960e-03,7.010990470830587556e-04,2.790009971623084485e-03,3.236363440888155758e-03
6.808456122577642537e-04,2.302315894159469994e-02,3.007311034923789033e-05,1.287207620829611634e-04,9.026807544373915710e-05,1.035768345335630475e-01,9.025462738867895407e-03,2.032500766310218424e-03,2.717677434086600372e-03,5.896016300476784530e-03
6.698526761162349082e-04,3.716031200202432605e-02,3.597527528858209146e-05,1.547652304138177589e-04,1.561366546311260240e-04,1.154790955063325630e-01,1.955744333909936739e-02,4.954148824683911670e-03,2.623119720271455037e-03,8.374322182036608025e-03
6.278011242472768434e-04,3.601065231036638947e-02,3.920408977672512943e-05,1.756846138595282119e-04,1.871652441579349871e-04,1.162862236736306593e-01,3.148920848652104337e-02,5.724279730462771519e-03,2.510627698302714782e-03,1.134717402518712129e-02
6.178072988740203157e-04,2.544308469552063884e-02,3.991089558205301879e-05,1.907895856136371379e-04,1.216102872019854972e-04,1.156019074629516252e-01,3.772619369586176219e-02,3.143809998073039593e-03,2.384836172304536945e-03,1.612766184502385791e-02
6.745335079538929786e-04,2.234276949055443579e-02,3.796215148655162860e-05,1.995300362238831143e-04,5.739756433792501640e-04,1.030509583856921568e-01,4.151085430092097545e-02,1.030083700352190518e-03,2.250594763154639168e-03,2.184593152996758963e-02
6.660541058230654964e-04,3.699896517662417533e-02,3.288662224887620790e-05,2.015100953876621383e-04,1.294228933023787486e-03,7.385445523640069010e-02,4.690677474135467734e-02,6.085613214687125849e-03,2.112833113141459468e-03,2.606988187928046055e-02
5.188689852898318395e-04,5.934283296777916050e-02,2.508556726676180752e-05,1.964993743802778269e-04,6.015600940307778543e-04,4.190524475249843284e-02,4.916415670977165170e-02,1.284571209441111132e-02,1.976423224742469582e-03,2.736613383884951844e-02
5.141352643770251375e-04,6.911375418301941853e-02,1.587906626488283762e-05,1.844401826801144058e-04,2.172394106503568786e-03,2.072841483345558983e-02,4.270692438637077593e-02,1.875965364152788750e-02,1.846042586697798412e-03,2.602642588267728083e-02
8.256415422357981510e-04,5.855377704901344044e-02,4.910858981481938909e-06,1.654506624277845650e-04,4.621940849098266253e-03,5.803685192762532766e-03,3.210772092318522897e-02,1.836590924025906582e-02,1.726042820403081955e-03,2.339191041312604219e-02
8.240098331732201992e-04,3.657132398976863791e-02,9.984012387610807080e-06,1.398236176145786942e-04,3.913320768774404892e-03,1.791910096524174101e-02,2.720465903048157816e-02,1.080581348264056732e-02,1.620326847461858559e-03,2.062270058606634204e-02
1.744446047220912484e-04,1.402252288001836107e-02,2.725263902553740701e-05,1.080207171371167792e-04,6.819423361667307885e-04,5.204762152372707090e-02,2.968335795945692412e-02,2.474430283334716485e-03,1.532235000956968726e-03,1.695243980595412606e-02
1.427713917400365035e-03,2.981095142529353349e-03,4.123818877041496300e-05,7.066242964123642877e-05,2.002637585350345271e-03,7.361683253589249021e-02,3.019112607693382605e-02,1.765437050127192725e-04,1.464443646480597739e-03,1.030817117605588827e-02
1.434232783885437375e-03,8.062832821883199330e-03,5.399766221204482780e-05,2.851460453147936489e-05,2.715248695241516668e-03,5.978150918016381793e-02,2.079092770604455340e-02,4.102266599666264807e-03,1.418884728797243288e-03,1.047296017536195447e-03
1.845555050292196810e-04,3.438701590933748286e-03,7.645140702575706953e-05,1.752849505917669949e-05,2.570272059687831248e-03,2.062600338164403968e-02,7.240316780206090819e-03,8.299349669352423450e-03,1.396687102901136802e-03,6.792014552376591380e-03
8.270616532580201893e-04,2.593251841958638115e-02,1.032028818781388521e-04,6.646580387428856814e-05,2.771006868545288111e-03,1.196134389416011329e-02,1.720735994575862352e-03,6.813782772091051682e-03,1.398128775091186981e-03,9.712390761380102627e-03
8.334874954893300644e-04,4.455721835641393569e-02,1.094619775090598221e-04,1.172141677479148625e-04,3.237019573438236399e-03,2.360949492031720956e-02,4.026662101454015624e-03,1.743737103100204025e-04,1.422603655049969927e-03,8.881054280232265549e-03
4.902329876466366256e-04,4.688503920253027368e-02,1.047734791988372082e-04,1.686323509158988180e-04,3.515802040188218368e-03,2.258076042104166167e-02,2.454048531615956458e-03,6.162113212000320389e-03,1.468630351969140747e-03,8.418075215726593397e-03
4.708794699189329243e-04,3.266248937788464313e-02,1.410255316322126711e-04,2.195458729032722875e-04,3.676294316710664294e-03,1.535724943527364342e-02,5.918456118089570131e-03,5.827002876055829839e-03,1.533898646596938004e-03,1.022158236640767839e-02
6.669967554616835484e-04,1.157535012916008701e-02,1.979389410765414702e-04,2.687789909603714397e-04,3.993531840678059969e-03,3.937683197317375094e-03,1.226992061454221933e-02,1.667105402501616561e-03,1.615295648628173406e-03,1.206263282244334628e-02
7.074203351939133697e-04,8.887418975358591863e-03,1.628739519453792784e-04,3.151887078185229151e-04,4.383924679721122250e-03,3.431252538865129688e-03,1.371138790016886502e-02,3.074977274647213831e-04,1.708918671855049268e-03,1.071267842011324779e-02
5.201740531887519975e-04,2.979846271128066756e-02,7.487444612349439005e-05,3.576850753040280431e-04,4.527798473603046950e-03,2.923429683100002736e-03,1.549970756918617534e-02,3.848032520030981313e-03,1.810196382762697433e-03,5.472746831635016615e-03
4.250813228304572500e-04,5.126675324511689724e-02,1.770949262870051425e-04,3.952461611546737291e-04,4.330269651384758070e-03,4.241211448098150538e-03,1.601330662974812663e-02,8.422298796242195379e-03,1.914102268742190168e-03,1.513285601966004885e-03
7.172713655395057935e-04,6.226952955057957206e-02,4.009002605085146493e-04,4.269593358950669990e-04,3.960705828403764985e-03,1.224036300267838245e-02,7.935908287999525468e-03,9.853301022286060223e-03,2.015194770806568846e-03,7.254889312033655467e-03
9.188475577883736291e-04,5.009812755751483215e-02,1.818774610328986459e-04,4.520697393652921194e-04,3.691675735823137395e-03,1.676489746570740055e-02,4.982334305601157816e-03,7.751442693977982600e-03,2.107504182027829503e-03,9.955403901796328406e-03
7.481311574511332303e-06,1.917203815028470024e-02,6.024823085157522207e-04,4.699658324595623062e-04,3.866803529450496719e-03,1.390368349845038862e-02,8.078093377315289855e-03,4.666325976721978283e-03,2.184825913298337613e-03,9.526549632821844013e-03
1.988082022713152496e-03,9.921405471977293514e-03,1.079889749845536467e-03,4.801392531420310239e-04,4.411039797391543699e-03,1.726641185992161195e-02,3.779610225210269358e-03,2.495850661981433190e-03,2.241382515007429160e-03,6.652038596974736880e-03
3.450691117118222760e-03,2.186996778854179840e-02,6.131609118908670341e-04,4.822680202103281463e-04,4.607954474465841659e-03,3.545559806907414013e-02,1.619531267999363769e-02,6.932103761911664191e-04,2.271648295521067496e-03,2.230701247662895265e-03
3.040508869442726074e-03,1.761528778641735862e-02,1.543262376421285632e-04,4.763461114607734953e-04,4.406334058394895288e-03,5.629065211506938810e-02,1.115912521966568732e-02,9.486827333807705629e-04,2.269374765996395437e-03,2.552310193125737533e-03
1.296496881920723362e-03,3.381990429127675318e-03,3.554739892712975059e-04,4.625380125904578329e-04,4.732395403639793816e-03,6.538091942653109778e-02,1.210261604425690203e-02,5.795851644180669178e-04,2.228382912767910406e-03,6.903635874933076490e-03
2.205886906984024670e-04,1.870948376622399295e-02,1.249804972617366830e-04,4.409134539075742045e-04,5.020361543473151125e-03,6.707685427850912374e-02,3.685693561724395079e-02,1.658145557731922903e-03,2.145096697680673632e-03,1.070163480345047262e-02
6.547165494806625333e-04,4.514298180716357078e-02,2.142252598914775772e-05,4.117523331383398147e-04,2.978197457952413106e-03,7.581693707703020257e-02,4.610327909919015310e-02,2.251505197634236666e-03,2.017326446844490938e-03,1.329044157205436054e-02
3.931641201610493967e-04,6.706424621823595111e-02,8.906376285443429609e-05,3.761062386914021676e-04,1.183379665493205059e-03,9.352767257249169908e-02,3.608662267587719324e-02,6.207336309691332188e-04,1.839203385611384595e-03,1.350065264569442688e-02
3.379503352932813681e-04,7.874945328453425430e-02,9.540890535481980539e-05,3.351350577709022883e-04,3.700762523165512016e-03,1.076047477240666683e-01,1.602120209126709632e-02,1.058390929339146852e-03,1.603980849632186080e-03,1.158455133736776242e-02
7.018037098270168018e-04,8.428647830573562927e-02,5.389317528445124053e-05,2.888503050067748831e-04,2.686110224015097938e-03,1.144030293781397034e-01,7.969979145351212702e-04,4.877246302783143188e-03,1.315210417684125818e-03,9.527270218001976723e-03
6.211864056790265300e-04,8.983160312223731347e-02,5.719376581939697820e-05,2.374465431331178431e-04,1.010683070754341689e-03,1.306083085619276773e-01,7.337402022939340344e-03,7.347573908492796221e-03,9.812791169073178596e-04,8.965748336791548589e-03
4.632254790670375022e-04,9.331316235391226566e-02,1.353889417069850139e-05,1.839562094505320714e-04,1.514373053844778093e-03,1.642902059108779234e-01,7.660680749079188875e-03,6.086936600919199206e-03,5.915638567689984403e-04,9.277494459665735008e-03
1.530977454512865918e-03,8.879740787841562677e-02,8.962597921423005648e-05,1.314021473917887967e-04,2.603854099613358859e-03,1.885870735351377614e-01,9.857035726737092482e-03,5.869886937753411756e-03,1.275737170365051154e-04,7.819892980311129310e-03
1.442274301511334679e-03,7.786041843068772228e-02,1.896891599964954965e-05,7.697240257243875773e-05,1.091409601141236398e-03,1.736634657869179088e-01,1.474189802725899001e-02,1.085337864791109837e-02,3.858053534430909534e-04,3.439754523958330444e-03
9.789025377822406417e-04,6.867557037765179007e-02,1.820249659087409344e-04,1.786228397724038018e-05,2.864749794540778424e-03,1.326025260378519421e-01,1.878363429309708871e-02,1.726996026654955066e-02,9.028112587095723195e-04,3.510113379086289521e-04
1.474888476845061420e-03,6.665753976155372462e-02,4.452075729642867148e-05,3.622354737688972726e-05,6.335156491517538249e-03,9.867945282319059985e-02,2.750450045482645545e-02,1.866272479522578312e-02,1.466950557326236445e-03,5.591591541126324227e-04
2.278992381846124682e-03,7.161809417479772510e-02,8.327115077546775809e-04,7.531368799276643767e-05,7.923778262538542366e-03,7.022637444483051383e-02,5.189769415249544104e-02,1.493082958798837810e-02,2.166002030930668822e-03,3.792411603256330178e-03
1.830314714939554159e-03,7.814020331089767402e-02,1.314976621887910778e-03,1.162810681142009862e-04,8.541645644791200087e-03,2.208331935531832046e-02,8.799984556721651696e-02,1.071434666721657152e-02,2.895712565804038543e-03,3.206724000789151069e-03
3.730740842595531509e-04,7.636173832344339552e-02,8.475692241729628016e-04,1.774928532229930590e-04,8.377549931559393620e-03,3.755809451488306000e-02,1.150159117425658406e-01,6.683578035490161072e-03,3.449744655053055449e-03,1.435422691526285887e-03
5.309373361408133065e-04,6.250223480021804834e-02,6.742007217926594307e-05,2.203269339702284310e-04,6.518504289294524585e-03,6.755811219520299615e-02,1.192165066104639431e-01,8.710881807490639421e-04,4.029782805657442651e-03,4.131361015121866494e-03
4.190577931215727268e-04,4.688191477942828256e-02,1.532556028650621340e-04,2.018610481819638821e-04,3.403719717376095088e-03,5.138562239807525911e-02,1.079849832805618026e-01,1.161833078424420219e-02,5.076724177009115171e-03,1.518006728652219204e-03
1.198130797499610020e-04,3.799683916080422164e-02,6.313527687610041373e-05,2.013485033941277982e-04,2.275632254553334826e-04,1.629490833849041309e-02,9.585603625605605693e-02,1.909551593004873635e-02,6.129259986799625269e-03,4.165351025649022265e-03
1.523547636505646571e-04,2.552954775084712025e-02,1.523318845309416445e-04,3.112004463110057601e-04,3.067162068440510651e-03,1.222533588232412906e-02,8.471131415238934703e-02,1.847988638484721058e-02,5.884821119651231780e-03,9.631482720356569771e-03
2.700125582109510168e-04,2.522300405473284178e-03,4.590416912407289338e-05,3.613145075764276153e-04,5.968329631509075583e-03,4.049374531443353242e-02,6.416821121052872223e-02,1.153690583407571135e-02,4.403936463292016518e-03,1.256919423369213910e-02
2.414891800188466225e-04,3.414900814715949445e-02,1.247783316830175827e-05,1.379370969259026110e-04,6.387252955214963931e-03,7.289663672592372468e-02,3.213437484531670579e-02,3.187262789345541355e-03,3.902500294941639407e-03,1.126588321358669778e-02
1.741872246993283080e-04,4.667063659278906235e-02,1.703564857006460977e-05,2.989662498119399095e-05,4.790520934200968688e-03,8.372815449982247415e-02,7.432144899265203004e-03,3.467538298942350085e-03,5.854173287358187434e-03,6.600464149473941368e-03
1.764804661255203072e-04,3.969177866547796141e-02,2.231984045745385705e-05,7.920444009456696719e-04,5.358641553707089653e-03,5.721389787742369587e-02,1.048926575531891961e-02,8.288557220163245490e-03,8.767043627599476266e-03,1.972204728631327120e-03
1.994631548621914952e-04,3.150119068167769182e-02,1.669225129206370806e-05,2.241350290327840788e-03,1.003000514725497019e-02,2.352284755924513929e-02,3.505079127739245404e-02,1.160498995506664514e-02,1.042356412191294303e-02,1.091063804527616591e-03
1.922975958381789997e-04,2.648004009825240257e-02,4.700950979336352591e-05,2.993663063718345844e-03,1.556453667492603034e-02,1.455560353988802694e-02,5.491156190378793100e-02,1.165893745975141171e-02,1.076409319169057896e-02,3.872861898163628986e-03
1.773333092210053867e-04,1.290769518147796488e-02,5.709111624067515902e-05,2.180348976282116269e-03,1.845594848456859685e-02,1.818907657758585261e-02,5.662842591653546170e-02,6.385426642653967838e-03,1.106654723910203454e-02,6.262506315672371204e-03
1.773958506781030510e-04,5.616186394925435678e-03,7.144664737811797070e-05,6.720822267221605298e-04,1.854097499692692122e-02,1.419263896279416258e-02,4.783541972826749894e-02,2.337295945343412576e-03,1.176257904696525677e-02,5.719939285464637445e-03
1.817393242308166634e-04,6.236032440382301666e-03,9.704417449099973477e-05,1.455580534258020357e-04,1.661642239249035494e-02,1.179883670219923977e-02,3.604841409243916828e-02,9.017954955774678052e-03,1.243432574350927626e-02,1.087384940882603216e-03
1.817719651370271606e-04,1.759787085496677256e-02,1.208856074357892688e-04,8.757222913121625999e-05,1.243194295180816145e-02,1.702460007937503517e-02,2.063357016854447043e-02,9.714107371780496616e-03,1.291838499947751961e-02,5.307942797660623706e-03
1.832013346552150757e-04,4.304167340719196322e-02,1.348185584636360220e-04,9.394119220165463046e-05,6.122821785408230286e-03,1.124679987796907768e-02,6.878917361411865730e-03,4.754317584111066031e-03,1.335256642425089284e-02,9.934951054595948447e-03
1.848792498145192937e-04,5.012042505850184543e-02,1.461920212300554052e-04,1.106780542261459664e-05,7.066902795103679200e-04,1.008868309711647392e-02,7.668632284815563374e-03,2.827327872404854659e-03,1.374093690631671486e-02,1.192099581153559761e-02
1.817943946974094279e-04,4.565700041717279251e-02,1.671969497641636270e-04,1.236410846386313536e-04,5.626206163586741291e-03,2.319410755184623044e-02,2.496080505110145203e-02,8.339372556389650776e-03,1.412603193498349237e-02,1.403753432922481489e-02
1.850346829706654727e-04,4.611974125872723984e-02,1.901306159862170553e-04,1.379177681179928638e-04,6.525189407172443147e-03,1.848123799218305205e-02,4.307694369584676858e-02,6.326978513733412177e-03,1.467265140240553954e-02,1.846556843604835532e-02
2.018186538255325449e-04,5.279527458801461237e-02,1.898478391899468762e-04,1.182189421842019263e-04,3.297671802183330461e-03,2.105187571877886396e-02,4.605545792997454979e-02,4.520831038427344968e-03,1.514895487766982664e-02,2.250706000347208260e-02
2.040290783208866627e-04,5.414875869421349741e-02,1.772470456836759776e-04,1.458530505709511684e-04,1.436041162065082371e-03,5.711154492167386937e-02,3.299162981982761700e-02,1.683238577357058438e-02,1.512601622630936268e-02,2.137614792275463124e-02
1.767961724059425286e-04,4.541605570258713809e-02,2.046871957028468050e-04,1.891422840635014803e-04,4.479998564293823267e-03,1.193119006852861042e-01,1.344680867693279040e-02,2.009126979186454456e-02,1.517792576768080791e-02,1.488352987364801282e-02
1.815950518554459070e-04,3.734915510357302015e-02,2.517575852595868016e-04,2.047725117234329797e-04,4.453364112633061318e-03,1.720832180865197181e-01,4.110687967939504611e-03,1.378280781727200116e-02,1.633530297175567539e-02,8.546078043744664496e-03
2.509158568941982767e-04,4.505247971362805887e-02,2.062826011793850427e-04,1.873757575697763749e-04,1.492777970930227313e-03,1.880535530968347468e-01,1.622075907365644332e-02,1.008432849564645448e-02,1.727966025992599269e-02,7.474939787988211896e-03
2.531094589261043723e-04,6.973427430011427952e-02,1.077948178624471239e-04,1.646283578657141639e-04,3.556775986925011200e-03,1.709831926542041414e-01,2.351432838006360312e-02,1.760016442559898114e-02,1.458733923324147426e-02,1.050494589596510583e-02
1.152076132728646304e-04,9.359478143758072355e-02,1.993884655316177537e-04,1.798940589947530346e-04,8.688033256886723218e-03,1.344701843703970667e-01,3.016798441771372311e-02,2.784084369434691036e-02,8.017039194318764314e-03,1.172072395065527212e-02
1.191338881061824258e-04,9.618696302230686501e-02,4.130119992949209747e-04,2.050568823161967309e-04,1.161777662902104685e-02,7.903792817780165569e-02,4.076768407827826429e-02,2.736825448995387766e-02,2.699657901407417297e-03,8.027910328520760155e-03
4.396424050097394128e-04,7.228069482476399965e-02,1.857585929243076126e-04,1.325180590805657510e-04,1.231615162713372603e-02,1.294288127375899967e-02,5.457698996766787575e-02,1.845748942316458030e-02,3.068745803379980056e-03,2.507538586122791055e-03
4.455061641439295411e-04,2.889739220058348823e-02,6.050408949947438378e-04,6.122582326134983266e-06,1.299691477767667483e-02,3.379577991482034943e-02,6.621523781165977729e-02,1.524455810648151291e-02,7.601314891389614539e-03,1.921318782858399184e-03
5.494615612599035737e-04,2.288866224513693912e-02,1.089173060798654443e-03,6.770181707328809192e-05,1.492409327364716161e-02,4.409099175486372313e-02,7.358866995505636277e-02,2.244717209283992113e-02,1.259727866689207623e-02,7.904278962733515129e-03
1.798470801508074901e-03,6.103759917982253674e-02,6.279378533628104985e-04,2.481649759308481701e-04,1.639420237143023040e-02,2.968411444421728204e-02,7.788513156725980491e-02,3.151840905429504486e-02,1.706703479664201106e-02,1.779741034109871833e-02
1.793312985781280637e-03,5.551742325357404695e-02,1.408349135968634176e-04,1.367437928981297676e-05,1.412388148752536168e-02,3.505695596199858224e-03,7.412241439153569034e-02,3.652999526222529963e-02,1.975534165399510725e-02,2.635476502336743521e-02
5.338414001060246602e-04,1.038177611451118407e-03,3.478417808169780696e-04,8.387237578503986329e-04,6.715353968772341288e-03,5.913484129848925464e-02,5.483466943227165158e-02,4.012421790095124785e-02,1.652740500558985692e-02,2.574440242565219014e-02
4.720031680453373301e-04,6.410777094366762463e-02,1.166475972083588254e-04,1.356211438997596700e-03,2.679067159525960404e-03,1.120146313880382855e-01,2.707097974708020174e-02,4.373068696005905781e-02,6.874330998305172580e-03,1.589300030905226035e-02
4.776516234724447309e-04,9.145740290623007029e-02,1.089345372371068767e-05,9.268322325256513408e-04,8.441078992843490877e-03,1.243558794414470203e-01,1.041925500891202096e-02,4.435773336074126660e-02,2.961105067368881641e-03,4.694474734684234152e-03
1.695165496417178085e-04,6.684730391373434888e-02,9.920552580858332911e-05,1.872034065142126895e-04,8.568648323305356335e-03,1.052649008635813122e-01,1.352079862618486492e-02,4.175093142359202064e-02,1.093908169607670823e-02,7.459874533356240702e-04
1.791046192039006627e-04,1.163634434647215117e-02,1.391560315370821165e-04,5.466617631961814805e-06,6.830161775409430633e-03,9.514644074641706584e-02,2.597319000328365129e-02,3.926542375577593558e-02,2.499844390009956993e-02,3.667454036531841467e-04
3.318855509619392371e-04,4.494608399931741827e-02,9.194052872325647835e-05,2.572375678461541080e-04,7.356905183980669630e-03,9.231575981992305724e-02,3.556903152995546935e-02,3.751325466961448474e-02,4.818604745785899646e-02,4.207326870410975014e-03
3.459703946781029940e-04,8.150734268277490258e-02,6.994123014713571058e-05,3.780247964096459926e-04,9.183391781703780649e-03,5.603765113566749889e-02,4.128823767858381955e-02,3.337688302086322389e-02,6.787307615045648501e-02,6.684016286941422101e-03
2.943801120199766386e-04,8.661468002417463397e-02,9.325401257689740783e-05,2.982331829599780214e-04,8.367680874988903117e-03,1.547419900080439226e-02,4.599807007180370388e-02,2.509666748404161540e-02,7.055247729992406014e-02,6.472854757459759953e-03
3.091165425333482837e-04,6.436870567515123875e-02,1.098982243343468588e-04,2.596219518580102450e-04,4.784473879417952547e-03,6.550118757544065584e-02,4.551464150438351564e-02,1.547482399033201991e-02,5.835475607992653135e-02,5.189183896372967161e-03
3.579004734371319177e-04,3.721566004593191562e-02,1.100627459840298832e-04,3.006575752293187318e-04,4.071032250167677842e-03,4.825243411746125283e-02,3.473068785835829037e-02,1.018792076801798042e-02,4.272851869516593876e-02,5.202439670986197702e-03
3.787025914538540670e-04,2.893908734838064947e-02,1.180861398503405847e-04,3.083145571518471897e-04,1.066873271188758382e-02,1.929114623974692577e-02,2.364099291263271896e-02,1.224200973607125591e-02,3.022260196963486370e-02,7.468399847012910028e-03
3.859936679743279793e-04,3.795321159828421442e-02,1.388671532834611299e-04,2.616233977668822562e-04,2.063008481639500014e-02,8.618816735753970226e-02,3.149701316293673087e-02,1.750585380198044910e-02,2.014885075281916404e-02,1.097392373654039813e-02
4.090011814612783321e-04,3.725962433149675179e-02,1.609804371945084810e-04,2.127644539482745031e-04,2.557536779232581770e-02,1.262415681176695670e-01,5.688615760155563139e-02,1.867204105351203888e-02,1.002484047445279490e-02,1.378863188818971186e-02
4.411977728409011905e-04,9.296864560228299684e-03,1.818006410130230987e-04,1.726713294042321904e-04,2.325234391585464036e-02,1.535972587111616716e-01,7.234881346712204730e-02,1.397844612287145807e-02,7.405661594000806022e-05,1.509352046702843418e-02
4.688288860461507475e-04,3.041904434979984806e-02,2.063141811948726676e-04,1.163234757576527332e-04,1.879350568227515506e-02,1.812204274876997590e-01,6.265194960491998755e-02,7.011748277838432755e-03,5.345304034314646117e-03,1.607798778162591175e-02
4.949290657354320352e-04,5.451849835770387204e-02,2.353643278780015013e-04,3.661748899338964941e-05,1.562280873697597522e-02,1.810174312983632572e-01,4.828089124309784680e-02,2.031543125829171539e-03,2.039387179434708555e-03,1.807144918270836564e-02
5.257507543815951277e-04,5.648452415837327406e-02,2.661607979704525592e-04,5.294176079156629486e-05,1.173661146389419659e-02,1.147764319002761435e-01,5.414172469469624022e-02,1.682716244846801934e-02,7.221715170575369012e-03,2.058950369164187083e-02
5.593059934359177971e-04,5.095713407841244436e-02,2.977679995526214961e-04,1.438435536649058856e-04,5.952142497320428438e-03,4.292834286557342671e-03,7.513669950273509091e-02,3.471965869960719209e-02,1.447252276269127280e-02,2.248511799478349407e-02
5.926652233267482939e-04,5.024861128309695418e-02,3.307594598530977348e-04,2.438144979253769760e-04,1.272763040251195929e-03,7.469939538078226859e-02,9.013568886823943027e-02,4.531191506322653634e-02,1.601373184725370449e-02,2.412612646446090844e-02
6.275456932022550069e-04,5.157239996587716091e-02,3.647262910026767124e-04,3.643978313402206504e-04,2.043170660381979972e-04,8.866133220681964022e-02,9.035887938687510446e-02,4.443400284235210496e-02,1.467489387857254766e-02,2.694516898499949714e-02
6.646578584813516832e-04,4.638687876805195481e-02,3.988274579052546024e-04,4.949472290144381944e-04,9.535048863760914317e-04,8.817806721418328109e-02,7.636122614417220622e-02,4.205490011162959368e-02,1.267610594647519684e-02,3.079224887951475045e-02
7.006830097607294559e-04,3.409512464428750278e-02,4.328472482239777066e-04,6.089026397537574894e-04,4.000789376483561595e-03,1.198978190332530558e-01,4.542400593810104470e-02,4.933041069268880030e-02,9.135972579400486807e-03,3.276502938715014634e-02
7.358072541852911938e-04,2.001950074216554340e-02,4.661054718746155236e-04,7.201592675168398986e-04,8.230984173665694889e-03,1.494226697517244129e-01,1.890275290954928841e-03,6.236402096995964650e-02,5.131790833256612804e-03,3.015991389519043220e-02
7.760888898114300235e-04,3.774673274110864306e-03,4.972289063633837094e-04,8.804444423935916782e-04,1.046205950511665261e-02,1.224262440187018491e-01,3.215890761094407357e-02,6.690090742929004353e-02,4.350976096341109892e-03,2.425314181374471287e-02
8.194809269710861882e-04,1.860358447987270000e-02,5.265258155289839889e-04,1.058679533952622438e-03,1.048342012767630553e-02,5.451833426667029858e-02,3.465427747385285695e-02,5.821289802178731404e-02,7.126569451409964229e-03,1.873339866567872575e-02
8.524569826705952029e-04,3.959376973526829158e-02,5.556270812972796160e-04,1.138954742840297268e-03,1.119835407830977077e-02,6.721203731096123124e-03,6.397202534933804988e-03,4.757557344332581650e-02,8.852607300835594467e-03,1.492892701347156570e-02
8.788602696936227655e-04,4.109969227313912954e-02,5.824218549189402868e-04,1.180857498109900115e-03,1.454184385702613283e-02,1.110922766367377669e-02,3.368565906277225241e-02,4.628096126811245131e-02,6.150898024281975865e-03,1.180316427844651378e-02
9.269083683004787069e-04,1.775279125174245021e-02,6.021662845677419910e-04,1.442035640375888099e-03,1.925339717302332332e-02,5.627226184497915312e-02,6.804574370702184960e-02,5.191275134985661593e-02,1.435313328112508644e-03,9.911045577752054803e-03
9.880709697984001866e-04,1.168640920795466567e-02,6.183702880441230895e-04,1.777680838663918059e-03,2.183302727632173770e-02,1.053368607301341658e-01,8.772564233381487109e-02,5.597424388156280184e-02,3.990697255467315786e-04,1.131891514117019069e-02
1.000830445061434617e-03,2.539199393171314920e-02,6.405302279876603751e-04,1.315043665318964532e-03,1.894233745435883187e-02,1.143009586907662717e-01,9.095320782476061516e-02,5.740317855549699477e-02,2.078842457147460528e-03,1.453992553704380394e-02
9.832382192622225216e-04,2.231168450932480979e-02,6.608293883682051471e-04,5.564344700679425436e-04,1.059788674218525330e-02,7.512233238645575628e-02,8.498170140081286184e-02,6.064937656952315570e-02,6.041507302132403945e-03,1.264867390630012439e-02
1.077500426621082110e-03,1.561164972815595048e-02,6.584882962977379062e-04,2.866940795950593309e-03,1.159202561199365643e-03,3.586607366704364086e-02,8.194054574810732960e-02,6.526187152499060562e-02,8.487415612463846890e-03,2.862877846587568928e-05
1.219157866671903741e-03,1.055467917586987506e-02,6.496557837777209611e-04,3.539546717092101162e-03,4.483981043158385450e-03,4.051422666504130021e-02,8.415381936352932246e-02,6.663408586256928945e-02,8.908484402187263895e-03,1.999705931689107347e-02
8.259998396823552266e-04,5.229158077309169726e-04,6.792527808601307683e-04,1.680575269909809471e-03,4.941702763534544691e-03,6.916287244095536968e-02,8.124219190459505691e-02,6.517611661479488783e-02,7.898524005713227283e-03,3.700217252721321737e-02
6.384507493801432673e-04,1.867181295911769442e-02,7.139261782440533416e-04,1.127403764595564725e-03,1.703000912214224167e-03,7.181182189673218641e-02,7.017500310275794073e-02,6.485371425291461267e-02,5.148907701978395861e-03,4.400362218338696452e-02
2.463046269970087937e-03,3.995334003015175300e-02,6.590322525865139214e-04,2.606909610745531975e-03,3.230373087606817125e-03,4.071663377461966909e-02,6.590164878536411419e-02,6.335989436149545850e-02,3.082392661839451531e-05,4.182100589332733015e-02
2.826243821133325815e-03,5.074508172168095549e-02,5.966958289995258780e-04,2.467028941911258641e-03,8.020319071498437091e-03,1.868658732777423934e-02,7.512237377151800843e-02,5.381536993931360785e-02,6.724604748273628300e-03,3.545375690623072534e-02
1.116060818497516824e-03,4.207691060344533052e-02,7.158767662052694259e-04,2.227007742722511563e-03,1.128339641232334843e-02,3.632804459363566524e-02,6.931401677792067839e-02,3.427212887192112450e-02,1.169400636936918439e-02,2.891378043521811853e-02
7.528275588261516610e-04,1.159051638684913295e-02,5.546474677233315456e-04,2.598874533555499845e-03,1.227634549530568636e-02,6.104065243973609556e-02,9.676946509674533986e-03,6.492121032577251663e-03,1.127210406616378259e-02,2.386524449659878366e-02
8.562043615696556757e-04,3.374515476165646649e-02,1.255660786594817516e-03,2.366358975570254184e-03,1.012742229735536306e-02,3.641925662782241613e-02,1.004347967644423772e-01,2.899367470647563200e-02,4.949604314963526423e-03,2.252885827078028591e-02
4.747608947229463544e-05,7.345369325815094552e-02,5.201661272943700412e-03,2.836250407619406665e-04,4.534363304287155824e-03,3.071713627715810802e-02,2.108459983902296886e-01,6.723346840135148439e-02,2.854565144566361366e-03,2.814068780931293368e-02
3.379227155795676545e-04,8.273503312857224956e-02,8.849550028267424290e-03,2.719006793862616209e-03,1.728513709572192334e-03,7.234560017916963348e-02,2.750240955542463950e-01,9.384492637307767504e-02,6.147689078641020363e-03,3.789125495036047703e-02
1.535414496210654300e-03,5.388239176757857185e-02,8.635484298820605975e-03,4.101574465630132733e-03,4.035124503407738414e-03,5.785598958601877173e-02,2.860488318539176067e-01,9.356946036067455286e-02,2.801344544934688402e-03,4.027640861404873512e-02
1.445000890960797431e-03,3.744232824635001025e-03,4.429583674836756746e-03,2.555286485911476349e-03,1.464802104206591781e-03,2.970941604009465567e-02,2.612669218789060444e-01,6.431853039584699283e-02,4.635738397336577193e-03,2.774321633228675130e-02
1.024817452101074809e-03,3.965404873671708741e-02,1.166794667570143448e-04,4.822792732817953679e-04,2.071433111070115907e-03,2.360550994381573064e-02,2.124615065515329804e-01,2.285507713589646911e-02,1.234680321745018627e-02,7.745582619674147920e-03
4.192783468223150629e-03,5.253964144253821245e-02,1.283377047132183832e-03,2.621887745890169770e-03,3.660406892349408071e-03,1.557801920198970298e-02,1.447643221675967706e-01,6.734890209424127666e-03,1.726334028071330878e-02,6.574715629328721153e-03
5.292685554040937358e-03,2.680030624062581385e-02,7.089301330381093686e-04,3.131643642899008262e-03,4.484686927855216151e-03,2.388241361277387842e-02,7.611323693062112261e-02,1.676059585829652032e-02,1.761006201315791497e-02,1.147971606568353765e-02
3.648263570118489424e-03,1.993488265409467178e-02,3.931984579855549015e-04,3.003913656878897179e-03,6.002427324200444551e-03,6.954772025599263718e-02,3.614820347421485169e-02,2.454871968638579899e-02,1.452932355629664440e-02,1.166034140129540084e-02
1.499201584027647343e-03,5.072350009285779560e-02,6.595585859039153126e-04,3.052165912486668603e-03,7.433669943966229356e-03,7.040410064325075545e-02,3.689183348716869315e-02,4.835606937341309364e-02,1.210441590077197295e-02,1.075618959637028409e-02
1.219027980882795258e-03,4.217493639725727883e-02,7.038870626871590033e-04,3.135007647337650048e-03,8.533158276892185284e-03,2.307402697684715620e-02,5.712917095274735318e-02,7.883730339356660732e-02,1.341356129596434077e-02,9.781714354590045207e-03
2.709488382014321132e-03,1.174736199513869324e-02,6.035025494308446890e-04,3.156391673398277389e-03,1.094287478898782820e-02,1.382948991571972264e-02,6.474684713176905027e-02,8.657170569326765042e-02,1.725906104224774959e-02,9.579339370840312534e-03
4.132869935942325330e-03,2.561637547584540934e-03,8.590255242420789155e-04,3.474570593355199351e-03,1.482142186058587469e-02,5.181544377514332896e-03,4.921989085340696540e-02,5.696207584340411134e-02,2.027051411026186550e-02,8.522035906120073792e-03
4.002280962679676847e-03,9.583469439259013553e-03,9.393944429969290416e-04,3.816651388936660554e-03,1.682573098300722131e-02,3.770588283079286118e-02,3.047770790913940930e-02,6.361026407074067690e-03,2.083430075753949992e-02,9.277860876651436960e-04
2.155741905750480775e-03,2.163604760260982515e-02,1.084820362724339183e-05,3.086148562043123777e-03,1.367152296842575124e-02,3.541231899883940520e-03,3.635802439973940398e-02,3.674960435333154279e-02,1.927187668731799447e-02,1.667750297521055844e-02
2.335519741408108503e-04,1.051524822687613034e-02,1.233217499885522509e-03,1.155660161507549065e-03,6.538336621704243269e-03,1.251767662578479878e-01,6.745134975343750061e-02,5.722712642348811579e-02,1.632082554463569826e-02,3.839099399768367699e-02
1.618998472914848306e-03,1.606975739765797995e-02,1.224595122701352748e-03,4.724749695514785072e-04,1.502166595319660413e-05,2.262822072247857308e-01,9.197522232916599538e-02,5.948975459952660083e-02,1.354918951792363595e-02,5.311514110920365073e-02
1.650372860458662865e-03,3.709184924567691943e-02,7.091074027831597974e-05,9.176620744747552173e-04,3.140969741550959492e-03,2.230102193936050747e-01,8.489581955563671456e-02,5.520387267413104371e-02,1.255386477787192104e-02,5.643512790553020103e-02
1.274545554266993171e-03,4.455454424332067065e-02,1.133815251537664869e-03,1.332090540800028641e-03,4.503962214838037360e-03,1.455815808543507173e-01,5.702629761541569420e-02,4.876185952908330262e-02,1.200407090187720523e-02,5.304949469291526942e-02
1.238470573691993195e-03,4.688053550720747142e-02,1.181665284358472678e-03,2.840245029387003170e-03,6.935093868209602982e-03,8.122075517081855933e-02,3.481493906993460286e-02,3.697145019648689912e-02,8.993000332569917044e-03,4.773816697907468792e-02
1.411002741012523654e-03,5.365025098163145323e-02,8.681146533074818056e-04,4.747116922995656477e-03,1.082030148408637260e-02,7.235054193177764548e-02,3.219351314566330780e-02,2.060922044472797074e-02,4.320288376115502711e-03,4.072038625339324813e-02
1.458321371557691785e-03,5.875517219181134593e-02,8.793952595991008344e-04,5.988410671599032897e-03,1.410700805265174655e-02,1.018518233497979902e-01,4.995603779976673375e-02,8.506784651008387696e-03,1.872280371963890282e-03,3.126006790839221117e-02
1.338702503023299871e-03,4.466632095619627735e-02,1.135428016988162354e-03,6.526136825041000886e-03,1.458587626359625702e-02,1.347761163494755332e-01,7.987397962799973328e-02,8.204939611039407943e-03,2.185042322727345169e-03,1.902716596941703142e-02
1.227330695616518598e-03,1.126899476298562353e-02,1.246724001725448179e-03,6.098774975370493089e-03,1.172586007807210721e-02,1.430405551091163963e-01,1.049030335008697690e-01,1.880721014027823476e-02,2.127266970827212077e-03,3.024533228111061546e-03
1.338351423848905836e-03,1.149726036012168988e-02,1.067332960274269436e-03,3.613597429781750196e-03,7.450856526750778037e-03,1.123239322124908041e-01,1.109674151630629796e-01,3.566709588936948366e-02,1.660736557029390608e-03,1.498386857982822798e-02
1.560520549546793841e-03,6.243121807793372037e-03,9.486079452660785933e-04,6.143081634421506971e-04,4.625939263524614375e-03,4.670724071224056917e-02,9.586884579942211992e-02,5.577832883536764513e-02,4.785169085985099824e-03,2.803036488790009231e-02
1.338894217989511620e-03,5.880407682780530720e-02,1.348858025239214669e-03,3.897703237142788671e-03,4.029217591172581242e-03,3.100847062061967002e-02,6.157479683490713757e-02,7.454348710069286232e-02,1.204336947283389872e-02,3.097119490371457937e-02
5.253445555859654345e-04,1.074621070202368689e-01,1.728427584943982619e-03,4.248426131362519412e-03,4.417806833114161676e-03,8.500014801797597941e-02,1.200394344807909942e-02,8.353245151602889385e-02,1.770361937019093376e-02,2.848590107288198614e-02
6.605961579395547880e-06,1.170780496211394350e-01,7.087544117459567989e-04,2.719909772654656790e-03,5.403319098397226308e-03,8.922813166467387369e-02,3.734113625550729981e-02,7.481720362186852769e-02,1.750416782734838875e-02,3.040726984555162590e-02
4.914900533960804433e-04,9.043275974920451932e-02,1.570140345571982956e-03,1.240483833994935736e-03,7.095991236817832115e-03,5.840346485641159657e-02,6.543661817790390189e-02,4.319349257682519871e-02,1.496405500582967570e-02,3.976688694733028495e-02
1.376838573090956438e-03,6.168658730127854484e-02,2.681701237869173887e-03,1.258769675796991957e-04,7.627851083244860386e-03,3.842835990423461301e-02,6.900943358857257459e-02,9.005913436063954849e-03,1.598222194157057977e-02,4.965389370926539397e-02
1.488616287591663489e-03,5.589777732551910738e-02,1.239502096912885017e-03,9.218959418676997680e-04,5.196757891359278687e-03,5.288810468623270783e-02,6.669417086447737564e-02,5.906121221355650069e-02,2.109361012805637675e-02,5.110120304591023177e-02
6.815805644663797689e-04,7.115438075517147021e-02,7.762059710651784353e-04,1.456900961703496908e-03,1.863589388873523574e-03,7.663985495285688399e-02,7.439658224865763891e-02,7.159125469139247799e-02,2.831337068284314057e-02,4.153884229268829664e-02
4.993011547848493891e-04,9.639024957441236219e-02,1.060449296689202920e-03,1.371390229521848901e-03,1.306294192950731292e-03,7.092930141658704279e-02,8.815470602901190333e-02,3.719137496778181923e-02,3.806949891429736027e-02,2.665437975000866169e-02
1.955969702793449415e-03,1.161397303481652016e-01,2.837980575803533364e-04,1.722017500316427993e-03,3.319535717967111305e-03,3.000375275579518844e-02,9.619251324078231802e-02,1.260416379717904309e-02,4.683067694683510501e-02,1.529355838345554559e-02
3.569891579059613577e-03,1.035167990131135446e-01,3.058346786809953543e-04,3.131966042975415244e-03,3.963195474160869508e-03,1.030263379798115539e-02,9.823474867439420388e-02,4.198670936559237982e-02,4.272838276982293682e-02,1.186360205152948988e-02
4.173832137307270304e-03,4.745256760081537767e-02,1.227042848018841800e-03,4.308440120157934136e-03,1.188683429894668315e-03,1.750712444720066516e-03,1.077281999897291842e-01,4.285154678322286581e-02,2.011484033145226336e-02,1.337044405126544544e-02
2.698280860336066660e-03,1.952749415040435504e-02,1.903223243257039623e-03,3.465349414794205440e-03,2.253927808921230101e-03,6.986161306585429720e-02,1.368692576672688177e-01,2.561946670893496675e-02,7.051063353075145285e-03,1.344369884793198897e-02
1.417701531537584941e-04,5.561399042222744948e-02,1.614748246420045661e-03,1.267778992200506655e-03,1.963472270129280016e-03,1.578253714815872621e-01,1.784293516820948666e-01,2.623880484981011389e-03,1.927018211963113167e-02,8.902071853096625575e-03
1.360795450057696336e-03,5.627774024311064938e-02,4.471079856610171341e-04,1.105104535993178209e-03,3.689614971023344112e-03,1.936501447157384093e-01,2.043834558004772595e-01,1.630427426717178524e-02,1.385620061635987540e-02,3.077645760225839258e-03
1.265396634584049600e-03,3.956323112733910186e-02,6.765385782975121649e-04,5.030696213437181423e-03,1.248432835385783306e-02,1.659171539330410450e-01,1.899581851609508931e-01,2.834466985177858112e-02,2.714825219566746432e-03,1.953769243288115947e-03
7.931075068491845112e-04,1.644062634665709871e-02,6.001359697238992834e-04,1.013352698996167894e-02,2.021930758363131922e-02,1.327568484224872503e-01,1.401135184714144277e-01,3.511344403303344464e-02,5.319194284211674340e-03,6.437320142201725937e-03
7.831766903154596454e-04,1.649353636977607049e-03,5.710417451882679679e-04,1.123160805933436091e-02,2.329073195501085020e-02,1.433926355837749911e-01,8.572503890073766841e-02,3.053485617783223763e-02,1.062160838601576042e-02,1.130803442156377500e-02
9.372783932219622008e-04,1.591269164731340391e-02,1.521385113703950867e-03,7.046852095615496574e-03,2.066550148777735255e-02,1.830675782523286110e-01,5.010348416413992062e-02,5.183863399197338739e-03,1.733881777270175270e-02,1.216859935571135837e-02
8.884296254803809639e-04,5.479843935802847926e-02,1.589408220507784178e-03,1.268112870268225164e-03,1.421567817239995091e-02,2.122956676686052202e-01,2.530111847549230616e-02,3.409876571553854124e-02,2.724534779205255511e-02,9.174655328895919490e-03
7.619970133634326910e-04,8.838684932063614608e-02,1.311247716086991330e-03,2.461303304458009773e-03,7.007978920220937422e-03,2.230659742564544135e-01,9.100522316946215579e-03,6.524988553375984934e-02,3.401731423855277464e-02,4.151699773250767250e-03
7.286559960107344283e-04,1.002213794358592508e-01,1.205347358976433490e-03,3.980528132200598229e-03,1.228775906582877222e-03,2.265837294754311504e-01,4.969442421286797418e-02,7.471162536537902243e-02,2.481001543330112885e-02,1.228710189914708137e-03
7.320777332286455830e-04,9.705816543570197630e-02,1.298664588784047497e-03,4.782693318933083255e-03,2.282950893274821036e-03,2.117623331629333028e-01,7.045953767678535262e-02,6.721400994071763391e-02,4.902268250006752703e-03,4.475181231103612760e-03
6.944808834178134351e-04,8.557000397805157588e-02,1.532889613985743060e-03,5.365898811642766907e-03,3.650871186209563805e-03,1.602353751988117025e-01,5.759517834332632258e-02,5.053459669010511301e-02,4.211552935397066405e-02,3.213393632603638028e-03
6.425327012260899102e-04,6.866773755193453233e-02,1.581353504319754329e-03,5.461382410818040913e-03,4.006193973714747628e-03,9.299802203601786887e-02,2.186439868112725199e-02,2.435743839200109340e-02,6.974358788947222776e-02,1.989926449631643050e-03
6.081681574182167763e-04,5.588643098190879815e-02,8.178550429968769282e-04,5.218328761247312958e-03,4.901749645366414339e-03,5.276441844893270394e-02,1.873625938434413801e-02,8.724721621547533446e-03,8.303729851860215672e-02,7.075303193567366797e-03
5.773771030809409302e-04,5.313719423854697255e-02,6.084078435019853182e-04,5.050078482583733770e-03,7.074039603438183818e-03,4.566497350367038077e-02,4.715334971864072744e-02,3.353326456232482572e-02,8.577308283199103212e-02,8.026257890008051815e-03
5.460436722617652066e-04,4.870321707173758813e-02,1.375125904846233576e-03,5.053890547786466479e-03,1.052996091149902003e-02,4.963225034348557607e-02,4.834775370653053572e-02,3.661774668190271448e-02,7.894287674398299537e-02,5.298283145554044497e-03
5.257414011332680204e-04,2.445563085377043533e-02,5.822399020005612855e-04,5.096756138557954202e-03,1.514759442069360702e-02,6.488943481122333434e-02,2.364785064809701159e-02,2.214705679929902804e-02,6.176232137803006755e-02,3.165982587623063400e-03
4.957349548583929368e-04,2.213099922648352133e-02,9.347764134881160437e-04,5.044788836179289575e-03,1.984431967001647895e-02,1.025479750975470949e-01,4.321953643144727485e-03,2.917415961937341005e-03,3.775637969331962357e-02,3.458291498415121297e-03
4.393937773332613436e-04,7.157059712822175235e-02,1.744249988841721629e-03,4.858328680866804208e-03,2.240808116515841455e-02,1.406603063570712742e-01,1.363972650884000271e-02,1.447814816566174966e-02,1.310496958549899754e-02,2.112234622836559397e-03
4.149686771733867435e-04,9.559499745443673924e-02,1.633824248678900689e-03,4.776695245299373768e-03,2.189768064473122944e-02,1.386716089875988378e-01,4.195504468383078056e-03,2.689724678865153262e-02,7.913444315668821324e-03,5.559818795776300115e-03
4.558384465489559835e-04,8.104971361695044452e-02,1.447568077599307827e-03,5.059405388193372738e-03,2.000596865946208808e-02,8.141191395753828719e-02,4.644539291210591711e-03,2.831253967830048984e-02,2.330321252737595564e-02,1.780553757322586583e-02
4.316293812745406367e-04,4.524455422062037546e-02,1.614063829673350421e-03,5.164263309654978408e-03,1.854171372539021104e-02,1.434973459204776265e-02,5.426625096677977281e-03,1.396141957519398541e-02,3.268959415974346389e-02,2.761557484080886735e-02
2.688318359841824611e-04,1.974715006049586677e-02,1.730038210265182150e-03,3.892613549537635512e-03,1.727522028850488056e-02,1.119902488375407595e-01,2.928639798323900631e-02,1.472721413409567442e-02,3.767356552275799575e-02,3.043283709032907139e-02
2.491678040495394139e-04,1.512020743991799449e-02,1.544473259024041999e-03,1.143855914057734279e-03,1.580428581431448515e-02,1.661018965981067297e-01,4.153359520890624601e-02,4.956748246640183680e-02,3.940615493928775054e-02,2.821245268790369132e-02
5.476395505950627535e-04,1.341938697507467915e-02,1.563675400069337949e-03,1.027619072647525380e-03,1.508056784045481817e-02,1.544557475070000019e-01,2.930578789962878100e-02,7.670587511399648561e-02,3.433117407776326707e-02,2.550189919890730531e-02
5.317603334368377560e-04,2.370540258298441203e-03,2.039172372419396657e-03,4.095191525074757849e-04,1.502125627041899641e-02,1.016764995798517812e-01,9.966252439029354634e-03,8.308708147556678747e-02,1.642866871892743191e-02,2.350587850298057127e-02
4.854819355013524455e-04,2.769622411180769350e-02,1.720937894288161393e-03,1.979225489747708788e-03,1.282004570393981829e-02,5.179970513830946949e-02,8.272025288430972373e-03,6.426801627269061734e-02,1.259864854766385572e-02,1.977750618944561223e-02
1.754647094667523190e-03,4.891405868992996370e-02,1.072436473234669079e-03,2.136209605530080963e-03,5.678610464437879382e-03,3.249181998822672085e-02,2.961420534615143846e-02,2.377914485103552536e-02,3.906284206544995835e-02,1.312319537227131863e-02
1.766502584996773552e-03,6.160832149842327549e-02,5.777864809066321494e-03,1.808718862783342341e-03,5.678285704861257832e-03,5.678813822553952645e-02,6.131316659178655953e-02,2.889681846930033590e-02,4.959406877217449605e-02,6.116283124090678841e-03
5.275596962008124221e-04,6.964892450690243764e-02,9.359627943122035901e-03,6.638284862204092349e-03,1.691585602280432088e-02,1.269655232995986760e-01,8.774010532644330174e-02,7.562159568924683994e-02,4.595760056622082840e-02,1.146718609899477839e-03
4.511585201406133122e-04,7.315468215843851096e-02,9.469483614207437408e-03,8.406552406681915002e-03,2.315117337424627345e-02,2.180225987075398442e-01,9.748272423903568684e-02,9.537990129255706495e-02,4.045089273398917024e-02,3.888835921469379741e-03
4.365724397786826887e-04,6.577322079865338678e-02,6.808453301022600844e-03,7.352533789962419769e-03,2.219733432106556908e-02,2.825082610629256474e-01,8.309359809435087896e-02,7.925469015942832041e-02,3.800416524245218280e-02,1.237763277593408387e-02
1.212376071289772515e-04,4.670051095113976480e-02,3.946053367971952969e-03,5.905330760613080633e-03,1.532705315523035482e-02,2.915076078322925146e-01,4.632811065976532444e-02,3.573620100458942822e-02,3.254081578263263996e-02,2.218717524854466050e-02
1.072147735345091316e-04,3.097308548666596537e-02,2.735301199487834983e-03,4.592716758212073147e-03,6.105748377871758441e-03,2.667547638752030825e-01,7.253099320769212238e-03,1.553052121278876083e-02,2.197890053642716571e-02,2.662220020018508243e-02
2.054153742367219315e-04,4.057862424386039085e-02,3.111553869094811284e-03,2.860873674802803367e-03,5.614556357601494787e-04,2.621783317985069695e-01,6.159490220132035967e-03,5.163243645567192064e-02,1.531737096260627450e-02,2.284572802118484472e-02
1.958846330736347036e-04,8.161594867181767854e-02,3.613732680574818432e-03,1.446513167018249023e-03,5.519970186007531338e-04,3.012707612218235020e-01,1.126109994640070271e-02,5.887875353445183590e-02,1.952013548658007580e-02,1.518232234719027289e-02
1.838406478797336688e-04,1.324200080367427257e-01,2.825257380298580243e-03,1.168357936787555590e-03,5.483454887761983303e-03,3.391724951230709051e-01,3.491200012936628017e-02,4.328066044049672795e-02,2.857155996705989728e-02,8.925783273667817208e-03
1.693059954837255825e-04,1.605758039508244917e-01,7.638992952778546428e-04,1.534728605399560087e-03,1.254676227857096094e-02,3.165809272232702476e-01,4.466632622968950972e-02,1.955366938917077468e-02,3.180192209314240681e-02,4.380680264476347584e-03
4.709792607414272470e-05,1.512994174555452875e-01,1.155134208462138112e-03,2.377740896187313744e-03,1.792915526991030462e-02,2.429176875614509068e-01,4.763852402445333672e-02,7.946952187601273240e-03,2.600395407359095204e-02,1.128513896662973080e-03
3.719367334132773730e-05,1.115227507140430646e-01,1.819496417582681849e-03,4.120810221193050779e-03,2.327876986442968532e-02,1.787299601394462534e-01,5.406562688791861221e-02,4.000001789770786520e-02,1.443694327341637183e-02,7.635078325555630201e-03
3.287155775084379212e-04,5.360420680822972073e-02,1.595833247393847005e-03,5.370863504803259116e-03,2.844630735721311726e-02,1.473357383172853863e-01,5.214840830671492455e-02,6.552814677595099335e-02,4.107310320226429008e-04,1.189478307660414395e-02
3.196569099963229551e-04,6.131267455359338918e-03,1.394811715303114407e-03,3.766937023604756320e-03,2.944395627992833081e-02,1.245414573351025928e-01,2.463027726844842918e-02,6.820350387428017469e-02,1.393499768982196449e-02,1.216327308254658637e-02
6.825090194692266668e-04,4.107776955743864394e-02,1.385760203259725661e-03,6.313443845872104040e-05,2.423594933280389871e-02,1.005155474997848769e-01,2.368323761407437403e-02,4.633198938702100950e-02,2.724486579499496922e-02,1.049291932771004472e-02
1.944721833558574111e-03,3.505036938991696466e-02,1.323583958584685508e-03,2.889261223439421652e-03,1.500177932197251963e-02,8.523943233127763419e-02,6.720196872018728562e-02,1.237023133032754199e-02,3.921123439863963972e-02,9.434544712672941064e-03
1.955933905489955563e-03,6.791818492067084809e-03,1.327091541593771861e-03,3.344447451013218917e-03,4.719027639934095936e-03,6.816797510795188919e-02,8.126218781950705905e-02,2.340443435436153144e-02,4.738114813733282360e-02,9.245618764085713689e-03
7.095141526144004571e-04,1.101204585637644354e-02,1.456348854390958261e-03,2.804104294751026509e-03,3.891282697818250046e-03,2.947265146983761575e-02,6.255722275321479176e-02,5.779491776000019593e-02,4.513928698779300780e-02,8.692482864035181583e-03
2.853263113778755494e-04,1.074669087726784836e-02,1.207011344267790078e-03,2.285057860829146741e-03,8.152882661916018708e-03,2.496256948967461378e-02,3.512027393681206588e-02,8.539709335825698688e-02,2.859479328623290920e-02,5.911674378742970588e-03
2.789554704334369986e-04,5.391344414024577814e-03,3.938232500062444530e-04,1.580915688725695626e-03,8.042270989167876749e-03,7.438108468003436224e-02,2.823665127817215001e-02,9.387932279910049527e-02,4.118766328364000320e-03,7.351765614752838384e-04
4.160959581057621062e-05,2.369965202638730367e-03,1.388626432876261430e-04,9.815823546927230497e-04,6.293345406487868207e-03,1.072028787965219332e-01,4.111042045275450224e-02,7.389099994683479000e-02,1.605291268170508379e-02,9.936536534393535652e-03
4.342304479009118567e-05,2.220080767451356601e-02,2.853447067060239256e-04,1.162751189432984118e-03,4.306445193877777439e-03,1.201209938411322842e-01,4.446602245556142974e-02,3.268639115908589937e-02,2.431229552803008259e-02,1.729116423572566244e-02
9.855855944329316466e-05,5.691798611263142182e-02,1.037145786072972940e-03,1.753737574344411444e-03,1.923509821348996524e-03,1.188347447870929802e-01,2.675024214148217713e-02,7.111703896592204595e-03,2.106059655321041238e-02,2.033276082122835449e-02
1.016751074906740407e-04,9.909619680830983324e-02,1.211099358051618939e-03,1.873010528924488015e-03,1.171910237665327922e-03,1.232424353886610313e-01,1.592657157986342165e-02,2.419738421692608360e-02,1.096674066670817564e-02,2.097825458729950243e-02
3.935393163648329183e-05,1.384918684461046157e-01,9.341013373685023904e-04,1.520050425362129854e-03,4.824441629345963857e-03,1.503152368294894126e-01,3.675163621023457700e-02,1.250404464557640025e-02,8.409239568249004919e-04,2.083005517036864637e-02
4.401071447502009540e-05,1.623801281456594692e-01,8.258400154150904223e-04,1.262043582288158031e-03,1.087602684025353039e-02,1.910795606142345338e-01,6.838443029891198843e-02,1.627295689686166641e-02,1.071016023639502143e-02,1.809262173605045640e-02
8.253983357506036712e-05,1.575921136160178260e-01,9.372368426017773421e-04,1.227413057186170194e-03,1.306964574077840169e-02,2.151919630945822171e-01,7.130048452133404269e-02,3.806269544090131601e-02,1.731155078684452203e-02,1.185275542963985101e-02
9.238681348617687776e-05,1.224342562325204525e-01,9.137030622766253475e-04,1.176960691730676110e-03,8.147139874911344185e-03,2.001135817569012765e-01,4.501203946442570991e-02,3.386494515489869156e-02,2.110734475505162550e-02,4.917255595630566287e-03
8.954523536963283881e-05,7.497176514512338130e-02,7.547802911425585551e-04,1.042128302612625301e-03,2.312513411987321627e-04,1.563468793195318396e-01,3.132935472781248065e-02,1.142126200554543190e-02,2.303154977441893361e-02,6.513708896886689480e-04
1.039947493506110973e-04,4.256153436301776671e-02,8.098192503384833750e-04,9.251522971522857909e-04,3.661158530176076946e-03,1.165531659229437078e-01,5.557686097161677191e-02,2.589533620582852233e-03,2.400178437019341235e-02,6.600239995078915033e-03
1.258469673293698046e-04,3.796147100984889611e-02,1.028016487901554964e-03,8.632352448400350308e-04,1.905138968932630324e-03,9.266726932280125451e-02,8.488714549337074422e-02,7.355813351636311323e-04,2.536650802503289531e-02,1.431603750079493351e-02
1.396188293329124475e-04,4.787106602420994339e-02,8.068126919760855486e-04,8.258326355252440607e-04,3.753493754410782649e-04,6.433772361670557494e-02,6.516479916264121541e-02,2.980867762999600025e-03,2.823134089094996718e-02,2.101959547591776556e-02
1.553276970591603644e-04,4.858206556590041747e-02,1.874912720044288661e-05,7.865928219829462472e-04,1.096910918520643211e-03,2.307923098610144622e-02,7.843247313490018038e-03,8.388854791564275340e-03,3.041978742329984331e-02,2.223641834744602072e-02
1.829279116002861891e-04,2.842696491870293565e-02,4.715975322576171900e-04,7.211844501283994372e-04,4.143646116946769070e-03,8.084206475139448650e-03,8.221654326176347505e-02,2.241570950644426741e-02,2.529339371170435599e-02,1.630342311516292872e-02
2.055300567008290285e-04,5.128228229083655991e-03,3.576343286624167382e-05,6.556731360599926542e-04,3.933498602509813424e-03,2.088019184220010760e-02,1.144438898241439823e-01,2.508956103245837954e-02,8.359904759065880930e-03,6.149542912811041193e-03
2.118776589844885232e-04,3.173279847577597373e-02,7.380822310585286863e-04,6.797372387831638425e-04,7.670997712077729175e-04,4.354165916436642664e-02,1.075842161991520246e-01,1.264056249132739645e-02,1.420406774469775216e-02,2.560718213362294000e-03
2.352790888644473439e-04,3.501955615846789188e-02,1.009418633007717198e-03,7.492781370192507949e-04,7.222460455864111208e-03,8.714996698484538118e-02,8.309528478884402325e-02,1.200262809008263189e-02,2.924295584238150933e-02,6.176077617093863291e-03
2.950754046851100242e-04,2.081435645462638429e-02,7.741974539362188150e-04,6.483410751949350006e-04,1.224411667498538636e-02,1.134509273270262186e-01,5.224257208829867494e-02,3.098094325221269207e-02,3.015333858345778731e-02,5.979256201290064111e-03
3.209215235340584439e-04,8.212082057636762439e-03,5.234106683575299969e-04,4.539558942208124417e-04,1.450170279101268070e-02,8.898062455697969275e-02,2.242220768956041527e-02,1.515256756692360054e-02,2.147135617337608826e-02,4.770146328931572366e-03
2.712024562534242115e-04,1.783701777427521180e-03,6.043742294790327516e-04,6.380764276625560923e-04,1.456651900045683942e-02,3.774797819176825553e-02,1.475736473060898458e-03,3.691828333034196524e-02,1.048768669908888007e-02,2.702664524627264829e-03
2.962958550387523879e-04,5.742491363027522715e-03,9.480241260508366543e-04,1.064614579824056358e-03,1.311588479822707251e-02,1.218826766894194787e-02,9.503366601776596506e-03,8.596822188193888048e-02,1.237982248160746177e-03,2.598939566423833381e-04
4.986565320704394559e-04,8.284120052939440010e-03,8.845977451145031799e-04,6.293682532996507269e-04,9.268391693075233445e-03,3.393699253976916602e-02,1.163127305010676349e-02,1.003721273429280247e-01,3.632764645733648542e-03,1.407667009772584034e-03
5.281539007238439908e-04,4.954896143153982024e-03,1.602692136999613113e-04,9.098676499213161680e-04,2.456139307284016353e-03,7.990987572994288912e-02,4.269169352332110277e-03,8.939993627594000625e-02,2.932745044434194662e-03,4.499961003365225980e-04
1.281173967166044389e-04,2.237892946229134983e-02,1.420554302241631116e-03,1.850075291533466709e-03,4.352911030342457820e-03,1.105887993334757347e-01,3.561702019421575383e-03,7.262822843303405607e-02,5.228210671645518344e-05,1.814301699079413216e-03
1.353524680743265407e-03,2.232779021647549045e-02,1.440014204853158619e-03,9.415054363885302707e-04,6.418523749365596248e-03,1.017220519531314565e-01,6.128011481363667724e-03,4.818832256928622104e-02,1.676636199731782340e-04,4.697871715680043713e-04
2.323910731331702006e-03,4.411834789985157046e-03,2.285778632958616267e-04,5.641568000741800952e-04,2.655309947333779792e-03,5.752590251996203552e-02,3.572159989505386407e-02,8.739984013062335189e-03,3.850811411105646911e-03,1.028609910391327853e-04
2.295379669852902049e-03,1.465506473712635191e-02,7.290519542469478271e-04,9.615482358095806328e-04,3.012849406121285642e-03,9.544995818391698722e-04,6.186330155858822677e-02,3.372972759129972548e-02,7.788746184992827518e-03,4.145064126433878511e-03
1.272978112978676891e-03,2.647137430810608122e-02,6.918284395887057316e-04,4.913599545655589988e-04,5.946508380203924422e-03,4.649511271987429029e-02,6.443330424488707964e-02,5.741364449236818074e-02,1.052968422409362656e-02,9.794345823812437846e-03
2.430286916258806492e-06,3.517786378973740413e-02,3.374322617347616624e-04,2.571777217592418176e-04,5.104159574365492273e-03,7.523593898523867063e-02,5.753461105692674743e-02,5.794833283993170575e-02,1.307289790275028250e-02,1.329738911492985530e-02
7.199571424718856534e-04,4.166972871449165644e-02,2.940004097519335999e-04,3.927400751416842539e-04,2.939032506598024223e-03,8.490830416390535151e-02,6.846246998917600302e-02,5.280897341659891719e-02,1.528765922407871597e-02,1.635512998213107388e-02
7.521805090690859017e-04,3.525226036090080284e-02,3.873401640639982961e-04,4.223880857009098514e-04,1.687056205939550281e-03,7.999618313378137335e-02,8.325475219562097906e-02,5.712036713043922020e-02,1.576882162100537443e-02,2.073414745893017996e-02
5.872573367969612969e-04,6.810321958946524007e-03,3.396037053123911816e-04,2.698388200317812491e-04,8.996024142550656860e-04,6.830110430047831027e-02,5.012060657388932999e-02,6.646024991077667532e-02,1.441902787940488144e-02,2.060968232905770539e-02
5.999475553902266275e-04,3.215770990445630806e-02,2.331311311358161558e-04,1.554790543112497046e-04,5.236906067664233964e-04,6.005285111697045153e-02,4.170159101364455390e-02,7.053535959988194159e-02,1.257138046778173181e-02,9.101164400292098208e-03
7.395055659230614529e-04,5.452257056320578693e-02,1.948777443581115910e-04,1.191555135481535399e-04,1.427694293063261344e-03,6.656977686130895189e-02,1.267188497662118662e-01,7.374212977277992687e-02,1.108955502098788598e-02,9.167292804424864022e-03
8.030918524619741917e-04,4.440629064265259884e-02,1.699130236529588752e-04,5.973531636423896082e-05,2.225030870327069765e-04,9.392333405036457084e-02,1.384590987423467978e-01,8.828777219222724848e-02,9.821900484083252378e-03,2.143147638232422922e-02
7.207815900237741786e-04,1.052250386674489536e-02,1.070008525185310014e-04,4.098821200283076497e-05,3.893116777689354172e-03,1.321395559413192922e-01,8.620276108620111843e-02,1.083779974805919588e-01,8.501906693443500584e-03,2.298870472837792264e-02
6.741966535059638150e-04,2.570716934181834987e-02,7.286717435716106596e-05,1.340052338073456650e-04,6.746518528047205747e-03,1.575963520247685712e-01,2.981509840276381704e-02,1.072649881550899742e-01,7.210681002995477165e-03,2.107687031577206577e-02
8.978733185671560401e-04,4.471575337512186110e-02,7.727844098418800984e-05,2.081665774683652526e-04,7.173425799059530983e-03,1.563474058126554933e-01,7.962631871853047619e-03,7.043593553237464944e-02,6.073008230094219251e-03,2.205771723608308810e-02
1.106493542617549260e-03,3.516476065413044749e-02,2.320993358112012628e-06,2.841690716083531678e-04,6.236773378947165457e-03,1.398203242802579238e-01,1.432013816914124230e-02,2.054298509985659493e-02,5.054733922078729833e-03,2.434769234268268842e-02
4.472968936332157334e-04,3.821171515677830241e-04,1.259200398167950575e-04,3.653350345555503136e-04,5.515992059253883861e-03,1.282073463259301993e-01,2.359132006473140669e-02,5.646906860052739244e-03,4.098456335972139319e-03,2.540839169105702303e-02
1.438186185138942306e-03,3.857550514863966606e-02,6.096600563473962862e-05,4.398822286135740359e-04,5.126894227194958055e-03,1.261639057722029889e-01,1.854362267885963089e-02,3.184413814377443606e-03,3.219002235811334323e-03,2.609822280340163420e-02
3.590784631383403536e-03,5.658559940103818214e-02,1.354830488193601928e-04,5.040535276133732050e-04,4.517279933366260929e-03,1.248929659961965088e-01,2.705249436489856694e-03,2.957721941414064373e-02,2.441213960015522176e-03,2.577985972078270654e-02
4.486730549131620789e-03,4.731071293657546778e-02,1.018380285407633769e-04,5.613893516712942190e-04,3.962443380409415294e-03,1.177541350927745201e-01,2.950139798157446966e-02,5.374365062994818087e-02,1.754605819230944594e-03,2.133115467842709376e-02
3.482264535876070620e-03,2.718431151678814273e-02,8.982986579726173195e-04,6.119379051745374356e-04,3.899193289779647343e-03,1.012325162874257722e-01,4.479451497340507238e-02,7.007283827334076509e-02,1.142040851450076226e-03,1.327364486619523644e-02
1.326262292700594808e-03,1.282335610041463424e-02,1.381080901409449928e-03,6.525091196970485069e-04,3.221849791896353767e-03,7.033624029739292405e-02,3.713926289342937836e-02,8.062693431784676013e-02,6.014455998576415715e-04,6.275682160761488632e-03
6.174609991545929521e-04,1.845682501160144599e-03,9.117274115982022245e-04,6.817696041661147448e-04,5.022735550736461387e-05,2.650956549735018764e-02,1.163155359894134724e-02,8.013461146290065673e-02,1.328122613644839309e-04,2.060614069764731861e-03
1.518837602338188970e-03,1.665490688606907285e-02,1.341564025372798973e-04,7.002190891652121862e-04,5.204713553076840971e-03,1.646222547993938384e-02,1.354640841417467136e-02,5.558490348783853147e-02,2.719374966185060657e-04,2.451332207262763019e-03
1.395008371541984343e-03,3.873741118692172747e-02,8.339470304166928221e-05,7.078302719935993057e-04,9.141377465609210051e-03,4.397784618937312928e-02,2.192609491161621321e-02,5.999701919187601547e-03,6.227785299862972999e-04,8.736435995790737055e-03
5.812040899854682826e-04,4.514952073849282793e-02,1.248897138950369880e-04,7.040489445722099239e-04,8.891573864720846848e-03,5.282240725817095861e-02,9.877326400871263776e-03,4.841390301370501748e-02,9.265325932598448807e-04,1.308388780204066022e-02
5.516943188363453805e-04,2.612553864251620020e-02,2.008565996692778465e-04,6.889087527087226197e-04,5.262545882208102127e-03,4.746210982523875466e-02,1.225297347810098275e-02,8.695427683791327744e-02,1.189458652778910145e-03,1.087790401001511448e-02
1.429079733485175141e-03,3.624106107587868938e-03,1.011334673529352100e-04,6.630458520909225792e-04,1.364074776611954492e-03,3.176235181135447089e-02,2.832700462239965550e-02,1.060229969496077757e-01,1.419404653862695303e-03,2.345468069826915809e-03
1.416901407438437730e-03,2.075677543875672354e-02,5.930273847276691418e-05,6.271696668812562839e-04,8.618349443842269770e-04,1.158972483236633128e-02,3.071026041594752953e-02,1.092239270830405312e-01,1.624376853958652131e-03,6.488721746278912177e-03
4.044698533650271000e-04,1.840542412203693967e-02,6.291736985965091611e-05,5.820337919456038513e-04,1.515066078649428575e-03,2.224776400305846988e-03,2.569686730538121855e-02,9.774083813967128498e-02,1.811276720019988629e-03,8.764149174343321622e-03
9.134517912438550697e-04,1.100759301187266039e-02,2.028054211413444206e-05,5.286597601550871049e-04,1.006143043863941050e-03,2.181447774700143172e-02,1.973063884609384949e-02,7.759426188361531751e-02,1.986328861735260284e-03,3.763858124754095643e-03
1.657947566868953147e-03,1.662329768695189336e-02,2.424010113664650055e-05,4.683223841346099373e-04,6.396269044845889155e-04,7.030020680912925368e-02,7.806274002749609767e-03,5.860899963556788494e-02,2.155467947406654317e-03,2.284406033773105082e-03
1.690624901904805560e-03,3.559734290863514339e-02,8.844215828350540719e-05,4.024072339382338270e-04,2.828426142950949459e-03,1.218007411826211306e-01,1.545543734176666253e-02,4.301113203215982395e-02,2.323954929683518141e-03,4.128192920174487968e-03
1.561839685140869148e-03,4.948850946289082980e-02,1.942401043305427778e-05,3.323725814019762000e-04,4.552520325771101939e-03,1.467301418705205807e-01,4.360818248942216480e-02,3.160858180727992017e-02,2.496029023010820115e-03,3.532546460064683088e-03
1.627512032888119324e-03,4.697061892296627156e-02,2.549175038234095456e-04,2.597679489588624940e-04,5.546972013370400113e-03,1.364493039628469351e-01,6.542832173570112264e-02,3.460320678579164450e-02,2.674950658380350395e-03,4.379464865589219671e-03
1.740495237884057828e-03,4.283139876786074690e-02,5.926673294446972262e-05,1.862010670054793865e-04,6.120902162611351581e-03,1.012135463235627197e-01,7.213705630151423520e-02,5.546301233784586837e-02,2.863065136115212558e-03,5.612404785436501953e-03
1.755444206937482226e-03,5.585985521468220943e-02,7.024238585304557999e-04,1.132755848165581652e-04,6.403838941521002026e-03,5.505904676802674674e-02,5.640954744995323178e-02,7.541172789531999654e-02,3.061718331622699952e-03,4.349238916259072149e-03
1.791919167284510570e-03,7.681460488273846032e-02,1.163238305559794079e-03,4.255177372632383461e-05,6.359231508668503063e-03,1.211043019421161049e-02,2.209341244317362951e-02,7.490260846447935328e-02,3.271197154028587187e-03,2.754006920190009509e-03
1.901103539205536682e-03,7.995291034560225718e-02,6.799654705498707008e-04,2.447828314579040209e-05,5.778240919682792187e-03,1.210653294744155201e-02,6.330122473687971318e-03,5.784051405209162527e-02,3.490776347768025437e-03,5.431734499996643609e-03
1.902900669133288395e-03,5.990132047542916921e-02,1.100558554319586017e-04,8.642427683664327459e-05,4.498530274011646422e-03,9.687677514352161998e-03,4.480989031168090136e-03,3.862331783133492180e-02,3.718791402942936766e-03,1.185482475543952856e-02
1.805859410941434680e-03,3.512366914508498889e-02,3.343988937755156942e-04,1.420350817333013247e-04,3.067486028642072565e-03,8.741104182482827001e-03,2.102395406067648562e-02,1.964190858353451891e-02,3.952697156901172418e-03,1.701618788889494235e-02
1.974215079639100520e-03,1.843491226801430641e-02,1.154581899668971574e-04,1.902278601462732244e-04,2.163027398316343108e-03,2.090112337546173871e-02,3.907569407081697838e-02,3.624394183246695995e-03,4.189147091701921934e-03,1.827994882647841421e-02
2.323505766704855001e-03,4.345625828249406221e-03,1.755676302934649981e-05,2.301099655348283750e-04,1.493898339696905818e-03,1.584080316546482986e-02,3.207748591565299373e-02,2.509494241614551244e-02,4.424109821708618537e-03,1.682853964267511451e-02
1.781598896342306056e-03,1.368453484955509288e-02,1.092639936179338220e-04,2.609984023548602827e-04,5.599453220372289756e-04,4.281618701423243328e-03,1.295196394012013835e-02,3.043536009486628308e-02,4.653003003996238410e-03,1.354558227351705668e-02
4.043610306169568864e-04,3.101821779652217184e-02,1.473850087004346726e-04,2.824356052604410391e-04,2.269021762033868054e-04,6.958165589635396595e-04,2.359011267472837115e-03,1.615873067496282137e-02,4.870832495307698788e-03,8.323419319086228230e-03
3.077847776806629312e-03,4.283506849273183842e-02,9.286188013962116852e-05,2.941986898997162037e-04,3.295351275815569135e-04,4.621238133387576760e-03,3.898399589825417549e-03,5.264570197885766467e-03,5.072341118962450310e-03,3.404141241065535874e-03
4.257121562598164231e-03,5.340572252644296136e-02,5.834593738709220129e-05,2.963023033761646541e-04,4.769844337181212719e-05,1.982359912058207982e-02,9.203826226582174919e-03,2.253154645446156512e-02,5.252167633858001103e-03,2.752806030662467360e-03
3.662454152633577101e-03,6.389160012043312853e-02,6.415161970386008914e-05,2.889961907156089640e-04,7.379288186285914552e-05,3.955398974821675018e-02,1.406954958153900509e-02,3.490275039097103654e-02,5.405008411634425539e-03,6.508366501057272734e-03
2.657070725598637689e-03,6.229999972426154831e-02,5.844770054594748264e-05,2.727574148131249208e-04,5.152686322899033104e-06,4.313167375945241994e-02,1.595832776744621553e-02,3.930519066661232463e-02,5.525775830336198367e-03,9.484008646239576110e-03
1.943587379837375621e-03,4.036847508625879960e-02,3.176647069049188648e-05,2.482768923708907971e-04,2.973290318616060579e-05,2.612268612144075935e-02,5.681893202293293588e-03,2.647535191029296020e-02,5.609751167152930013e-03,7.273320152740340126e-03
9.976140905514671153e-04,1.117847146458397431e-02,8.992776715876652025e-06,2.164406539449168344e-04,1.135317205651266035e-04,5.736184964546945861e-03,1.944874131651620069e-02,1.599167714231769944e-03,5.652729220264433863e-03,1.510900239832639342e-03
4.264285209625085014e-04,6.492195979673148244e-03,4.369475936778884279e-06,1.783065610210909761e-04,2.751124582221309116e-04,6.093112003698582593e-03,3.964371327050610072e-02,9.864605202455117156e-03,5.651150353177797521e-03,2.558641163056483633e-03
1.771126795335997836e-03,1.208299696624921815e-02,1.912531696923762124e-05,1.350770402641618992e-04,2.083618613140986089e-04,1.505283938285452774e-02,3.212767795026985618e-02,7.661378368137363414e-03,5.602216259260622659e-03,2.029130978917574255e-03
2.565666925819440509e-03,1.559518696321940748e-02,3.720884637442525047e-05,8.806839454417665126e-05,3.120293691033721242e-05,2.592072522060158424e-02,5.284686740916515017e-03,3.852334239632949214e-02,5.503986953721117480e-03,1.337780186555032275e-03
2.686791200208033751e-03,1.712805053399626964e-02,5.283439818609239115e-05,3.867746248520578795e-05,3.072272142810128872e-04,3.127794146874985498e-02,1.065042164343439970e-02,5.653551801620498168e-02,5.355456821506183150e-03,4.030095504558073305e-03
1.881352374251441667e-03,9.830916314203562781e-03,6.432558555765136282e-05,1.165349317608182097e-05,1.134171005751939730e-03,2.528517198830109933e-02,7.171731348732761184e-03,5.359683731644138138e-02,5.156607669283797338e-03,5.081678658315949559e-03
4.046782843530503330e-05,5.976303365589044798e-03,7.373824271539094880e-05,6.147280848703480407e-05,1.639655688448907753e-03,1.469777160468942537e-02,5.036248163681473003e-03,4.014341244964665656e-02,4.908437339332097880e-03,6.437971853884031856e-03
2.062275242515578498e-03,2.327639023319334061e-02,8.132201495720759669e-05,1.093554957602424141e-04,1.195186873323691133e-03,1.137270205227298298e-02,1.705203052999289259e-02,3.047656959490971720e-02,4.612963211549226360e-03,9.351912452769034489e-03
3.043083211869760264e-03,3.591779867708216195e-02,8.564465068055870456e-05,1.539384925832937637e-04,4.384498062857143988e-04,2.048621916138119309e-02,3.198828189968275226e-02,3.269658509598602492e-02,4.273200499615719024e-03,1.268889224532567493e-02
2.100883548293368177e-03,4.102232611567654258e-02,8.622286408434884765e-05,1.939542117771389366e-04,2.329074492901320875e-04,3.427689828573927955e-02,3.700271882017149710e-02,4.233476109841448343e-02,3.893115769028045615e-03,1.513282400350187025e-02
1.582788414720884111e-04,4.107400355413249465e-02,8.350367532590483358e-05,2.282615793246759069e-04,4.541700737649484107e-04,3.585978757415331231e-02,2.920535495215797681e-02,4.462049470602059975e-02,3.477556711642734028e-03,1.608690786522067040e-02
2.133625500850389045e-03,4.220025318667031122e-02,7.758684050050389789e-05,2.558738168089844849e-04,5.407324006359821118e-04,1.851723466904051443e-02,8.436830933646482372e-03,3.116478428014740620e-02,3.032159823390680273e-03,1.345576432452052183e-02
2.746395971842782464e-03,4.242777297587185803e-02,6.822337798278561513e-05,2.759823010722520101e-04,4.240999418028226797e-04,5.197904366557779508e-04,1.613325845321668742e-02,1.070983681915138423e-02,2.563238160568077299e-03,4.329866759461756427e-03
2.501719332822414932e-03,2.983067515672290643e-02,5.552394901155082514e-05,2.879759295252229531e-04,3.458321533641474637e-04,2.219716536449537619e-05,2.269894028927022661e-02,4.007266674041636521e-03,2.077651812789006042e-03,9.720447213202174780e-03
2.541191906087589443e-03,3.608318149775384918e-03,3.996282871432362612e-05,2.914555342289120647e-04,3.451047464455046852e-04,1.721505510998044136e-02,4.258185945919917316e-03,1.272076901334543222e-02,1.582664151131051153e-03,2.142662534576956004e-02
2.833290663396551261e-03,1.586333435080772292e-02,2.180434341212409891e-05,2.862430117722431096e-04,3.105178654927760891e-04,3.495500909183787974e-02,1.569528014493489984e-02,2.293499128709683768e-02,1.085787264606160717e-03,2.469997690310310121e-02
2.205368339070912925e-03,1.407938786147806647e-02,1.083140294353076053e-06,2.723849650813245067e-04,2.227247876456509219e-04,5.174624373999663768e-02,1.493184681564192762e-02,3.630035389751847669e-02,5.946202618309525583e-04,2.015642568215115712e-02
2.054278158541779408e-04,6.626529487893802542e-03,2.163628659238666749e-05,2.501507876637442144e-04,1.348899640409581622e-04,7.386681309660814154e-02,1.097008326903036769e-03,4.781541706103853429e-02,1.166842874491249779e-04,1.259853039087076125e-02
2.223664733592368905e-03,1.736282428158826552e-02,4.523869143544204677e-05,2.200252575935351203e-04,5.835875286386922774e-05,8.986839070430356624e-02,7.999624728812559232e-03,5.395794974776375874e-02,3.407418119020572860e-04,6.498416211034593361e-03
4.240975049546314227e-03,4.270364194772599542e-02,6.950365779647614496e-05,1.826958429270822176e-04,3.053912856454743595e-05,7.964759690736782083e-02,1.303919757286917981e-02,5.576395946784572927e-02,7.707812443702191608e-04,4.522418890277652218e-03
5.862251200046470455e-03,5.759636106131870575e-02,9.521438310846391177e-05,1.390350486879087389e-04,1.359511253843994911e-04,4.415950849176764753e-02,2.582691925417308215e-02,5.595188620646474736e-02,1.167110627693819297e-03,6.404168062606937009e-03
6.762123660498386979e-03,4.998479371995928622e-02,1.212091289592663590e-04,9.007825564931569581e-05,2.431991391224370817e-04,3.111934114343751275e-03,4.663500545422209070e-02,5.650721837280736626e-02,1.524099312586484588e-03,8.110262822180238848e-03
6.079595031769039794e-03,3.064352733592934017e-02,1.441183704056397182e-04,3.699761009318499510e-05,3.463773298862327316e-04,3.274446789531860330e-02,6.276202008605413774e-02,5.848868528651779419e-02,1.836933326470567823e-03,4.983204368211181789e-03
3.940511470181473457e-03,1.343411884320031696e-02,1.646515786626880041e-04,1.892738142147951095e-05,4.524512096395255016e-04,6.491649205812478896e-02,6.508384578528236819e-02,6.162935243541913660e-02,2.101720950437878203e-03,3.070931838505801086e-03
1.510412049406446421e-03,1.767502456170922873e-03,1.883615768327023257e-04,7.634181981899661759e-05,5.642777432525649273e-04,8.475535348218794784e-02,5.773088058812893969e-02,6.339991454757015754e-02,2.315577375592914929e-03,1.080057287379863722e-02
5.007999823806116597e-04,7.059951291038603013e-03,2.123005254240694977e-04,1.338491510463045995e-04,6.698237125614125986e-04,7.287887462962612528e-02,5.010823360951532218e-02,5.971055235473696904e-02,2.476686379859956502e-03,1.295980755548148920e-02
1.984191454977282144e-03,1.483118998731091862e-02,2.230799282987667640e-04,1.900458398750247120e-04,7.587247109292859356e-04,2.918035722736667809e-02,4.430099237933444317e-02,4.740566478654096444e-02,2.584337510777929420e-03,9.966552907214681900e-03
2.720926062057385086e-03,2.075295384592791212e-02,2.253446279094371352e-04,2.435561262111755681e-04,8.464467666510959529e-04,1.585296489140295903e-02,3.696029374120000238e-02,2.697869747050630346e-02,2.638937840947232476e-03,6.871345995824427316e-03
