6.842895191662973220e-02,1.348618017333344000e-02,5.253751702929958245e-02,1.119677176190956268e-02,1.629009578495168491e-03,1.086114468886936225e-03,2.951482648552191529e-02,1.763847814398485925e-01,7.773284391563428652e-02,3.124269290057565124e-02
2.717047500875651930e-02,1.097709503056417714e-02,6.285692641697733507e-02,1.400490496517738277e-02,1.263503999858801245e-03,1.175132290232226012e-03,2.713812031213136064e-02,1.387106965241969858e-01,9.003362205133415286e-02,2.296772350399076471e-02
2.439829515823232001e-02,4.575867147019404418e-03,7.390198389678072355e-02,1.726793040763056550e-02,8.785014786497762377e-04,7.781896392729279821e-04,2.437670238469786393e-02,9.372808248472111470e-02,1.041089507157378913e-01,1.870171122460338731e-02
9.163129888991411454e-02,3.995032989136112350e-03,8.158491201073563015e-02,1.942859890429015149e-02,4.823123225694066099e-04,5.381882180083974584e-05,2.200802168017347918e-02,5.130621133085555563e-02,1.105217347475077466e-01,1.763747304386496795e-02
1.544754565234558730e-01,9.472514528529032626e-03,8.821001833383296242e-02,2.105342145758863984e-02,7.362104336964769521e-05,9.636456493173056054e-04,1.633843596219786490e-02,5.370654648647419510e-03,1.133813122127631662e-01,1.803893009518441753e-02
1.742738533480154006e-01,7.365762001033050038e-03,1.026559624656181863e-01,2.561810058872283566e-02,3.725442605541210198e-04,7.861507941545602552e-04,6.916444974837005280e-03,4.339790692269567679e-02,1.328679708633334067e-01,1.980526679254812628e-02
1.358441195062205509e-01,2.250113089721119189e-03,1.214159437582862794e-01,3.185765588847470908e-02,8.625967454776195011e-04,1.447996838639813849e-03,1.299771850190775766e-03,6.894338215626796829e-02,1.601858100576864508e-01,2.180983237577890227e-02
6.543289866020432499e-02,1.462264869477031964e-02,1.188799561062078292e-01,2.914873529054901741e-02,1.353161165490604154e-03,4.818230996751092857e-03,6.153234779563150625e-03,4.679038090101974440e-02,1.346680433821347556e-01,2.002533839852936245e-02
5.536875394207715212e-03,2.328939950533120973e-02,7.671365553399649151e-02,9.781431952154872461e-03,1.840219016061158406e-03,7.231112514014269993e-03,1.767870339138401942e-02,6.013269795671303056e-03,1.479578194186436171e-02,1.259809500104974028e-02
2.175691800259093450e-02,2.502234382943887073e-02,1.707953484380029391e-02,1.642968307842198467e-02,2.427906619206313902e-03,7.955191068463079301e-03,2.767989392572918483e-02,4.468373328650172838e-02,1.452771329803606015e-01,4.728137983884626860e-03
2.987532733556447911e-02,2.304069086198788641e-02,1.668733277872198537e-02,3.040098496223742758e-02,3.139537519707690915e-03,8.219291509892463418e-03,3.491088355716675390e-02,4.971414288301480300e-02,2.441005880030852337e-01,3.418669137813728359e-03
4.535961721724113271e-02,2.352904320277976469e-02,8.648363459853907614e-03,2.530703775690104976e-02,3.765050810600994568e-03,9.311995140665510484e-03,4.289951974004987262e-02,4.004800553281808589e-02,2.443148895252786890e-01,7.842084324402493617e-03
6.591114611633391851e-02,2.725618382346262081e-02,2.146556757713556293e-02,1.031427980340567790e-02,4.262663685716610099e-03,1.090832003619223931e-02,4.992679303668255686e-02,3.207050983130517452e-02,1.892518180042002951e-01,1.022740897429072135e-02
5.218020484600734143e-02,2.627695916676182214e-02,5.176051566868412890e-02,4.387638494000473469e-03,5.106785688019229233e-03,1.132605491330909882e-02,4.877692360739908917e-02,1.400236606263136757e-02,1.279480421125215317e-01,6.770758132058253206e-03
2.193633990735203293e-02,1.253458865735536734e-02,7.786187007163644647e-02,1.591752323991411922e-02,6.402926884954508735e-03,9.291089729762688418e-03,3.619570096717950741e-02,2.638282402695979120e-02,7.160228878309085609e-02,1.646378023429389496e-03
1.219036087011567404e-01,1.025367249871115237e-02,1.031319870992667420e-01,2.420943545903389907e-02,6.814705481765257790e-03,5.369342033196563592e-03,1.827773239556685497e-02,7.071981953720045400e-02,1.437141418854481940e-02,1.122398313312583489e-03
1.841045744073317170e-01,2.798316872810204317e-02,1.296083247937986904e-01,2.985657495016603297e-02,4.883423339806028385e-03,1.519524718065137477e-03,6.136537411402865835e-03,8.721412259718828996e-02,4.391518999634216186e-02,2.470933759156212096e-03
1.868959478873618296e-01,3.087592922040369864e-02,1.597289052524722974e-01,3.640080763697984417e-02,1.681258980717452922e-03,3.608374359416138908e-04,7.990018202763800315e-03,6.537030929746498464e-02,9.998162448407953151e-02,2.172781546471507733e-03
1.560691121401618364e-01,2.214036060998917504e-02,1.913187270028931519e-01,4.577758456405885829e-02,2.331970616104415582e-04,6.778502066772380645e-04,2.361999049423161093e-02,1.471778506764591897e-02,1.493576885350754169e-01,3.509958597064580590e-03
1.119811388599482593e-01,1.046568010478578226e-02,2.084526526370387156e-01,5.181633272151704717e-02,1.616767569679203407e-03,4.212095146796917405e-03,4.396756471629183205e-02,5.511138240966084734e-02,1.830223717446381182e-01,1.266346317302861207e-02
5.307048307507864632e-02,6.455458163926711037e-04,1.928110589377087236e-01,4.702924104310989700e-02,3.695472925618689761e-03,8.347925414135683175e-03,5.829416360697602106e-02,1.290675756476355185e-01,1.952067114833846428e-01,1.452763171471900712e-02
1.595831176099826373e-02,1.232791677947306201e-02,1.495039713665459180e-01,3.477853113575309768e-02,4.556345936114304836e-03,1.077614613844033765e-02,6.292733492084091884e-02,1.745848847990252029e-01,1.946891236031352557e-01,3.340255543740576743e-03
7.677736225763177880e-02,2.311908295303123639e-02,1.080148442348095594e-01,2.597071842409336834e-02,4.944732665414091309e-03,1.068388274564476860e-02,6.019479649783500419e-02,1.653092889707881152e-01,1.979315165648225516e-01,1.018225979791801197e-02
1.186584914374947675e-01,2.900314280913097315e-02,9.381868088435622866e-02,2.593374170324845226e-02,6.201551851385462590e-03,9.372290989539738479e-03,5.175540387018638666e-02,1.189452779528635540e-01,2.123435705713195287e-01,9.630777190858258105e-03
1.455880228478886318e-01,3.034496944179061739e-02,1.121673468768190768e-01,3.301091634161677085e-02,7.917768391836487243e-03,8.289546096483912940e-03,3.914135498801711577e-02,8.408375963190642399e-02,2.352900294696725902e-01,6.415418251131622430e-03
1.630353848990002685e-01,3.122887545383304375e-02,1.546442015372722356e-01,4.574946905962633953e-02,8.941928011608826776e-03,7.011270177348417204e-03,2.731138376375580670e-02,7.811115850605854227e-02,2.653141412185162085e-01,2.273501613225329537e-02
1.734738104509628287e-01,3.094873580656437584e-02,1.983853730832192408e-01,6.107401592856702421e-02,9.178612924838321432e-03,4.560160297322433769e-03,2.103584403419455490e-02,6.782048685807354205e-02,2.980885937827730259e-01,2.889942190804360017e-02
1.817396696556538294e-01,2.472425004660970538e-02,2.062691924100256147e-01,6.872195293233621105e-02,9.286866726603813099e-03,2.049024212146714242e-03,1.964474837292869147e-02,2.822655021012948628e-02,3.088086779343832133e-01,3.080635666831855329e-02
1.860978472516424675e-01,1.405553503630165707e-02,1.589732722701454048e-01,5.869476409238351400e-02,9.621148541010680205e-03,1.933038011567039631e-03,1.936251128538992589e-02,1.626467826944796857e-02,2.606265873291696566e-01,3.195040639761926454e-02
1.704337464693013726e-01,7.363898965681019322e-03,8.092744245882740883e-02,3.405902730080002938e-02,1.018367108649678200e-02,4.902856916047956815e-03,1.968196366101261294e-02,3.085462085751389943e-02,1.470383247487247746e-01,2.128092487694654977e-02
1.290462485943090210e-01,8.703184265302039979e-03,8.170406220353908580e-03,8.485622475262324244e-03,1.082895934935711874e-02,9.169022652160052286e-03,2.367108841495087906e-02,1.663217665277427065e-02,1.226054809933724288e-02,2.162636116859547111e-03
8.844700160826601820e-02,1.314503457046709012e-02,5.224691222448563099e-02,8.249331176987071204e-03,1.110989487138860747e-02,1.234065300414396299e-02,3.170634121616286438e-02,1.718416602706455444e-03,8.379447740040710246e-02,1.516526225516862808e-02
7.779060504406835885e-02,1.480388579004759952e-02,1.038135898402295920e-01,1.640913546669785922e-02,1.053307525990031940e-02,1.280609716526152214e-02,4.079721670772670089e-02,7.328089337747391123e-03,1.099491221050412776e-01,4.466901811250868250e-03
9.077152276449766688e-02,1.422807486441736088e-02,1.296825351349671640e-01,1.992034990678872089e-02,9.127606378044633706e-03,1.024241844577464949e-02,5.103603993479231132e-02,2.560553030239922159e-02,7.649221180686888166e-02,9.433726235977451038e-03
1.035820660642669533e-01,1.610077618075706277e-02,1.143064116792237711e-01,1.958554122802568659e-02,7.635437862373266674e-03,6.235983865596775311e-03,6.234769399454288819e-02,2.832012952860665442e-02,2.887089249066914637e-02,5.215961919826274905e-03
1.170661243155003556e-01,2.241322156772614788e-02,7.250247260873717015e-02,1.245718113438088609e-02,7.423523383966235990e-03,3.575757084862935843e-03,6.359065479414245659e-02,8.087097127531063523e-03,2.066149882159801915e-02,6.614902115368467145e-03
1.456058791271222230e-01,2.948115870972483482e-02,3.103919081652579959e-02,3.211806548724791509e-03,9.580401237928526381e-03,3.256912701478008321e-03,3.922168583128195218e-02,3.976638469304380301e-03,6.359569355144030489e-02,3.386977832249334769e-03
1.647402155043870553e-01,3.066301443187632522e-02,5.976049397455588177e-03,2.061167793956035846e-02,1.307722704548917175e-02,2.813878386213869171e-03,1.029916106317659702e-02,1.906961876668683553e-02,1.168722069719898976e-01,1.607527181098408753e-02
1.184194140717147042e-01,2.265237661914162870e-02,9.067916934803393197e-03,2.653776293507152662e-02,1.509793505064987475e-02,3.846899204959239120e-04,6.523916384668189405e-02,6.205040084539101275e-02,1.409035231413128808e-01,3.307924722125753919e-02
3.610168882992346312e-03,1.114006801382603183e-02,3.875610501600795788e-02,1.810132535360924055e-02,1.489667640388561351e-02,4.649067582592782827e-03,1.030967250356503995e-01,9.078606373334598134e-02,1.295727096832854086e-01,3.551789712428572721e-02
1.020920440002299617e-01,6.349728122287966875e-03,6.362416474309287584e-02,8.924838004827673893e-03,1.537319325608796014e-02,5.403423985921571027e-03,1.143529237190841763e-01,9.633811369152242565e-02,8.765136710888987714e-02,3.020715229728975285e-02
1.345884250889910760e-01,7.941109220659183648e-03,6.247586759815023510e-02,6.846057350975608830e-03,1.821026710778817642e-02,1.527807572176140835e-03,1.085977459078239782e-01,1.069473231396554369e-01,3.079275370433522119e-02,2.776959438263826296e-02
1.143633010618528567e-01,2.590673835194519381e-03,7.048792436539277895e-02,1.902798188304364538e-03,1.975020096810239587e-02,2.439683251054318609e-03,1.048218311895313809e-01,1.556083747884551283e-01,5.107259231787363886e-03,2.705993939867070222e-02
8.698164890546410122e-02,1.401084558644691627e-02,1.296754101961463956e-01,2.917619781074482638e-02,1.521462037476102244e-02,1.778001867605618833e-03,1.072194390543843162e-01,2.247734484779166930e-01,4.002417538851765766e-02,2.309367894071188976e-02
5.275123273901071580e-02,2.630728451751703639e-02,2.115916098960423930e-01,5.983249155384642859e-02,4.868795713699037783e-03,3.369325462404321701e-03,9.977505443068913904e-02,2.420978183581634358e-01,8.575590116613773795e-02,1.825753243560789690e-02
3.646896846469257700e-03,2.588505015470694490e-02,2.538773867368420700e-01,7.189455316010799624e-02,7.534424510082537475e-03,1.017051577076737677e-02,7.865111196974873542e-02,1.765225471578748540e-01,7.242777839451106092e-02,1.476649205650206777e-02
2.554544564875360982e-02,3.199086949440340527e-02,2.605371385618162616e-01,7.062184771035089070e-02,1.957448210228134727e-02,1.683029845611254405e-02,7.113939912924657771e-02,1.143432065761826599e-01,3.135311651645510123e-02,8.435166299483560365e-03
2.799603888254741362e-03,6.209672387568882651e-02,2.961658914045736113e-01,7.905616663916013864e-02,2.944665258985768377e-02,2.148427453550071781e-02,9.572052533993780088e-02,1.574891864331227076e-01,7.281793629125324352e-02,1.755537754993692721e-03
4.180488245296619387e-02,9.822005134864772447e-02,3.786185013420511614e-01,1.005392950535171914e-01,3.372897959766001791e-02,2.107618890483311039e-02,1.220097587896833702e-01,2.623437871470739591e-01,2.260264931708967084e-01,1.083057300437635304e-02
5.401947430806990080e-02,1.073919192547872908e-01,4.432654514053765427e-01,1.131878868535570459e-01,3.035098558638776173e-02,1.428838808616181288e-02,1.052019053350067568e-01,2.866274246543830673e-01,3.818732987522488465e-01,1.753145224300866473e-02
2.473774608337013861e-02,8.327458029254773686e-02,4.297491282730739881e-01,1.012847048637030012e-01,2.154515615944748927e-02,3.291180095320713015e-03,4.711103418585099040e-02,1.923889252466198241e-01,4.241096724651654548e-01,2.094647353117971150e-02
1.134028839298840269e-02,4.761846238777438928e-02,3.526014334366088798e-01,7.333123626953759466e-02,1.115910992797174671e-02,8.314512552016277772e-03,1.071059361875347470e-02,8.536188784270370977e-02,3.493368218548471571e-01,8.103444161930390549e-03
1.721821223544880292e-02,2.046404701330927292e-02,2.656429075277931817e-01,4.547501246094350774e-02,1.446569972735556146e-03,1.771958500780691781e-02,4.499480566229878409e-02,4.168780362828081176e-02,2.284858307157667523e-01,3.310971972818309988e-02
2.099637812040612561e-02,3.742866382967500669e-03,1.927877631766561073e-01,2.143143701275795204e-02,6.559936366519369261e-03,2.398375522128316090e-02,6.956128125346880409e-02,1.163080567001112051e-02,1.126241482963104001e-01,8.678004578135031788e-02
8.384405485530914415e-02,1.067897254966910375e-02,1.190970708306077208e-01,3.620911335897221590e-03,1.255378999161159068e-02,2.779893822715859275e-02,9.739228803047347838e-02,6.634341515620986729e-02,1.524496587218185026e-02,1.183880134949031465e-01
1.343620871632423275e-01,2.603601248070817539e-02,3.482188540953078115e-02,2.743969880529623789e-02,1.718197426595421268e-02,2.908311516410821626e-02,1.131992781474439325e-01,1.503518158529657811e-01,5.563271323192299500e-02,1.156534443036972282e-01
1.557983452512924638e-01,3.633021804405819899e-02,3.725541354870630373e-02,4.006682123594058897e-02,2.054888209999799001e-02,2.640364616746488161e-02,9.795273645313251620e-02,1.603867320247461536e-01,9.008358053989966308e-02,1.005986141720428273e-01
1.557043858715523033e-01,3.703143823175536475e-02,6.653755149413217995e-02,3.914045575309693659e-02,2.152846318060584740e-02,2.106549043280470448e-02,6.466138207504618096e-02,1.053440275124222086e-01,8.954809134133089044e-02,9.948557300251606450e-02
1.370137487860069725e-01,3.424079681486156407e-02,5.589364593585211677e-02,3.570024426012592678e-02,2.002563367714110809e-02,1.802081812729747559e-02,4.706735167866024638e-02,7.172632542983016501e-02,6.822186295193009842e-02,1.141467930221636562e-01
9.724610984560702609e-02,3.532478178323059104e-02,4.118918131877279815e-02,3.821409538356398961e-02,1.742571863981565855e-02,1.851892630549099167e-02,5.471509644930358518e-02,1.072534383506977690e-01,4.498741135461525181e-02,1.203902050761311848e-01
4.853875852146966041e-02,3.603640064465934989e-02,4.742699408683143103e-02,3.945025607001073631e-02,1.409400996062202573e-02,1.644512715411041576e-02,6.257302548666701658e-02,1.808397582936800418e-01,3.491930204886514733e-02,8.881899844049032100e-02
7.983810468317569659e-03,2.841982524428934842e-02,6.488972535010967269e-02,2.980620449131102939e-02,9.979612975161337649e-03,7.428204334880448775e-03,5.057019177364262957e-02,2.477705186872503074e-01,3.395358270991753746e-02,1.409835786287330292e-02
2.496719650131073998e-02,1.648367820670761791e-02,7.621544587999379283e-02,1.549559055028218967e-02,7.101401667233825724e-03,3.587222264396577268e-03,2.939494064677495438e-02,2.941612459800513335e-01,1.049592294927262706e-02,7.339227712192859798e-02
6.022732676179363975e-02,1.112475399638243254e-02,8.499129477229791507e-02,1.012242967140258507e-02,6.818616621182651757e-03,9.783728649975535416e-03,1.623949796271235285e-02,3.161721747905476554e-01,6.008432458546494187e-02,1.293402526591748980e-01
9.169962549860746770e-02,1.291300316147860755e-02,1.069795995101226194e-01,1.552432177392258465e-02,6.067080566090411395e-03,1.165742234707883677e-02,7.156756877360763262e-03,3.018038255401256920e-01,1.436630560010025148e-01,1.323814142953972928e-01
9.665824244180219738e-02,1.186174166957179067e-02,1.468644415741178488e-01,2.357333378103302832e-02,1.087445713740472358e-03,1.318005503649557868e-02,1.116876403687018862e-02,2.422797102899489630e-01,1.697708583073110067e-01,1.038461229906055827e-01
6.462620829670995271e-02,2.953785109450920120e-03,1.862917481410197584e-01,2.886464629599756401e-02,6.931114694730705628e-03,1.498773004017008893e-02,3.650531951497802685e-02,1.432365062467170769e-01,1.216560590407840536e-01,8.735766997204559570e-02
1.688862844152387577e-02,7.522703047223370555e-03,1.919765161551504618e-01,2.737742303647852996e-02,1.397560786246279142e-02,1.606651955701567450e-02,5.247753344277047982e-02,3.037190720685902998e-02,6.084607398170206738e-02,1.000631715574393232e-01
1.814071720774833307e-02,1.238011606525827799e-02,1.464367352496166175e-01,9.993277833844009528e-03,1.917321317431704489e-02,1.705301525801570378e-02,5.107423117719789296e-02,5.501108918795531710e-02,5.138735892306149633e-02,1.158562098506452365e-01
4.570090965361812280e-02,1.449630254958806166e-02,6.984272466646068711e-02,2.890326130353083195e-02,2.556681957510059319e-02,1.947314987129473637e-02,4.573334223016521649e-02,9.349179914325395080e-02,1.012226482022269558e-01,1.106520593223748600e-01
9.423258005131196491e-02,2.295997838709479960e-02,2.683183920200549015e-04,7.731090729674341966e-02,3.555901370083345420e-02,2.485329063462317009e-02,5.807217349342592982e-02,1.158615651292802945e-01,1.744819005802138445e-01,1.010618745610746688e-01
1.601084692680631583e-01,3.902751570941656589e-02,4.086936587990520897e-02,1.102682931611323330e-01,4.694155573140201126e-02,3.331287209725458665e-02,9.123509425842901699e-02,1.554962722883409532e-01,2.205788923665662482e-01,1.142968694857209033e-01
1.980580932968641350e-01,5.219386377445954517e-02,4.628567534963656110e-02,1.123459784232627989e-01,5.435418666629318607e-02,4.103268972650060686e-02,1.223306267690903865e-01,1.881490854122425116e-01,2.016093767747673959e-01,1.426007553702024477e-01
1.796386868102200496e-01,5.354762914274966562e-02,2.024933893603220875e-02,9.074982571679036936e-02,5.508851305926213554e-02,4.301438202898171664e-02,1.272064320019914152e-01,1.668683524558473297e-01,1.223011178502841079e-01,1.560731451633567968e-01
1.273315046601945499e-01,4.623896522070766735e-02,2.507510302378767458e-02,6.267482769864499148e-02,5.124780774368363490e-02,3.952831212487747936e-02,1.073460959692485728e-01,9.646393210994418099e-02,2.429878690572218752e-02,1.477187409378388494e-01
7.649885208427746608e-02,3.793493675255917019e-02,7.900756071208206444e-02,3.544151615717734682e-02,4.498451022007510236e-02,3.483869548862800203e-02,8.272171203334115208e-02,2.766234952338938666e-02,5.560432700848769866e-02,1.405928416106850820e-01
3.479086275830669400e-02,3.045632973483375014e-02,1.347674570030470698e-01,7.730320506009715625e-03,3.553367209907241225e-02,2.971548909691151472e-02,6.404074732064375663e-02,2.293900594483398898e-03,1.019784890718790082e-01,1.514254203701558554e-01
5.522704613604695507e-03,2.283054039614914113e-02,1.649945872430843008e-01,1.428761751085102366e-02,2.350872837112905414e-02,2.158052604553695880e-02,4.789120008831196373e-02,7.915171312292025932e-03,1.038014943368976983e-01,1.670413323684354634e-01
4.068089747738209971e-02,1.787880430847061525e-02,1.281549451845159504e-01,1.843200834512143463e-02,1.408491835232463310e-02,1.188126293339521883e-02,3.521105133527191455e-02,3.530879128884191476e-02,5.953735316268237571e-02,1.672168550308500978e-01
6.016115270004090965e-02,1.859248216339428814e-02,3.352022182002770828e-02,6.999863470901248816e-03,1.186986634154043457e-02,6.274023332304258863e-03,3.420426476241168051e-02,4.793895865814164908e-02,2.277802661005266793e-03,1.556973230245509987e-01
6.537535370676748891e-02,2.117368781133020100e-02,4.253644899741679253e-02,6.487847508881380322e-04,1.448415449908932451e-02,6.441681306751642633e-03,4.333163383116718503e-02,3.347123808666568195e-02,1.767805444260254349e-02,1.489665771501241798e-01
6.788032858609434339e-02,1.758402635713798845e-02,4.552350100363436458e-02,7.031431769406695786e-03,1.490060157862157716e-02,7.370364579206268793e-03,4.638757614948555569e-02,1.616311500709396651e-02,1.557959607400747661e-02,1.448777907209700677e-01
7.370689710586755816e-02,4.393614273415593664e-03,1.497440173904435179e-04,2.146602125170630343e-02,9.516156886405280346e-03,4.097790399197323227e-03,2.905572251266437533e-02,2.538575127358661324e-02,7.913920001412044769e-02,1.267905474914239328e-01
7.889166104687117542e-02,1.391417242374741112e-02,5.608224906180717811e-02,3.354971255466423358e-02,1.078410416097484725e-03,2.346001414063110958e-03,3.392949145210321770e-03,6.171201846395778928e-02,1.548217536762213908e-01,9.441413339830029283e-02
7.804895512004760005e-02,2.942973680340657192e-02,1.206195220690342851e-01,4.635854690700536712e-02,5.527880377052710875e-03,6.727967968539407158e-03,2.947220052004899046e-02,1.034417774263203527e-01,2.323184181571567863e-01,6.695230998557936963e-02
7.185990843608397460e-02,3.693204655283740395e-02,1.744853835169442868e-01,5.789404117841745467e-02,7.943485809867003450e-03,6.305845044757858904e-03,3.827045941186360545e-02,1.150913520292477232e-01,2.724965825045107537e-01,5.229057747560997976e-02
6.395186963286715598e-02,3.639166378339884350e-02,1.628725658460295767e-01,5.389091805742567132e-02,7.642176843108354489e-03,4.679904084729661143e-03,4.359541695115320276e-02,6.439389004845859354e-02,2.313506338700782594e-01,3.191330971476676742e-02
4.996974597694200937e-02,3.006072025159701316e-02,8.435209570374295474e-02,3.223606582700665885e-02,7.931776116607190674e-03,6.497563821986251237e-03,5.605759992325076713e-02,1.774681323623135062e-02,1.326626829646820604e-01,1.047502050939594191e-02
1.854872850059145067e-02,1.867582635054756968e-02,1.466812243980695867e-02,1.209520352806104336e-02,1.005307171828458482e-02,9.374606606191741506e-03,5.904624553855920138e-02,3.747939644180472291e-02,5.739163092150887518e-02,5.498144862395495241e-02
2.844212296336186968e-02,3.006614114053419821e-03,9.402115634473563049e-04,5.590051904819435050e-03,1.177284002540901486e-02,7.047226204141981282e-03,3.784179418223663355e-02,3.736891039367611078e-02,4.928376248379585933e-02,6.236144089151177128e-02
6.945785169192796038e-02,1.329898894661584244e-02,2.979092813729242867e-03,2.500833982826633928e-03,1.076932633719949323e-02,1.122052180217280454e-04,9.591581946380997939e-03,1.188204209105240411e-01,8.119553930161105271e-02,2.897210718770520596e-02
8.845782025379576863e-02,2.588132034967366435e-02,2.145005317494903807e-03,6.454271483259288629e-03,7.814924812605473364e-03,5.460397965436640001e-03,3.224354767454991940e-03,1.270642971888734929e-01,1.143425202662144979e-01,3.289326591221011786e-04
9.111720735497895463e-02,3.204486027594332515e-02,1.119064026406314631e-02,1.161677637370545774e-02,5.375266539372976042e-03,6.476773188820638717e-03,3.860136567526678553e-03,9.403332136847547540e-02,1.418699215495819455e-01,1.429629968452825022e-02
8.756095815022957307e-02,3.014852262874722147e-02,5.955109227842721176e-02,4.643669465509156838e-04,4.806870636444137389e-03,7.008997649232562993e-03,3.977357727764458881e-03,8.182019951753710663e-02,1.685004412270774687e-01,5.276456343569434215e-02
7.742389318311103386e-02,2.147591254066954017e-02,9.622293266850878712e-02,2.028075897815745030e-02,6.117507753502568826e-03,9.234327434793878492e-03,1.389395524355035386e-03,8.508427562894713136e-02,1.789442134855845912e-01,7.159418744311013549e-02
5.851762873329085374e-02,1.209563389974508893e-02,6.376727170910209685e-02,2.838259117419357838e-02,8.832002368148959490e-03,1.017059629182625984e-02,9.164266679451270325e-03,7.463868792867796309e-02,1.453865972168423282e-01,6.024502565815992305e-02
3.409905179998123925e-02,7.246757651178812633e-03,2.926664611797794718e-02,1.126679793742994470e-02,1.180384115492903903e-02,7.129670389330192495e-03,2.396580209338404488e-02,6.518096865374747861e-02,6.879434590583557996e-02,4.579746461979481570e-02
7.597167217100568581e-03,5.128989886039570303e-03,1.138606631920475315e-01,1.772351134418264501e-02,1.363317797974954518e-02,1.438595255739917285e-03,3.749475622681927578e-02,7.535013251644620547e-02,5.615497557353691521e-03,4.947035899272794052e-02
1.891127006845140859e-02,5.950131084962940109e-04,1.361633384981620620e-01,3.328695071924814980e-02,1.480404629340029317e-02,5.035942328122778797e-03,4.784943047570975466e-02,7.418681338224225597e-02,3.683433099703795066e-02,6.517671560945971498e-02
4.051679814439442667e-02,7.465110245037021551e-03,1.049944965027065635e-01,2.543635580284382691e-02,1.775922720239367716e-02,1.252929851578420649e-02,5.277924719323234121e-02,3.479753665465383505e-02,3.340975286828665181e-02,7.836235974313367214e-02
5.087737766831539055e-02,1.546506388482264682e-02,6.537506006759220833e-02,6.596304471274985932e-03,2.275149639873326468e-02,1.987421641004656625e-02,4.885568882758471732e-02,1.748110230396969500e-03,2.323711926666362573e-02,8.621260981977280080e-02
4.806781051822917039e-02,1.912064146712637996e-02,5.065068985525776613e-02,4.922054234511002123e-03,2.583941141337614544e-02,2.316174606206204342e-02,3.580291138646953669e-02,3.366894037699692116e-02,7.896016878156456031e-03,9.560953278791678445e-02
3.803364508680012746e-02,1.720297942686534534e-02,6.549050184900054306e-02,2.039623769690778517e-03,2.391685511316240381e-02,2.155864218713649319e-02,1.985955028936273528e-02,1.032289471811699139e-01,1.692367377003494225e-02,1.104434202781795354e-01
3.251786545993187033e-02,1.364965636685221834e-02,9.210197711537064513e-02,7.878200364717657250e-03,1.902692103713693461e-02,1.945630998916768328e-02,1.225816769770009945e-02,1.238976972470532401e-01,2.876463714507402486e-02,1.238640637146298656e-01
3.877326232918950483e-02,1.411591156765031746e-02,1.027485870218238506e-01,1.219593962823079317e-02,1.450252456003077450e-02,1.927089058077765052e-02,1.961914733351880283e-02,6.829039201698429429e-02,8.686040607799925747e-03,1.223185434675135713e-01
5.004603023666218814e-02,1.865643292246685347e-02,7.917589262392438210e-02,5.388165925403170207e-03,1.030436579482041891e-02,1.780566681855627956e-02,3.332099500149959120e-02,2.056687940425203608e-03,2.325277546197871553e-02,1.011988733962836118e-01
5.426717638298053648e-02,2.209318715778538222e-02,3.003559926826350479e-02,7.339598405994343308e-03,5.687444665325281680e-03,1.313589014861080324e-02,3.651840823069908704e-02,3.275257945689191708e-02,4.027016919490369190e-02,7.561015822738330339e-02
5.280373217059399632e-02,2.290874335459381142e-02,1.416553613171372267e-02,1.862934990143757033e-02,2.943525692797525732e-03,9.222089373144190180e-03,2.696864041659851816e-02,4.868350075572587532e-02,4.926564636124858981e-02,6.634306411374257806e-02
5.923495998792195627e-02,2.571202293245957241e-02,3.096380518747450863e-02,2.761618341998424084e-02,4.644757275620975054e-03,1.006141978750219219e-02,2.187478279441175052e-02,9.998182963246451949e-02,6.635529453835561919e-02,7.512778249749815784e-02
7.706038054309675978e-02,3.276622474860092088e-02,2.648288447710398646e-02,3.576319418373001546e-02,9.086209874880908643e-03,1.355492935716687969e-02,3.188043448723869300e-02,1.704090374777683103e-01,8.132358833333225290e-02,8.483423202415331377e-02
9.127066478010488482e-02,3.901182841740416518e-02,1.579589713202254886e-02,3.736580550285521080e-02,1.149322872877843113e-02,1.427229694404334205e-02,4.340461888452226691e-02,1.909601233097157624e-01,8.133719542616955900e-02,8.369054506923410963e-02
8.904389830235173720e-02,3.912921773179155183e-02,4.073522987155931210e-03,2.444933122403420561e-02,9.649296999057525859e-03,9.932271593002979515e-03,3.869281750274890241e-02,1.436967806863573283e-01,8.825088288548001147e-02,7.667672024645594275e-02
7.812499708012508870e-02,3.517548652149721233e-02,4.026652167413827255e-02,2.686375145142159537e-03,6.478517590907076351e-03,3.093803975590091355e-03,2.230500394292647334e-02,9.750886254749945026e-02,1.333590194561132536e-01,7.197531306001538065e-02
7.347575210670348467e-02,3.231681041063049625e-02,7.906776192838083084e-02,1.025380813830920057e-02,5.827759991527228442e-03,2.475001027860608462e-03,1.369524437260623631e-02,1.137948741854578616e-01,2.008593852514255207e-01,6.840857579765047269e-02
7.336374816255074316e-02,2.968907914102786316e-02,1.012009388606372601e-01,8.116293453259234084e-03,6.812231231162120884e-03,5.708367370471601962e-03,1.837033339738868704e-02,1.610857916348941710e-01,2.339916233793394307e-01,6.136824302557373351e-02
6.375586598946933470e-02,2.203458845451536016e-02,1.075677464302313285e-01,4.989708880489739963e-03,5.093781117179526849e-03,8.077739868033971538e-03,2.072457750709140109e-02,1.661912299949803995e-01,2.030859166318093323e-01,5.345007365209458045e-02
4.370254860379967077e-02,1.041600002072915268e-02,1.060995373943250247e-01,1.253720908982227170e-02,3.268740486314170371e-05,9.836576376719601347e-03,9.564473168855724960e-03,1.233627147276152858e-01,1.348502449141259774e-01,5.170300705393958418e-02
2.910546749449361564e-02,3.795443532826313360e-03,8.763653608938205830e-02,2.129106033856977692e-02,3.562031134057005305e-03,8.748382679302045897e-03,2.689289664577811274e-03,9.944174956761234196e-02,6.714911172206193546e-02,5.740496717554686990e-02
2.726923293381331229e-02,6.127476668167916585e-03,3.963706947620786875e-02,1.625077662502802389e-02,1.927322338366029616e-03,4.464090166781887331e-03,3.163775720339797107e-04,1.290821899407677276e-01,6.949569875447456774e-03,6.572788058746620310e-02
2.416563506953676999e-02,8.236220795825466984e-03,2.080877217544155680e-02,1.171837315578570880e-03,1.145884143560372149e-03,1.237486963893037317e-03,1.072514710868457261e-02,1.603783873965878293e-01,5.276247577608306899e-02,7.295332648934935160e-02
6.475439353941096418e-03,9.189412164157155852e-04,4.949633770332877158e-02,5.795524976901741607e-03,4.456857125840424719e-04,2.700725275906064662e-03,7.497737604296506909e-03,1.354789970025855883e-01,9.750853932766392895e-02,7.731686992821545923e-02
1.745836488768521752e-02,1.888714247037925897e-02,2.128180151119603986e-02,3.448257978720684937e-03,6.632149407046933863e-03,6.495725021515788219e-03,1.138169474939991314e-02,7.611725817323820864e-02,9.813580799058230220e-02,7.737922848995110181e-02
2.969335189856250543e-02,3.220230034847303136e-02,3.569358268821819918e-02,1.761449768092577736e-02,1.148727238373541300e-02,7.660323176624585749e-03,2.777629978257632748e-02,4.350166449457661122e-02,5.335537066821754992e-02,7.558296821327066539e-02
2.540044647672850403e-02,3.171265279322419556e-02,6.659561101087232982e-02,2.152467725513044702e-02,1.079336179286905645e-02,4.697695310141195707e-03,2.984967589129836063e-02,5.493060005481861796e-02,3.813020232203478965e-03,7.687048381313187073e-02
1.633530840903747727e-02,2.042945277307570140e-02,4.693728489192349612e-02,1.303969737322448023e-02,5.925619924251416745e-03,4.391587801677652829e-04,2.334975387146856138e-02,8.168498509432928212e-02,9.019716011118672494e-03,8.019728901097347706e-02
1.924903216917380963e-02,8.129064999700508221e-03,2.381653110349087575e-03,6.599260950265902446e-04,1.144048547722131479e-03,5.179524664144943488e-03,2.066382630477352211e-02,9.091318416792810997e-02,1.754275594575146688e-02,7.931642775543920609e-02
4.059483040072556920e-02,1.626827435209282635e-03,5.271476806415340000e-02,1.033707418061213627e-02,7.096999601652382748e-04,7.314194308985691624e-03,2.787603976224778748e-02,6.300896802210252667e-02,6.106472919208678907e-02,7.297784835865993303e-02
6.658055063727073841e-02,9.825067985799935434e-05,9.785519908918406673e-02,2.226962559404545641e-02,5.091002126807551292e-04,6.468365263194073532e-03,3.745496828585205551e-02,4.398465064880141898e-03,1.082110990805509182e-01,6.659165512675643828e-02
7.661075327695911208e-02,1.477573845727055482e-03,1.414088077654249154e-01,3.653564101446193924e-02,1.278818544028555854e-03,5.222582730707561217e-03,3.382272840758779320e-02,4.887134506726237282e-02,1.560123944363326076e-01,6.439052027160979685e-02
7.126332479560756883e-02,2.276294288550988979e-03,1.765878953599516743e-01,4.821346215211985697e-02,3.641487478371870871e-03,5.998260576544861382e-03,1.388867344141190077e-02,7.138525934963615982e-02,1.933573257161041725e-01,6.606092416980041682e-02
7.116172783939794799e-02,1.197479148540993949e-03,1.968371554189342065e-01,5.294558340716420258e-02,4.667978200638136892e-03,7.949109878920671696e-03,5.986615596299369076e-03,7.869603607716690874e-02,2.069677880662252889e-01,6.841075095034364340e-02
8.411757251766786847e-02,7.147712187728137365e-03,2.114590530357886022e-01,5.379402730067960048e-02,2.707429702492026267e-03,9.267448309380687047e-03,1.261162509698913504e-02,9.089911405567520364e-02,2.033321907033447673e-01,6.388820400757769247e-02
9.397211363206614543e-02,8.773661340448775381e-03,2.256004607227259373e-01,5.497489016834378184e-02,2.402957077633645605e-04,1.001550714549022045e-02,1.245975080848162227e-02,9.587295962048200670e-02,2.020643695687262542e-01,4.207497120639590305e-02
8.670264750286979516e-02,4.852568768798404958e-03,2.170614450802148820e-01,5.324179594220036088e-02,1.534698596227507391e-04,1.048902444571665066e-02,1.659102848085164741e-02,7.674208611094096577e-02,2.066859298182122107e-01,2.397869102025246280e-03
6.769128986266698123e-02,1.329279971986746783e-03,1.650473752755330370e-01,4.381069823813706771e-02,5.191115384425880937e-04,9.696054269414831547e-03,2.358264623695154744e-02,4.655217338178701397e-02,2.054079475267585608e-01,3.901403754917111277e-02
4.866738220489310457e-02,1.296684899608503347e-03,9.323513338090666513e-02,3.130332427940010070e-02,1.153917358781423507e-04,7.436148666474738309e-03,2.601954597673735575e-02,3.062872102833000265e-02,2.015446065705668865e-01,6.560037822808360841e-02
3.376092967526209132e-02,1.501786143167144769e-03,5.047089986244097937e-02,2.547394829679822462e-02,1.052065145869817558e-03,5.715759279605775976e-03,2.248372633075542901e-02,3.542042571075806195e-02,2.091438949023733396e-01,7.708724520239089439e-02
2.255467424246120414e-02,3.414178768496636254e-05,5.131730748808076281e-02,2.720524112297360853e-02,1.043389268865637905e-03,6.736945226394264706e-03,1.618459448871862466e-02,5.186381111015023193e-02,2.079242581560689362e-01,8.100076683340788619e-02
1.594694579243181171e-02,6.593270733351759560e-05,6.261412301860237728e-02,2.611602562002764139e-02,4.611546257663266921e-04,1.028381365964320220e-02,8.502058409652204357e-03,7.179918327454569427e-02,1.460875445322408206e-01,8.025340555460880321e-02
1.556895470335686177e-02,5.172899468640245434e-03,5.035507208691233916e-02,1.327453585633532260e-02,1.206097266753092864e-03,1.334249675691460794e-02,1.385131753670870236e-03,8.552126593199262106e-02,1.640581023755482634e-02,8.050386510376712768e-02
2.184731381696977670e-02,1.404639578188294526e-02,1.747900753919589059e-02,7.637500268575353989e-03,9.247635599808864178e-04,1.257673185265085342e-02,1.284164563526604512e-02,7.847193448837876117e-02,1.104589248395946993e-01,9.409023730547917685e-02
3.189473309724979999e-02,2.300174544219691850e-02,1.606282130769377814e-02,2.444795488251041635e-02,4.764051601299138135e-03,7.921221176746630344e-03,2.187464042699387157e-02,4.867592173769082209e-02,1.642332976611118323e-01,1.210993218338982658e-01
3.785309991617424180e-02,2.913149560160067236e-02,5.260538025001866569e-02,3.051313693681071554e-02,6.867918968830927576e-03,3.066260995820233905e-03,2.316760186535031518e-02,1.461641868088789722e-02,1.549443206402772444e-01,1.378440029323478866e-01
3.262611864350334345e-02,3.066768736415593707e-02,1.096592451158561465e-01,3.050813375689232637e-02,5.813663787352660664e-03,1.431181337940139750e-03,1.481308605127644104e-02,1.233963871126477971e-02,1.431434983874442790e-01,1.202154995138429300e-01
2.016213783318098265e-02,2.754991394329573545e-02,1.774138962421161758e-01,3.086011248518544942e-02,3.551663500648117189e-03,2.388689837751615305e-03,2.192315289874159634e-03,4.293346389191719098e-02,1.554530792639766679e-01,7.622834269569461751e-02
1.429956389311508660e-02,2.269914239654583984e-02,2.131977226231891454e-01,3.005820844525432939e-02,2.320564603467957683e-03,2.253840621279395995e-03,3.268096150437166478e-03,7.462789061976328464e-02,1.620333407788188962e-01,4.452814822756430424e-02
2.279477277311544453e-02,2.001396210400154321e-02,1.895441502503358300e-01,2.428666318989505107e-02,2.585384279534536610e-03,1.417587172104467930e-03,6.993832865911377497e-03,7.329253378583455714e-02,1.331544099761015898e-01,5.481576289220853326e-02
3.591034315336019689e-02,1.982833364688606562e-02,1.292498835752886044e-01,1.825382225980112100e-02,3.908568782336450248e-03,7.034308865504578130e-03,2.814960251379741707e-02,2.490231453778276455e-02,9.028513038601236607e-02,9.385476171842269122e-02
3.572696161106141133e-02,1.806875769811798482e-02,7.898820255543666236e-02,2.099273495210085549e-02,5.238775960704920333e-03,1.060109683787635593e-02,4.407852048209676132e-02,2.663975919481099269e-02,7.927437679245802338e-02,1.217642528016566472e-01
1.499954780772484383e-02,1.056203674355862474e-02,5.754056463546608491e-02,3.170288811218327507e-02,4.604142548018906600e-03,9.774052871504394779e-03,4.292025377114412621e-02,3.037773479308705435e-02,1.042579285850463305e-01,1.203578577767959040e-01
1.849693574736166468e-02,2.820320498784554750e-03,4.390055513001304976e-02,3.885767991725803255e-02,8.672609325236329799e-04,5.516405637452781799e-03,2.610754282019838932e-02,1.145428872971470703e-02,1.235266872537841981e-01,1.064484024731305184e-01
5.392707003404138139e-02,1.773891350074587384e-02,1.615068031802548848e-02,3.487586002836501331e-02,4.391991922724867471e-03,2.274085942488793949e-04,1.669633150591740478e-03,6.244209545997016220e-02,1.127445274681515008e-01,9.619673145686032101e-02
8.465349267366920061e-02,2.821497049186796544e-02,1.216415604560798155e-02,2.482625285535240700e-02,8.185619257449337771e-03,4.091081150226868156e-03,2.274487466656314669e-02,9.831599320878470216e-02,9.225594503669620750e-02,8.318021206673065215e-02
1.041373515549909451e-01,3.115279868240878117e-02,9.345778428887776754e-03,1.819501630383514590e-02,9.276337965434698282e-03,6.176261277492238987e-03,3.906700151038274005e-02,1.097028584365070669e-01,8.255091457471408489e-02,5.925049874577086040e-02
1.063905110473292448e-01,2.894287389311548872e-02,2.520163616658680633e-02,1.679051506156665693e-02,9.509244627863389782e-03,6.227601380113824241e-03,4.154729217955772935e-02,9.280827406958382098e-02,7.291950492574263143e-02,3.057713301437961495e-02
9.392853877241405525e-02,2.652877967785424035e-02,5.230683756895264380e-02,1.435292398389670897e-02,1.146586609811233066e-02,6.052518755111637935e-03,3.363283232340648354e-02,5.778873973563560668e-02,4.975758211614282611e-02,3.769302593263471751e-03
7.644755096772611058e-02,2.577066194696674140e-02,4.004175631711915512e-02,6.044236014754438696e-03,1.459692856370387384e-02,6.500368340868212420e-03,2.500705287578235472e-02,2.059809465705363107e-02,2.198649853466849019e-02,2.211092594002356249e-02
6.080783208697542602e-02,2.460064399360569615e-02,2.548756170900994857e-03,5.344876246968091951e-03,1.538536358272574178e-02,5.692201397536659005e-03,2.144031225716135081e-02,1.422332009490229199e-02,1.267513692545801582e-03,4.403912173661431173e-02
5.064067315911319200e-02,2.208384015891442717e-02,4.545979076849605838e-02,1.308467467428930768e-02,1.248151702637538898e-02,1.949734936838910760e-03,2.325803848017298989e-02,3.965041746190240551e-02,3.161902075544437141e-02,5.251119191222176907e-02
5.105335485685688623e-02,2.078008270205534275e-02,6.797986503680657211e-02,1.407691769499249367e-02,8.883273190615098916e-03,3.063432233690705289e-03,2.999245664335439820e-02,3.691263163392789759e-02,7.305412797297997085e-02,4.188262530511496773e-02
6.143981817403298268e-02,2.192159781365564733e-02,6.185493791064460012e-02,1.038541738828043653e-02,6.856331380761812935e-03,6.624745822002828244e-03,3.858457443320557206e-02,7.282438616252197294e-03,8.931940925460302161e-02,1.274273921006902933e-02
6.999597722794653754e-02,2.237523406470160250e-02,2.891749189060973876e-02,4.178118347367284872e-03,4.234821401248940916e-03,8.628742485799738987e-03,4.058551154756985524e-02,1.622973646912805046e-02,3.637776866550240101e-02,2.985445174937467749e-02
6.849316949260869647e-02,1.972097054874452290e-02,1.203411502683519353e-02,4.065037729731808477e-03,1.076280472844160299e-03,1.044816210609395522e-02,3.005138044708233896e-02,1.293720063642643699e-02,7.226589084913691285e-02,7.171591616076208875e-02
6.487543558027648871e-02,1.612425585318655319e-02,3.281326147413335392e-02,1.153442530230059521e-02,6.746287648148397917e-03,1.221798210576353384e-02,1.275967182158562786e-02,2.570802750406428472e-05,1.667561309339196385e-01,9.429169325288129511e-02
6.970203721744511194e-02,1.417986794677929610e-02,2.193324404395594410e-02,1.328367292393704997e-02,9.790890117648226240e-03,1.362985366076632614e-02,6.814795890506229747e-05,3.232611343991870397e-03,1.962845827229237894e-01,9.352833103526614345e-02
8.030024599974266986e-02,1.374523921823898875e-02,5.860544690289973269e-03,8.222270656060032962e-03,1.082814455785062642e-02,1.497352479068323437e-02,5.630343201583688437e-03,2.403725438720792987e-03,1.757986624210897963e-01,8.231685395009370743e-02
8.943605813992160092e-02,1.516136868782610829e-02,3.137745815522522547e-02,3.337428356608111019e-04,1.116797289287406458e-02,1.564669904973847725e-02,8.995624202836362965e-03,2.708771908750593448e-03,1.480268616026589601e-01,6.864794643212906999e-02
9.879783917546064442e-02,1.986346441576082589e-02,5.239317004475158024e-02,6.201259152654218024e-03,9.755916367214949314e-03,1.430345518963054181e-02,1.045136290528369920e-02,1.195962159288649351e-02,1.277339470375400132e-01,4.657069629041499931e-02
1.132913674971271628e-01,2.581891847853835797e-02,7.700743947240010212e-02,9.728357709438403833e-03,6.377989122189028567e-03,1.122306698204986533e-02,3.681033935731639964e-03,5.427177667369670333e-02,1.034263080722438444e-01,1.443329081642739237e-02
1.311320001477024877e-01,2.842974912201949589e-02,1.028838641679233612e-01,1.012037020392379111e-02,4.190281254617788352e-03,8.092800802754394895e-03,1.183179738912936395e-02,1.106987779968757329e-01,7.171771281140919274e-02,1.283237268402859753e-02
1.475585249172651769e-01,2.707460447983961113e-02,1.106860600209614715e-01,7.197382871679968222e-03,5.853913343133384205e-03,5.785762961034486215e-03,2.543893275727737366e-02,1.521646430815614681e-01,4.277790566685134299e-02,1.774091494525929097e-02
1.608601441556843648e-01,2.475507359293803444e-02,7.979403639331310305e-02,3.969197911340869786e-04,9.791160581945138053e-03,4.232562735284621860e-03,2.736129256331732915e-02,1.520352626582384681e-01,2.260563600935684009e-02,4.097064602065492167e-05
1.690672282667059767e-01,2.223494328140185675e-02,1.351715997460778938e-02,8.423943908348559273e-03,1.252436507930078727e-02,3.357105494701658963e-03,2.118937681539731152e-02,1.038666902760778110e-01,8.265773873740269936e-03,2.234293071780548562e-02
1.661530860574579327e-01,1.853138994561395747e-02,5.327262836866448331e-02,1.333578365469215155e-02,1.287452657453426463e-02,2.782747632028144142e-03,1.742572371189262878e-02,3.429299756451234527e-02,8.767355216342241978e-03,3.014364932909751812e-02
1.501404431266290529e-01,1.446684854199115772e-02,8.349788008503218617e-02,1.082065309476581277e-02,1.246255544931920874e-02,1.957813305016604943e-03,1.696352550003252246e-02,2.265170242923715202e-02,3.807885389381514968e-02,2.232669179927328218e-02
1.361405253934134807e-01,1.145105986350110350e-02,7.316120710292420282e-02,5.679339484606649342e-03,1.280154998617129801e-02,1.185806674994332966e-03,1.187437392948953278e-02,6.072759079888041117e-02,7.238919591762311978e-02,1.335428934280170551e-02
1.415194739494801401e-01,1.038222326959546520e-02,4.252399999135267339e-02,3.667475651074534031e-03,1.258643190650633910e-02,9.007617557973658044e-04,2.819360160500856451e-03,8.004114682419333215e-02,8.086170927972673173e-02,1.076716728094654144e-02
1.420415550903353363e-01,1.162318906964422867e-02,5.849183323440023882e-03,3.188771005014116693e-03,9.067527551063315344e-03,1.220698755224098198e-04,2.494095067292446347e-04,6.146497993583789621e-02,4.292883493532683586e-02,5.463304710382863201e-03
7.795058911263469392e-02,1.129181572930439657e-02,2.298114819640103765e-02,2.366244689696735473e-03,2.786276721717889301e-03,2.004733698169846451e-03,4.743045911961807706e-03,1.123232448138805108e-02,2.009926466837850395e-02,9.733262135733142945e-03
6.118984850889187116e-02,2.099455460755437347e-03,1.583169622201299406e-02,6.265086423141013119e-03,1.672157177414362568e-03,3.765635786042492630e-03,2.880048660980679114e-03,1.425666662369324232e-02,6.559504691023063105e-02,2.684245966923040974e-02
2.017403855908841415e-01,1.661715351515465067e-02,3.898929016600802266e-02,1.731800168708821919e-02,1.539878266551301380e-03,2.965287766865486521e-03,1.238741684420172767e-02,1.862432646386536286e-02,7.131623852258114904e-02,3.799268624449832210e-02
2.777826620896343135e-01,3.606244087203498705e-02,1.063332489223747096e-01,2.708274391372426579e-02,6.430640812218849523e-04,6.051834535552389621e-04,3.233578292672170673e-02,7.459043841948066744e-02,4.574946773326439564e-02,4.859611936797485904e-02
3.076338498450266745e-01,4.872567732107818683e-02,1.377895045268094920e-01,2.619888947214214434e-02,1.453165256820111587e-03,5.960365740414902153e-04,4.651893133333275671e-02,1.165298578210598041e-01,8.688118950100682039e-03,6.515863075760276735e-02
3.394046876099084398e-01,5.451399140137247468e-02,1.214967872410613881e-01,1.482494880212642356e-02,8.114749104582000055e-04,1.407245823256365533e-04,5.292139639070536639e-02,1.554491709015761169e-01,2.867188814232896066e-02,8.359468202788489233e-02
3.732430496761454108e-01,5.573747976725128978e-02,7.789539498857724065e-02,1.115550680007429147e-03,1.064365359514072868e-04,4.257550360530513241e-04,5.410742845887393793e-02,2.020498325283637819e-01,6.605913016919666425e-02,9.739743387407413799e-02
3.786125937486786719e-01,5.467440900789215241e-02,2.739792471968383047e-02,1.509692424975851884e-02,1.194449120888436619e-03,9.196618147200524927e-05,5.537145838138716331e-02,2.335704724746913430e-01,1.001969413479219667e-01,1.065764412282977913e-01
3.474571255268132930e-01,5.502287757687589209e-02,1.734562892610014284e-02,2.018206972388812345e-02,2.037559301848723518e-03,2.068632078485742581e-03,6.404136916850532157e-02,2.341473292045670174e-01,1.179853938550305681e-01,1.133633384774747899e-01
2.928379322472875468e-01,5.766092793273538963e-02,4.399773065168935404e-02,1.399203234023169672e-02,1.713517561976771013e-03,4.747513161809467815e-03,7.949486127556829040e-02,2.150304872887004726e-01,1.123831798331353382e-01,1.158218900320781980e-01
2.222690010776409708e-01,5.685125635973365538e-02,4.610143152376041525e-02,4.189466735936746636e-03,7.900914573189831737e-04,5.629898799546529178e-03,8.688623692219736572e-02,1.788825453927355702e-01,9.660898265291520404e-02,1.093528174897007016e-01
1.435101889123537588e-01,4.739741307768544076e-02,3.242948718044860734e-02,1.203458407102083513e-03,6.997940306971042572e-04,2.782392122690143920e-03,7.048675531885467693e-02,1.082508394054436940e-01,9.062787986972956067e-02,9.297004331603037075e-02
7.874637612643634044e-02,3.375577091557442622e-02,1.912730508106738614e-02,5.982111254673977245e-03,1.090876889670176677e-03,1.875938541571280831e-03,3.440636635140844474e-02,8.464349687521756024e-03,9.929043647557241059e-02,7.270488423227687569e-02
4.549683872798875039e-02,2.583192651855358707e-02,1.444447749263709155e-02,1.097706582550237071e-02,2.236506416254611918e-04,4.021965718812073841e-03,4.319271246360917305e-03,7.330165797064489008e-02,1.131683361289631679e-01,5.797246751702049561e-02
3.249508017454269537e-02,2.589599364355582578e-02,1.946901725079013337e-02,1.200031587048652759e-02,2.210454280958693962e-03,1.906544046886275278e-03,2.717040587996382046e-03,1.013098663394961241e-01,1.249069955440037238e-01,5.322609732942469585e-02
1.646103352019132396e-02,2.636197003514343523e-02,3.514383374555463124e-02,1.279897865569859169e-02,4.853952368839759002e-03,2.283206766627601976e-03,2.542585264721801408e-02,9.290587999836207034e-02,1.351654186688233950e-01,5.207174599171363744e-02
3.680916937147511725e-03,2.289646744279130730e-02,5.302332496540108908e-02,1.704121464600369049e-02,6.927564619891414879e-03,6.201596577075582824e-03,5.111622913066897478e-02,7.097462250950638263e-02,1.458779611087565597e-01,4.201151891746632977e-02
1.085944008893975458e-02,2.173274131641228513e-02,4.962685910260405953e-02,2.087555919450573630e-02,8.551856138226069520e-03,9.917530784005213970e-03,6.792617198713625515e-02,1.736179372042592761e-02,1.540785022949728578e-01,1.723919425402041516e-02
3.321633812274595726e-03,2.852613865068670193e-02,8.770413481425336569e-03,1.632742728331950527e-02,9.291047386735667990e-03,1.365191361713055315e-02,7.731810810938989642e-02,7.792074582168656560e-02,1.474986344556453721e-01,1.646713027319018224e-02
5.400998710498421118e-04,3.747765911313475501e-02,5.826868183095613302e-02,7.044137717380783694e-04,8.323401880848098691e-03,1.536555879827816370e-02,7.865518518927552827e-02,1.663234201491016195e-01,1.051568126579237733e-01,4.828917487237666811e-02
1.620406904490833896e-02,3.824505851688947411e-02,1.241491803519141207e-01,1.889994095158538390e-02,5.609374104788667631e-03,1.288902262671779916e-02,6.591842265836581061e-02,1.882676762409901117e-01,1.855588595949887384e-02,6.745339807400071996e-02
4.519396970505848432e-02,2.859576150344241702e-02,1.657904308532914539e-01,3.137089191005463379e-02,1.816653250401931933e-03,7.254421726427037927e-03,3.810287641691331717e-02,1.389486359029585838e-01,8.226888557347261655e-02,6.649143005972131537e-02
7.716794297851981010e-02,1.482727333463127947e-02,1.719558504521661313e-01,3.141778876408099497e-02,2.344646391531819696e-03,1.610545447922735046e-03,3.639881775463722074e-03,6.119443439299138837e-02,1.453422185988713367e-01,4.660961333606877810e-02
1.064416704803484992e-01,2.492781448160378503e-03,1.449918836519948628e-01,2.184292794986503541e-02,6.241563730195594413e-03,2.424463770885251866e-03,2.608384305642582821e-02,1.017429655680582778e-03,1.480390295189850103e-01,1.619040281599467418e-02
1.271884967600034888e-01,8.253897919650825601e-03,9.887740122102203766e-02,8.272433326640736204e-03,8.921132518758678395e-03,5.091046307619301672e-03,4.466318710411542464e-02,2.817576767431691914e-02,1.134461453821880711e-01,1.380817225689359370e-02
1.338633928927664973e-01,1.776015623116163761e-02,5.128718437596836710e-02,3.794783726408393863e-03,9.134291589754369584e-03,6.205598248338098019e-03,5.273955104651104758e-02,2.278304133821181660e-02,7.513933751206622325e-02,2.774165100976458062e-02
1.336067484528679072e-01,2.308828191797534027e-02,1.559219739407441928e-02,9.707948845401040069e-03,6.946441331548398358e-03,5.583850545401961886e-03,5.634661098798387363e-02,4.534299318432792603e-03,4.760853647802482796e-02,1.332002050201972800e-02
1.425718314503430784e-01,2.330683523046645986e-02,4.927720206084148027e-03,9.466156058791183603e-03,4.752694194180919623e-03,5.048803270110029974e-03,6.355012510137561521e-02,8.551101694768919667e-03,2.950539543932306774e-02,1.724489661750463684e-02
1.513058176717299030e-01,2.275624126669559960e-02,1.809834331556362322e-02,8.156558904727892814e-03,4.471809245598830536e-03,6.407634149716717915e-03,7.440701591470580412e-02,5.294191919564105592e-02,1.334207258651546289e-02,3.275995026108826508e-02
1.126872919739911466e-01,2.340221750908268519e-02,3.290089319148140068e-02,8.387855942528492370e-03,4.632622778491661195e-03,7.891175995056077738e-03,7.392923624925569481e-02,9.542545489776450840e-02,9.006384959955900452e-03,2.070798499175039581e-02
1.381375316554423523e-03,2.100188261748101373e-02,4.943644271760146841e-02,6.990067452763242678e-03,2.994202446852354225e-03,6.535405892940033754e-03,4.935771875691206262e-02,7.176933956892277144e-02,3.442723566834745424e-02,1.061496297724328144e-03
1.302803200739533207e-01,1.469330061618488205e-02,6.416237944273352201e-02,2.805201881416891953e-03,5.378708522634433834e-04,3.179561031026167332e-03,1.398828679330871468e-02,7.375766095638540236e-03,4.374823659804363135e-02,3.611675438201949941e-03
2.033211698617086172e-01,1.126916068575295818e-02,7.533376457036507212e-02,5.364701225251671413e-04,2.970019254886822977e-04,8.545382513605625282e-04,5.483015593647456651e-03,5.979359314539652720e-02,2.232332040730026362e-02,6.794264456244526913e-03
2.053632110224237195e-01,1.359770846154735938e-02,7.337982847084188742e-02,1.592830862025375500e-03,4.307740263080651888e-04,8.969580522901496409e-05,3.537932327023030326e-03,4.373230034775810182e-02,1.859938416237051292e-02,1.889657302978625664e-02
1.847234181023228172e-01,1.447913377128654151e-02,4.242620621390519320e-02,1.117726631136401480e-03,1.050453762021064975e-03,1.118652939109542228e-03,3.172225095207995872e-03,7.047562252834177476e-06,5.476138531040950636e-02,2.461948122984327150e-02
1.700711408025924465e-01,8.224541573991397958e-03,1.286685147013574143e-02,1.219163054522101088e-02,1.275760666891427413e-03,2.122651087088762555e-03,5.075020666030093455e-03,2.415587172493391041e-02,7.617693966518858384e-02,2.569243281764714559e-02
1.474200415298367872e-01,2.791337749628859492e-04,5.881095276986234022e-02,2.432093915595853056e-02,1.676027087355282368e-03,2.254545363034013601e-03,8.316864094592618661e-03,2.906528083947836419e-02,8.608438983351711371e-02,2.535642634943144347e-02
1.046624409033773406e-01,3.142585482947781415e-03,6.717088228190652710e-02,2.740406089599644462e-02,1.929128120592268816e-03,1.902166125380223404e-03,1.697500871017607743e-02,3.435589802674413051e-02,8.317505771043175178e-02,2.184570976664735459e-02
5.486146899401762173e-02,6.511488721734955826e-04,4.397265637560150708e-02,2.138138024822816216e-02,1.648581038931961913e-03,2.016342096719834359e-03,2.418549440410505680e-02,4.402545330255656919e-02,6.474405178848467723e-02,1.559219097444721619e-02
1.631331937363989654e-02,6.468023818904199487e-03,1.285115571972558074e-02,1.293338472448254256e-02,1.502568073350775239e-03,3.178085086672726052e-03,2.207391905806413424e-02,4.862224035667903066e-02,3.849256478388405484e-02,1.633439446715216625e-02
6.746467890801417788e-03,1.051319078994751056e-02,1.483134320373694429e-02,4.709625214244697773e-03,2.211980419673141400e-03,5.202718009589567261e-03,1.209095605587495389e-02,4.223883423061070008e-02,1.303124149692965437e-02,2.907670867531581688e-02
2.301056293017385290e-02,1.276118035058804168e-02,4.025540350144354851e-02,4.557025032605220745e-03,3.454833292753289528e-03,6.388568647285710993e-03,2.680275361555959843e-03,3.119689260590288032e-02,1.262172027305654906e-02,4.105566223792294495e-02
4.148324035126772086e-02,1.542397611596365084e-02,5.874398489975415222e-02,1.292236878587680812e-02,4.375063675780065803e-03,4.799388452273337623e-03,2.710006893785900373e-03,2.258519675586471986e-02,3.458840938968264084e-02,3.971664839947539744e-02
5.926073381907016185e-02,1.962982386519871933e-02,5.880410072142866484e-02,1.576582325145688135e-02,4.547992975955511552e-03,1.154225891843432480e-03,1.042951053089816171e-02,9.216038109680416840e-03,3.512575575070251560e-02,3.230889247590384983e-02
6.484366061730545416e-02,2.384057489901447724e-02,3.969468803225291442e-02,1.196124849550345669e-02,4.205151015166854606e-03,2.066049643852136460e-03,2.418233379442200071e-02,1.510303920387995498e-02,6.119134703843460109e-03,3.144506514569118949e-02
5.603553968073585884e-02,2.577900485744398507e-02,1.574690162717717543e-02,4.077391537770090266e-03,3.799950207130391253e-03,4.463679408187562654e-03,3.431991328861569435e-02,3.280569953418024237e-02,3.322525302384295859e-02,3.510993673640297463e-02
4.565577024231547848e-02,2.487623601562209685e-02,3.982125648827050668e-05,5.804718235267815156e-03,3.531732422230651584e-03,7.436643138442217485e-03,2.886802238794707737e-02,2.331231888817103179e-02,5.808515478765519102e-02,3.466789187977548092e-02
4.679330111690806898e-02,2.234294693684226937e-02,5.396795427463879635e-03,1.577694788435556050e-02,3.317708689724719988e-03,1.060284904695927427e-02,9.925153485513815710e-03,3.418681765745845008e-03,6.352066952333926264e-02,2.933184337863048441e-02
6.195637965450449119e-02,2.026995525067833495e-02,1.052102672394917594e-03,2.168181572187103182e-02,3.074787652469134110e-03,1.207153257919272443e-02,9.968968428289530503e-03,2.386480795377013756e-02,5.721669941051493735e-02,2.235436951516572499e-02
8.299019637634452717e-02,2.018160806276715277e-02,1.419713334606439309e-02,1.979327092137901992e-02,2.834502387672549039e-03,1.155075196673597225e-02,2.295866060138670312e-02,3.679965635756120290e-02,4.270598469087102944e-02,1.374862185564741657e-02
8.975949554018035348e-02,2.001266123903277377e-02,3.746772286767717508e-02,1.139295985481403664e-02,2.634814381336741777e-03,1.021621341696787172e-02,2.853166189895775182e-02,5.038150116208605506e-02,2.133939716398131070e-02,4.403284933254362175e-03
6.076945495431908956e-02,1.428625796217417379e-02,5.825677476867497512e-02,1.934099365681271393e-03,2.456920041192550697e-03,8.581575694517550382e-03,2.550619929562119095e-02,4.942102735962474597e-02,8.835485868057006611e-04,8.763916149658835739e-04
1.564670292665854869e-03,1.415111898311420188e-03,6.652800505636924377e-02,4.155847109700401380e-03,2.275511721212749271e-03,6.858162273274448321e-03,1.250784552196227209e-02,1.280742045286310631e-02,1.869463039428795673e-02,6.931323725785339465e-04
5.096615244034974346e-02,1.128790853805295390e-02,6.445899969979840272e-02,6.824911370051086473e-03,2.100033559157684845e-03,6.141965391275594488e-03,3.511955068370894648e-03,4.375680484184015645e-02,3.379950017115262301e-02,1.181861138193582642e-03
6.656651625854441423e-02,1.468912866059203862e-02,6.468393345868038435e-02,9.052873896338112583e-03,1.948840693009194812e-03,7.180241802582380296e-03,9.095396536418307726e-03,7.710096661795878825e-02,4.992382319019574716e-02,8.162188986455992321e-03
4.981999692453126238e-02,8.107196949464091223e-03,7.298350631667299693e-02,1.300984476643638962e-02,1.806309056766031845e-03,8.945833915628097904e-03,1.543798190582252976e-03,6.747171024583992205e-02,6.614537159923099263e-02,2.077618385684212171e-02
2.349359328987638690e-02,1.299461236835938900e-03,7.999648742415856051e-02,1.803481185252062136e-02,1.640205601047236769e-03,9.874877861278476276e-03,1.926592388895314797e-02,3.361022337732011422e-02,7.957231463112929282e-02,3.519657690564008401e-02
1.294039137938015477e-03,7.171524005914409021e-03,7.652299487645114473e-02,2.225793195525991447e-02,1.472069477769520672e-03,9.583772777955842925e-03,3.018110695476516545e-02,1.738935819990197751e-04,9.074361301580431693e-02,4.824076390363717798e-02
1.569278883748053549e-02,8.589688353222438982e-03,6.755573929810154699e-02,2.507576758703376069e-02,1.359122311025229377e-03,8.686263377393919558e-03,2.991768027261611576e-02,2.888398792650631250e-02,1.006321458820228359e-01,5.676934644837283717e-02
2.928481790559691808e-02,7.844008627578683002e-03,6.267961340651580227e-02,2.725723269327006912e-02,1.254068781641591189e-03,8.004235365494423091e-03,2.430262291325687232e-02,5.824810895838406638e-02,1.041966462469282595e-01,6.017031565714617974e-02
4.001319556920567705e-02,6.871173064146973708e-03,6.280518884232810795e-02,2.946429201704186748e-02,1.032236569510328614e-03,7.878334350579638962e-03,1.891809349999208981e-02,8.901319489437174715e-02,9.510593353612259437e-02,6.273176408452828257e-02
4.888705489966134465e-02,6.160044587274688017e-03,6.516118270358686737e-02,3.165254979362303045e-02,7.868187012876489382e-04,7.337080952754300098e-03,1.422617339197100768e-02,1.167183459998567818e-01,7.889497912371584709e-02,6.757402925009792227e-02
5.773948150749511066e-02,5.524525755560001465e-03,7.079240719926634118e-02,3.334018171369814570e-02,7.852114663734115294e-04,5.047229295156344976e-03,9.998353445770911258e-03,1.371395690377762433e-01,7.134253191861071597e-02,7.032404759488498913e-02
6.602560437139998184e-02,4.891490298487764093e-03,7.826840078328911599e-02,3.363181013410542625e-02,8.435354039950421386e-04,1.734057594287614131e-03,7.532774030125144460e-03,1.441010213155062836e-01,7.641276411024063020e-02,6.418843291279872909e-02
7.000731427761591741e-02,4.361878124385629857e-03,7.969656576970289563e-02,3.157886446860074664e-02,3.432028779878561089e-04,2.603559263208181027e-04,6.950830316044731907e-03,1.320547667196024233e-01,7.555347326967844224e-02,4.892463919687684709e-02
6.844039176225248655e-02,3.958844598484985954e-03,7.177715914333131220e-02,2.733630170349807612e-02,5.903987607183476972e-04,2.916625888123923309e-04,7.632691451567138324e-03,1.098203360425237807e-01,5.090070316011039570e-02,3.081385455514116037e-02
6.642403069081798117e-02,3.597650116018950503e-03,6.309816435335598162e-02,2.257730346420180889e-02,9.495080505056332620e-04,3.285089382718397056e-04,1.015060853888895623e-02,9.718819630777116025e-02,1.213069551946140655e-02,1.521728542142792955e-02
6.940913136378085158e-02,3.275900036396993485e-03,6.109502250935689577e-02,1.899415449865552580e-02,6.535960746441642167e-04,2.191931894934314850e-03,1.297152416858358276e-02,9.786312692742596409e-02,1.269079260183143820e-02,1.406840696930580434e-03
7.639608694653998722e-02,3.109902064100226321e-03,5.584490754800897072e-02,1.618076781838726635e-02,9.430549707863105247e-04,5.179455886318909234e-03,1.126117988245957900e-02,9.472319904569684312e-02,9.539584324318233985e-03,1.415947527682360867e-02
8.271877053586866591e-02,3.080493623490700161e-03,2.757864445460760441e-02,1.140586550746820228e-02,2.091639357174005821e-03,6.990354508050889391e-03,4.398072542312903184e-03,8.025674113737904514e-02,6.629878959348128355e-03,2.996283719556510836e-02
8.596188578051544571e-02,2.967940710794781181e-03,2.657257202340513463e-02,2.492313262748091420e-03,2.647305586222307647e-03,6.651392113946621998e-03,7.719622576168574859e-04,6.801864500313982431e-02,7.533273712561347653e-03,3.878133979351329474e-02
8.718096724627608096e-02,2.771467802457943524e-03,8.150718437013973472e-02,8.478885520714317392e-03,1.722148929303331721e-03,5.413275308693627462e-03,1.205088715410929491e-03,6.661903282475083177e-02,1.898488698931315860e-02,3.623495718297493895e-02
8.888621736211339830e-02,2.705457384105356550e-03,1.078297993711386099e-01,1.583663761400637415e-02,3.449965583068356333e-04,4.467516870031955703e-03,7.430776454342336371e-03,6.504727334382137682e-02,5.411113200711101245e-02,2.674342919931784954e-02
9.003669623445993697e-02,2.363990825433603688e-03,1.028078590238674928e-01,1.686071361652060480e-02,2.068178617036959014e-04,3.858221716341025346e-03,1.026854436508548366e-02,4.775106870128265069e-02,6.942008511206620991e-02,2.084638714865407957e-02
8.346465584218482059e-02,1.042647261676770375e-03,8.963783118262133587e-02,1.627629543212097407e-02,1.888340563995736469e-03,4.146561954822036537e-03,4.583564032030578751e-03,9.500420823037184284e-03,6.339399253445235360e-02,2.698248719946733098e-02
6.583389016911533886e-02,3.628854195113893509e-04,8.817209370527905044e-02,2.045099829081230974e-02,4.001696552569482257e-03,6.005162027963134065e-03,6.729911349284255044e-03,3.953789147369030782e-02,6.145274436601988466e-02,4.209042404205276533e-02
4.757974073609393811e-02,2.127691429366187809e-04,9.527462847878312435e-02,2.809546828806939317e-02,4.350511031143119815e-03,7.622458271147134617e-03,1.364272002825493366e-02,7.459213633024322498e-02,7.707301971360118464e-02,5.148167216435187155e-02
4.321775921378463031e-02,2.725278699780789120e-03,9.541205095474800113e-02,3.175147859807617157e-02,2.684646713717916532e-03,6.108133380110582732e-03,9.119288398583046476e-03,7.236246402620444274e-02,9.329084572169224487e-02,4.396791173670648589e-02
5.725211306804459110e-02,4.807332257891683801e-03,8.185169544565372435e-02,2.792871066998706131e-02,1.075377431155010756e-03,1.781144355363124690e-03,4.261637086633286893e-03,3.051040638702284119e-02,8.918777598816293728e-02,2.441545520176390330e-02
8.535101977108153215e-02,5.409023112301820403e-03,5.986486352744924827e-02,2.015263973297786240e-02,8.839155650990252822e-04,2.234934897899833097e-03,2.121926164350730962e-02,3.408774733915457406e-02,6.502088713219410232e-02,5.908968999993092358e-03
1.161085508888440448e-01,5.584647123438325408e-03,3.430468269562780836e-02,1.232439879147848374e-02,1.299858248551969244e-03,4.061423969365689050e-03,3.939783058285977607e-02,9.689659353203076975e-02,3.386309645693706682e-02,4.503446549564739561e-03
1.301194125242935429e-01,5.755641828406955589e-03,6.870085385318176405e-03,4.960620891955748631e-03,1.359065474367623537e-03,3.594260772027447343e-03,5.279466882764200647e-02,1.297775322498070927e-01,4.568989846818221311e-03,6.982036769299801438e-03
1.172587901750168360e-01,5.456239173370650182e-03,1.462208182017376776e-02,1.559178968843443012e-03,1.232936592747081034e-03,7.466695107145783104e-04,5.061003587787497177e-02,1.134423872737833905e-01,2.042968280172851453e-02,4.428594978385025013e-03
8.913365811621024037e-02,4.974874528642421294e-03,1.950455298329616810e-02,5.293318481444690519e-03,1.114702841815597882e-03,3.501628665019638435e-03,3.145267509287728858e-02,5.604812955175858535e-02,3.942725131460875221e-02,2.381747750698757961e-03
5.159193613571596421e-02,3.902214720646607696e-03,9.422794041606532417e-03,5.363646621930535409e-03,7.979398722456276186e-04,6.507377468668837199e-03,9.311651253207004625e-03,1.664599890428527379e-02,4.586748824914517464e-02,5.122765913802072683e-03
1.263564607146051497e-02,3.363267988784302779e-04,5.596185342697629003e-03,2.301938959203967891e-03,7.043729275166672960e-04,7.262981412565024629e-03,2.475325825219132185e-03,8.746664838912208972e-02,2.832237721102032896e-02,9.002849882973503609e-03
1.016249457883676571e-01,8.688746296211349515e-03,2.698313296467459363e-02,4.678475195261454223e-03,1.538425439789948331e-03,7.656006453182922535e-03,3.941108992110407307e-03,1.438482466261050419e-01,1.639425104103060804e-02,7.600123725503554230e-03
1.668254887688145061e-01,1.663247210845952145e-02,6.332187541003685138e-02,1.653640030080207393e-02,2.633257240464006738e-03,8.580031274122060236e-03,1.997141956976335869e-04,1.626156851938113101e-01,7.092734345787558847e-02,2.153114376314354487e-03
1.656726564472300878e-01,1.759986773787518277e-02,1.048338537568032636e-01,2.966885125461798250e-02,2.466233004847153895e-03,8.128664020035241550e-03,1.074657560327899053e-02,1.288462923471786481e-01,1.086552843419686387e-01,1.386079792283349084e-03
1.122663132884767212e-01,9.891598163351953202e-03,1.245841712896889886e-01,3.652031692878927177e-02,1.046756200882000519e-03,5.091255935179298843e-03,2.957826061383580368e-02,5.735883932666437091e-02,1.164216992915424742e-01,1.049811544859332452e-03
4.811266599443914799e-02,1.436936872800873444e-03,1.095295159362783682e-01,3.266671732413706924e-02,8.493950761326069139e-05,1.038457088639162858e-03,5.316843547748985321e-02,2.567049572932085175e-02,9.965437175852828733e-02,2.421090074625196955e-03
7.459030598237572501e-03,9.521078744525504275e-03,7.345978089790042298e-02,2.073647825635940509e-02,2.759404812966201976e-04,2.050068793121431754e-03,7.406852072814155974e-02,1.021714657067352983e-01,7.042648707181980994e-02,8.486542209427311995e-03
5.664970778812065261e-02,1.203720093175683278e-02,3.733364405853628609e-02,6.834122554188301786e-03,2.743466664826631858e-04,3.759106349108131632e-03,8.533966349977914478e-02,1.499075893024336692e-01,3.724419660224145834e-02,1.358277320434175990e-02
9.880971025068038815e-02,1.200707075028805554e-02,9.644288568456990673e-03,4.647349587566505270e-03,4.664688567170295055e-04,4.540132007018511315e-03,8.526353752529967911e-02,1.451259263402446265e-01,3.197740168683771509e-03,1.301025924364894275e-02
1.278156872156981372e-01,1.247115662286972515e-02,1.276820175972117645e-02,1.281404891324522399e-02,5.308389709589840608e-04,4.881758144933409822e-03,7.825232568357586016e-02,9.702885456780589724e-02,2.959788351786549893e-02,8.595458054974573769e-03
1.457628810879429693e-01,1.297204360076199998e-02,3.304571494692111477e-02,1.881254171836517150e-02,7.194084152890207768e-04,5.170178900955378111e-03,6.449546955270502036e-02,4.788394784136812410e-02,5.419130219174465163e-02,6.698971886187088734e-03
1.653994189472160758e-01,1.282648377709838701e-02,4.764264578058811234e-02,2.318838320152668414e-02,1.447839226869253662e-03,5.174033479940621724e-03,3.124214377489693828e-02,2.462400570311430031e-02,6.155646826885553813e-02,7.667612014517538946e-03
1.872519452615068192e-01,1.403250767278576248e-02,5.131492126605118054e-02,2.505601241570764443e-02,1.635169606898583591e-03,3.779893441467214663e-03,3.192833711743675584e-02,1.707211344951740928e-02,5.221601986505284426e-02,5.027543440541442504e-03
1.740061334869953957e-01,1.649213424489160557e-02,4.571010601123944028e-02,2.398019310386378944e-02,1.030133529328395811e-04,1.152769249979251377e-04,1.095030025148561181e-01,4.325409481470865458e-03,3.995931141023929822e-02,3.126754054833222850e-03
7.639572819292635153e-02,1.365881255143654681e-02,3.869498070634229403e-02,2.115631481899585969e-02,2.419965415761938816e-03,4.919371344471025129e-03,1.671233418737168575e-01,2.133812743271050472e-02,3.901940437871155576e-02,9.247624573825418900e-03
9.260094397277932043e-02,2.369391205837775849e-04,3.594980717096769862e-02,1.792521897810465253e-02,2.336962771751638877e-03,8.641629388706297682e-03,1.839543963439947694e-01,4.846095989505112833e-02,5.013921321343631221e-02,6.616486223322473777e-03
2.396689262899916462e-01,1.716643100741124806e-02,3.701262017232226365e-02,1.477146907357597579e-02,2.862047490404476409e-04,8.471265296126366875e-03,1.667144365163173714e-01,5.282366671735919117e-02,6.300880332031166819e-02,1.473213334536571531e-03
2.841857287678594690e-01,2.569341591217585638e-02,3.898007651833008957e-02,1.252736680620914443e-02,2.468650389041396071e-03,4.453476882579354701e-03,1.348705887619566779e-01,2.807953297086495173e-02,7.054908724204486670e-02,7.536465967266335608e-03
2.465235323660742994e-01,2.258870585235113124e-02,3.967822170444306601e-02,1.223194453885635864e-02,2.493867606332421643e-03,8.071855235664797802e-05,1.046178968822419203e-01,8.352903065477245217e-03,7.443494041159598451e-02,9.777160226275205188e-03
2.064833927786018930e-01,1.676807850300088970e-02,3.654502711627303363e-02,1.285496368399143864e-02,1.741585292906203336e-03,8.410164292730775738e-04,8.356135850926288411e-02,3.094442091589690719e-02,7.480175327558237497e-02,1.128814091096856133e-02
1.980664075104635324e-01,1.374548503637506441e-02,2.816671566328503643e-02,1.206523770707903544e-02,1.971559452445921339e-03,1.268794657906621281e-03,6.890852371399507070e-02,8.086205451547945344e-02,6.465202319532087349e-02,1.302315347145409884e-02
1.930819234770222159e-01,1.027110501292591987e-02,1.848297488928104387e-02,9.708148501761725696e-03,2.804278107220630270e-03,2.596279584789746523e-03,5.284580704952926422e-02,1.079039359457592551e-01,4.130938668288309384e-02,1.134200057611018005e-02
1.722888745665587806e-01,6.151129035528670255e-03,1.243607884560989606e-02,6.977116664698089325e-03,2.499302572578100939e-03,1.765295371059674148e-03,3.562813257549012069e-02,9.651789084896103543e-02,1.235273290552625289e-02,1.682544063235320636e-03
1.522927335901190504e-01,7.852225089776454503e-03,8.966598533117830366e-03,3.366691526444914786e-03,7.499290196751141674e-04,1.223596875624677121e-03,2.635037583660193583e-02,7.698150100963468967e-02,1.574465825044277234e-02,1.517461417791483164e-02
1.401108527696997286e-01,1.482962248431331058e-02,7.898726863153956307e-03,9.287663424792089780e-04,3.074357411388572081e-04,1.922485301250171112e-03,2.637162884792885326e-02,6.710213936627890119e-02,4.107747997200522638e-02,3.024343365897948568e-02
1.187082783817164228e-01,1.665937698241515968e-02,1.489179367492956922e-02,2.888783360405790517e-03,9.843938694463164486e-04,1.255778334395136293e-03,2.397019530744799037e-02,5.548100706070070720e-02,5.646627013663035183e-02,3.310753727936271984e-02
8.695154641966647280e-02,1.150155290153855384e-02,2.482747795890645828e-02,2.357402531428770109e-03,2.892250180713453606e-03,1.839254351185671058e-03,1.239475188483501675e-02,4.865129585284489605e-02,5.362634871259294722e-02,2.259701615023599827e-02
6.537023571363431707e-02,1.238204903684173887e-02,1.644230750190538853e-02,4.585277732838196826e-03,2.386250458936892745e-03,4.209959739358653391e-03,1.278628249885852865e-03,7.578264288573471896e-02,3.717843371902353200e-02,6.840445012845777079e-03
5.881797626263422785e-02,2.636946964998474613e-02,1.648045300270888774e-02,1.144976766380727436e-02,6.584407266703172805e-04,3.153071345027729823e-03,2.297474587586258166e-03,1.345953197624809305e-01,1.800553566161320826e-02,6.623141998660144955e-03
5.593562014204066929e-02,4.258059050615460583e-02,4.805306438423533055e-02,1.677739196410766784e-02,3.752975497250650352e-03,1.807747851045871101e-05,1.314435762737626787e-02,1.850260150597435316e-01,2.789842379704258329e-03,1.434425426858924879e-02
5.998606823652113257e-02,4.927264452601157890e-02,5.524714673907701878e-02,1.605068736456137166e-02,5.726303874256094897e-03,2.915122894399896619e-03,2.275385478442300616e-02,2.056052338974203308e-01,2.480585258320635450e-02,1.202453534394435156e-02
7.911794094138463462e-02,4.859305810187716096e-02,4.904202126618276841e-02,1.425123604723859891e-02,7.595476390809781549e-03,5.255317201451336316e-03,2.511395215832628106e-02,2.127752797646166316e-01,3.042800875864047280e-02,3.235711577285072665e-03
9.369673667685375629e-02,4.688948591785235126e-02,5.106675654091587940e-02,1.882963630372726238e-02,9.429848168415078113e-03,7.333203157643874461e-03,2.136117872822795860e-02,2.190249655948209306e-01,1.468338638987362176e-03,2.357052698262519438e-02
7.303137239696419480e-02,4.257018878849772037e-02,5.970971661717263540e-02,2.972948858390260865e-02,9.240902437277712794e-03,7.839066098369453645e-03,1.350471552029675580e-02,2.088136619886878376e-01,4.836355595484492093e-02,3.364566162169166375e-02
2.236497974089811033e-02,3.080581269932343436e-02,5.917665321270942219e-02,4.001164870996398032e-02,5.946419175191315111e-03,5.212588318209316306e-03,3.099061511531590700e-03,1.669003559175339935e-01,8.424721564834311560e-02,2.761536521680792514e-02
2.232559261152342392e-02,1.279726590037024055e-02,4.588356409813936637e-02,4.285163241147106616e-02,1.362669739685893429e-03,2.259638884042725971e-04,7.132179993224867579e-03,1.060107335562022607e-01,9.286871150556681720e-02,1.493801109059581488e-02
4.706359065276467107e-02,5.167681822004856033e-03,2.768343876392390449e-02,3.611679937627468306e-02,1.808106154746564817e-03,4.343804510350430040e-03,1.665095392263260185e-02,5.170215840693398457e-02,8.839058192975134121e-02,6.370935924242968930e-03
6.973360246254978190e-02,1.857174112047076803e-02,9.187333966040501718e-03,2.337405555554825792e-02,2.807733347754728850e-03,6.703772245841838409e-03,2.897227540094155646e-02,1.264946292073541520e-02,7.990342639753580944e-02,1.861182525932056657e-03
9.141422058017786845e-02,2.677579085157696936e-02,6.687698629173568013e-03,1.163316824835727847e-02,2.803655830234938039e-03,7.476841689153622753e-03,4.514561288822308005e-02,1.994091221034552733e-02,6.173281981143764752e-02,4.607425821357730156e-03
7.841686929277558171e-02,2.902251486338227118e-02,1.220465507566367673e-02,5.692176552390690661e-03,2.726724669367843520e-03,7.594420672855037475e-03,5.951911567129584274e-02,4.967853289803066813e-02,3.506512798494716004e-02,1.474559604602154565e-02
1.022757189318086388e-02,2.251132426492288841e-02,3.077689384138049267e-03,4.331133433610888546e-03,2.226746379774057188e-03,6.343526938430789179e-03,6.587136294666473546e-02,6.500035215265151378e-02,1.370913028190244055e-02,2.401023397075097154e-02
8.362881913408712342e-02,7.571377643722561161e-03,1.239209884822226743e-02,3.291026339038822038e-03,7.202934739006301062e-04,2.899334009839208814e-03,6.290091923109748795e-02,5.241140456537543568e-02,5.370474636540369107e-03,2.642190362061094810e-02
1.546397062948862144e-01,8.339933484618641119e-03,2.124411809681401447e-02,7.658138706675742327e-04,1.502829595648968314e-03,1.604098097282210481e-03,5.188124067106156256e-02,1.201595094885823944e-02,3.265514012070792459e-03,2.010140687866517756e-02
1.856577440313482985e-01,1.694836758580095179e-02,1.900639302190203564e-02,1.653203705847914413e-03,3.278222703921169524e-03,5.085623636063158794e-03,3.566460509897954878e-02,4.202921872095699563e-02,2.768850577909657412e-03,9.614413765568444181e-03
1.893572935626577358e-01,1.762170173363741127e-02,1.013917872866025582e-02,2.187907016320422664e-03,3.307189726697398746e-03,6.544641224072362574e-03,2.127803633194886093e-02,9.047308489714085689e-02,1.664727220928073279e-02,1.276091824250704613e-03
1.690898885555708331e-01,1.478504661373085394e-02,7.858831219210497777e-04,6.620725311812074038e-04,1.599221896450400086e-03,6.097382982730652212e-03,1.601655311645289875e-02,1.155113185246666313e-01,3.395783087326899319e-02,4.393292301889751075e-03
1.131866731825411920e-01,9.815777008404077270e-03,4.424491558687985646e-03,2.712744364076474270e-03,2.039838773005356320e-04,4.079632396843391184e-03,1.913774969424255484e-02,1.070023006852936220e-01,4.184757936852740584e-02,1.149159429173673974e-02
3.237376325009169026e-02,1.689987471580920147e-03,3.810363756941306281e-03,7.515096629520828450e-03,1.146516725995991824e-03,1.014690707920630052e-03,2.272930810710282676e-02,7.161189846404610038e-02,2.816595069822964981e-02,2.019306465373544787e-02
2.920810849184188318e-02,6.804253417600924017e-03,1.387988361742135100e-03,1.136456729564932523e-02,3.666528324281059965e-03,2.036623269501476683e-03,2.160678585514161365e-02,3.119152431525893179e-02,1.809583262217881981e-03,2.530197069720791642e-02
4.181963971736239044e-02,1.109351805110338381e-02,4.747226305951617563e-03,1.087446647792685191e-02,4.854310296851023498e-03,3.936228116676793176e-03,1.899773047958651720e-02,2.544210933833057197e-03,2.595789788809180904e-02,2.336876696321464608e-02
2.888741104164546658e-02,1.226418026220887914e-02,1.744602415712600413e-02,5.154645129296686439e-03,3.001078407703527962e-03,4.599309209642319339e-03,2.125071490651916570e-02,1.768919159612535735e-02,2.836287022450332748e-02,1.590751160096882943e-02
3.444395297069878514e-02,1.546350829777084525e-02,3.513707363197751676e-02,3.777326959976230573e-03,6.134679254157336540e-04,5.047612818408973336e-03,2.734993018679061916e-02,4.186265751433621007e-02,1.340860790910845986e-02,6.743022716875747558e-03
7.067660820677171274e-02,2.146361754727040341e-02,5.043478562707054413e-02,1.343446112213001788e-02,3.357605140364234610e-03,5.813489223541227005e-03,2.680339297192082734e-02,7.430548999559202783e-02,5.669767712736917264e-03,5.106465798944189588e-04
1.217750259642148836e-01,2.595269551000150415e-02,6.123763826912190927e-02,2.171944415974112058e-02,4.036918606984947130e-03,6.306645684978468523e-03,1.271815506803153535e-02,1.126699917539209506e-01,2.200426392510268156e-02,6.982512140504910838e-04
1.740462070112196724e-01,2.628192975870749862e-02,7.209614636216354899e-02,2.705658213013249422e-02,3.586785741745626178e-03,6.327209509406405384e-03,5.797219061155148810e-03,1.532866108656252835e-01,3.577415398522496015e-02,5.157501141860105359e-03
2.133907471810071454e-01,2.426353558722143047e-02,8.436066396766014885e-02,2.954216165340143793e-02,3.407619979815462025e-03,6.547650075895638209e-03,1.228742698522533247e-02,1.866275601327581635e-01,4.834313395177328859e-02,6.972187752726160398e-03
2.196979023040267764e-01,2.305047230296779215e-02,8.791342952089920004e-02,3.026722899671934267e-02,3.795472327659593290e-03,6.921240225068543174e-03,3.155402054267592016e-03,1.996686498215934358e-01,5.991302515534742412e-02,2.442656172755289755e-03
1.886607936702506261e-01,2.283394909194916972e-02,7.061291382063834832e-02,2.867090653371627204e-02,3.942207852081986222e-03,6.403636487643955474e-03,8.259399800715081646e-03,1.876744047202221488e-01,6.937734161240280417e-02,5.161514362994434717e-03
1.341987007319178915e-01,1.898641405325376605e-02,3.563174004411558821e-02,2.297182548443954878e-02,3.057499721450267129e-03,4.344145584558589679e-03,7.987948830706236361e-03,1.534574964752015436e-01,7.495623155431795082e-02,1.098038635429860084e-02
6.352290460303948449e-02,6.967523887563650820e-03,6.356156349356604368e-04,1.409468075292855636e-02,1.527971897640315307e-03,7.461652613062672284e-04,4.090848893180919210e-03,9.985299904602763787e-02,7.642441982672486256e-02,1.405423585555753453e-02
1.567313142306821921e-02,9.430072491756608805e-03,2.103357049994501043e-02,6.498068559222517325e-03,7.511445290092533169e-04,3.902930053249552104e-03,1.700003067666351966e-02,3.756407954733392840e-02,7.536271884549174127e-02,1.601254673460494535e-02
7.080699481399074791e-02,1.966105397700407958e-02,3.023009800160720434e-02,3.600265969932372762e-03,1.473370736372059137e-03,7.854523663887098481e-03,2.090489090945635287e-02,7.915975219676671393e-03,7.209138283583285678e-02,1.717292194542640454e-02
6.826926712656139484e-02,1.791560320787640923e-02,3.253817339555760413e-02,4.666201394157066390e-03,2.832734137329429025e-03,8.715055639857019129e-03,1.381300462540236904e-02,1.437683532864005714e-02,6.690622498566135834e-02,1.668397919484411462e-02
1.348194913894768324e-02,7.645187844523167013e-03,2.758478270278457226e-02,7.793049485219329803e-03,3.567868020940430894e-03,5.929451323367896341e-03,4.522188672932657416e-04,1.584049930874047510e-02,6.582244444871980515e-02,1.589426638122333479e-02
6.011782216864369061e-02,5.193651143256495725e-03,1.216872022189848489e-02,1.316033294172874735e-02,3.466981703050609539e-03,1.325349124329405250e-03,1.594975996379193947e-02,6.026602826628195408e-02,7.491462164673151625e-02,1.838876237835765023e-02
1.259014572910360785e-01,1.658122125320985948e-02,9.770650661406754534e-03,2.040553309263212073e-02,3.090169307699117303e-03,3.156199556118607485e-03,2.618023704620625614e-02,9.569417545262164093e-02,8.306096762937691114e-02,2.458069061258112351e-02
1.708460328908678605e-01,2.260463179333832215e-02,2.567562755639742761e-02,2.495269107431857813e-02,2.896497336077288442e-03,6.620820639298681184e-03,2.631667993676641351e-02,1.112730482282773409e-01,6.399603880426356362e-02,2.823066031677029172e-02
1.867430193569385999e-01,2.070539537374981032e-02,2.536170226148915310e-02,2.127468196207036102e-02,3.078068860985505324e-03,8.124176098120829484e-03,1.715173183305188781e-02,1.100145658210767985e-01,8.128213008384576471e-03,2.254316346649583649e-02
1.697457020063610766e-01,1.402516539690947146e-02,1.193222084082850090e-02,9.833727624562813366e-03,3.315801989206775685e-03,6.888800073782007892e-03,5.828728619131841315e-03,9.898547930195078504e-02,5.827295653135360770e-02,9.683992852111245053e-03
1.230394340394530828e-01,9.392288306540050660e-03,1.970506660615319299e-03,2.772265971500977207e-03,2.504632616621703910e-03,4.163065282471416564e-03,2.646437086175398162e-04,7.848040911424580823e-02,9.860144704327418463e-02,8.937546509991435573e-04
5.702775653654832549e-02,9.659196108074414103e-03,7.935936285384206923e-03,1.093781484676488100e-02,1.571307965765905592e-04,2.248801928678978261e-03,8.806364409115288207e-04,4.700561245881467592e-02,1.019244293760741549e-01,3.938673672665702827e-03
1.255326376662182532e-02,1.120662225197191324e-02,6.981887916082942999e-03,1.413629399173669740e-02,3.662267074917510863e-03,1.080920204778978034e-03,1.905775332926313865e-03,1.432459533520414816e-02,8.302028262563633521e-02,2.177365818127949184e-03
6.850620946116944832e-02,1.014612286831844193e-02,2.917531906755169331e-03,1.396003300939922809e-02,5.700230275664446705e-03,1.276343486902071275e-03,6.048850759970973018e-03,7.983618329548865244e-04,5.746090809081025319e-02,8.073142222845804475e-04
9.406785791936914110e-02,8.227317442987483118e-03,2.080047800976194457e-03,1.078897055246725439e-02,4.784209769781444521e-03,4.228429895674821332e-03,8.002914625438803040e-03,1.302291024486302781e-02,3.090674708837958320e-02,4.484819248580748999e-03
7.642821603013506826e-02,9.995202081488949175e-03,5.554920098953418026e-03,4.577517483805168368e-03,1.618852622095253834e-03,4.377002608142656521e-03,2.219701999437418815e-03,4.885863008067181656e-02,7.854843154790158363e-03,8.687730661090010270e-03
1.878574402481983721e-02,1.580694703407452620e-02,5.094925464256342719e-03,2.988954348762067233e-03,1.495776765581441868e-03,6.635438108725766034e-04,8.195465814129165860e-03,8.537081650838446167e-02,2.462268858491454236e-03,1.231290787072739437e-02
5.306850649592369934e-02,2.137602710181287641e-02,1.882938520794778412e-03,8.475327380109165878e-03,2.775713970857985984e-03,3.751415220145473597e-03,1.614981162283272986e-02,1.029119454131078443e-01,6.218258630469447427e-03,1.399802618553137867e-02
1.077189093797879804e-01,2.375876330994752816e-02,9.279568669015797813e-05,9.136874009796965013e-03,2.524126711103403392e-03,5.881147633600247553e-03,2.067175106292263448e-02,9.962933501616048904e-02,2.570037272539745302e-02,1.211624672261645344e-02
1.338524844744503339e-01,2.399869318012883349e-02,6.386523524889559621e-04,5.262697289606810096e-03,2.206359971363526257e-03,5.982149714163243273e-03,2.453285910350723464e-02,8.991740388781543913e-02,3.752664600198051675e-02,6.036611771955627780e-03
1.420237555956887221e-01,2.333238094408884508e-02,2.352896485334991968e-03,3.644500597190202516e-04,2.388426571946261536e-03,5.292216452331480192e-03,2.481923132229681833e-02,8.591271016359236512e-02,3.631378204378724051e-02,2.259861625798512130e-03
1.404195905380960785e-01,2.029637442241491452e-02,1.432652981031818686e-02,4.803623821276894502e-03,2.455417096595361153e-03,3.597229326906302340e-03,1.579712452358112557e-02,8.718720536218015071e-02,3.944527503129597462e-02,9.557568693256754747e-03
1.185993688271952257e-01,1.311410271332822536e-02,3.000593090904411092e-02,6.048751866867159432e-03,1.904665785323498336e-03,1.510094555277403017e-04,5.644384886174827433e-04,8.717590544951904497e-02,6.034164741879730065e-02,1.406797746049482517e-02
6.245329505837535905e-02,2.272407333481365078e-03,3.737590399372721361e-02,3.391303632184572078e-03,7.961708287125186540e-04,4.882408733682844053e-03,1.725842684866484011e-02,7.412921876405854926e-02,8.457592843958641748e-02,1.637137035468231444e-02
1.670457238367584196e-02,1.031413686902917654e-02,3.257528821534320246e-02,1.851513584317451356e-03,7.633430984989625530e-04,1.048383447092493884e-02,3.282134789073595793e-02,2.961105190926365330e-02,8.950413453837982591e-02,1.858161945229776235e-02
7.741843436741799311e-02,2.184011689077904050e-02,2.224896545606359216e-02,7.539282670043222744e-03,2.325356695095019948e-03,1.498513613645478630e-02,4.811645110420517679e-02,4.768329523618116544e-02,7.441957600212235902e-02,2.195507146304655557e-02
8.355210022589676377e-02,2.820110114764127693e-02,1.117016158718083484e-02,1.296150878909453977e-02,2.650950641889090933e-03,1.650236135522931136e-02,5.697249768832309685e-02,1.204014340985048725e-01,5.433452748474259381e-02,2.474052550175123363e-02
4.009892400618347841e-02,2.633149611103005605e-02,1.845979594351938955e-03,1.747987671333989246e-02,1.088669361501927143e-03,1.448885235584039706e-02,5.215341218276838692e-02,1.432293803351392669e-01,3.641399600745789250e-02,2.381268135990104520e-02
1.985045802856712921e-02,1.677828420323936032e-02,1.570227489651172814e-02,1.858671457305207525e-02,1.168201516074691016e-03,1.014572427428935171e-02,3.605005745861056959e-02,1.107972197201261971e-01,1.793031891076716719e-02,1.865561409852295807e-02
6.997190542495737575e-02,2.956506296507829812e-03,2.549820267577299071e-02,1.535374606301195127e-02,2.751038936299351340e-03,4.547601189643681908e-03,1.607716553991210204e-02,5.700074651852573421e-02,1.582655363767847961e-03,1.186127802315722034e-02
8.920250316024835868e-02,9.125294162229994135e-03,2.857747793147042900e-02,1.065342046623897823e-02,3.563534594431915729e-03,1.555652693962090299e-03,3.497338582701584909e-03,2.011769013786314161e-02,1.778988615530430889e-02,5.491123761393994392e-03
4.880941623710814692e-02,1.123776329811687277e-02,2.337769338220532789e-02,5.579321031838720829e-03,2.902057046284735146e-03,5.270403238205203719e-03,1.777017827543004441e-02,2.028532370740080554e-02,2.697075210339794013e-02,7.320079048714138144e-04
5.690247621776348130e-02,1.780815850220404326e-04,7.603542020085444185e-03,2.957755639703026507e-03,9.340847501318960081e-04,2.588002926247999578e-03,1.892330652450380929e-02,5.301114413557472815e-02,2.961128732804497316e-02,6.401425081758784288e-03
1.767205934643733545e-01,1.498581425342725149e-02,1.337789272304691635e-02,1.489857256757532063e-02,6.828538928263293804e-03,5.869684427319913841e-03,6.156186885712005598e-03,9.290746235860961044e-02,3.067310893051288651e-02,8.021436359578746830e-03
2.392924005639600893e-01,2.081551037623230807e-02,2.588905352217322695e-02,2.467501286327297011e-02,1.039686952223276180e-02,1.355485412941199140e-02,9.493045661796643830e-03,1.134079879512072814e-01,3.461081330512468662e-02,3.005751142971747371e-03
2.245796051805416527e-01,1.536354148211183622e-02,2.492234633866646787e-02,2.967565375794483512e-02,9.876114558629960072e-03,1.514818248338579976e-02,1.697074348481637449e-02,1.077399895438555522e-01,3.925436476253846979e-02,4.890694018903343418e-03
1.707712758023043897e-01,8.553330815418556943e-03,2.004092580713260144e-02,3.304263334345437786e-02,8.309216697888963110e-03,1.207434134664136030e-02,1.672260571498844148e-02,8.874614088714645466e-02,4.003127690598409089e-02,8.752710554905618334e-03
1.167056757037584908e-01,6.846599289054748974e-03,1.794231804467807945e-02,3.618584744080266535e-02,7.842097211281668506e-03,8.429885902605216072e-03,1.621769899014500332e-02,7.322864907506722310e-02,3.866540812954735729e-02,7.271973864660342610e-03
7.204327415398809054e-02,6.485722935315938603e-03,1.349819414660204456e-02,3.641415522728536081e-02,6.583393738531084262e-03,4.796652259616140425e-03,1.814437520485398178e-02,6.925855558647363297e-02,3.884124702520011518e-02,4.918919978675759253e-03
3.943105126621351125e-02,3.106192066372148904e-03,3.386306092337252813e-03,3.256545946084346554e-02,3.013315190206276428e-03,5.081992049066592172e-04,1.724337142643264653e-02,7.286564018931733500e-02,3.645682096535574068e-02,3.571100127881028478e-03
2.448962786176093337e-02,1.237940250503627698e-03,4.925933406354456555e-03,2.661586980273835876e-02,9.214694616786731117e-04,6.663169569242201155e-03,8.028013333249022637e-03,7.438709810186566740e-02,2.557499119641575003e-02,1.486521750754774517e-03
1.682758495480654246e-02,3.917837543486097675e-03,3.398671862070752267e-03,1.999141722110414285e-02,2.860418380052980828e-03,1.067486814022805888e-02,7.459984190056994681e-03,6.855904476434046546e-02,1.134158013063717857e-02,1.583631873870126059e-04
6.133206029785308322e-03,6.617163430453257798e-03,5.333909419802444936e-03,1.236350569742088353e-02,2.984167689661818348e-03,1.147837659525520124e-02,2.150710878576758689e-02,5.579463139383454562e-02,5.856802246052428794e-03,2.721889332531803214e-03
4.409901678486249921e-02,9.367415388670610049e-03,1.090945456742276748e-02,3.421858786178112039e-03,2.749682580549822446e-03,1.088616269799373183e-02,2.893022246943210973e-02,3.637312015148794209e-02,1.336170109841891204e-02,6.034606477687230568e-03
6.697380156290953790e-02,6.555144443437738513e-03,6.102646892174101723e-03,6.073470107497385209e-03,2.771891030170353480e-03,1.069152633026474071e-02,3.085218889156783606e-02,9.197368657494462557e-03,2.842729617599249262e-02,3.897439478436783619e-03
6.158680184729693058e-02,3.589213578535291674e-03,7.963286639081088372e-03,1.433051126632323494e-02,2.821920025277483129e-03,1.079469226229570061e-02,3.131482886321541870e-02,2.771806408976700692e-02,4.510887933731984323e-02,3.404665087783567603e-03
6.254716893307316061e-02,1.131589792261762130e-02,2.515736811057108988e-02,1.940775777240813516e-02,2.745323707783407872e-03,1.048419646532105891e-02,3.295553303414198304e-02,7.546613648995738333e-02,5.948580808012241677e-02,1.112957264546887183e-02
1.013160725332288847e-01,7.379373896220324351e-03,3.807125872301277830e-02,2.088147803892282522e-02,2.650116763438951049e-03,1.011512935897645495e-02,3.505344141589725876e-02,1.214150716017835113e-01,6.837002901418320899e-02,1.808776762927971973e-02
1.411563807850183816e-01,1.690995170403627014e-03,3.975041034122632488e-02,2.030862603364403871e-02,2.608910924822680118e-03,1.036639486788702713e-02,3.352908938113051407e-02,1.350423131064413806e-01,7.438440352566609570e-02,2.495962114375069665e-02
1.128374062760050117e-01,1.799200555806211967e-03,2.828834348690253617e-02,1.937058997753700329e-02,2.587258773675702762e-03,1.040845254388796451e-02,2.459595508638406924e-02,9.808883635425691416e-02,8.433320830135930535e-02,2.831117524394998961e-02
1.249339724130055229e-02,8.480109350114584457e-03,9.951053153994901534e-03,1.763151312262204937e-02,2.546154143876487239e-03,8.577213440611807654e-03,1.040227644259411610e-02,3.200029763435536384e-02,9.108923978564767432e-02,2.288852472505530436e-02
8.347653519340215988e-02,1.701678686486393297e-02,6.470282038348989725e-03,1.266304221076111625e-02,2.472113601964747755e-03,5.144934724754939535e-03,1.458898319527743379e-03,2.422589322943021276e-02,6.975854278211478243e-02,8.517178209435288805e-03
1.074190388835098153e-01,1.561036303258996408e-02,1.761908108118246524e-02,3.376137333775997701e-03,2.397642974262888423e-03,2.374133493166966091e-03,6.187644585992605958e-03,5.333116760162590064e-02,1.048120739962501297e-02,8.352235347322453304e-03
6.989978670604217459e-02,9.016915623038447569e-03,2.608622499099413905e-02,7.009435623752712299e-03,2.396849459181903813e-03,1.317935018284430940e-03,6.521957278763924372e-03,6.312224215888315171e-02,5.722814552381371572e-02,1.932128117872338943e-02
2.899976494690337248e-02,6.209890656092733122e-03,3.407136518961145083e-02,1.344738698617074270e-02,2.430644944514578562e-03,1.039653215374156201e-03,6.421757738710621478e-03,6.285899799920749431e-02,9.352012591298015931e-02,1.999894991897194912e-02
1.297366545972271183e-02,8.599766549784211220e-03,3.750608604092352250e-02,1.470370517915056512e-02,2.322683045428058316e-03,1.238952077950767781e-03,4.071014461716517853e-03,4.966421562140465457e-02,9.010238773317516547e-02,1.310569629190689103e-02
3.387845467240399588e-03,1.002629029332472409e-02,2.974063194795237286e-02,1.406896700741848763e-02,2.143383204329288739e-03,2.313828349817056377e-03,2.959104981647871658e-03,2.006741219544012217e-02,6.657409031979763525e-02,6.036021375284883819e-03
4.137629728468344981e-03,7.019735607199053228e-03,1.332907446994038153e-02,1.441471835586748476e-02,2.294960689560805126e-03,2.637885771482473361e-03,8.985528842006528308e-03,9.587738951010628050e-03,4.005435983402768491e-02,3.849923495305280618e-03
2.678825724664034291e-02,3.966313163362192654e-03,6.764888082404035786e-04,1.517446724833253907e-02,2.624281018222915807e-03,2.066471857229620901e-04,5.262787869069791499e-03,1.039410980888039529e-02,1.510928653689817304e-02,5.013618992974336504e-03
1.050961453551669117e-01,5.430553869844232523e-03,2.882428829527136464e-03,1.421763496583018128e-02,1.947566178454348922e-03,5.220222534521564220e-03,7.896397536892293956e-03,2.349280265512099924e-02,8.738301548958729570e-03,5.711215244985765570e-03
1.689513609044782372e-01,8.734557098074280032e-03,6.718710316473541083e-03,1.032265328467037516e-02,3.439464179336794479e-04,8.956641446467825812e-03,2.219390287253016764e-02,6.338175144907542968e-02,3.304281991406007174e-02,6.127104337614231247e-03
1.621541784880545789e-01,9.013873384163128763e-03,1.721929631838764810e-02,3.899295005163957474e-03,2.570693630856515227e-03,1.042413267274167402e-02,3.181543489777539924e-02,7.727293734612732112e-02,5.506723500357192658e-02,8.332662317679069910e-03
1.112566324441394139e-01,7.341639989081485615e-03,2.395169155714123310e-02,2.954426237758995665e-03,2.394577601140653045e-03,1.120305959623276067e-02,3.518538699572140022e-02,5.637333372471514670e-02,6.102242187071080237e-02,1.034702803392467847e-02
7.721672856351630143e-02,8.384713852012618679e-03,1.536802606306842713e-02,7.577919425576761132e-03,1.154341799696866479e-04,1.146019905222604718e-02,3.055276110306519646e-02,1.110878751009889906e-02,3.797250769547894783e-02,8.458190301145208576e-03
6.836439318299367129e-02,1.201892472377360382e-02,1.182137044130327202e-03,9.236231522106577718e-03,1.753604273991421969e-03,9.469809112208292176e-03,1.763607812344638454e-02,4.012695666513167725e-02,2.893878588482700839e-03,3.823137459037602090e-03
4.994465667212034943e-02,1.205103762891401344e-02,8.210044044130216517e-03,9.744207893003902984e-03,2.311911252359705876e-03,4.733634671719624820e-03,1.381418238412484775e-03,7.849332377647880166e-02,2.981684991006405133e-02,4.820788931537322219e-04
1.346632369063658838e-02,4.433736818883133798e-03,1.371714967730323833e-03,1.066776789165814476e-02,2.844219101378488331e-03,6.510293270603686056e-04,1.029885426925323741e-02,9.326186014840559535e-02,2.492193711688438229e-02,1.368017846295887120e-03
9.114275952659766852e-03,5.566522476027754504e-03,6.732724765945961864e-03,1.105546110989673834e-02,3.010054406570533605e-03,3.516576390992498351e-03,1.201681824359345646e-02,8.215040158288727801e-02,5.261382122081138812e-03,4.203527738666922205e-03
7.549737531632128018e-03,7.748410692326949956e-03,3.971605017221280405e-03,9.221389799464034878e-03,2.138929141609250230e-04,2.171030314540989617e-03,4.643594725735628731e-03,4.523371578156470951e-02,1.872038763499760507e-03,7.289771990818951636e-03
5.033572479431090707e-02,8.389365046588587345e-04,7.809987020766113661e-03,5.803312010129828107e-03,5.586982131332552358e-03,1.621746910110915315e-03,5.145207241838459580e-03,9.385991218397025937e-03,2.362819733359453750e-02,7.106428645205982095e-03
8.205535783180614717e-02,1.167996615573978214e-02,1.860527259523813218e-02,3.428773387885638083e-03,1.011071616866164417e-02,3.687016735184307521e-03,1.081012183404674899e-02,5.822553880889155126e-02,5.104224684403999013e-02,2.497965003791910790e-03
7.201343083284837687e-02,1.432913381253325680e-02,2.460583099669251539e-02,3.473818719285449389e-03,9.792963135524980142e-03,1.680785524446988186e-03,1.169989836584375657e-02,7.741185710321102365e-02,6.295256961592060607e-02,3.493069993902466093e-03
1.458451107164931287e-02,6.349180940223958861e-03,2.971782921314687978e-02,4.310281341915334595e-03,5.709496918313631403e-03,2.640046795500318021e-03,1.052226070043890856e-02,6.266518467539140824e-02,5.602556407263861726e-02,6.215981648902746404e-03
6.600566656084461137e-02,6.942996270897056413e-03,3.433980252830099583e-02,3.392869922171130436e-03,1.241536803772499411e-03,6.260092687544210020e-03,7.014201099842318730e-03,2.389759443068719888e-02,3.767522560817760519e-02,3.485196454101774713e-03
1.243893518213335103e-01,1.743343346194636476e-02,3.311547398846955564e-02,7.759891666866080250e-04,1.595972511603685603e-03,8.185619750958121957e-03,8.996359279673809715e-04,2.918520431615890739e-02,1.653834797418661517e-02,1.847816697336947256e-03
1.235339891061372208e-01,1.855814735481191302e-02,2.520742329432653153e-02,6.557362893245094167e-04,2.673806025468921169e-03,8.739908701924649706e-03,1.091725103937367380e-02,8.227407521298757409e-02,3.618411982282273079e-03,4.673045840144114671e-03
7.008185177843227753e-02,1.034613426855795701e-02,1.684072338178623299e-02,9.878612088516103024e-04,2.620430973133467453e-03,7.847312649686195851e-03,1.733261797625967882e-02,1.108274680742474538e-01,7.129587329726230424e-03,4.009629690654568056e-03
1.358579492936299801e-02,6.468582693714070627e-04,1.203869090971008970e-02,4.216984034867171660e-03,2.222362798924181447e-03,5.833120239633982594e-03,1.783624897859748676e-02,9.877382442025710307e-02,2.171828860541856476e-02,3.564646235138760333e-03
3.677459129658351006e-03,2.776246089151826121e-03,7.943321110175656508e-03,7.054503462899927753e-03,2.216838554081867682e-03,4.110623238030278528e-03,1.395724807986867093e-02,5.642175137478792901e-02,3.275597376275050931e-02,5.124129655646379906e-03
6.008082573605133536e-03,1.034247444890419067e-03,7.148935767653985442e-05,1.019937822265150860e-02,2.673116231380331682e-03,3.098697536928133982e-03,6.517066750474870794e-03,6.999177440520866836e-03,3.145048044554003830e-02,6.546241298184322238e-03
3.992881155474845879e-03,1.644016467898862981e-03,1.031429132872053664e-02,1.407094672788479495e-02,2.313365954710033204e-03,8.864256840540945485e-04,3.102489210978775624e-03,3.595563344421104368e-02,2.145929851401026309e-02,7.305476731974820150e-03
4.461219554510509333e-02,7.611845066155556623e-03,1.447725435786037171e-02,1.455206731717777029e-02,5.013993209315411367e-04,3.950539822491576022e-03,9.436496321104060822e-03,6.871041766809068974e-02,1.575370701461659834e-02,1.006689907965757462e-02
6.883786109476054682e-02,1.285803694837108109e-02,5.566048808788015383e-03,7.262476038244416662e-03,5.104681679358449506e-03,9.216460754912655928e-03,7.053409887996603400e-03,8.759507602251975777e-02,2.662423873868907664e-02,1.583165555876933292e-02
3.766176454089353171e-02,1.061858333008617976e-02,9.783900304957926855e-03,4.446046374180972170e-03,7.999056825622468878e-03,1.112873823075977153e-02,2.634741227105477125e-03,9.182964184979815203e-02,5.123037841249762636e-02,2.189061153905899962e-02
1.906268439084799968e-02,3.182275687980661190e-03,1.708646863523369253e-02,1.225067282016893688e-02,6.759369859792367825e-03,9.307393389085578603e-03,1.155469011350725508e-02,9.024672153189622348e-02,7.099718308250300980e-02,2.399394286087907016e-02
4.074596798388132463e-02,1.300414454968998844e-03,1.126130164684372055e-02,1.342968504964232347e-02,3.415795991303538937e-03,7.326107579672487199e-03,1.098272570567447246e-02,9.449436384517462262e-02,7.071919593512883406e-02,1.897216638827492821e-02
1.809311313736195609e-02,1.105166358772645093e-04,9.237039507032006281e-04,1.217970218938025512e-02,1.619891783060999329e-03,7.683559924863810932e-03,1.852262189754778649e-03,1.043251171404999122e-01,5.127942030733410872e-02,8.483744825496256081e-03
2.917173368788269355e-03,1.630914743163875075e-03,1.282067337495769281e-02,1.125402469750377138e-02,1.598770043283714295e-03,8.766260474465322611e-03,2.055340031885396698e-02,1.068891704157039907e-01,2.351289456420351670e-02,6.400708617895234669e-05
9.924171408392792534e-03,4.376393741777265928e-04,2.217312542245514911e-02,8.931239076870375188e-03,9.320263775840394171e-04,8.091910531289710912e-03,3.415232508243821324e-02,9.463009358172030927e-02,3.897707005615430251e-04,8.778268511316010244e-04
4.503174946540204615e-02,4.765371069712196102e-03,2.745028859583067624e-02,3.927024583968360093e-03,8.590584182745929134e-04,5.839435780719757531e-03,3.680590291597586605e-02,7.642052854363202974e-02,7.350490435611431797e-03,3.297735361269440568e-03
7.836982811702350449e-02,7.629822487749894806e-03,2.833831122136681521e-02,1.612732127797198572e-03,1.974057392379310882e-03,3.282425131016927181e-03,3.110836854111174651e-02,6.468743985867606017e-02,6.997576722956398015e-04,5.570579992395748026e-03
9.401577169676707257e-02,6.842446800284579349e-03,2.606084735273053732e-02,3.989335559702559576e-03,1.727126218404920069e-03,3.677319316315555311e-04,2.133375185676344293e-02,5.780531362125316402e-02,1.303701450670443143e-02,3.954501957092556273e-03
8.798381836885478535e-02,2.237179576435190109e-03,2.024053712364625932e-02,1.039850806026860423e-03,1.228874242576385219e-03,2.997136486636597843e-03,7.801943028672279380e-03,4.104781427657804710e-02,1.854196389012429877e-02,2.796954634972125594e-03
8.061999741769733385e-02,3.093867897935553748e-03,1.110176405738419296e-02,5.508547532669589783e-03,1.210436687293200281e-03,5.455839497935821569e-03,9.280822863565948988e-03,3.273874366809031468e-03,1.522443955214505644e-02,6.295815021205469417e-03
9.187173857144395606e-02,4.158294602628947491e-03,3.545748532309111762e-03,1.082138835718124414e-02,1.314153416848306503e-03,5.928465984601670978e-03,2.389046043699798519e-02,4.587007958941610730e-02,5.292253667160898810e-03,1.219533333912696700e-02
9.116407639915546923e-02,3.026768846431358590e-04,2.541537655773795472e-03,1.140643216089299271e-02,1.205236498826653098e-03,5.247206773074610323e-03,2.674989779609137155e-02,7.616479805925110980e-02,9.764550142476281086e-03,1.309684534523979094e-02
3.186397374313919978e-02,3.574618960942447035e-03,7.797498055082577317e-03,7.471524467200745326e-03,1.041606819362960118e-03,4.823352260599695837e-03,1.474633121621806049e-02,6.571157973265992491e-02,2.731459322870920942e-02,5.340350504751215435e-03
5.878515502973525458e-02,4.821768425810567076e-03,1.681121874667963062e-02,6.952249564716932260e-04,9.818389828667702449e-04,4.873423037157586894e-03,4.028764192097987473e-03,3.068997009046311314e-02,4.357768837479530921e-02,5.635235687474125094e-03
9.779537526747723863e-02,7.210216228319500653e-03,2.711767450193018972e-02,7.141272760688230879e-03,9.547758825516588620e-04,4.758209549038212687e-03,1.689441506391933454e-02,1.048151851798481693e-02,5.643192911672306744e-02,1.223944722361148922e-02
5.588382775748988035e-02,1.454244079886495011e-02,3.441289169801555609e-02,1.365999800459850519e-02,8.858157838967071779e-04,4.316248510127098509e-03,1.792101966053373518e-02,2.353765528345445196e-02,6.536348951955625597e-02,1.419629602671887598e-02
1.955757440601076091e-02,2.438586141641405081e-02,3.635421171633047149e-02,1.787598223028371430e-02,8.076763068636336890e-04,4.144675085184787618e-03,1.052254444652816860e-02,5.526810813678158935e-02,7.111492807144277617e-02,1.590846932026274835e-02
8.193316879200344960e-02,3.079201331322473437e-02,3.733223899267097690e-02,2.127486836132554474e-02,7.558569481542649080e-04,4.474320919406154888e-03,1.272004703766638038e-03,8.412381160721256468e-02,7.674397937970217631e-02,1.750007942665261079e-02
1.226115656143931393e-01,3.077345519906840576e-02,4.088808114603409427e-02,2.330563714511091691e-02,7.154994116358798706e-04,4.351477693411962694e-03,4.271950732267452457e-03,9.893458188468372272e-02,8.346295617484170148e-02,1.544578798023343337e-02
1.391966286605693937e-01,2.693139070740834320e-02,4.004858198174415101e-02,1.953583710220286110e-02,6.696916147180732469e-04,3.036931184405588981e-03,2.822089498984904458e-03,9.547904400529778901e-02,8.388109857296535687e-02,1.029596343945304686e-02
1.195334366714977670e-01,2.447915583036945966e-02,2.576620940222554973e-02,8.886065810918587771e-03,6.249497594700750142e-04,1.819839214528521645e-03,3.896771821708253786e-03,7.501994159264309403e-02,6.782298471077878588e-02,6.990659498628212266e-03
6.208945132870688499e-02,2.476866714587252702e-02,3.679134804244374359e-03,1.865612502795903002e-03,5.889241793109580101e-04,2.292045228805376488e-03,1.010262148088440955e-02,4.614645317643242817e-02,3.887179115996485662e-02,8.148696133613037712e-03
1.281459882575106644e-02,2.251119663712277535e-02,9.228578287941326466e-03,5.783869354884752303e-03,5.582105362753639159e-04,3.031185803055905237e-03,1.284244935773773758e-02,1.940311711915377463e-02,1.541876487406575007e-02,1.195541471827933806e-02
7.661155684029402613e-02,1.275044639173633122e-02,6.921825150380562543e-03,3.956646997376318114e-03,5.286559024703341939e-04,1.108860658201929082e-03,1.444912113457082550e-02,6.815811940894976259e-04,7.920141810534398613e-03,1.565116252851268472e-02
1.110094401498913780e-01,6.395838197112394159e-04,2.255460873598307339e-03,1.992212702694896777e-03,5.012071830439579620e-04,2.986700125276500663e-03,1.673637021747733516e-02,9.206055512260873791e-03,4.277416662511978468e-03,1.755984018958399104e-02
1.140656626325603773e-01,8.434237256551247938e-03,7.136782153874625216e-03,1.932299777666324084e-03,4.771752662254871691e-04,5.391825282439718578e-03,1.720198589588907076e-02,1.100864274079306829e-02,1.193705295344097209e-02,1.717851706777815540e-02
9.240408339653995162e-02,7.727866335451615172e-03,1.568936727334124814e-02,1.357446313072156741e-03,4.554615202866251931e-04,4.086002742604762442e-03,1.214334668105266149e-02,2.513625706481426546e-03,3.622572869863993628e-02,1.589902697531117223e-02
5.148542696708747340e-02,4.793712491681803231e-03,1.710220777252887889e-02,1.183810744322967611e-03,4.347586555856003333e-04,8.485912412837682411e-04,1.611459504955802631e-04,2.089950103782557342e-02,4.875747294283439004e-02,1.617586660554754321e-02
2.831893805859971892e-03,4.998759511730946001e-03,1.528964192460851093e-02,3.172597435785334125e-03,4.148839834835465600e-04,2.033684352478584527e-03,1.739383168989287395e-02,5.522415043569257886e-02,4.164112834751287906e-02,1.802029791007817364e-02
5.378477478866937334e-02,5.273915003780966539e-03,2.147581904838638533e-02,1.755638299020696779e-03,3.957833707452199264e-04,3.932000666972347742e-03,3.674263382814259293e-02,8.198013207551803350e-02,2.868497548699136535e-02,1.748272392729222774e-02
7.600554164312953165e-02,6.850460596172580977e-04,3.351289022785571697e-02,1.401316222395642807e-03,3.769310558455339806e-04,4.619543731735256849e-03,5.304035929341874983e-02,8.783976082593855650e-02,2.704223317105526256e-02,1.075238364029452824e-02
5.936972558639407732e-02,5.791660452923403334e-03,3.781855712459181867e-02,2.062132408772983719e-03,3.577993514665324805e-04,3.701162293986015681e-03,6.342109810682207416e-02,8.569135654385677536e-02,3.738487580515611336e-02,1.819557416009631766e-04
2.289330672383075443e-02,6.513605351339128366e-03,2.975559245403260403e-02,1.206924180405227059e-04,3.381122098674229780e-04,1.845181696949625607e-03,6.796832895896240401e-02,9.414102252744543931e-02,4.635534209204289491e-02,8.281239754012847953e-03
3.764353511146828653e-03,4.773620808774118652e-04,1.868631721226358608e-02,1.084820744855526662e-03,3.176434012217031538e-04,3.200325007080120953e-04,6.657311229419811405e-02,1.021245998061887095e-01,4.402369597423468062e-02,9.246817997649713766e-03
7.689180151171245113e-04,4.921674079634663461e-03,1.204602714689635701e-02,1.274331911989959104e-03,2.961992188129572564e-04,1.110652262945826738e-03,5.680706196072222297e-02,8.559757379930932331e-02,3.210696735903712656e-02,6.317704758016589976e-03
3.923847137708519339e-02,3.791418123930322560e-03,6.113772107821857302e-03,4.432613897808664397e-03,2.737095346733608883e-04,3.655499732026381340e-03,3.758806517902952421e-02,5.253448387747962356e-02,1.650480343966194766e-02,5.477760520845895847e-03
9.926055440967859744e-02,1.016015586493658647e-03,3.551960972359175656e-03,5.816561094892178790e-03,2.500344139165681739e-04,6.763717770843676903e-03,1.382688677915028773e-02,3.194074349533036761e-02,2.995662511124119222e-04,8.453122812489329702e-03
1.271324664400113880e-01,2.274417808356690544e-03,1.176475000740113963e-02,6.207340978557585216e-03,2.249332882167653100e-04,8.358207674677141721e-03,5.956696205886826724e-03,2.518812657329690119e-02,1.431735596342625580e-02,1.293775951748783737e-02
7.854777550001283692e-02,1.917405617528080601e-03,1.076320259348920519e-02,7.328275002567265391e-03,1.985939605847960871e-04,7.791104094599671931e-03,1.684663489365699138e-02,9.967510197642293762e-03,2.480615116333172859e-02,1.801099683960432490e-02
2.002128595722637433e-02,6.114075238267395462e-03,3.288975251864404304e-03,8.787242157151946634e-03,1.716339457782702364e-04,6.292348233555279842e-03,2.031445866252991686e-02,1.561802004674249164e-02,3.243707367778465162e-02,2.551455819062294073e-02
9.146965466519123289e-02,6.417279217884064649e-03,9.903604210792324881e-04,8.759179318506353853e-03,1.439082000385343940e-04,4.856984966405004586e-03,2.034048144383369602e-02,3.292122937610943850e-02,4.214523605665316391e-02,3.391708669599803605e-02
9.930475465377229527e-02,6.824400439493006655e-03,8.607890074974611574e-03,6.400991856338025636e-03,1.144984915187753069e-04,3.792363890477948741e-03,1.916769343310705323e-02,4.002166650792964020e-02,5.340120601659022886e-02,3.458780722679509478e-02
8.251073250913470991e-02,1.234820285389354698e-02,1.607320809791855029e-02,2.648877152825678330e-03,8.427132881962642777e-05,3.586646570048767062e-03,1.750068514050613644e-02,5.620681900519562679e-02,5.536231736122402408e-02,2.091531336020823958e-02
9.055825060230682233e-02,1.984965103699317876e-02,1.241033960008768033e-02,9.352500661140652777e-04,5.593463635259749822e-05,4.076910744579668316e-03,1.616123047197613738e-02,8.921402334870942585e-02,3.854843826186073880e-02,5.786054561996386604e-04
1.144845758695644533e-01,2.130305441246053283e-02,2.624010916157880000e-03,3.351362046955715449e-03,2.854482979028047688e-05,3.593557266119598841e-03,1.436020195989450715e-02,1.162314188951904526e-01,9.508159804932072787e-03,1.569388707222210688e-02
1.034879207243991489e-01,1.376041761494804089e-02,5.740067982668449389e-04,3.950966906135178376e-03,2.771074400157175351e-06,1.028407774723567479e-03,8.698421477316340550e-03,1.036071065361084120e-01,1.452130613790121941e-02,1.767179736445142688e-02
4.026189880802919646e-02,1.859273928479739536e-03,9.837470700952786334e-04,1.662412666708469079e-03,3.510778247791756476e-05,2.080556184296367128e-03,1.303615159890257657e-03,4.600403448548880808e-02,2.433444379551918599e-02,1.087341957332314292e-02
2.611789058007978059e-02,7.537201281959596613e-03,7.290561731701078289e-03,4.261626893116608576e-03,5.690845955582056720e-05,3.438897411247293385e-03,9.332465732406746220e-03,1.886183994093698982e-02,2.366533114870392890e-02,2.437523170455516055e-03
3.706172923767142580e-02,1.038275847289392775e-02,2.840734244734796285e-02,1.217231628686630228e-02,7.297047038290993776e-05,3.008688874177632006e-03,9.408151472566185849e-03,4.715832993441794463e-02,1.821622841805686441e-02,3.745735921196687111e-03
3.860179289894832139e-03,6.794706465479461582e-03,4.735566339786204809e-02,1.803743066758894953e-02,1.069835670141298917e-04,2.405009080202157902e-03,3.643479464795346123e-03,3.598106469414441566e-02,9.886453007604961707e-03,6.617188493393194766e-03
4.151979229471338545e-02,6.932183972282819542e-04,5.096189226124277216e-02,1.860004921159984226e-02,1.482123933579019930e-04,2.348374213004592124e-03,2.232968492503460429e-03,1.349028941398696529e-02,3.425709681331029228e-04,6.267058445395600440e-03
3.819596312037914360e-02,9.343023627213734722e-03,4.081797694535903992e-02,1.360864849097089511e-02,1.446996372495088900e-04,2.355677087629838747e-03,6.632179350080347723e-03,5.261031839512765942e-03,1.257769392362309557e-02,3.421231748119205746e-03
8.663695349887105303e-04,1.581183711825005778e-02,2.492221633184809118e-02,5.158952697724146323e-03,1.169814415221420457e-04,2.155708046251992357e-03,1.039058138040485982e-02,1.988034707857237390e-02,2.775976865265350479e-02,8.133079268219483822e-04
4.953691693718267897e-02,1.625162063006886995e-02,7.739475027063729730e-03,3.368803258170021461e-03,1.757204482127798029e-04,2.003181706960989895e-03,1.283533563678399339e-02,1.950101744941881363e-02,4.085616601019447652e-02,5.350766225320967469e-03
9.968684202477004486e-02,1.042776545810289446e-02,7.990186541714966104e-03,8.788701039191104680e-03,2.793366430791205911e-04,1.938362258790763456e-03,1.486094909786392360e-02,2.604513164461994511e-03,4.108702248229788301e-02,9.265660033468955253e-03
1.346389853345489607e-01,3.433670341896202099e-03,1.615807675095214460e-02,1.008717742401053948e-02,1.871302456459076192e-04,1.761202570061515043e-03,2.011325254850982250e-02,2.550099879291483837e-02,2.502549760302552606e-02,1.196898935158266682e-02
1.364195153887781675e-01,2.061355832101520241e-04,1.009405716106517165e-02,7.481828604118316399e-03,2.821687914726126546e-05,1.650306061941180305e-03,2.773637978751716804e-02,2.738692792480662205e-02,1.787566620245301715e-03,1.345999349692874811e-02
1.019887238045340122e-01,7.078835785857952399e-04,7.974770390787384172e-03,7.454106892184398682e-04,1.914336081857659312e-04,1.902481180915437499e-03,3.012099314960318963e-02,1.666373255731082303e-02,1.807104920816622259e-02,1.327197097320746873e-02
4.933638854871254253e-02,2.472874918094301010e-03,2.454484429248971963e-02,8.263548307691978567e-03,9.589635211339059533e-04,1.991461890324014525e-03,2.383215898069878519e-02,8.549374398587517368e-03,2.987030852657976757e-02,9.595556313960000236e-03
1.320802258710498597e-03,5.374334971972961027e-03,2.709003868793656913e-02,1.421374534659322272e-02,1.414743153763453783e-03,1.045618921145321590e-03,1.652507194369273388e-02,5.052186677969446385e-03,3.096374653956873030e-02,2.327391442903455933e-03
3.960437266470644146e-02,1.131977813673846686e-02,1.574008453433088303e-02,1.333623493859501311e-02,9.423286510244551373e-04,3.583138285866121066e-04,1.572246626914816994e-02,3.356080714642894341e-02,2.055460927836750759e-02,4.109697344446256069e-03
5.172447486722040605e-02,1.961516822809518043e-02,1.289949271672938573e-03,7.249327109997913410e-03,1.587929971946469457e-04,3.490096181196382158e-04,1.640365572061324578e-02,5.600445199939870639e-02,4.043041713699150816e-03,5.831967746967521224e-03
2.268043349123871621e-02,2.506335881727263584e-02,1.840962892710003990e-02,3.135457367053341412e-04,1.132268855188335425e-04,1.438312657094016535e-03,9.427952611907618186e-03,4.441114359852330745e-02,1.181851438231266288e-02,5.583482229305642905e-03
2.597721297704986068e-02,2.246891920685371857e-02,3.417719274376715410e-02,7.684001249697009796e-03,4.743130756061764001e-05,2.678754487442798569e-03,1.476275610944144216e-03,1.058768864240692414e-02,2.843463289162418903e-02,7.372383113967924222e-03
3.282501259003521576e-02,1.241278300842699536e-02,4.708807653191040415e-02,1.477437871879214507e-02,1.798823651149869334e-04,1.273646980097131948e-03,3.682965631992324643e-03,2.361455553772814648e-03,5.010440387908779436e-02,8.021882477083170856e-03
3.272383514772719826e-02,1.412464522319626346e-03,5.375417131021902745e-02,2.029374315696825387e-02,1.248166023082440570e-04,1.601348996014816681e-03,3.884487212717771185e-03,2.221835760426182915e-02,6.772073850059788513e-02,2.462251266147597387e-03
1.209799841553565042e-01,3.918326707547280068e-03,5.021559841386414452e-02,2.113029926381428114e-02,9.771251748754661791e-05,2.938882815761081381e-03,8.172856648064941165e-03,5.172788224681763164e-02,6.136649598175380332e-02,5.571985042562013594e-03
1.602022225363946561e-01,2.432990205866000788e-03,3.623183949949396881e-02,1.555090584034841614e-02,2.680944162491346867e-04,2.036984043094650608e-03,2.081655006690869610e-03,5.028420401793824018e-02,2.714877293964547411e-02,7.401226768745653405e-03
1.445180214667923790e-01,2.602769829899998118e-03,1.900730347208619275e-02,6.600468200986942327e-03,2.591323161283425232e-05,1.459134494701618597e-03,6.338159394520743659e-03,2.687965954277749328e-02,1.115811265993932148e-02,1.771368804686262229e-03
1.225617144029590710e-01,7.998219781519388255e-03,8.649000216860764159e-03,6.150132882086587361e-05,6.451694250063930505e-04,3.200639356279645891e-03,8.215684668558924375e-03,1.584897991680353849e-02,2.820346729739557634e-02,4.760843337877424669e-03
1.135928714993837407e-01,1.090451724471615778e-02,7.857200555586642612e-03,1.571753502621047599e-03,8.405293232338886724e-04,5.555938089312450513e-03,4.886569608544262186e-03,2.400084938394487014e-02,2.413994893104906905e-02,7.643152829917620149e-03
9.195916470825314659e-02,8.224407954593112441e-03,9.884925476385659354e-03,1.200587823923556906e-03,5.468527274299450711e-04,5.544285849301509687e-03,1.632186949903746253e-04,3.183876839188720664e-02,1.513009874277760139e-02,7.581311344413959458e-03
5.421033570330287960e-02,7.239595353636895086e-04,9.645352017458837593e-03,2.385923637246833290e-03,5.016649754764151113e-04,3.041442968958567999e-03,6.948713435094800057e-03,3.928284019973969643e-02,7.613163421849481610e-03,5.965452464297710949e-03
3.555725614171822979e-02,6.152607649865816583e-03,1.168933622019768803e-02,4.177980626463692962e-03,7.011031963557257454e-04,1.792691888385798855e-04,1.588718802084647039e-02,6.622490595795083035e-02,3.444947212344010284e-03,2.864645656821244394e-03
