7.332112313685268390e-02,7.068849386192248632e-03,2.901263179271306586e-02,3.638137093539036272e-04,8.679801856720947449e-04,1.838381781139879656e-04,2.234798136532208795e-03,1.217759813403206798e-02,6.508342875159569239e-03,2.953268195847922814e-02
8.030468801999848805e-02,3.936691788974777846e-03,2.930338881826588179e-02,3.789111975854759259e-04,1.333915238144669970e-03,1.926916875721508961e-04,1.962898538836249738e-03,1.341344428647356368e-02,7.370501209346674333e-03,2.824507895892718057e-02
7.209651797890422043e-02,6.465876124633498576e-03,3.122848189679605299e-02,3.881926267920863725e-04,8.505289533452658210e-04,1.993873202039792784e-04,3.027530029694498878e-04,1.131174273173186397e-02,8.419450875113568614e-03,1.722409044681598445e-02
5.751596768839785379e-02,1.175733439014511363e-02,3.746986522391303198e-02,3.919815928057467785e-04,5.659158650502968348e-05,2.044384484117648965e-04,3.715336194876988317e-04,5.632977752064017782e-03,9.615499588764427411e-03,2.975856970634984527e-03
4.994529165748436139e-02,1.613265252313814818e-02,3.937486171395006979e-02,3.907484476204156208e-04,1.775201066471406301e-04,2.084132094202554273e-04,7.403746273360559561e-04,1.045457711262872888e-03,1.071555984164148691e-02,1.660450456143296866e-02
5.655523219802915946e-02,1.833479081778984637e-02,2.325647541710279542e-02,3.850972267436328107e-04,2.575253949053928494e-05,2.119649003352644639e-04,3.569516145815720184e-03,5.293880780422263212e-03,9.842655430110152856e-03,1.369925223425823811e-02
7.843239692355161163e-02,2.115542006722256202e-02,6.870447055455338251e-03,3.757490956048016736e-04,1.038875121633881329e-04,2.157302008492450280e-04,7.704036677495203211e-03,6.480112765403446030e-03,5.695780325766187577e-03,5.652479435255825489e-03
1.141308637825815681e-01,2.720629582732406529e-02,2.679820870360493171e-02,3.635227122424102529e-04,1.058197433186917251e-05,2.202047390088677939e-04,8.998132802404952210e-03,5.788200067946001545e-03,6.050015676355944292e-04,8.686137028183051403e-03
1.536807446688738810e-01,3.281707889288074803e-02,2.185024294940102890e-02,3.493119815368548220e-04,7.400316066195928449e-05,2.258983250166218088e-04,6.812097851478094226e-03,3.679230471500419784e-03,2.053032687991737139e-03,1.913902844889529137e-02
1.710740414264870501e-01,2.963042505040548377e-02,5.684905631979562078e-03,3.340617429517514156e-04,4.644657600875253830e-05,2.335452742160331414e-04,4.079575467003605273e-03,2.127905277473883961e-03,2.559349939427351707e-03,1.911823748510909152e-02
1.382184232736970164e-01,1.431652702070983739e-02,1.845077500098307038e-03,3.187419873814673760e-04,3.941787172160416764e-05,2.437197464317787882e-04,1.762965572420409702e-03,6.574030147708764295e-03,3.478901946444824377e-03,3.593406062281514959e-03
5.709583624115287942e-02,5.269166029660436040e-03,2.037138844560952393e-03,3.043212377325571396e-04,7.213486143172386997e-05,2.563201858114387576e-04,1.460432950721088667e-03,1.946085983163347785e-02,5.208415785905330490e-03,1.101534632556650656e-02
3.119194321225082431e-02,1.679931885550145498e-02,6.428151414787832557e-03,2.917397513249385226e-04,9.149991532987936885e-05,2.713246696293231076e-04,4.679610156042002950e-03,3.334159523753919135e-02,6.857076024430081365e-03,7.158776700847358822e-03
8.100125882081168904e-02,1.647786855836055192e-02,1.035971243966486537e-02,2.818832098147181961e-04,8.694785750174196918e-05,2.898639420317919956e-04,4.718027340039535229e-03,3.707232368803258654e-02,9.701677065392433352e-03,1.276413822233512727e-02
8.089421013328479404e-02,1.245700876013007032e-02,3.433524283723036682e-04,2.755575537660988989e-04,8.301865773501513127e-05,3.125947187943002538e-04,7.219298930157079909e-04,2.846823441875021010e-02,1.520853425201747731e-02,3.071524357120491988e-02
5.274022715613627121e-02,1.382230488921448210e-02,1.992702049295477090e-02,2.734655935951210530e-04,8.456026909318037268e-05,3.373313185907192489e-04,4.620469253617055620e-03,1.530817659425124863e-02,2.102569904221107330e-02,3.506462737004054087e-02
2.121692943983000817e-02,1.891256570928634070e-02,3.668688505052150606e-02,2.761859871256172215e-04,7.859582618580573856e-05,3.624316792271647198e-04,8.768675488520713546e-03,4.648609532588191158e-03,2.322543049534243204e-02,2.992277909797296659e-02
5.338861948626933383e-03,1.875617985802144685e-02,5.189903492995678880e-02,2.841551190852210332e-04,6.202839106627975143e-05,3.919262984665429451e-04,1.189370815442870183e-02,3.255185797074244131e-03,2.114956867378790795e-02,2.292875039918629981e-02
2.595018928396402094e-02,1.122616264643481500e-02,7.509812293307781272e-02,2.976523504607275794e-04,4.320741975709133076e-05,4.284127718947880817e-04,1.531352708004911356e-02,1.059958257428392746e-02,1.671867047500537329e-02,1.611494241010814552e-02
3.503143483529199548e-02,5.062769360649186680e-03,9.689516926938068764e-02,3.167890237239952538e-04,2.474142804631185156e-05,4.619184696473782430e-04,1.912037020963143485e-02,1.716527938654843766e-02,1.146142709803090083e-02,1.163323580824227738e-02
3.067273102383514041e-02,7.697797991274908658e-03,9.711156806718114487e-02,3.415015161798780514e-04,2.025384302670122635e-06,4.847958484841423713e-04,2.225901074462384444e-02,2.155393501081960886e-02,7.342493959054912159e-03,1.332803397608789235e-02
2.119209956118468796e-02,1.629660338334397440e-02,7.685306331084031106e-02,3.715485380770495788e-04,4.010386278140266956e-05,5.159173820026112522e-04,2.404468181332189772e-02,2.399986339813078157e-02,7.268693080330524033e-03,1.799839599104666871e-02
1.093795413577469677e-02,2.413801690842896572e-02,6.147165490615358330e-02,4.065127757415033555e-04,7.406044862722071923e-05,5.695258251237973919e-04,2.459465503763144656e-02,2.588891393533231805e-02,1.138244477129157252e-02,1.574489178782470869e-02
3.117925944009431079e-03,2.836252519470753783e-02,6.803821060404854904e-02,4.458068686516219667e-04,9.660716968907887426e-05,6.027820915083986807e-04,2.399884809932922511e-02,2.757978775012505379e-02,1.552032915043802426e-02,3.524193174074316710e-03
1.351405501996036547e-02,2.812500511903849934e-02,8.395502473540744637e-02,4.886835880275738550e-04,1.368159315140588244e-04,5.809628120142221099e-04,2.206652450998695253e-02,2.808944166367687359e-02,1.604815202009239258e-02,9.045901661332216709e-03
6.226793579073286282e-03,2.235551898623162892e-02,8.490035815988523915e-02,5.342499915273727805e-04,2.084192286656528983e-04,5.913679334129845781e-04,1.926326326982878354e-02,2.690225343487237519e-02,1.375607787289665103e-02,1.197799760410392725e-02
1.480881044109784439e-02,1.238372495829602460e-02,6.379834171394095643e-02,5.814852624975608720e-04,2.482240363325667978e-04,7.073760303905978191e-04,1.701279318580243768e-02,2.485530530690404846e-02,1.089377061497387965e-02,7.510415297586003902e-03
3.174790011553785263e-02,2.120425245768458970e-03,3.346999063268467356e-02,6.292618288964541787e-04,2.229477198143783553e-04,7.390729144141072737e-04,1.617551434838117308e-02,2.278310712932817353e-02,7.380377512885344903e-03,3.802083334755369630e-03
3.538526595711733586e-02,4.565757555328694636e-03,8.493412868668025195e-03,6.763692055092089496e-04,2.637126651272603283e-04,5.080883742525232503e-04,1.577415906820598540e-02,2.078158899318030203e-02,2.704835902236911969e-03,4.001548612011739635e-04
2.444487185971737711e-02,4.265302244897886154e-03,6.830214301173518666e-03,7.215399789336327148e-04,4.425430354911337352e-04,4.332158569488595620e-04,1.388801226356110169e-02,1.870126389875794576e-02,1.006031265306253208e-03,1.123373707317622261e-02
1.830157885787859519e-03,4.189889667517866095e-03,1.652299607584700736e-02,7.634774496529018626e-04,4.764844012586096729e-04,1.214472626907092939e-03,9.007650394146877321e-03,1.443242988167335594e-02,1.026918096579988509e-03,3.497702882512025713e-02
3.487541736908712775e-02,1.573322261521310078e-02,2.559816540162446197e-02,8.008843113445199063e-04,1.900177947848954833e-04,2.839585780343208393e-03,4.637245025309263708e-04,2.374739334186672102e-03,2.093160830970719477e-03,6.384786228166512700e-02
5.937412927350468883e-02,2.249137506648734783e-02,3.590234280406246620e-02,8.324913980024735167e-04,2.137479010880810756e-04,4.724458398949660590e-03,1.090617503701047340e-02,2.132466216829406389e-02,4.965708861606939542e-03,8.421051448332976530e-02
7.672724845520322023e-02,2.375030080772407709e-02,4.763666767705117266e-02,8.570857116839054358e-04,1.233239896796930243e-03,6.749849967784213485e-03,2.268387678934077889e-02,5.142645820014735136e-02,5.201112605410668568e-03,8.463838446080555744e-02
1.070631182953499932e-01,2.620564571156050113e-02,6.094271595820285187e-02,8.735376507103637068e-04,2.501161596783852380e-03,9.025327500313633927e-03,3.255065289384519167e-02,7.563951872504273699e-02,3.419500723955438796e-03,6.446206553999304922e-02
1.549068073588912853e-01,3.167598442712004497e-02,7.361220646021512937e-02,8.808269952848623652e-04,2.508927250435089538e-03,1.068979260463272067e-02,3.877779233346636406e-02,8.454313957715561823e-02,1.272594146673673579e-03,3.466288848625288799e-02
1.900132921249187701e-01,3.163984582844363985e-02,8.230544439309135651e-02,8.780657481138892271e-04,1.256155566094129374e-03,1.015918242708694491e-02,3.924364690570412983e-02,7.777350631258390934e-02,1.094591569368464062e-03,9.760083503426464704e-03
1.795850194048205228e-01,1.942786266134271383e-02,8.944380794918183053e-02,8.645167753908541324e-04,2.506652366121551209e-04,6.976561025183430909e-03,3.349271185451295485e-02,6.189057427591583560e-02,3.910631643242336482e-03,7.660236425884234517e-04
1.284996181745575450e-01,2.846985576401296278e-03,1.006147962336573221e-01,8.396104915144005434e-04,2.390339470135092374e-04,2.821410862825009681e-03,2.540558093037656798e-02,4.380757684597836460e-02,5.531867020380007785e-03,4.166413072582284688e-03
7.221840101665019662e-02,3.736352559541987906e-03,1.097499940404157021e-01,8.029603102608140258e-04,5.350033398016618928e-04,4.913959164316595565e-05,1.945486084928067100e-02,2.613859008112387819e-02,4.640699122243950939e-03,1.792301522523733273e-02
3.872049513371947360e-02,1.514385670118832856e-03,9.994586509385888773e-02,7.543707456449063632e-04,5.073490121195460729e-04,6.526354467133155778e-04,1.513460611397806320e-02,9.551552975863918798e-03,3.706206834496848877e-03,2.924442487309744307e-02
2.924228245634261092e-02,6.492962151278525856e-03,6.911296191567738167e-02,6.938353921843588411e-04,3.309960640219528462e-04,4.711693668230190236e-04,9.214355202531108666e-03,2.109087477457054736e-03,6.116568467480647253e-03,2.772003178509272608e-02
2.569661088547698508e-02,3.574135480241653721e-03,3.833146189551914218e-02,6.215370127491915905e-04,2.883471766895981695e-04,5.457187776670368272e-04,1.683984642293434282e-03,4.484327713757330774e-03,1.033808888369072004e-02,1.074652307114576030e-02
5.682281587626439659e-03,1.816768248349897794e-03,2.147439502163916297e-02,5.378555310230254171e-04,3.070037269431821108e-04,8.849094611950131901e-04,4.608403928059365100e-03,7.868922207111333708e-04,1.131020977849066245e-02,1.365939618192460632e-02
3.710901295309058934e-02,4.049749271734864701e-03,7.089877462944819270e-03,4.433578628131435405e-04,2.556463647853114934e-04,1.142519190389930210e-03,8.446598933546989318e-03,9.185177572371846198e-04,7.658658346638998367e-03,3.330896469883549982e-02
7.632578298815637097e-02,6.149965084910359418e-03,1.503861345468023025e-02,3.387567633185047653e-04,1.672771120156764022e-04,1.340361549108259496e-03,1.072089149896521439e-02,1.031314325247621039e-02,3.135693901415931208e-03,4.026329651283508393e-02
7.331325730647195171e-02,9.309623513188916219e-03,3.277258894956387725e-02,2.248945950204141577e-04,1.047359332192365262e-04,1.567905309696816232e-03,1.149756186518841213e-02,2.380625702454665371e-02,5.959497915377023761e-04,3.210128629331428923e-02
2.522409793711817561e-02,5.534627477732300196e-03,3.058934721152233374e-02,1.027817543174333218e-04,5.443243855987174405e-05,1.753028456077946684e-03,1.004102404481307595e-02,3.252350032509089550e-02,1.030802278396762174e-03,1.282954012847166425e-02
2.901906970456790552e-02,1.030363975532052820e-02,9.613698213640532730e-03,2.642766325020112176e-05,1.207444699600530050e-05,1.990491839700152775e-03,7.418472299401403583e-03,3.333365867884990896e-02,3.257847613119827825e-03,3.825214775866418379e-03
6.307836051831590407e-02,3.079667957437372608e-02,1.660376400959977586e-02,1.615880648880828612e-04,8.759414185920019703e-05,2.459169376939903534e-03,5.048849451206908860e-03,2.806484456973605546e-02,5.677325413145271893e-03,4.416348190118988756e-03
9.484769405764760519e-02,4.529323195263478680e-02,3.041550526363145587e-02,3.015916579892037922e-04,1.575493474923734909e-04,2.792889959372462337e-03,7.643264758952180490e-04,1.676719457070794186e-02,7.647122642449293538e-03,5.612189195703743208e-03
1.433163923002270246e-01,4.971759912190115011e-02,1.940056680071921419e-02,4.451273576013266113e-04,2.239881292965614377e-04,2.301348248194660072e-03,7.890397777936599202e-03,7.545769825374715970e-04,9.251378512394853315e-03,8.151443931598410797e-03
1.829446617897056704e-01,4.384489142909181458e-02,7.957127605748310489e-03,5.906989599966027890e-04,2.926785403420097348e-04,1.181842188747956289e-03,1.646162445424371665e-02,1.748516259625275751e-02,1.052145532874531469e-02,1.964386108065656507e-03
1.735935547198008411e-01,2.880498683916275088e-02,2.530072198831988251e-02,7.372292278671655104e-04,3.617347123672702645e-04,6.843464709862483305e-04,1.772638468241117746e-02,2.308355071897217822e-02,1.147728268852949568e-02,5.669055771057383841e-03
1.154813902478516313e-01,9.266000257281737512e-03,1.919100381653280479e-02,8.841250672230776186e-04,4.275487769797381779e-04,1.613340179490121117e-03,1.352975057921426520e-02,1.742641396243128915e-02,1.217543583393500620e-02,2.237345266137554661e-02
3.994697176099874097e-02,9.963965122597517182e-03,6.944538946210865836e-03,1.030074664438267824e-03,4.902094584120444574e-04,3.382982481814874112e-03,1.310850215665500945e-02,1.101072849054811689e-02,1.193496619128041857e-02,2.635796807214635384e-02
3.127128155734033160e-02,2.841852483177729344e-02,1.288282870643573871e-02,1.172957627033125588e-03,5.508010320022130139e-04,4.778363325333536034e-03,1.898265858270356890e-02,9.778729777731299394e-03,9.725961983440830488e-03,1.254082180650336817e-03
7.767281951237263449e-02,4.308647970624055606e-02,3.484815111584219083e-02,1.312485399651352547e-03,6.088494464583200320e-04,4.979840291618328578e-03,2.476507309169452553e-02,9.743813991570633368e-03,5.682621917368017167e-03,3.308285314243306768e-02
6.259650365648171400e-02,4.166983225236263466e-02,4.744136207176800901e-02,1.450527288796221812e-03,6.635820246104057445e-04,4.057334383847320362e-03,2.710522637589729902e-02,8.454402868848964747e-03,1.365961968223642275e-03,4.888118562782028942e-02
2.229288923615426257e-02,1.593945220990203304e-02,3.690941313714767025e-02,1.585534938665867245e-03,7.151393801635180141e-04,3.154392153366724922e-03,2.849963343997728021e-02,9.482562058017923734e-03,1.860268125964999490e-03,4.196437248025773614e-02
1.180393034199908875e-01,1.986102967861845883e-02,1.961567663577059445e-02,1.711743797172837018e-03,7.639656645746426260e-04,3.563922591699462614e-03,2.819284069493792691e-02,1.210976688126530303e-02,4.490209870756753374e-03,2.243882940241253773e-02
1.510941900280322603e-01,3.853974781362949631e-02,1.974550831704383405e-02,1.831089951173508167e-03,8.102380013368345232e-04,5.098048283849330314e-03,2.164333812230837678e-02,8.652602142585948813e-03,8.035331295927089848e-03,3.002295164304761513e-03
1.114949881340528692e-01,2.952099317637708886e-02,3.730054706142434812e-02,1.955243321845347854e-03,8.542113672843560431e-04,6.342233633933512527e-03,9.781297490482177004e-03,3.715709467987373879e-03,1.238206030418837963e-02,2.831964979243851294e-02
5.427220034605938909e-02,7.841290782778127799e-03,4.967636156135561004e-02,2.080213615085395838e-03,8.964600075446645111e-04,6.667741600337428673e-03,3.132256690895928505e-04,1.864464045640197229e-02,1.573986571785782052e-02,4.353551686210987287e-02
3.761578280761887494e-02,6.737081124758476786e-03,4.311991178485830717e-02,2.181334074048313539e-03,9.375400859408816344e-04,6.718867810186201009e-03,4.668049394389082660e-03,3.042414951967233744e-02,1.746553420404505994e-02,4.370656713456973208e-02
6.815506532868019496e-02,1.006908127775620401e-02,2.948219765788921351e-02,2.267338358245519006e-03,9.778823820541340025e-04,7.008070710236002747e-03,6.040982233945580218e-03,3.848371750032607980e-02,1.862032669709334787e-02,3.724408962148979818e-02
9.853239416755066316e-02,1.156463703703854151e-02,2.751578922709918551e-02,2.392451789610461083e-03,1.018269687329085389e-03,7.377285129572974665e-03,8.277755995589572077e-03,4.172092577385823342e-02,1.991246338995182955e-02,3.621354773120383924e-02
8.278722788498142637e-02,1.837451319868435573e-02,3.778850453228478623e-02,2.541160862523283905e-03,1.059808389827255302e-03,7.738294499613766753e-03,1.173819994676670794e-02,3.811185395130464726e-02,2.155744166508163570e-02,3.875446822914779127e-02
2.969928738203561971e-02,2.701537145020121294e-02,4.323522597329940848e-02,2.599188620714549310e-03,1.102936937267278003e-03,8.177269592056795114e-03,1.465227374278857755e-02,3.004723154126662937e-02,2.397124079040014594e-02,3.219307463650726564e-02
1.773517100403055116e-02,3.100530229494521603e-02,3.085787637156800836e-02,2.598745638645853610e-03,1.147500325371001058e-03,8.413344233014154530e-03,1.610131213903996314e-02,2.260021389230700700e-02,2.603930646411403010e-02,1.502698197591574754e-02
4.262798934789945732e-02,3.045744366335819894e-02,8.454973881490470203e-03,2.789744647681255667e-03,1.194765014003872040e-03,8.088006078101114132e-03,1.687618642410226855e-02,1.764658522197643312e-02,2.490526518222621957e-02,1.732611360071333647e-03
6.502999127322939277e-02,2.898084342958397175e-02,1.940972521117074632e-03,3.121705949271098152e-03,1.247198766133383223e-03,7.366106687190005289e-03,1.824530206314553191e-02,1.456711719527400278e-02,1.990099492090122851e-02,3.724668530268081604e-03
1.071674495990450476e-01,2.771061463177888762e-02,1.118025129254169442e-02,3.019480706565587456e-03,1.304115737753510414e-03,6.414087767086300469e-03,2.051936996502427488e-02,1.454763775416364861e-02,1.400183935915338442e-02,2.098120817779194555e-02
1.717641153565887813e-01,2.918428980744572007e-02,3.413466608442344841e-02,2.324464237417655892e-03,1.361994579029584748e-03,4.820662668754778848e-03,2.334615474838595828e-02,2.041381826192862486e-02,9.981299628318932374e-03,5.308975410646483983e-02
2.373541424403525779e-01,3.852656411687278154e-02,4.379975651222539623e-02,1.933536770709018762e-03,1.423722047963172158e-03,2.547886363134187725e-03,2.694880694351420997e-02,3.265822232261772484e-02,8.459066997996997003e-03,1.001638650749595155e-01
2.673863256490965901e-01,5.299338781422432976e-02,3.322419883603642404e-02,2.563778113349780147e-03,1.498092897284929647e-03,8.015700113252157604e-04,3.167357213322823800e-02,4.767799075381887186e-02,1.000248472213745819e-02,1.491917742813574643e-01
2.504867683940265044e-01,6.052663153200271706e-02,1.353531145717568572e-02,3.522772744101689089e-03,1.580015556598102396e-03,7.120414359797250410e-04,3.623392554915903091e-02,6.117276215902853892e-02,1.482639806556505270e-02,1.758536691131181440e-01
2.245182233938423921e-01,5.626513959110582969e-02,3.556200499872637887e-03,3.771643911292007004e-03,1.651032866566072566e-03,1.518826965922960136e-03,3.794548273433574065e-02,7.175115955080117736e-02,2.026247907784618774e-02,1.680933673150435126e-01
2.266149908146223857e-01,4.965357692635548326e-02,1.520351695249809801e-02,3.549150191763629329e-03,1.721581508124666281e-03,1.296369935695673194e-03,3.527353332928419988e-02,7.860232348574151817e-02,2.283223122531385235e-02,1.410819046769488383e-01
2.368345159629110797e-01,4.981157003906805381e-02,2.374001398510643471e-02,3.806572039622508220e-03,1.830969475171796441e-03,4.879139773856011391e-04,2.899742584879317145e-02,7.788896396790782883e-02,2.272462589193331370e-02,1.221087812303733311e-01
2.097630306202070971e-01,5.591166023914786315e-02,3.232709908711365460e-02,4.329078848708848952e-03,1.957112642770364713e-03,2.260456342445829603e-03,2.115215499064760155e-02,6.674771400923119880e-02,2.236465597108038342e-02,1.209123320694907994e-01
1.410907189035720821e-01,6.484186299774016837e-02,4.249088502934943862e-02,3.465881970460302913e-03,2.014099811619936287e-03,2.560226972578442776e-03,1.483374273568345905e-02,5.051702523892047381e-02,2.143359841584019029e-02,1.221433355409840549e-01
6.518376130815331515e-02,7.439070657242141671e-02,5.143408972363776310e-02,1.800005842203607394e-04,2.044903498517837079e-03,1.902369653671360638e-03,1.371126877858713268e-02,3.968098299842678922e-02,1.756664725049211784e-02,1.122973903703781140e-01
7.570267100990651921e-03,7.700471917986055626e-02,5.520671435477855077e-02,4.097607313657066104e-03,2.234541580076316019e-03,1.607643136504030481e-03,1.826771953350792357e-02,3.727826692748160975e-02,1.159225402408383017e-02,1.012124624077774399e-01
2.656615070731682335e-02,6.472404465320326372e-02,5.693823131863409714e-02,6.493819689279861987e-03,2.502796029275163297e-03,1.584626977014551730e-03,2.398341191114116561e-02,3.473997224280254287e-02,7.913785836373244537e-03,1.010128342825434428e-01
3.622738590166795641e-02,4.156715129291211480e-02,6.276959463730540090e-02,5.644255741422532675e-03,2.406958954110407275e-03,5.846880859414525051e-04,2.614043078810771026e-02,2.307415617847793921e-02,8.620035316993682889e-03,9.872795607228457282e-02
2.390832921541671818e-02,1.903342959923874297e-02,6.443135349967768488e-02,2.760312653675486144e-03,1.849842819402877127e-03,1.401349264551164046e-03,2.366467948640239155e-02,3.195232993154815005e-03,1.010558850198997258e-02,7.452343053800805639e-02
2.072908036024459499e-03,1.075650037695871641e-03,4.142058365554868865e-02,3.221051030369039263e-04,1.441106331643943151e-03,2.484821557461291443e-03,1.669464395826689845e-02,1.702932702063644776e-02,7.631636260832897617e-03,3.384971120461672395e-02
3.299782157248407066e-02,1.589717413409909991e-02,7.629526046671553097e-03,2.879753318908626590e-03,1.752488654391276589e-03,1.553086194278486491e-03,5.955540806490550176e-03,3.088132757175890072e-02,1.658119960592433721e-03,3.222987875043711176e-03
5.462664661070894961e-02,3.229161622611025767e-02,5.287628563118090819e-02,4.781664481051791857e-03,2.702253367457792439e-03,3.416225064950562129e-04,3.633697022338387185e-03,3.600700389811575114e-02,3.226661473249165576e-03,3.033538659640882401e-02
4.634836532681711752e-02,4.462437531343663166e-02,6.729400593612304415e-02,5.697990088393173856e-03,3.606561734163183687e-03,9.574178000166415955e-04,5.994688776991325199e-03,3.478412170445083218e-02,5.234298468912424590e-03,5.311726210526070135e-02
3.515468103067177080e-03,5.175156464792143862e-02,5.665262092355959067e-02,5.595664184438002391e-03,3.309280637177553289e-03,2.153327852792670267e-03,3.198261366084758847e-03,3.490996455974695184e-02,7.856978029343144806e-03,7.612603149177858686e-02
5.004692391506829208e-02,5.409478949158565836e-02,4.309257075296386852e-02,5.033786238482975718e-03,1.109306746461859129e-03,6.742513310065033003e-04,4.410944589349220443e-03,4.505698688819111813e-02,1.459797742921667765e-02,1.028557333380987621e-01
8.175093356353040075e-02,5.030196241743697255e-02,3.546955714530862502e-02,3.988534359865959257e-03,2.056557591756880132e-03,3.920678813411357724e-03,1.255278194713051708e-02,6.365972374870229600e-02,2.377427624690276603e-02,1.297239645805506603e-01
7.394186786328363348e-02,4.086890241392133333e-02,2.836602827110035543e-02,9.800261938912849160e-04,4.813039096085937676e-03,8.625647147502000373e-03,1.936670860766301003e-02,7.525457902577022129e-02,2.986145925365306028e-02,1.384425943957721949e-01
3.154003678561156931e-02,3.110525290271449680e-02,1.770891972106324042e-02,5.128039785752934974e-03,7.411426043811885148e-03,1.140482894870118585e-02,1.817284370077431807e-02,6.738345822667354823e-02,2.944836112498531999e-02,1.183217500831261343e-01
2.188486936603573768e-02,2.451907820671385060e-02,5.654928399956344991e-03,1.261703424216805564e-02,1.064600725748502362e-02,1.343506676130150172e-02,1.483480348097291138e-02,4.929833285253351627e-02,2.545044833803641188e-02,9.266162604631519861e-02
6.011202408982104645e-02,1.842055154015007079e-02,4.627886948254050260e-03,1.804713188393831588e-02,1.360600038462622674e-02,1.609262262365896909e-02,1.894865497887996200e-02,4.226759801726037713e-02,2.393174313336720455e-02,9.326009180293003131e-02
7.529777166220068263e-02,1.276420354756883403e-02,1.241864563344575664e-02,1.972008436304457241e-02,1.450754219414285805e-02,1.818651236026051429e-02,2.890919429615164404e-02,5.261639689286108645e-02,2.571217494830700320e-02,1.133662641433704626e-01
8.112973526015695991e-02,1.526509621625917780e-02,1.907933612562107487e-02,1.824830441535656503e-02,1.289704142435533531e-02,1.792428970265092306e-02,3.519789543149640793e-02,6.717048541321769817e-02,2.464132135563569526e-02,1.201621205980305113e-01
9.328267903121539861e-02,2.780043258898112768e-02,2.576166811785210106e-02,1.470282384158030746e-02,9.683750663071526155e-03,1.599372653278171089e-02,3.556382317304099261e-02,7.418689563182928604e-02,1.741643760396403839e-02,1.056092416229912623e-01
1.126955998885384586e-01,3.618649621500814872e-02,3.101376661217077405e-02,1.016662792747703714e-02,5.820556630162044241e-03,1.457163007773082733e-02,3.639891306379744451e-02,7.561626622559124156e-02,1.050723216567532418e-02,8.589504433209052547e-02
1.298512405425643890e-01,2.598790798571935096e-02,3.220096294566826556e-02,5.965958882927749514e-03,1.962223511032581622e-03,1.432724998809041528e-02,4.107671028072343994e-02,7.841228168329787696e-02,1.161697753873142634e-02,6.473313018931461937e-02
1.343949535387578276e-01,3.596512289782550012e-03,3.007804217621660656e-02,2.833308579178025512e-03,1.123061327326546361e-03,1.440871701202811259e-02,4.658595920261828643e-02,8.414379702809890449e-02,1.800829763823469723e-02,3.809743695677098030e-02
1.165842263626742786e-01,9.747835334651955286e-03,2.943085633363326861e-02,4.779083587528639831e-04,2.834872356349001088e-03,1.418857064492009233e-02,4.955272624619441041e-02,8.777527368338973457e-02,1.993174095911361132e-02,1.498785068070112442e-02
7.818533255421865336e-02,4.182810809446149344e-03,3.398566970181755159e-02,1.616053216801400724e-03,3.391658084280714872e-03,1.307865044712112554e-02,4.847768002380248298e-02,8.096237716336197876e-02,1.344759106808620340e-02,5.861160765328055078e-04
4.588484513366691830e-02,7.860094814427173032e-03,4.235169417957550947e-02,3.196778548759799700e-03,3.416239529980070848e-03,1.009956427143131330e-02,4.270890665752394288e-02,5.943085332433642454e-02,4.248078519915320615e-03,1.664876151858110664e-02
4.218009983345707981e-02,1.088437627396408175e-02,4.957553651602208955e-02,3.005512099210920843e-03,3.039272102058704350e-03,5.528287536456698292e-03,3.321457657348533127e-02,3.099231263521413232e-02,2.165207626221563909e-04,1.838872122779657697e-02
4.139387314407937807e-02,8.330882202341894499e-03,5.159820374218774403e-02,1.259043774387330790e-04,2.281742735305337250e-03,1.483170099809152497e-03,2.186631187836594187e-02,9.823058826736161264e-03,4.193705495928271368e-03,2.572829239343156493e-02
2.149653324186184475e-03,1.445895869939496994e-02,4.787127594942021391e-02,4.114933440175432000e-03,1.813696360730245863e-03,7.757483564271713469e-04,9.472200875841914683e-03,4.243269171081186578e-04,1.289448769043542546e-02,1.020415133067784225e-01
5.615715247960711282e-02,2.790756008295258023e-02,4.133558379747213213e-02,6.665805824443152110e-03,2.171223357435469146e-03,2.655949913719923838e-03,2.977189045399335210e-03,9.009505497831631071e-03,2.029391853192588982e-02,1.487568873726058394e-01
6.985335624416588729e-02,2.926689666655156105e-02,3.767075098078574713e-02,5.607836879594379695e-03,2.834703005547948435e-03,5.916448210289255993e-03,1.326536328465142967e-02,2.241776969464462713e-02,2.234224304586315477e-02,1.306884888182379967e-01
2.989127409440132943e-02,9.876279188094179082e-03,4.114099443655172550e-02,1.798753492775717524e-03,3.074024749781493256e-03,9.971525098541617754e-03,2.094732345978255264e-02,3.746042850041254174e-02,1.925883751786602871e-02,7.386932039324449473e-02
4.702165816376716566e-03,1.092023104575070604e-02,4.576521139200277755e-02,2.199755757304846290e-03,2.895798024425961896e-03,1.288129261850745784e-02,2.847513584294478206e-02,4.946872808566307733e-02,1.417427933573678182e-02,2.362615433663507042e-02
4.869560973911099544e-02,9.314779355334836669e-03,3.597015419121462471e-02,4.339530776842934028e-03,2.602622366581892627e-03,1.388143189863933272e-02,3.694740179577097466e-02,5.577990023460969310e-02,1.081766339953942058e-02,1.031260398731748129e-03
1.305489809668048951e-01,1.058436789809152900e-02,5.977487336083360872e-03,4.602352860286517897e-03,2.449198663346930857e-03,1.354110399612529908e-02,4.297750582328498797e-02,5.370702503919441706e-02,1.149130279162845561e-02,3.244844617744952614e-04
1.762669515254060293e-01,2.469332399226206037e-02,2.760352094664050154e-02,4.428953747665642302e-03,2.762131879679500818e-03,1.202206704071109855e-02,4.093307044537000672e-02,4.473331896024260179e-02,1.545949099184663021e-02,1.230840509281972729e-02
1.665285102670449602e-01,2.551236286954520344e-02,4.473076666745307711e-02,4.447776668904010813e-03,3.110564943130841777e-03,8.511031773170757084e-03,2.768005423597528353e-02,3.513930346361546220e-02,2.003459324907310227e-02,3.930905933442504357e-02
1.595336346743335409e-01,2.863955596742389850e-02,4.610286631823861531e-02,3.643118025903508382e-03,1.778129258802633875e-03,2.658487510899261008e-03,6.407148658932841113e-03,2.610467584678276276e-02,2.347947859686580485e-02,7.725223366867760288e-02
2.044284775124496079e-01,4.076414200510043717e-02,4.536032872193896531e-02,1.440682905517245375e-03,2.247069354188443741e-03,3.929040494963154627e-03,1.375589722021936141e-02,1.289370693339156847e-02,2.516122481816834497e-02,9.777080285575689977e-02
2.682457349830162929e-01,4.672083496631641159e-02,4.574997284068360592e-02,7.174394868344844550e-04,7.122760886036230178e-03,8.383844150093232653e-03,2.431766643169621170e-02,2.218878592805634091e-03,2.398300833115359076e-02,7.718336578757963029e-02
2.884474953783554563e-01,3.778265545499489425e-02,4.020761036152583484e-02,1.078648234983882589e-03,9.582926984195227343e-03,9.291711052145967473e-03,2.498068556374276328e-02,9.613509723157635453e-03,1.974464067075834550e-02,3.549698737627215994e-02
2.653736946938495822e-01,2.941675871654499466e-02,2.975165080003933094e-02,2.483648724787183371e-04,8.214262929647865585e-03,8.032483707116663818e-03,2.296534048079979309e-02,8.182992341601035696e-03,1.497266733081458086e-02,1.536022544293227758e-02
2.448358176699911570e-01,3.695662002734984714e-02,2.541624524282124625e-02,1.882501401334610476e-03,4.341133515207493479e-03,6.661482672810841582e-03,2.338393090135585523e-02,6.727231721513376138e-03,1.208581536493472455e-02,2.533915210976522142e-02
2.305657840574994455e-01,5.122057467272532472e-02,3.045705146869455079e-02,2.915669446416252128e-03,3.763530749554354739e-04,5.423917032425370002e-03,2.270540820092032189e-02,7.003996097873296453e-03,9.791764565021756489e-03,3.717249764237785803e-02
1.827435156766286373e-01,5.175993890652851731e-02,3.412312444131717498e-02,3.278796559982076822e-03,1.957964526606234285e-03,3.164697996731710358e-03,1.537020909449861999e-02,1.367465305707464118e-03,5.666289242362628799e-03,4.221736896506738529e-02
1.027185491735066319e-01,3.325364751821183185e-02,2.795461151242200834e-02,3.222954045181261606e-03,2.475528137067143936e-03,7.123269469608976053e-04,4.278733362022240153e-03,9.924460200186158848e-03,1.087053652327418145e-03,6.865013685626714102e-02
5.373605274316351627e-02,1.029880509411447431e-02,1.682617065835683226e-02,3.039930039397685784e-03,2.183260446441620019e-03,5.226956866383060396e-03,2.210146715920215110e-03,1.533393577142759361e-02,5.909322305272827688e-04,1.228370549425904790e-01
7.765992311573749474e-02,1.550545467843785375e-03,7.377435573681816357e-03,2.917680459595722777e-03,2.016515078515654022e-03,8.452357427711795421e-03,2.955783712833443336e-03,1.048180925880831844e-02,2.866375629996219254e-04,1.565300931546036722e-01
1.368441952220177393e-01,1.120720675388513568e-02,2.484781427701440379e-03,2.849115275674368470e-03,2.074082038644483109e-03,9.355673129754864953e-03,5.076920525887025290e-03,5.934590146542443115e-03,2.897659286281890467e-03,1.289134984828662067e-01
1.642752720815807976e-01,2.577228539545930314e-02,1.242965085315523265e-02,2.758686686205283345e-03,2.074727577392766580e-03,8.824727656024114464e-03,1.096855933497886855e-02,1.044535097759382962e-02,9.875210103360572422e-03,6.999646263265324464e-02
1.452214712485839221e-01,3.199536894420300370e-02,9.862268379993431242e-03,2.642470658565515551e-03,1.971651435047370570e-03,8.254370762655992635e-03,1.344976092387466932e-02,1.714030538958715918e-02,1.649416133345019825e-02,4.147926548907169414e-02
1.227397537738944555e-01,3.193775453779831852e-02,1.374643982893508296e-02,2.533654374786794249e-03,1.888375677094415988e-03,7.888756752404139233e-03,7.657193503889192163e-03,1.455043408195612689e-02,1.876666052032479118e-02,5.311770354632419644e-02
1.281364407163513297e-01,3.169370986779408012e-02,4.428144701359716662e-02,2.433511747253713081e-03,1.847231197397855617e-03,7.489601720045546869e-03,1.751050283408535336e-04,5.371274521805096194e-03,1.936859703106183841e-02,5.730383119252323992e-02
1.322812031131891386e-01,2.548545764208990164e-02,5.775978793190258281e-02,2.325529054417558358e-03,1.790552717780281335e-03,7.377938184763946014e-03,1.038458507509133592e-03,4.642589053553618922e-03,2.282308712332780515e-02,2.140080380088071887e-02
8.860318301548369968e-02,6.130278579833322271e-03,4.781272544153516296e-02,2.208002390767387774e-03,1.706991251321160214e-03,7.384968284972742887e-03,1.056306628690299385e-02,1.863613837098500661e-02,2.724087563390494710e-02,2.873393151391897410e-02
1.188198309502303679e-02,1.605481608204140792e-02,2.943354394792594558e-02,2.087914041001979332e-03,1.623337879519611308e-03,6.102710666052061500e-03,1.872476730965579386e-02,3.334149088552064433e-02,2.643949172990623167e-02,4.683850920277118912e-02
3.210221483667079212e-02,2.180112247763713734e-02,1.845428783456982968e-02,1.965621677745750008e-03,1.545345649353087629e-03,2.997874026503308861e-03,1.723852945902670450e-02,3.047170659640572460e-02,1.984568964819016096e-02,2.702516558130310317e-02
2.504742312737701787e-02,8.459684191318293106e-03,1.603414019263374804e-02,1.837557764364927768e-03,1.460822329785910244e-03,4.137559302674670338e-05,8.713019514737092158e-03,1.131309021057692703e-02,1.389604334626856272e-02,7.493804974771483760e-03
2.626294827317258648e-02,7.206079469345907408e-03,1.323967554092762844e-02,1.703447451413469399e-03,1.367374386869708554e-03,6.363494455847505497e-04,1.659769155390139949e-03,4.944213040795271061e-03,1.254232348556455837e-02,1.957803076914448742e-02
7.752224948380968816e-02,1.176643371980145951e-02,4.599532213164206698e-03,1.565142377577415566e-03,1.271312525504630399e-03,5.513061527736018170e-04,9.016397444154338955e-06,6.042378685500845482e-03,1.307191786993893226e-02,5.706964183072447266e-02
1.418135618392250274e-01,6.715029161941337039e-03,6.957799173732553272e-03,1.423229557055304909e-03,1.174634109905469629e-03,1.864365148302878430e-03,1.857013567969409158e-03,1.836931171219097908e-03,1.306752922247652986e-02,1.004008667223374729e-01
1.737310782394363984e-01,4.361123944793581647e-03,1.668145624777033972e-02,1.277532221515003449e-03,1.075316504166492614e-03,2.660972755373189509e-03,5.443945338172986523e-03,9.115887866792155014e-03,1.459666428877272847e-02,1.429171306765889826e-01
1.831395803491689400e-01,2.421140304924700865e-02,2.427953944415763010e-02,1.128693465825189894e-03,9.734020321831122428e-04,3.260536973975985010e-03,1.156248632991083852e-02,1.627175578206566803e-02,1.901204663126698780e-02,1.809791664607688644e-01
1.867677999181635573e-01,5.036992216757250201e-02,3.197534016865503231e-02,9.779444380156624914e-04,8.710104455513241039e-04,3.708257826913427882e-03,2.083517304057824759e-02,2.604309953551018145e-02,2.335959421078719414e-02,2.048223631790425381e-01
1.631778394293166567e-01,6.877612412932758434e-02,3.922734864567591073e-02,8.263374609367420218e-04,7.694590921739273516e-04,3.667710586892617211e-03,3.010491405173030058e-02,3.212761611826765729e-02,2.443214834941110150e-02,2.125942000625421491e-01
1.013545029566359501e-01,6.916263015071288933e-02,4.229371096697295829e-02,6.748174001763429910e-04,6.689885224126932090e-04,2.915346189768390755e-03,3.264437552283800531e-02,2.537849451633165596e-02,2.264488203138605160e-02,2.127834808788862664e-01
4.181764066456786222e-02,5.804511570038491802e-02,4.020538897951798224e-02,5.245492213339394798e-04,5.700888462769903870e-04,1.759059568069989803e-03,2.533202693618353055e-02,8.154232757202459561e-03,2.048978355475520804e-02,2.064024394065645529e-01
3.180861451048676292e-02,4.855112580940017936e-02,3.893451725280782511e-02,3.768523882923260839e-04,4.740590641948725986e-04,1.044655981113389118e-03,1.415320085265980854e-02,6.474027990556172930e-03,1.940544795987175775e-02,1.839934166821184380e-01
7.008362282831322176e-02,4.438723979484442139e-02,4.314390506009899845e-02,2.330076201280776053e-04,3.823575360829578086e-04,1.228022252631601457e-03,6.900765637756460166e-03,1.116462368319329559e-02,1.864186773510935133e-02,1.426808349221148353e-01
1.133081981509681674e-01,4.041378259812939550e-02,4.352897951356902995e-02,9.424428073064229248e-05,2.953586922053947966e-04,1.679022741346694169e-03,3.755088560633662500e-03,1.184724563431513618e-02,1.625406750820041282e-02,9.618499362245908069e-02
1.220576707165146185e-01,3.481398150167330785e-02,2.443486785403286426e-02,3.821114034063463876e-05,2.126062738859788958e-04,1.606162007274943189e-03,1.649480626089049572e-03,1.495044156326205860e-02,1.153990317245081471e-02,6.709590002847207191e-02
9.743415672465112476e-02,3.349547895699638012e-02,1.148738898652957793e-02,1.631702253814506154e-04,1.353942770549308619e-04,1.126211891970457573e-03,1.670418070562907416e-03,1.608489085063572605e-02,6.432180398602027269e-03,6.771565742526169940e-02
7.381176428570056236e-02,4.051438085623770835e-02,4.055694268975704869e-02,2.795462653425609487e-04,6.673133032213173031e-05,7.840158212153190481e-04,4.767890625625320969e-03,8.423267659463485463e-03,3.662796568608949269e-03,8.667950161243079266e-02
7.762724631354889215e-02,5.045538257351665778e-02,4.588877128774579428e-02,3.863768717865351753e-04,5.801388824584394460e-06,6.631108275379688811e-04,7.313765154457254128e-03,5.757745263312002287e-03,4.165125446969419366e-03,1.036263211456480843e-01
1.062538022369368673e-01,5.593024656589686006e-02,3.407168315913754880e-02,4.828296358867717811e-04,5.237080936747843542e-05,4.942396530031086671e-04,6.770398071571972695e-03,1.862826299543122316e-02,6.693409434353024025e-03,1.145438541546123234e-01
1.409075756187105621e-01,5.572929896418768458e-02,2.022524335420803482e-02,5.682227895795392923e-04,1.051397920275853328e-04,2.057156226985593604e-04,4.930108072561062080e-03,2.505635475324510808e-02,8.836592728272597494e-03,1.240986717455902638e-01
1.639686063472284294e-01,4.952852070440275090e-02,9.746038480513972632e-03,6.420492230585499345e-04,1.411321795185636733e-04,1.872776128737109989e-06,3.165044445158734197e-03,2.476855069227938688e-02,8.727683034539050408e-03,1.221420580925877963e-01
1.777854538401506534e-01,3.478866703994651366e-02,9.222396681266391283e-04,7.039881080072702378e-04,1.653813511292774358e-04,3.579540582045680729e-05,1.123328818415484298e-03,2.315792750155943464e-02,7.013287266134865874e-03,9.575729312043505803e-02
2.081317684193432493e-01,1.548928913610263247e-02,1.363954527355162177e-02,7.539088765593472078e-04,2.024012423552207468e-04,1.507366998959537487e-04,5.322965029877866489e-04,2.724918242878384550e-02,5.936722593534657366e-03,5.374215617137965278e-02
2.580159555241599567e-01,2.047045236875845269e-03,2.383095301895797602e-02,7.918746254328336981e-04,2.425853108433995457e-04,5.196772151797688245e-04,1.830927013895646775e-03,3.346935756647974325e-02,5.685585006960276050e-03,1.437607283614748648e-02
2.742041742448514396e-01,2.808922193646265844e-03,2.738249421572059444e-02,8.181425990887930067e-04,2.341992608122028742e-04,6.802723333936410311e-04,4.889841891084009337e-03,2.708392124618055202e-02,3.959086213857187717e-03,1.520733065763350475e-02
2.104873576095264986e-01,5.704538599052464201e-03,2.938590157278254261e-02,8.331583646618448500e-04,1.976253796178781405e-04,2.470186378489453187e-04,9.511068312412940262e-03,2.741038093711674600e-03,3.635355209346904665e-04,3.324189794120108177e-02
1.037235403763455133e-01,8.207872987801208622e-03,3.684103314263644652e-02,8.375448481790299026e-04,2.455568574704582630e-04,2.259301910129810130e-04,1.217482290624679643e-02,2.388958139381126139e-02,5.764681117032427818e-03,3.977780826150029841e-02
3.086268977531460289e-02,5.117998564329432482e-03,4.166608056737462068e-02,8.320881021079514677e-04,3.395130695946570773e-04,2.033757135860040418e-03,1.189916765158520809e-02,3.441813125022696873e-02,1.012026821837259082e-02,4.206728640411511178e-02
9.214641591744610755e-03,2.505478731109277504e-03,2.609271191217991254e-02,8.177196993176254636e-04,2.373996765111220598e-04,4.766480251764873728e-03,1.157791895104414055e-02,2.883718606076842231e-02,1.209229809127830048e-02,4.107013427980457654e-02
8.620815504000043511e-03,7.415113382854978709e-03,9.213661926890107795e-03,7.954954357048169651e-04,8.184933389035209541e-06,5.591432397813770987e-03,1.239268562688635236e-02,1.986587378116656116e-02,1.173975839448019101e-02,2.612285664539944208e-02
5.532324745327445170e-02,8.415887712376286800e-03,3.927735438460371736e-02,7.665710709730508580e-04,2.158501971547616886e-04,3.642376689014538687e-03,1.257323137028213203e-02,1.461285547701421383e-02,1.101578479285851737e-02,5.143737003437957173e-03
1.125639459798413733e-01,9.258089062053402943e-03,4.512682912263371593e-02,7.321760572919595519e-04,9.842782450342783471e-04,1.238754715117363443e-03,1.214812910530205757e-02,1.132016710039555722e-02,1.180442457956873067e-02,1.125640537020448917e-02
1.486981637514320498e-01,8.926811059665723525e-03,3.421650004882986762e-02,6.935858058082665020e-04,1.444456862685166137e-03,4.826563651955290178e-04,1.329324230821735293e-02,8.522688858951878860e-03,1.324263979885837057e-02,5.378304421947362884e-02
1.523342835765480185e-01,6.174516794980286147e-03,2.325189222075611101e-02,6.520929989226157981e-04,9.588418697359833102e-04,8.997788245908269929e-04,1.519109112598731638e-02,7.368965223951532556e-03,1.288816391745504705e-02,9.445132042661172345e-02
1.278607464438533958e-01,8.649067008125649325e-03,1.560968951030933943e-02,6.089786853669533311e-04,1.664042634319033947e-04,1.131255273938200096e-03,1.352887314554577884e-02,6.713038055186827495e-03,9.947283024122930556e-03,9.709470405095019241e-02
8.787558392801478324e-02,2.347213690570110894e-02,4.944828987586599375e-03,5.654839355989149446e-04,6.244936623496617973e-05,9.574909713073205672e-04,6.317441286191206179e-03,3.702342392644517553e-03,5.823528954298121119e-03,7.332394317108956172e-02
5.124652099532644306e-02,4.200710996929733765e-02,9.349851988032408662e-03,5.227827214184851273e-04,1.497287434696961943e-04,8.638363739814024743e-04,3.412990668319511572e-03,7.377829246946917803e-04,2.368039658895908922e-03,5.705456926083152941e-02
2.863282352892991545e-02,4.730744047336093994e-02,2.163620412859655617e-02,4.819566320010439109e-04,2.401942690561781053e-04,9.510749334483344650e-04,1.128062091444229087e-02,2.467159948393993565e-03,5.353212538447099612e-04,5.671575935365916893e-02
1.005483470677905056e-02,3.619696223707957738e-02,3.137019709269014273e-02,4.439720360604902574e-04,1.410945946375324932e-04,1.000680275615003145e-03,1.504974396237025377e-02,9.839306870280519011e-04,9.535131085689776097e-05,5.745087259697796017e-02
1.947909418122114808e-02,2.198153708629993833e-02,4.344562299113131215e-02,4.096602467615091800e-04,9.549274793125641129e-05,9.645706978433531880e-04,1.463937834514773481e-02,1.058924701085679461e-03,3.649358385813662817e-04,5.590634447524144013e-02
5.143918491785400698e-02,1.332021991549955584e-02,5.466103236248673336e-02,3.797011489939443275e-04,1.426698628515749923e-04,9.450085398954109327e-04,1.156696599374740404e-02,5.185632019909808092e-03,1.138437440093106661e-03,6.264168543093398545e-02
5.599369101961099160e-02,2.442814107254782929e-03,5.091986869036531360e-02,3.546106570200177046e-04,1.705490717326929020e-04,9.662514801021613708e-04,8.666783944848823265e-03,8.707905088001191563e-03,2.213469417592015681e-03,7.316995191219723138e-02
2.210745341420584237e-02,1.968213263137291377e-02,2.619624949939758016e-02,3.347322846803553725e-04,1.591668364530721439e-04,9.810388325749933719e-04,7.968861337859983740e-03,6.323837067887560712e-03,2.708596644760074071e-03,6.673626097540985569e-02
1.858194252603989627e-02,4.628210735280565563e-02,4.032153507176938594e-03,3.202330104744451587e-04,1.604672077130421537e-04,9.775341102991794671e-04,8.548558768643698541e-03,1.497995545200248892e-04,2.387783925974854178e-03,3.934692064201020245e-02
2.396791832411632531e-02,6.101985626924390921e-02,1.806524439053534131e-02,3.111035090351786658e-04,1.840546280608167432e-04,9.776062830630406764e-04,8.458196860887393781e-03,4.696150234093691977e-03,2.668630649443850221e-03,1.311152551895113094e-02
1.163895692044247636e-02,5.615761403655005618e-02,1.085253774066477321e-02,3.071627118372682592e-04,2.052092207927147657e-04,9.867509213098584787e-04,7.932099809265293414e-03,5.061108585178993730e-03,4.606550629159255131e-03,4.958957854170050611e-03
5.726286172232024352e-02,3.835180847378762137e-02,4.254235842143553117e-03,3.080665559277062822e-04,2.184930458129563983e-04,9.943025288062007274e-04,8.255904413212666881e-03,3.523628809363982088e-03,7.079224150348573281e-03,6.856028069693213128e-03
8.561948160522997453e-02,1.784453721725922856e-02,8.390935894841768800e-03,3.133206777783707157e-04,2.346734185310233906e-04,9.969098676746535135e-04,9.609642111912893719e-03,8.434815467191633057e-04,8.347103005433282111e-03,5.409367855950551751e-03
1.011352603092061792e-01,3.220031460050658961e-03,1.130217371575551431e-02,3.222967125475328237e-04,2.556059286677200924e-04,9.987506100326431786e-04,1.203011061352592462e-02,5.137099281748280961e-03,8.138912836491887792e-03,3.803665879729802371e-03
1.258709137565285074e-01,2.605063433405659101e-02,5.153390866502798040e-02,3.342517717171550589e-04,2.753912430759768203e-04,1.000571927037326040e-03,1.433748123531400007e-02,1.244092245616831675e-02,7.330859220433711548e-03,1.501201333878860247e-02
1.606598339559973943e-01,3.982586072882017547e-02,9.036797594466192129e-02,3.483505963810225119e-04,2.921746235523073072e-04,9.994884505299798418e-04,1.143328655568938423e-02,1.234167197056426461e-02,6.625169160456318568e-03,4.235531951415755919e-02
1.687757865101263688e-01,2.577356285872091368e-02,1.047860371485354741e-01,3.636898201593377362e-04,3.077735938571476569e-04,9.941452415333871390e-04,5.831887260274044296e-04,5.709782455684134575e-04,6.037019879345178509e-03,7.226382176446849437e-02
1.136123260989841538e-01,1.502978525083261199e-02,9.285095896108622182e-02,3.793237262963109488e-04,3.221735426336651406e-04,9.849097131698057207e-04,1.660870784382961415e-02,2.023820943716657036e-02,5.270301066945702259e-03,8.612970790303935142e-02
8.962835254871549806e-03,5.411340717717955801e-02,7.045600643752672476e-02,3.942908496142816461e-04,3.336594940753243119e-04,9.714903204248953681e-04,2.683695424795555506e-02,3.609172691344384593e-02,4.352424244131962612e-03,7.912256333858418145e-02
9.359002206714706062e-02,6.757078658381926450e-02,4.802219465503305279e-02,4.076407564402639632e-04,3.414186490536066671e-04,9.528502921628048943e-04,2.751784522652551621e-02,4.349298119098895382e-02,3.600723843202661457e-03,6.069545621167231342e-02
1.632521149028441088e-01,6.005827525516373860e-02,2.266577349057092433e-02,4.184603345246503325e-04,3.455322542232568237e-04,9.283523091792702034e-04,2.222127779587568935e-02,4.339288422900471065e-02,3.179834444697534311e-03,3.804100369296329470e-02
2.029904297654926970e-01,4.890257996136401775e-02,4.435976853072603338e-03,4.258989402870762492e-04,3.457763691824609735e-04,8.978408150447099011e-04,1.593699945799454190e-02,3.692417438734030971e-02,3.307018065402855117e-03,1.592464892609727831e-02
2.128049440759777755e-01,4.229167292776363912e-02,1.767362764171636832e-02,4.291917821151083456e-04,3.416277709649043312e-04,8.611315109576505450e-04,1.179076805889595070e-02,2.526316876686246493e-02,4.221912330220733110e-03,8.751622295867733659e-03
1.817518142183133512e-01,3.955559366039682057e-02,5.795840498110770532e-03,4.276809650745288073e-04,3.328391550883299035e-04,8.179870067493010422e-04,1.004663666945161335e-02,1.237894606801647618e-02,5.234783052094384159e-03,2.711973094624033770e-02
1.175836186502203923e-01,3.751382082746872876e-02,1.845423891855283577e-02,4.208336830031552409e-04,3.194535079012395993e-04,7.683714453025200161e-04,8.700340352918167763e-03,3.933225117735201191e-03,5.034663619155441312e-03,5.667637340339146124e-02
5.689785458807012503e-02,3.292046513105517658e-02,3.200640300326261511e-02,4.082571169979978018e-04,3.015413471725040206e-04,7.124759565673161998e-04,7.076155318004862665e-03,3.150419453730659170e-03,3.605635560274503704e-03,7.382322659217041561e-02
3.872291030285711366e-02,2.707741473860163922e-02,2.793226886030714118e-02,3.897096829395037417e-04,2.791933321783596970e-04,6.506054796136636264e-04,6.935045716315223208e-03,8.542102178162640225e-03,2.368283081190677118e-03,7.318732974815000958e-02
7.015671739024553766e-02,2.524398304353689393e-02,1.493194880560492349e-02,3.651083628220736562e-04,2.526418346801137722e-04,5.831658578888048805e-04,8.351316346600193979e-03,1.525557653298757928e-02,2.080336094047186609e-03,6.141182764678502354e-02
1.205503899536830570e-01,2.765004307160878055e-02,8.635614660528804186e-04,3.345319529579992407e-04,2.222606264890035271e-04,5.107117255521355804e-04,8.442051542679854942e-03,1.870346770196739533e-02,2.102116524001751505e-03,3.840589659970373992e-02
1.575433865104801101e-01,2.898176503866152498e-02,1.842331470139894206e-02,2.982201641403268468e-04,1.884990067826796550e-04,4.339429598294036608e-04,5.891053021487815261e-03,1.754896788528161056e-02,1.803826427221562291e-03,1.830738923389741563e-03
1.804380468119563541e-01,2.929568006862083573e-02,3.340813929390726994e-02,2.565686120607582371e-04,1.518687613180710481e-04,3.536670666971287232e-04,2.884166924160846013e-03,1.316220647759707915e-02,1.344978729285543342e-03,3.906148511936616274e-02
2.028884662129512850e-01,3.503120007139985670e-02,4.255686289851980109e-02,2.101198381288992760e-04,1.129592283604849683e-04,2.707806330287851858e-04,1.837286610997598910e-03,6.783925098543626062e-03,1.013677206630111830e-03,6.556678312348625248e-02
2.186217013170541901e-01,4.478025029627137610e-02,5.142835186857366847e-02,1.595505988164683643e-04,7.242509627983008153e-05,1.862628458622736700e-04,3.393783197301256539e-03,9.825255275007784526e-04,7.514149333427589273e-04,6.430772317432398300e-02
2.087372181719216457e-01,4.425265966728474804e-02,6.307846553398629985e-02,1.056557533499307002e-04,3.095854501033896706e-05,1.011566973896552526e-04,6.790945663818924796e-03,8.206858750903850419e-03,4.308936241741346965e-04,3.846335265983190366e-02
1.746427501260678083e-01,2.393413425226054853e-02,6.423832420018135703e-02,4.932916275898488001e-05,1.072760685049495234e-05,1.654152378370571516e-05,9.385893810745556815e-03,1.249783779027078059e-02,8.496469216364560800e-05,6.183530315862592608e-03
1.424378917821472190e-01,3.965774549366281668e-03,4.077464650570586380e-02,8.457914065535925832e-06,5.191083250943412082e-05,6.649092403230642237e-05,8.180941319761679542e-03,1.454566475226396621e-02,2.194540462345194714e-04,1.209432431975519459e-02
1.318502388191976071e-01,1.656055089430683719e-02,4.118745895378228203e-03,6.668038129853810477e-05,9.187603553217798852e-05,1.468576483565941278e-04,4.477506780365608959e-03,1.725657786861762438e-02,4.903318091314567062e-04,6.806189822525376618e-03
1.317535590884487129e-01,7.932529818197675206e-03,1.739112231451411805e-02,1.242842314710333176e-04,1.299349348252592281e-04,2.235077111440624334e-04,3.417495507781302677e-03,2.109335778421930069e-02,7.530204383620217818e-04,1.650220958807790267e-02
1.144898840389601963e-01,4.798095788678376564e-03,1.298418795800239216e-02,1.802122107193247628e-04,1.654409724222502141e-04,2.954465456026833569e-04,6.426439065601698489e-03,2.456334449485711446e-02,9.986601278975499284e-04,4.249520276870559499e-02
7.021028496415540610e-02,6.756639597388814679e-03,2.817398731308294775e-03,2.334295833678389572e-04,1.978033335059943901e-04,3.617581431617770309e-04,8.630648974034493132e-03,2.895570323882258601e-02,1.210582231448517013e-03,5.730229575537809650e-02
1.832415167056300823e-02,4.311426695967441811e-03,1.545945268070482610e-02,2.829493549128146365e-04,2.265036243076790090e-04,4.216248125218334530e-04,5.966094447752350732e-03,3.705405454222967382e-02,1.388883094297711611e-03,6.024728181445929837e-02
1.320157673357214012e-02,9.720123760133713570e-03,2.544078823006958034e-02,3.278563280234884848e-04,2.511079578266755923e-04,4.743452189185084697e-04,2.425548257309144938e-06,4.697136376283791298e-02,1.538434485051118393e-03,6.419423895230613741e-02
1.467662938494164460e-02,1.881515754444724325e-02,3.781720247923803235e-02,3.673293971236756927e-04,2.712701740863804529e-04,5.193501702995126845e-04,6.054134569828173440e-03,5.326931555490874853e-02,1.657282376011912084e-03,7.707082472114688831e-02
3.417040641642655335e-03,1.706892298097195670e-02,5.230587762448901668e-02,4.006615326457103258e-04,2.867399936442716199e-04,5.562152212562281690e-04,1.140885133862372738e-02,5.506431757465150151e-02,1.742148745448781049e-03,8.471717677200923946e-02
6.429101416406417593e-03,3.831202671167429274e-04,6.726966082411571513e-02,4.272769650181604132e-04,2.973826674731582399e-04,5.846698288019592550e-04,1.618089379038186240e-02,5.683487450938516650e-02,1.793937490912844886e-03,6.576204233568841429e-02
3.268044034443842727e-02,2.170883201122545889e-02,8.185035447610240766e-02,4.467451493369387766e-04,3.031804802137599863e-04,6.046030712738295013e-04,1.921846516774139077e-02,6.022193249038886725e-02,1.815208874525113796e-03,2.433268959849646182e-02
6.755102984896386997e-02,4.016775433562742859e-02,8.921596161477068909e-02,4.587911726038428452e-04,3.042018842530122666e-04,6.160657709697325585e-04,1.919546964940083492e-02,6.188383107392700366e-02,1.807531317015856950e-03,9.926355746033161884e-03
9.501333926425946375e-02,5.491732103057291037e-02,7.738860326662708178e-02,4.633023543921494327e-04,3.006008389741207957e-04,6.192689057252896570e-04,1.644674947934916809e-02,6.052825107374062985e-02,1.772570842173722908e-03,1.787856509607188560e-02
1.138916408975986644e-01,6.769628638890047567e-02,4.409910600358213362e-02,4.603308867553454280e-04,2.926778419483455455e-04,6.145783633701028432e-04,1.278981667678104166e-02,5.868075756558079753e-02,1.713263615246092162e-03,9.112758508696644152e-03
1.287299383878145742e-01,7.238967834478290952e-02,5.304389765992578894e-03,4.500924577035257147e-04,2.808700353905920540e-04,6.025060892517309459e-04,9.657364613977856282e-03,5.581842489818002878e-02,1.633221380764887523e-03,9.145086884935291899e-04
1.368423390876457868e-01,6.038628738901833520e-02,1.734441908245371380e-02,4.329609018286815852e-04,2.656002464169110238e-04,5.836978044942588541e-04,6.916968848536220356e-03,4.626237867944751198e-02,1.536060883731342128e-03,3.361146363603126526e-03
1.332131545594628375e-01,3.587580597181053155e-02,1.740329753517144001e-02,4.094590193331649900e-04,2.472668557892777680e-04,5.589178393698710553e-04,4.083962646121674402e-03,2.633462181972139049e-02,1.425547103508722309e-03,8.176365898546162497e-03
1.217406277529111958e-01,1.682422283305110011e-02,1.071580787294668449e-02,3.802457991655841616e-04,2.265322380152866983e-04,5.290315156925387043e-04,1.938824932699248146e-03,2.362525565421792588e-04,1.305772441270180951e-03,1.055066071486394572e-02
1.114387227082518084e-01,1.664540790071422638e-02,1.859119121842617642e-02,3.461003706327320890e-04,2.043127225404665361e-04,4.949849150223504949e-04,1.524402461779886253e-03,2.293372684196232428e-02,1.180949026324172157e-03,1.673501931833206498e-03
1.034108682637628757e-01,3.035003296685709340e-02,4.284399938379379602e-02,3.079030869210504315e-04,1.811186439203783588e-04,4.577823429828146778e-04,1.834017141317769405e-03,3.836469543669850796e-02,1.055176667912028536e-03,1.931999821954648658e-02
9.207719382673534847e-02,4.046713667405697074e-02,6.324784102124873797e-02,2.666142119808551027e-04,1.570114686771448146e-04,4.184632853315660406e-04,1.209876382276242049e-04,5.146048717209124324e-02,9.323923849210049956e-04,4.173444083777532593e-02
7.970421073688674363e-02,3.277476829783402407e-02,6.037622825916566516e-02,2.232507410856493686e-04,1.329627279841935487e-04,3.780798001823451040e-04,4.742462970949593536e-03,7.048894620237872166e-02,8.163377533539099493e-04,5.406089226615254373e-02
7.778259750459164124e-02,7.097421713281909690e-03,3.591329723974139715e-02,1.788619327390400787e-04,1.109306353510397883e-04,3.376721913350103511e-04,1.014586319778900542e-02,9.220991013014771809e-02,7.104489982471665944e-04,5.304478024258904578e-02
8.909788906366189476e-02,2.413776919093951756e-02,1.260412307982571901e-02,1.345041567823354579e-04,9.090970757539217854e-05,2.982426193929378676e-04,1.224483890819866999e-02,1.026012285640681421e-01,6.177485015231388770e-04,4.268163767292189326e-02
9.765082619635848116e-02,4.766413664312627030e-02,1.363675039494992997e-02,9.121567171933466888e-05,7.064136834532343018e-05,2.607330018566543419e-04,1.027816360750967266e-02,9.499187122223667901e-02,5.407860803858568479e-04,2.881721377030133785e-02
8.497518786577665240e-02,5.820289456669618111e-02,3.594501999538503301e-02,4.999194946119449702e-05,5.186112612761429046e-05,2.260098354169171194e-04,7.156786242599867329e-03,7.845036584419769199e-02,4.815963192314081146e-04,1.520948891755708084e-02
5.381372377854253680e-02,5.590409538372130560e-02,5.219963855671758829e-02,1.176216444471473571e-05,4.103717299789314465e-05,1.948441168857824454e-04,5.688884462890861880e-03,6.419158811697632527e-02,4.416510255642691163e-04,3.541610042060321529e-03
2.651180578878742367e-02,4.257669524148097184e-02,4.621917888734512064e-02,2.263257818409730249e-05,3.601025426357943194e-05,1.678820037447709081e-04,5.295172239220082011e-03,5.274106841688381425e-02,4.218240114442944107e-04,4.235444541354173829e-03
1.743195121992944033e-02,2.376655665321889335e-02,2.875411614427016496e-02,5.245877648210009892e-05,2.403538578157811298e-05,1.456327873912411611e-04,3.406417104438225988e-03,3.941370639542100818e-02,4.223793870381901960e-04,6.844963099403125403e-03
1.792015731305129228e-02,6.197945072754204414e-03,1.273795276587679111e-02,7.710736221169919771e-05,1.023794359626406254e-05,1.284854446011245664e-04,4.184020717135907507e-04,2.443227300297001053e-02,4.429761055453001290e-04,7.154283789702481355e-03
1.559824206898593850e-02,9.798169986895229402e-03,6.269207224785227489e-05,9.610736394760834467e-05,2.252513546114499882e-05,1.166983711182772358e-04,3.714221259798569132e-03,1.173201504828197059e-02,4.826835575943338509e-04,1.076325836145901847e-02
1.345910917851087830e-02,2.598072509903185182e-02,1.768552416181861167e-03,1.091360671655814123e-04,5.092465731782013768e-05,1.103376262320259496e-04,4.534814296751348180e-03,3.025295810236586485e-03,5.400111438451023508e-04,1.963150131305518506e-02
1.704496037340971076e-02,3.486115301056635224e-02,1.772497137065894707e-02,1.160255671274083232e-04,3.538109959150036253e-05,1.092819366330178622e-04,3.423242588124399393e-03,2.320904639862599907e-03,6.129533702455974842e-04,2.886908480418439935e-02
1.928024812526210260e-02,2.672638009340196075e-02,4.627358054282446065e-02,1.167655995991616873e-04,5.025452284170619241e-06,1.133505594237046841e-04,1.966641953380800830e-03,4.287691862333824731e-03,6.990476921531108175e-04,3.111584304931626702e-02
1.406626638100564805e-02,7.650157752923410562e-03,5.604208486600587014e-02,1.115023167662790098e-04,6.014096272821496864e-05,1.223029920029794851e-04,1.368036276840551993e-03,1.310208688197573787e-03,7.954424720707420262e-04,2.423261895365327184e-02
1.011538734499194125e-02,4.827531410383172246e-03,4.047094188429751355e-02,1.005329825576738059e-04,2.014559389762887731e-04,1.355839600655142500e-04,1.966317161525194240e-03,7.558305011020842630e-03,8.989740307943801505e-04,1.365816764476591311e-02
1.631734658948906513e-02,3.396709340913610202e-03,1.750382889476641279e-02,8.429732942914278777e-05,9.810003310865545139e-05,1.523459759733707434e-04,2.855692033950107435e-03,1.866101927447203282e-02,1.006251375902293341e-03,6.127486544982282957e-03
2.514654883411781422e-02,4.824139803877554658e-03,2.884929654711910173e-03,6.336597648802010996e-05,4.417303379447052474e-04,1.720329356126980703e-04,2.946486427237448441e-03,2.452246287349194726e-02,1.113746145881633473e-03,2.690162695090537494e-03
2.323048131637533292e-02,1.197441861235265179e-02,2.597651411007545832e-02,3.842494412436327369e-05,1.112001047905548500e-03,1.943944144759521720e-04,2.762913475534566673e-03,2.218976524182474444e-02,1.217885268950592414e-03,1.988912622709454979e-04
1.142296336950724897e-02,1.540994899960117931e-02,4.597724188431487335e-02,1.025626341057559658e-05,1.398113927432248927e-03,2.182946178040350970e-04,3.596852319302163911e-03,1.679068297973365653e-02,1.315144190465032930e-03,2.252629101640422557e-03
4.194201967480409854e-03,1.553726505018295130e-02,4.320665416673044601e-02,2.028213647339967908e-05,1.069177660730274027e-03,2.417120207969887980e-04,5.114774116667952092e-03,1.274433568802860184e-02,1.402138491573166543e-03,2.301538704767267223e-03
1.048023002972926082e-02,1.640396208569367895e-02,1.707129689763956654e-02,5.227583650247646853e-05,3.573091094396877712e-04,2.643490765270169142e-04,5.783763499020962498e-03,7.253128942208577831e-03,1.475711582581472423e-03,1.262883096365176490e-03
2.281159158216884350e-02,2.106213252637839303e-02,5.765798421346634596e-03,8.477787039428402304e-05,2.216988211446211483e-04,2.877703784804952264e-04,5.267617151254901445e-03,2.889918781849185221e-03,1.533016274909773657e-03,7.465654320533091776e-03
2.810099893861006323e-02,2.275562108136313169e-02,8.367009640410991503e-03,1.168387172098581757e-04,3.606781328164461193e-04,3.099037338824701926e-04,4.564016545038134150e-03,1.447594439966417082e-02,1.571588286781300378e-03,1.621627829798061304e-02
2.330174332042905458e-02,1.184907151041853825e-02,2.701875677186631273e-03,1.475294257771883307e-04,2.503879618306187587e-04,3.246722576553704798e-04,4.238017745177955972e-03,2.281173650556330562e-02,1.589409941313061746e-03,2.765536375420867693e-02
1.500980451611049794e-02,7.709136049001343027e-03,6.654764374390460552e-04,1.759524680922086831e-04,2.107190970750824556e-04,3.337971793066300797e-04,3.984463864293221781e-03,2.799198296500389482e-02,1.584962522914615344e-03,3.785405728400569048e-02
7.541317315138458370e-03,2.124091345382894333e-02,5.758678105003073658e-03,2.012659268583570236e-04,2.703066082842314126e-04,3.479567332066012416e-04,3.555213824151028448e-03,3.189079201215626325e-02,1.557266044927305875e-03,4.002626096988868426e-02
1.511465415261191783e-03,2.168108902092279883e-02,2.019011788188695630e-02,2.227314135565332763e-04,2.980846244390979779e-04,3.616700322760012872e-04,3.085011116732962189e-03,3.306386138403164671e-02,1.505905515514220812e-03,3.231349828230827698e-02
1.458682316719258840e-02,1.457239461930595961e-02,2.411816030323903765e-02,2.397295717537645536e-04,2.745187704611675925e-04,3.502200115675476377e-04,2.680537560082737764e-03,2.859892732743805899e-02,1.431043123260506084e-03,2.083468366449590936e-02
2.909661914138518546e-02,7.524756892895563543e-03,4.160186735277438506e-03,2.517178835489582698e-04,2.593976694620179092e-04,3.232581110027546098e-04,2.288916422148681244e-03,1.919957197816210895e-02,1.333416102000323147e-03,1.240544899918611006e-02
4.015521223922588478e-02,2.781008002483321886e-03,2.189802902405188489e-02,2.582485692998836408e-04,2.626216203010881553e-04,3.328168528463256717e-04,1.894998770234713201e-03,9.668284814961781298e-03,1.214320385867539596e-03,7.623019255382583112e-03
4.439996836454560003e-02,2.161324097039693179e-03,2.713183537619988372e-02,2.591023859228648325e-04,2.564086840010822979e-04,3.590588859690954952e-04,1.520267520933161250e-03,4.297313169933547790e-03,1.075580516728600906e-03,4.223120600748760112e-03
4.065490159354769040e-02,1.067330753343206928e-02,1.070716794632433320e-02,2.542871873426851611e-04,2.359536710566577876e-04,2.900665629066154281e-04,1.111761550020527560e-03,3.334184839264104413e-03,9.195065999203586721e-04,2.648053378914318797e-03
3.025833039378014733e-02,2.247561457364908796e-02,6.992867031536047911e-03,2.437747273790837098e-04,2.145095197175653863e-04,1.653078051131565444e-04,6.794807977899114913e-04,5.016109125570545647e-03,7.488394148318524126e-04,2.822891232306564725e-03
1.754958327889080683e-02,3.357727116517384564e-02,1.591566359296740785e-02,2.275082180028805497e-04,1.949194342077603453e-04,2.280538879941247990e-04,3.960273604750411147e-04,9.307911966717114655e-03,5.666850709104601612e-04,3.839088868305882106e-04
8.324878723389699670e-03,4.141461487621295179e-02,2.593833768019499983e-02,2.059644976167181174e-04,1.715590585475932077e-04,4.106753245342568298e-04,2.454584509957188996e-04,1.642044349438378029e-02,3.764408493355553579e-04,1.131047449778807557e-02
6.476251229175973914e-03,4.591747807905908335e-02,4.426125631705472158e-02,1.801410127419644477e-04,1.436765529911965874e-04,1.506589639743619426e-04,1.844315655805223945e-04,2.291688384486708849e-02,1.817140780888799011e-04,2.503212422853984959e-02
1.061443995808561414e-02,4.482429980084050303e-02,5.634198546960231951e-02,1.503322531358909750e-04,1.146304840656568128e-04,6.743151188940520310e-04,1.134191622749008282e-03,2.431584954259436576e-02,1.376395091968795953e-05,3.080601841002557698e-02
1.455185588927150261e-02,3.389311833476046920e-02,4.195850114827507499e-02,1.160924870669229124e-04,8.561625023507043217e-05,1.193613737380991172e-03,2.317094748695558253e-03,2.107807219453599126e-02,2.062269024260431809e-04,2.459517458409322260e-02
1.416550934500962478e-02,1.376535160022413808e-02,6.796722455697212437e-03,7.880509057515438002e-05,5.592683972079136138e-05,7.680516497436353689e-04,3.514816300159661917e-03,1.693839487573065017e-02,3.919629762635157603e-04,1.512568763153394544e-02
1.260848622210983434e-02,7.534049898803497902e-03,1.975574214495925268e-02,4.177785672785024626e-05,2.587302844655593688e-05,3.497724487886409456e-05,4.648143745545419217e-03,1.289791115560632966e-02,5.674029579065949193e-04,1.494404382992142385e-02
1.494787316488290115e-02,2.118002342943785601e-02,2.149065014397142162e-02,4.699798433077242646e-06,3.324225056359264493e-06,1.367692260559894295e-04,5.010083483815964099e-03,8.168461709970742043e-03,7.292046027508450106e-04,2.571375635683952054e-02
2.060117980005378088e-02,2.531753548883170640e-02,1.132206019767320604e-02,3.677135554439370821e-05,3.092375299582038204e-05,1.287861463755803407e-04,3.889772769782314822e-03,4.271600117579684233e-03,8.743313149700451641e-04,3.656991118332115348e-02
2.593439880309010223e-02,2.485519418406438585e-02,4.442891580736110270e-03,7.925018358165408501e-05,5.665164182835247280e-05,2.675515658990288499e-04,2.073923286613525534e-03,3.003494151339410403e-03,1.000123230115048658e-03,3.818606551032973501e-02
3.070950938925514836e-02,2.385708954935246429e-02,4.792345890616991552e-03,1.105066683388794264e-04,8.007016813218843982e-05,2.104840783017096657e-04,1.099875003727093879e-03,3.122666853851301799e-03,1.104359004299965401e-03,3.219923117788601324e-02
3.650843841631346010e-02,2.071514128146178038e-02,2.558649277255716642e-02,1.346214409010425066e-04,1.005944883895624949e-04,1.996403240495784367e-04,1.229357153506790978e-03,2.819786952340804648e-03,1.185306846896174836e-03,2.447930644676011083e-02
4.122179114534380018e-02,1.241461816886151731e-02,4.323171573035731324e-02,1.750981306072282894e-04,1.178050112793487805e-04,2.735012546464753972e-04,1.563765020889801337e-03,3.065486512656574389e-03,1.241763602175790897e-03,1.707605186616998477e-02
3.999497006889456141e-02,6.737041843121830418e-04,3.044036961792877596e-02,2.212892919694234393e-04,1.314578196001787666e-04,3.194132289320043209e-04,1.539730194773931580e-03,5.884435197743001153e-03,1.273080981609994028e-03,1.076711294690935357e-02
3.168680878574372389e-02,8.985995621914627529e-03,1.325269317870939739e-02,2.204090100745273093e-04,1.413503534866038323e-04,3.170711012187020267e-04,1.232524172059086195e-03,1.020544689587723521e-02,1.279178365203205523e-03,8.187689824843176131e-03
2.122395625093907376e-02,1.199507098458224737e-02,5.402559475353550800e-02,1.918030036525834100e-04,1.473238374994816969e-04,3.183185129900663302e-04,9.537028986424432933e-04,1.140010390724027767e-02,1.260541919517870054e-03,9.962220528717518481e-03
1.341322037007547548e-02,6.517892198999719437e-03,6.247115250895583088e-02,2.471716999299664931e-04,1.493320703303133363e-04,3.329008809264120722e-04,1.131975494512735790e-03,6.629524501079685044e-03,1.218210113830646901e-03,1.223018425644563367e-02
6.800520186736862087e-03,6.379775401982324887e-03,4.272414139130633476e-02,3.471102258578366941e-04,1.474437831913199886e-04,3.364750482474331006e-04,1.781136558874016947e-03,4.076170442551950868e-04,1.153746046016260662e-03,1.017819305170353759e-02
1.757998572576855920e-03,2.222713921370228496e-02,1.776742462021242003e-02,2.486895510364046198e-04,1.418098482590216826e-04,3.242042384628304567e-04,2.098436492767203742e-03,3.438953183480040858e-03,1.069197308270847246e-03,2.506160005040547305e-03
8.935533958769066587e-03,3.516134625594111163e-02,8.509870756624859228e-04,2.015264029547563624e-05,1.326579275340786235e-04,3.076646986549839372e-04,1.503253967154593576e-03,1.389215820337060068e-03,9.670444219724298913e-04,6.429993351791956843e-03
9.004283812104312695e-03,4.119892575520386208e-02,1.238266293690888815e-02,2.248827049379957868e-04,1.203007860718203982e-04,2.897070920749877671e-04,6.088574638041578148e-04,1.832261181180907476e-03,8.501391436506731437e-04,9.628655269684507217e-03
4.222553894300676465e-03,3.864262909586406447e-02,2.889672916435176084e-02,9.863053459084620677e-04,1.051289759776738008e-04,2.655872666803352211e-04,2.632069842031937567e-04,3.586235484324137336e-03,7.216341837040854412e-04,5.746053096041346848e-03
2.331518024171470686e-03,2.812519888139578331e-02,3.984198589546612129e-02,1.435101905363152545e-03,8.759423736072673801e-05,2.347359764356489378e-04,3.598233600395101418e-04,4.205679961699631750e-03,5.849060805002530023e-04,2.007341753625768721e-03
5.397825924276876582e-03,1.457181953738591502e-02,2.642147837606165228e-02,9.335786308440758826e-04,6.819772855801068507e-05,2.003537230361419560e-04,3.506770857889743710e-04,4.476407042541984647e-03,4.434731301319253102e-04,5.672216668124400313e-03
9.090270004401984974e-03,5.067901647544226229e-03,1.064066441542575042e-02,1.207161262476045887e-04,4.748066121933947401e-05,1.638713087739469257e-04,1.641820454435241280e-04,5.149432561221284517e-03,3.009103827654921980e-04,1.587322868786172902e-02
1.042628933156885228e-02,1.040700814755489943e-03,4.290109072874012663e-02,1.329120996873203329e-04,2.601112458131406795e-05,1.250451884352332438e-04,3.960213271936231967e-05,7.013738296151457788e-03,1.607637777566891222e-04,2.615312208858680890e-02
1.013657059983028019e-02,3.937767692442466216e-03,4.675873643696048382e-02,5.046000783635408492e-05,4.368616978537341133e-06,8.452311048335207151e-05,2.051117919305619347e-05,9.151133867043661357e-03,2.646550028390985102e-05,3.214328041457150537e-02
1.030298624183899683e-02,1.403138256118785857e-02,2.913771367131205714e-02,1.085480950369332434e-04,1.687030217425450346e-05,4.379949971661141879e-05,1.347325467316142292e-06,9.289423641160053646e-03,9.874739783711372490e-05,3.479010144897538848e-02
1.222547768007117841e-02,2.159371727952184503e-02,9.685450893370235390e-03,2.591200965710741482e-05,3.714541127974039158e-05,3.981029792441931976e-06,4.655446282056326145e-05,7.048766726351480411e-03,2.119091600100944282e-04,3.652189104989653212e-02
1.340031202746783806e-02,1.449670092648992596e-02,7.178778774524567120e-03,1.091567893195796371e-04,5.592637751842912167e-05,3.424052793021150720e-05,6.428511497887941630e-05,4.544546142335872257e-03,3.103944527582329469e-04,3.594446738785174456e-02
8.278302591947941588e-03,6.652432322912156006e-03,2.748010682329503351e-02,1.011117996978808879e-04,7.272590472781773421e-05,7.004321960859296843e-05,4.465945404235114160e-05,3.132587840048454888e-03,3.919788230029959603e-04,2.941660808958707074e-02
3.610443357775437387e-03,2.587417268922283936e-02,4.396223253604965298e-02,1.129892681858518340e-04,8.711149008507382795e-05,1.024869925718034836e-04,1.254089056688679473e-05,1.689426309052656028e-03,4.548890668701920971e-04,1.802807711806364913e-02
1.420681374130170101e-02,2.915951625474983225e-02,3.664826488225809975e-02,1.638399746220252167e-04,9.871560567607487902e-05,1.307986368884835244e-04,2.518472602665975291e-05,1.022014766372301466e-03,4.978423443185882574e-04,8.723012546861504471e-03
1.620358717579859983e-02,1.842111265883157947e-02,1.167247305337428247e-03,2.007833504737086266e-04,1.072443778460347932e-04,1.543965630007958353e-04,7.741206605145061490e-05,3.979976932116865117e-03,5.200731530690602678e-04,6.844585921898260240e-03
1.115870163879896342e-02,5.675455486787837726e-03,3.910591357871651130e-02,2.132795649615188403e-04,1.124845172932666690e-04,1.727813851036340384e-04,1.441788420233473290e-04,5.525509396810391466e-03,5.213475746089712114e-04,1.035719871710535749e-02
4.895093641053115639e-03,5.487709960980723719e-04,5.840203386469789565e-02,2.251390233878771796e-04,1.143081902281931192e-04,1.855428685072521122e-04,2.174817035223501041e-04,6.080396881530105054e-03,5.019645170819062984e-04,1.243781665418077984e-02
4.545447731118155369e-04,3.570726953284679255e-04,5.421467101072199174e-02,2.409401764292180576e-04,1.126757379203761043e-04,1.924268430776328157e-04,2.929286298100547197e-04,6.704880670047924998e-03,4.627439970004008549e-04,8.508391507891628625e-03
9.691096173174850066e-04,5.071266744733316303e-03,3.956991536870614612e-02,2.491289478092142962e-04,1.076362563802405077e-04,1.933436997083463123e-04,3.696215110530470934e-04,6.539202195442454790e-03,4.050028162079894974e-04,4.863730397718003416e-04
2.536273933496046434e-03,9.586744790060466176e-03,2.221352174707667826e-02,2.471565790527014621e-04,9.932602285804029380e-05,1.883431729630525675e-04,4.448188948953822803e-04,5.489401974455446545e-03,3.305182947397697227e-04,6.206713332509159950e-03
1.067097463345666186e-02,9.809622202145000872e-03,2.716557134506500208e-03,2.403412903490771192e-04,8.796478348014843442e-05,1.776110041299222792e-04,5.140385809944942415e-04,7.078659681937560406e-03,2.414810068493504470e-04,9.012020261999134987e-03
1.794057999093753852e-02,3.075273076614919599e-03,1.527167733794825878e-02,2.300843726867880345e-04,7.385000469573611565e-05,1.614765785375850502e-04,5.736926247971754723e-04,1.346176329781607200e-02,1.404377296120045858e-04,8.696032918597794426e-03
1.792667117651993922e-02,9.055140502122076274e-03,2.707825796418617675e-02,2.142548969981956496e-04,5.734925195076334220e-05,1.404054759668627332e-04,6.212311514437509610e-04,2.012441757999433589e-02,3.022604493685549767e-05,5.575856726042261596e-03
1.037237228287360945e-02,2.079351786043560565e-02,3.710710371064630808e-02,1.927029555652839900e-04,3.889088606587418496e-05,1.149819459941578209e-04,6.540226582569158608e-04,2.083548053664278574e-02,8.609776893935198300e-05,1.099688622123086261e-03
6.656111255409994515e-04,2.733592251567365516e-02,5.162296588734106156e-02,1.671329937831428662e-04,1.895330352549999111e-05,8.589391018653329247e-05,6.693194166163977726e-04,1.575285567852601973e-02,2.053357659057379050e-04,1.942556656915564060e-04
7.256713911981405897e-03,2.940518553250516531e-02,6.010689595887926118e-02,1.385025120662023302e-04,1.947007906993351367e-06,5.391874193346103970e-05,6.649063248350832499e-04,1.032596689299103247e-02,3.242283795928700219e-04,5.121827302088938737e-03
1.313095311266033495e-02,2.955586485620447651e-02,4.294798105238246955e-02,1.070275608378473719e-04,2.326829913729025384e-05,1.990444054796215254e-05,6.393632416798532107e-04,7.930650535480305088e-03,4.395355258842489204e-04,1.057004650124255749e-02
1.627767083672210929e-02,2.610447608350085699e-02,3.373272585801361922e-03,7.337553892296629294e-05,4.445696565530280684e-05,1.525242604902536675e-05,5.917998270685701553e-04,7.499042191068283625e-03,5.481167806127913884e-04,1.068489698514986201e-02
1.500407499082360464e-02,1.589443729909532227e-02,2.921419255504335843e-02,3.864922766565775827e-05,6.496120219522527465e-05,5.062878426129014357e-05,5.214725804097821230e-04,7.681816018390234813e-03,6.470086854557820016e-04,7.478574894581444497e-03
1.013909463578014508e-02,5.524467416404239351e-04,3.498386170193303057e-02,3.798155032007058163e-06,8.424455872603329619e-05,8.529698855313612362e-05,4.280213456532828520e-04,9.147963187232016624e-03,7.334973148920084654e-04,8.509966644507437755e-03
4.735075615489707859e-03,1.517673344687936292e-02,2.274977424464271619e-02,3.041224271540441166e-05,1.017990662794708090e-04,1.183473630473611866e-04,3.123462474561728699e-04,1.158633413683120283e-02,8.051843618727183354e-04,1.777367606842487555e-02
9.027118112742063940e-04,2.778224639565392284e-02,8.848298552453982835e-03,6.315692573650817849e-05,1.171576433309869016e-04,1.489106370904399828e-04,1.763589901918887100e-04,1.212048632197009618e-02,8.600451663271556444e-04,2.972267298017755577e-02
4.370895716616669943e-04,3.405148489412349738e-02,2.678610713354244270e-03,9.356503919560845881e-05,1.299054857325580544e-04,1.761791395355570946e-04,2.110274353444701332e-05,9.030698790639670251e-03,8.964773145350657607e-04,3.373215662413114185e-02
1.630339602769826637e-03,3.103182853730057991e-02,1.370678730884151465e-02,1.208642783098120454e-04,1.396901046183250293e-04,1.994263141566904871e-04,1.529165954693567501e-04,4.197892085373894529e-03,9.133386736022192261e-04,2.652860902639168211e-02
7.708812265686927102e-03,1.996560000513938546e-02,2.298626776431964003e-02,1.444044233849387025e-04,1.462297660327754867e-04,2.180243661064172481e-04,3.418110336166240489e-04,2.298675835853275506e-04,9.099739878341774231e-04,1.610088195675607806e-02
1.728531523064132797e-02,6.066560707443117463e-03,3.060809994482076649e-02,1.636157045855285235e-04,1.493202644085808457e-04,2.314595845903869432e-04,5.390084284553667802e-04,4.684639369679821468e-03,8.862294462239725824e-04,9.352839181230627671e-03
2.817175973484352391e-02,6.564826751334679536e-03,3.959030917811588723e-02,1.780197693011367007e-04,1.488398884653830540e-04,2.393448424042795295e-04,7.438104328745583776e-04,9.830256840183241446e-03,8.424549256704280805e-04,2.641379483388527245e-03
3.669622883718008655e-02,1.665006687918810235e-02,4.536330283282574705e-02,1.872680815087301141e-04,1.447521840955890056e-04,2.414289849314176406e-04,9.603508075597102980e-04,1.401503959017997257e-02,7.794939156565348871e-04,8.792290593594249623e-03
3.955999026703647947e-02,2.345300615320105794e-02,3.425509503976174180e-02,1.911518453989886879e-04,1.371064105441104108e-04,2.376029452522213374e-04,1.179524780852881424e-03,1.485145632561130948e-02,6.986614294354842949e-04,1.934950249825992744e-02
3.584374898840169549e-02,2.617285610046287889e-02,2.898359998847837432e-03,1.895942073714109919e-04,1.260362863710363110e-04,2.279024344595681354e-04,1.380985663653762959e-03,1.230786115994748908e-02,6.017104970998323095e-04,2.059134776010561677e-02
2.680305388492208035e-02,2.526811255350729091e-02,2.984561095487961446e-02,1.826508104889766810e-04,1.117571724747076057e-04,2.125071148212617550e-04,1.572067417801286966e-03,9.303897480541924170e-03,4.907881106023573824e-04,1.508681172309285674e-02
1.476415513420828961e-02,2.286202894360423593e-02,4.199730061481601884e-02,1.705138669466723679e-04,9.456048967704420928e-05,1.917362785049910100e-04,1.784821169103955902e-03,8.623830677109938295e-03,3.683817431448278834e-04,1.250703030968117191e-02
3.758872428509214998e-03,2.172671814198487428e-02,3.258747272462664268e-02,1.535074839716689399e-04,7.480524749855283395e-05,1.660411508542104623e-04,1.992838441377818223e-03,9.424548432716058771e-03,2.372577885740788069e-04,1.556122802007310971e-02
9.159394444332336505e-04,2.260626296716145012e-02,1.736274619974035455e-02,1.320764812381136090e-04,5.290962045934812262e-05,1.359940055510380492e-04,2.115257920490379827e-03,8.755052520954039602e-03,1.003934554936327468e-04,2.018668645101325682e-02
1.933279506159690103e-03,2.186417403118314298e-02,7.084937875611661655e-03,1.067747114513495252e-04,2.934342281043150280e-05,1.022743489235320661e-04,2.199758414564462194e-03,6.651090869102833231e-03,3.909619705779661413e-05,2.587709904492839497e-02
5.318992818644897348e-03,1.440189014061091233e-02,1.489625823075996745e-03,7.825226199646413781e-05,4.615870190157089672e-06,6.565250478631607343e-05,2.434550523146513257e-03,6.193343302436884155e-03,1.780342842688180220e-04,3.348152048856119917e-02
1.840453137882708430e-05,1.023796936157278319e-04,1.552121679567979202e-02,4.723916948288603120e-05,2.074258781189730708e-05,2.697099913203143383e-05,2.668699971278506913e-03,7.441116349822455081e-03,3.132593181457192727e-04,3.521993832821990883e-02
1.559666302995983168e-02,1.626342137203933003e-02,3.112364715703168361e-02,1.452645436978082856e-05,4.619157242612897068e-05,1.287579948453494690e-05,1.921745396962410085e-03,5.844930697958214579e-03,4.417017486263562372e-04,2.080472678321405172e-02
3.429235571724038173e-02,2.825769064052718882e-02,3.161383495233019425e-02,1.905378401233148510e-05,7.118137664077477003e-05,5.296329289762253184e-05,1.071673716019098596e-03,9.112103206826275593e-04,5.604579667750574611e-04,5.854131649488420776e-03
4.824275807938484956e-02,3.399395916194167255e-02,6.600077145343070245e-03,5.264888599717536710e-05,9.516912146928216594e-05,9.235901143560520379e-05,5.968728665985125088e-03,8.733853556037380825e-03,6.668599775270014083e-04,2.829837141991617053e-02
5.408487811299732273e-02,3.476126286360610440e-02,2.959501962575998568e-02,8.540684770443811389e-05,1.176583719384412995e-04,1.301451789814304471e-04,9.590679250565784658e-03,1.243410292529566197e-02,7.585390687253300290e-04,3.702243695917425276e-02
5.210581589361883842e-02,3.253002733947762265e-02,5.022723292362256398e-02,1.164976355060297103e-04,1.382053541327198348e-04,1.654409114955288096e-04,8.412496938380028405e-03,1.173406451069175342e-02,8.334819713356284238e-04,3.670049728343830614e-02
4.483340129742132557e-02,2.789773097738416918e-02,4.585857283787457550e-02,1.451337918592596492e-04,1.563724465954296908e-04,1.974235083464714001e-04,3.061124949022863903e-03,9.788363747009913574e-03,8.900781837833545134e-04,3.395000147253383199e-02
3.580587645141786873e-02,2.027831763889778594e-02,2.933557740425439542e-02,1.705898543766660297e-04,1.717489546982222206e-04,2.253483841443601455e-04,1.825223145683331234e-03,8.186245170212685940e-03,9.271573231698888124e-04,2.888350812438143789e-02
2.657288171547887365e-02,9.559002082749545534e-03,1.351851744845564141e-02,1.922202412253731178e-04,1.840827264562080589e-04,2.485671724942210489e-04,3.154495083927432927e-03,5.487429031288305545e-03,9.440156371225366747e-04,2.073740412332318594e-02
1.618608194549389298e-02,2.339709213868617407e-03,1.390458197490100026e-03,2.094751512046259237e-04,1.932666939193978162e-04,2.665434332994388086e-04,2.299612403294190501e-03,3.337265345092940401e-04,9.404311439390206778e-04,1.361546926343234869e-02
4.851386352590226179e-03,1.161910372841623400e-02,1.746986892603346816e-02,2.219140282385908853e-04,1.990799856924194871e-04,2.788655536284030982e-04,1.790911939955802494e-03,5.757319144214995306e-03,9.166670985327814592e-04,1.232767719344521166e-02
5.177413249548162150e-03,1.578971403978441518e-02,2.924100341716818693e-02,2.292162680507822225e-04,2.012270030327335184e-04,2.852568097039965135e-04,1.986997352153591773e-03,1.038002860969554700e-02,8.734636224248530818e-04,1.503437530680214532e-02
1.298655546342774789e-02,1.620704807418852159e-02,3.159401751427990540e-02,2.311889375312990236e-04,1.999025633180912952e-04,2.855824191180056457e-04,2.018564757580782430e-03,1.332752138011647144e-02,8.120177238257161086e-04,1.471471573659617615e-02
1.908513622068607613e-02,1.505320917155401374e-02,3.082749046489193304e-02,2.277713208855481795e-04,1.957283284242743149e-04,2.798528173614324194e-04,1.725604672856154631e-03,1.476307712022044416e-02,7.339525241905639572e-04,9.621595092561014556e-03
2.163823097523468256e-02,1.169131701878068676e-02,3.562873053796331013e-02,2.190361741577573427e-04,1.885431392853083310e-04,2.682229079043428870e-04,1.506849115533974307e-03,1.269663109064331045e-02,6.412765600446404144e-04,6.276202254358759572e-03
1.705009095664302907e-02,5.545692842755414569e-03,3.771067798940647836e-02,2.051876657996486890e-04,1.774999902537283982e-04,2.509885686778092731e-04,1.445928130639139017e-03,6.288464411606310353e-03,5.363335982098302529e-04,7.764806826079205873e-03
5.301607991520554744e-03,7.087759442227654352e-05,1.865226112845864981e-02,1.865560685630498713e-04,1.636387711505522900e-04,2.285808954856443872e-04,1.359441664802447762e-03,7.129653575917667191e-04,4.217440517072484473e-04,7.744982017385612996e-03
8.740538688783702770e-03,7.018159678208687503e-04,1.896644721152486793e-02,1.635893415836278469e-04,1.497275038358310186e-04,2.015556266403168838e-04,1.210912877905226132e-03,3.846193796795888738e-03,3.003407177679374941e-04,2.709304626639148176e-03
2.029806211074905789e-02,1.434923068075835825e-03,4.765524795844303801e-02,1.368418154646091549e-04,1.347398542754399235e-04,1.705770832370883815e-04,1.097156238663574536e-03,3.719446242917028023e-03,1.751008218020699988e-04,4.572714822406955979e-04
2.816301913595503983e-02,3.091430207432117319e-05,4.995737137227650171e-02,1.069602674280000794e-04,1.140216293473432534e-04,1.364027387401685245e-04,1.040187652667014110e-03,4.993560172063341192e-03,4.907334247690394195e-05,2.606998656690095659e-03
3.228699457455832394e-02,7.493345660426731746e-03,3.668004212056220903e-02,7.466773879565328457e-05,9.105681393403112622e-05,9.987090139958467133e-05,9.828827082092057160e-04,9.980116899892716581e-03,7.469752697376098080e-05,4.445753441655620267e-03
3.102004202739255118e-02,1.563244056214463037e-02,2.438978236446326733e-02,4.074550067206017035e-05,7.738371821108790680e-05,6.187962819428425155e-05,9.162084997348160899e-04,1.507273578863132547e-02,1.932451942102702451e-04,1.508262813613748653e-03
2.301369064467498338e-02,1.706827027650718864e-02,1.529351803916704881e-02,6.013617948411711163e-06,6.742742777704103401e-05,2.335254802928869348e-05,9.008110363592289468e-04,1.456302303842745179e-02,3.037458864531276037e-04,9.051828716944824299e-03
9.971650045494153888e-03,1.053451865966969353e-02,4.166256761488724633e-03,2.868940395945005379e-05,3.798325903096275461e-05,1.478170276000141637e-05,9.442201279587762340e-04,7.276070015332338631e-03,4.035868805632214008e-04,9.109225348027556735e-03
4.294350292365123160e-03,8.088869420961456499e-04,1.114488829736071281e-02,6.252738335558973763e-05,1.913466122097473278e-06,5.158494771993312931e-05,9.487640578784400491e-04,2.438101166162122066e-03,4.904409412931523375e-04,3.781663123100348269e-03
1.635830056375171815e-02,6.477757667714225710e-03,2.748618743631933009e-02,9.468712251477304914e-05,1.061892459346397484e-05,8.613493305627590462e-05,9.025911006978698612e-04,1.018503755014841389e-02,5.623193135759347846e-04,3.087211088576561312e-03
2.443260966822415059e-02,8.939136937985103087e-03,3.370955261037046624e-02,1.243984528668947928e-04,3.938348356193840824e-05,1.176050766815390852e-04,1.001233064531607949e-03,1.526829919681188703e-02,6.175910297707690915e-04,1.235573701692936968e-02
2.869458340769500196e-02,8.214958262285547083e-03,1.640465357356645296e-02,1.509531702931389411e-04,2.106437292055818317e-05,1.452798073890923265e-04,1.288077842908490721e-03,1.785449453429124866e-02,6.550230846883712448e-04,2.602280569571704255e-02
3.016340334179518426e-02,7.274794622853002039e-03,2.084485413110970936e-02,1.737223942370071496e-04,1.199506957445074996e-04,1.684488899885434984e-04,1.292022519773545043e-03,1.548912591405173476e-02,6.738654559041389307e-04,3.112230141872539962e-02
2.844267151375770575e-02,7.091797313682196048e-03,5.397829033508057955e-02,1.921719244618650378e-04,1.917097256448912587e-05,1.864312002484798305e-04,3.764436935834407491e-04,5.728901666111268359e-03,6.738621929875041310e-04,1.923739437092120835e-02
2.220756329698768058e-02,6.828428968330356105e-03,6.414116451161029631e-02,2.058752198336596885e-04,1.889198920332180827e-04,1.988539391425040272e-04,1.777360058471448134e-03,9.143004333584874715e-03,6.551321251076943882e-04,2.365027134650045468e-03
1.278435750189235026e-02,6.319067919760893576e-03,5.556435091852261754e-02,2.145236831685331570e-04,4.887149638847361976e-05,2.056543981726187029e-04,5.179488715872298393e-03,2.325218808985693789e-02,6.181700333908822075e-04,1.739804872928186683e-02
4.424555647778635574e-03,6.240096764509594184e-03,4.176694096945234719e-02,2.179340035422956386e-04,8.034804496325004741e-04,2.065202095206235288e-04,9.140022934758032513e-03,3.231517707004511603e-02,5.640948784163510614e-04,1.944172702623036056e-02
5.145514261091633894e-04,6.124661249116456624e-03,2.763095624840228304e-02,2.160523808451478148e-04,1.225060386169263705e-03,2.008978345272990017e-04,1.152671924281148050e-02,3.558707024685803938e-02,4.946129980380909331e-04,1.484265447023610726e-02
3.569536995755515259e-03,4.627730332961590629e-03,1.156009207026987423e-02,2.089555349166443798e-04,7.875720299820080338e-04,1.892047765057401057e-04,9.926193108603159274e-03,3.409868113858555844e-02,4.114131944869842020e-04,7.297113259221307650e-03
5.771618053835084888e-03,2.255468523497161041e-03,5.060690808053826609e-03,1.968484813782689076e-04,9.037410120941300113e-05,1.728489629033605577e-04,4.666685892839291493e-03,2.918699118472289217e-02,3.161246061681450138e-04,6.076348787768448209e-03
4.892345031059879695e-03,1.391694912935625061e-03,1.741966481790241036e-02,1.800591363334202121e-04,2.392714990783045555e-04,1.516354529840013908e-04,6.165195430391860439e-04,2.192529989790898207e-02,2.114741199868077498e-04,2.033453076763346370e-02
6.771391866516743643e-04,2.732396943597986422e-03,2.284344666930996151e-02,1.590298904509512942e-04,2.558943062343865902e-04,1.236416819915242256e-04,2.793135110791045150e-03,1.262378068002578679e-02,1.012481351673816450e-04,2.038645619934732409e-02
8.453794911101783147e-03,4.165741976776464114e-03,2.328542830573302955e-02,1.343063676472999984e-04,4.092343783543633075e-05,9.072645734559966297e-05,2.415024130710111561e-03,1.680869089450930587e-03,1.235973717526237976e-05,1.373823936965558887e-03
1.489803746850931407e-02,4.017772793856119046e-03,2.254946827382380697e-02,1.065236527926579111e-04,7.065364502078866089e-04,5.890435047433193296e-05,1.883344859291605222e-03,8.487263570052571218e-03,1.289323728630566786e-04,2.119840927089088750e-02
1.963658924355275726e-02,3.030352709430742062e-03,2.257429757141306628e-02,7.639033489265580784e-05,1.114477262506913561e-03,2.654563314236784327e-05,2.078386621000518578e-03,1.411403040695400658e-02,2.443775704575126568e-04,2.985241560628730528e-02
2.339695720188548697e-02,2.534111194719844331e-03,2.300289107638220365e-02,4.467076552122440432e-05,6.661311805415308721e-04,1.678367952859636814e-05,2.307856961712896875e-03,1.365322538807450282e-02,3.506081789898740034e-04,2.290448200055858127e-02
2.327737853849794550e-02,2.581602011683648955e-03,2.316412478419814167e-02,1.216597560075831267e-05,1.117873174571624377e-04,6.521055362198436385e-05,2.183336519193467863e-03,9.023643400072566684e-03,4.473924458898920816e-04,9.119452975457204708e-03
1.547654030534360847e-02,2.347069477099356788e-03,2.318363414484320151e-02,2.030627410801268386e-05,3.688419943411181930e-04,9.348639690776966394e-05,2.006685244250490732e-03,3.108978180633414998e-03,5.435588106644544852e-04,3.366910782838791923e-03
3.307507357469532602e-03,1.508074669909996489e-03,2.349335252597604257e-02,5.193181300564895619e-05,1.754786698667134387e-04,1.106037168797099164e-04,1.960986328921117839e-03,1.951510078575133863e-03,6.319229461375142944e-04,9.268621734852995619e-03
4.248469490482135319e-03,9.619682638488682123e-04,2.407165812845171379e-02,8.192024721238944985e-05,8.451356107622571808e-05,1.678238399313860488e-04,1.907997336601974844e-03,4.724772265823159838e-03,6.862501085068315691e-04,7.883316860853063768e-03
4.253393376485784666e-03,1.524311786130369767e-03,2.440273630043490391e-02,1.095245131092770354e-04,1.880460955900660632e-04,2.444438944974940370e-04,1.762817274442416348e-03,5.278404854584420151e-03,7.148945375646570573e-04,4.552797202947061854e-03
3.052491290794332249e-03,1.625658769527407819e-03,2.437195295943250101e-02,1.340593149917327688e-04,2.478443735596829638e-04,2.276066867414663355e-04,1.593659872931360317e-03,5.047556078310391943e-03,7.688412538876737224e-04,4.064730148883603268e-03
5.201808755090596426e-03,1.432923477359513038e-03,2.484138415393362040e-02,1.549179925825760215e-04,2.131383823447912762e-04,1.557887292389256945e-04,1.443451074866614970e-03,3.981152803988467770e-03,8.274781542014377324e-04,5.275574270651642479e-03
6.654822011632519074e-03,6.607059553139176152e-03,2.609516812560069149e-02,1.715874039486618556e-04,1.933348980853895056e-04,2.712415138364203805e-04,1.280580727072842167e-03,7.703009352057568239e-05,7.784019533452098127e-04,6.528964314922764897e-03
2.610794923350925282e-03,8.836250583500475722e-03,2.635498133952473773e-02,1.836604593372239509e-04,2.134134198623403140e-04,5.053116348168675172e-04,1.090937347988450712e-03,7.042444597190958278e-03,6.608933754440912516e-04,1.004941193226909814e-02
4.593774671022480757e-03,5.827040284578316118e-03,2.490933324222397230e-02,1.908460003373631893e-04,2.223581160002738950e-04,2.944822878065075662e-04,9.028012177455512497e-04,1.253159961353741969e-02,7.183370453284163579e-04,1.696167388392329917e-02
9.924879116130843823e-03,1.408131167615303981e-03,2.554939692797885548e-02,1.929757851008949280e-04,2.078040794115486442e-04,4.845258749665003217e-04,7.243093753396412241e-04,1.308543664582063198e-02,8.835122539704420418e-04,2.425270044250026416e-02
1.245062771543137443e-02,1.395289543971949377e-04,2.995014988822755631e-02,1.900084124715508663e-04,1.935534816141881004e-04,9.619719110455017845e-04,5.286633749379800401e-04,1.086714650380680471e-02,5.945978838196424579e-04,2.861043210651679353e-02
1.286081204135453883e-02,7.270306304170101900e-04,2.811683334802542178e-02,1.820300939851590824e-04,1.858642320120006705e-04,4.994742756555634478e-04,3.249673058043743437e-04,1.008810810465328792e-02,2.697695917217119918e-04,2.801264615358141363e-02
9.207896756402576127e-03,1.366593962857598054e-03,7.369876247068004108e-03,1.692522609217389116e-04,1.739497765788708546e-04,2.649227619129150384e-04,1.717951411128879535e-04,1.094629432044550571e-02,8.377613296205819321e-04,2.092694871825537956e-02
7.260959277022268395e-04,1.151253661151219361e-03,2.663554038836627932e-02,1.520060719578939293e-04,1.551282009043876452e-04,4.618075861351128900e-04,5.480374971289194352e-05,9.988060674885359397e-03,4.687878540925103895e-04,9.487911042436493469e-03
7.973901881097880673e-03,1.003631683915398760e-03,5.141223459678840452e-02,1.307339635535907673e-04,1.348863883972825119e-04,2.147731610823637276e-04,1.363023190169856632e-04,5.024707343103002391e-03,2.013797810980781015e-04,1.066324758308625316e-03
1.160655524074179559e-02,1.169384145732652383e-03,5.354763530228889151e-02,1.059784581568094818e-04,1.150935249985228357e-04,8.762680331127843582e-05,3.606413372495325320e-04,2.194366532210288538e-03,3.056123743319075670e-04,1.715205046572580022e-03
1.035314900931216808e-02,1.247914834155300747e-03,4.030414562350059793e-02,7.836851280985202917e-05,9.381388340038893689e-05,1.492824752379598907e-04,3.724648230173531385e-04,7.414586598014820742e-03,3.026154158365689569e-05,8.789022109766415208e-03
8.343995750384752483e-03,1.210853422682897597e-03,2.390188412941495963e-02,4.860375105544030171e-05,7.080884068728914179e-05,1.577131378522310943e-04,2.376385822909748817e-04,7.681372670514757112e-03,2.403005526422649987e-04,1.215072187455111877e-02
8.720008100362587611e-03,1.218152775232598725e-03,7.635240903776902011e-03,1.743697272197198780e-05,4.767592365260842481e-05,7.462532662633161089e-05,5.182998353910940343e-04,4.239169720614521276e-03,2.536099457451956082e-04,3.802404367704054385e-03
1.157832696379662400e-02,1.095743721790988024e-03,8.957176500857534987e-03,1.434462187975714424e-05,2.525758597233824710e-05,1.301354986614111680e-05,1.336993272333185162e-03,7.541318723086557624e-04,3.104372217559048675e-04,1.283994793567518403e-02
1.452028979464235585e-02,8.174194707101880598e-04,2.158184373859563243e-02,4.593902567275432271e-05,3.527445298451612651e-06,6.330994640794867647e-06,1.823600220849202948e-03,1.405281745123530129e-03,4.475402212049269489e-04,2.536228016737242935e-02
1.444624629930491531e-02,9.202845109918764708e-04,2.520301680084452434e-02,7.654934954170814745e-05,1.721473417198999186e-05,3.463239895932336494e-05,1.340093689717119022e-03,4.145160745354101520e-03,5.506692413730913775e-04,2.567520584181560289e-02
9.542198398653282260e-03,1.585627320335226487e-03,2.338418603897622280e-02,1.054035841938786634e-04,3.629168546010206529e-05,8.089793076175516649e-05,5.257409081730756058e-04,8.762949370126071197e-03,5.980877836932756066e-04,1.758871627568035084e-02
3.191184324605799501e-04,1.952089625730909963e-03,2.494311363995708325e-02,1.317737099276433514e-04,5.322322891502611036e-05,1.199454321439999101e-04,2.518478407953290608e-04,1.355177728770994364e-02,6.404062577938214942e-04,9.310161220153120518e-03
9.626179463313323803e-03,1.334759777175936269e-03,2.801277182693953302e-02,1.549936814733880535e-04,6.777179289973320133e-05,1.460184409843097344e-04,3.972738456690942297e-04,1.615079920184950626e-02,6.863633578988022300e-04,3.351437098126532153e-03
1.452109729352313479e-02,3.880046812938590635e-04,1.718763580116081449e-02,1.744758444167751089e-04,7.968680922223848949e-05,1.697149335398678675e-04,4.012310617032382163e-04,1.621909440529077651e-02,7.108584278972588343e-04,1.812339318950932122e-03
1.141322810593612021e-02,5.730809524236033176e-05,1.427431200727523677e-02,1.897253807908097902e-04,8.869129384545459613e-05,1.928722126854348759e-04,1.983421963365319723e-04,1.441552534078049258e-02,7.085629447267008775e-04,4.226221783134646165e-03
4.038336640610987877e-03,1.816483239927645489e-04,4.891178211540482546e-02,2.003524296669478768e-04,9.461025629049237256e-05,2.097219991075187839e-04,3.458549473549764748e-05,1.045505690465278054e-02,6.908371503255222390e-04,1.257909302251823376e-04
1.164532592269158437e-03,5.723073058749411331e-05,6.395688845209183959e-02,2.060815837026057753e-04,9.738509945647539398e-05,2.186847128576697530e-04,4.747066409057196001e-05,4.157178253875615064e-03,6.605946952297085716e-04,7.700930316352255084e-03
1.892597176603048577e-03,2.938326542940313912e-04,5.710009933125956977e-02,2.067585307919006955e-04,9.701772370948954930e-05,2.219885177265911748e-04,1.563530233315733257e-04,2.558118891505130853e-03,6.134298875695291288e-04,1.104749638601112971e-02
4.205919082451846261e-04,3.265954153075334258e-04,4.181793891692688059e-02,2.023536877358189017e-04,9.356457351059611059e-05,2.201531326440130196e-04,3.083420673239606661e-04,6.522315268191076869e-03,5.493772549400998285e-04,6.818733374698909486e-03
1.120976651217675795e-03,1.866380752090327248e-04,2.652521273011402766e-02,1.929627420753124401e-04,8.716159837523198759e-05,2.121069344118575598e-04,4.476865286357348869e-04,5.807194252324598613e-03,4.724898767314549409e-04,1.176900774119014805e-04
3.127954826316517879e-03,6.452644482468491375e-04,1.075768923103395842e-02,1.788040805814373200e-04,7.802362891284188404e-05,1.977723150752655229e-04,5.608431516401899851e-04,8.269747700471116476e-04,3.852775187725582815e-04,3.471657275602357730e-03
6.874405226320465072e-03,1.327536926449024088e-03,4.506467050162658861e-03,1.602131714846463130e-04,6.642648350541215758e-05,1.780382686044107595e-04,6.687486729770080384e-04,5.960620896818327741e-03,2.887742388621680517e-04,3.293517205833124128e-03
1.246302599464022866e-02,3.914876491395103612e-04,1.462227946009491200e-02,1.376340738345792694e-04,5.269851891292828155e-05,1.535402388028491284e-04,7.735388863487383752e-04,1.115730641980946895e-02,1.850716587334732090e-04,1.811228856952642324e-03
1.814245259788675041e-02,2.500853739874919508e-03,1.822337930421510238e-02,1.116082945988481300e-04,3.721827038594811653e-05,1.246439695800870544e-04,8.613047720627862265e-04,1.264522038674570012e-02,7.723816669236957836e-05,1.638945170659263356e-03
2.094596756882195418e-02,4.389659219365852488e-03,1.854004573872693185e-02,8.276121264265046584e-05,2.040589422830559548e-05,9.199805145166499996e-05,9.267817131461341621e-04,1.136512642986065719e-02,3.195460216755431756e-05,3.258477740523410895e-03
1.924661227846224260e-02,2.570341778815857150e-03,1.761507091718675019e-02,5.178639736156130701e-05,2.710137289755531108e-06,5.652558014793949314e-05,9.731285164675750575e-04,1.015701818406888023e-02,1.400999589955071931e-04,3.312660753508314161e-03
1.485498291476991875e-02,1.195052984524970279e-03,1.578224042181322270e-02,1.942834522347959537e-05,1.540304960938846415e-05,1.913914850637089777e-05,1.001301685980240290e-03,1.047349738813451239e-02,2.446530645383396827e-04,1.756274011317917900e-03
1.039305933769329310e-02,2.525307703134287412e-03,1.627420511428710054e-02,1.353590454717750163e-05,3.346061113966816345e-05,1.928780329163436540e-05,1.008661802413924908e-03,1.061599824455756319e-02,3.429849277819685557e-04,8.998744605605740396e-03
5.522421566808937907e-03,8.144223629579275779e-05,2.047561922488159991e-02,4.631609682323619797e-05,5.099367784160644399e-05,5.781915310846752411e-05,9.920915828161868712e-04,7.544497759656679410e-03,4.327081784995776589e-04,1.106372688208907308e-02
4.996556886374868773e-04,2.700633863461646827e-03,1.812485763248806656e-02,7.812862239426620627e-05,6.754952163580255943e-05,9.547415021579133134e-05,9.517009364720720741e-04,5.034539357218610579e-04,5.117406138711360014e-04,5.934396325744517933e-03
4.758431256009878693e-03,2.216084637238211093e-03,3.658422382916969549e-03,1.082158273575342016e-04,8.270261150274178948e-05,1.313086871821946217e-04,8.935050006487971555e-04,7.563016213651008873e-03,5.782315670709365545e-04,1.331255663940125473e-03
4.826037282404369022e-03,6.117425105476703012e-04,3.832173535466843611e-02,1.358641211036216772e-04,9.606458351705804411e-05,1.644410566147006458e-04,8.214141897960531343e-04,1.274372830022820792e-02,6.306008123152297704e-04,5.945464639677683349e-03
4.326033600300079572e-03,2.303172505958048927e-03,6.202251101952410695e-02,1.604217007363932285e-04,1.072934809392300819e-04,1.940464747137023670e-04,7.269388267463120336e-04,1.365254535752965202e-02,6.676328625526862116e-04,6.383052947099229074e-03
7.983906515325501704e-03,2.206186917945906524e-03,6.147681939897362002e-02,1.813158521013225608e-04,1.161020612754762099e-04,2.193754843756247667e-04,6.059530649566400055e-04,1.148717349187965142e-02,6.885076459799770697e-04,2.551302562234064077e-03
1.405703465985054003e-02,2.420601520939161689e-03,4.565979923878139141e-02,1.980667087686890817e-04,1.222647036421879393e-04,2.397848015565335971e-04,4.830067480935962016e-04,8.127386525172881210e-03,6.927917633032873316e-04,2.913915276108715313e-03
1.772906425303155328e-02,2.940041274170678790e-03,2.860743147898473990e-02,2.102962115875916659e-04,1.256226386377640755e-04,2.547539778477560875e-04,3.760050301169299484e-04,5.370487070916041446e-03,6.804455595150866141e-04,4.572100784863079859e-03
1.819571393995966443e-02,1.364679928416956964e-03,1.454783564131080682e-02,2.177377762294042051e-04,1.260874793915187650e-04,2.638923032227757188e-04,2.422197401023071369e-04,4.133054412919669532e-03,6.518348920373143564e-04,1.562726578667984691e-04
1.670011288615907627e-02,1.934514746558637418e-03,1.936101057383180857e-03,2.202485462082879187e-04,1.236432454040198813e-04,2.669479552945138129e-04,5.206784439726880315e-05,3.285495173961738933e-03,6.077214746400594380e-04,6.321454376385138123e-03
1.238453599493883305e-02,3.029761618103769295e-03,8.694344739917984205e-03,2.178117588873692244e-04,1.183468450788448012e-04,2.638170570632694862e-04,9.345602098957469660e-05,1.199747837269674305e-03,5.492369025177070915e-04,9.936144397215131499e-03
5.575691293038433603e-03,3.533389541461826066e-04,1.501044126549924002e-02,2.105243400679452043e-04,1.103264167774748643e-04,2.545466920826059852e-04,1.175289003682792449e-04,1.289179198289388921e-03,4.778532036714122893e-04,1.020748808470881529e-02
1.753726129503074002e-04,2.939721304807181405e-03,1.666499865741109809e-02,1.985959106014811057e-04,9.977743089270899556e-05,2.393327185629594105e-04,2.230778648104626816e-04,1.773229835492034362e-03,3.953485534270321849e-04,9.900423830847918452e-03
1.721044424324510340e-03,4.126230711772367436e-03,1.592019463890768927e-02,1.823702251893646094e-04,8.695791631934372693e-05,2.185151232896197422e-04,5.695321706806757370e-04,1.456967264392458432e-05,3.037632873277573155e-04,1.096006983229125958e-02
2.538027208494872834e-03,4.119051918197960682e-03,1.511819688475428587e-02,1.623135519272762102e-04,7.218331437642302962e-05,1.925706249204743711e-04,7.131918082606386036e-04,1.709076906213137428e-03,2.053482245107289637e-04,1.223589169030461950e-02
3.002032958472448075e-03,4.102421631439670709e-03,1.479523429799161835e-02,1.389453783005997409e-04,5.581839498913951337e-05,1.621014344044026661e-04,2.698844023089942983e-04,2.170579442651753531e-03,1.025092681957297887e-04,1.043628441177555169e-02
1.199942023046138414e-03,3.428894247189344553e-03,1.438918026726208714e-02,1.128298991266645608e-04,3.826552063133551547e-05,1.278206099304457011e-04,2.319773140677702631e-04,2.725416803041154443e-03,2.250756557695371245e-06,3.962735460829389621e-03
1.174137311773343004e-02,2.424946149231617387e-03,1.368465407091874059e-02,8.468473831795183800e-05,1.995527187328292437e-05,9.053495060765223040e-05,2.010927526734418696e-03,4.463620480430061793e-03,1.063928754331830651e-04,4.191759780621033722e-03
2.130539452428953026e-02,2.994129747205705617e-03,1.293374067382613637e-02,5.535638004769529639e-05,1.341772994980384400e-06,5.112576550978960017e-05,4.705075801110148240e-03,5.886863105001102422e-03,2.074037021407822764e-04,8.347438483874683804e-03
2.144720276198026909e-02,4.728663387770954372e-03,1.224048425811286554e-02,2.553635210892149171e-05,1.710934458965158739e-05,1.052769986733330626e-05,5.480929603412437907e-03,5.163790234621580544e-03,3.028560538276202059e-04,4.929027520775766148e-03
1.414563527828263667e-02,4.438777160181008735e-03,1.147914539779211658e-02,4.248826262553139258e-06,3.494487742953539001e-05,3.029384215492163430e-05,3.468517182638173636e-03,3.404589962267327418e-03,3.904670591401609493e-04,3.736350224701685038e-03
8.705136467080983736e-03,1.265473564074787779e-03,1.061855251229210095e-02,3.308965335932453650e-05,5.173342546083262205e-05,7.036600337000891282e-05,9.857750436514406845e-04,3.406801785487676305e-03,4.681526470892251931e-04,9.295916909072155648e-03
8.803578939107346846e-03,1.510393217879247045e-03,9.770522348597423731e-03,5.971706875684636476e-05,6.704899200988428433e-05,1.087319589413743184e-04,1.354884585131162970e-04,5.684417805106516813e-03,5.340770881949315988e-04,4.279908006558853957e-03
9.436837335177151662e-03,1.361407820758722513e-03,8.949251223787485152e-03,8.373240673982968721e-05,8.048418664007517753e-05,1.444740756302590671e-04,4.438629382091846586e-04,8.198687061386576019e-03,5.866962837246821440e-04,8.303480934911854766e-03
5.986596138661367389e-03,3.590945023130044655e-04,8.030101527837061812e-03,1.056468868978226232e-04,9.171761717243181577e-05,1.767361794948033623e-04,5.523443554962416792e-04,9.848880886174244190e-03,6.247937985897356874e-04,1.666262197304861636e-02
8.175275570085989343e-05,1.635875800582221352e-03,7.051625577625770733e-03,1.243103049195840829e-04,1.005170736568892088e-04,2.047443635427712483e-04,2.425529067818371631e-04,1.133533734431335302e-02,6.475088616575096472e-04,1.385156526824918820e-02
5.257695084718637217e-03,2.798270155366391898e-03,6.278606010752416262e-03,1.368095978591371401e-04,1.066221950750857880e-04,2.278258322094506793e-04,1.914522091215606131e-06,1.221618651004861139e-02,6.543556876633354735e-04,4.440607954282798676e-03
9.006909776559388417e-03,4.854050446923216695e-03,5.659694390203782316e-03,1.440019322741347275e-04,1.097573661449903709e-04,2.454253375865118750e-04,6.643255523797414550e-05,1.025685878062100771e-02,6.452336631186130194e-04,3.820824933919201531e-03
1.284880952803064968e-02,7.221080692796030126e-03,4.636836278302922457e-03,1.509133750031965151e-04,1.099010989851299786e-04,2.571188053556639126e-04,1.784123350967860657e-04,4.714799046703254531e-03,6.204281916007949255e-04,8.490072861908662047e-03
1.646698842125540740e-02,7.954580988873864028e-03,3.092866200209026112e-03,1.549627090431642679e-04,1.072792520753144393e-04,2.626238100333887497e-04,3.790691882131654294e-04,2.222682593186740309e-03,5.806022312340434642e-04,1.004541198364543135e-02
1.694840404323882249e-02,5.088560569624732584e-03,1.909165620788001077e-03,1.448243819070483521e-04,1.017982304083083758e-04,2.618066413280922562e-04,5.628357971210519190e-04,7.955360597834819705e-03,5.267787669617431286e-04,7.182448264165691189e-03
1.232155318916590414e-02,1.764027433334446711e-03,1.735252700133611305e-03,1.255611627668696976e-04,9.304809472287030217e-05,2.546857879881242329e-04,7.021171113500877196e-04,1.136171423948055884e-02,4.603146719992959150e-04,4.984649697755748430e-04
4.650314538607873589e-03,1.042206583132856447e-02,1.936869214235190702e-03,1.217120291745392658e-04,8.151120015618676308e-05,2.414317486649830214e-04,8.406954360453158760e-04,1.239368753278589572e-02,3.828666249590435442e-04,8.618102891943436525e-03
1.195377377260803398e-03,1.739483690126337329e-02,1.643277431507257939e-03,1.236923615862189278e-04,6.857990027391067231e-05,2.223631665929171671e-04,9.867492360586262948e-04,1.216705164241219800e-02,2.963499403148223219e-04,1.172392887460849999e-02
1.422517249392120115e-03,2.011754512224683128e-02,9.836850812823009702e-04,7.978018362015189171e-05,5.396351788404274994e-05,1.979393751206458935e-04,1.115097068749137032e-03,1.274421128420879373e-02,2.028913338115523400e-04,8.652473521436795587e-03
3.923577396375087407e-03,1.785017585394691256e-02,5.342578719185037649e-04,1.035991778271239794e-05,3.556579189662742387e-05,1.687495286177026097e-04,1.217567650719160325e-03,1.446257554015067601e-02,1.047767848358381387e-04,1.882947872095834616e-03
1.161951723958559723e-02,1.190901232189289088e-02,3.581230940189654779e-04,2.811977934573877837e-05,1.499796706961449624e-05,1.354985754249585326e-04,1.301945589320162864e-03,1.500576172938957939e-02,4.395772308599743626e-06,4.356210383018174585e-03
1.857837187641864576e-02,5.548694459454581868e-03,1.868633176059360202e-04,9.456738362674600219e-05,2.040924416678026017e-06,9.899040598303744339e-05,1.368159099862798671e-03,1.341755195315166849e-02,9.581675681770763001e-05,4.809507252027896140e-03
2.346653692538594113e-02,1.587484743471151297e-03,1.220149431019421776e-05,3.241160068752464235e-05,1.755657914040052535e-05,6.010857844089818154e-05,1.410103500531428378e-03,1.260925935211150081e-02,1.934392792016353924e-04,2.095054243063015735e-03
2.518331251306295954e-02,5.769339582607128187e-04,8.065557946362867086e-05,2.838773448188715146e-04,4.241035314781536842e-05,1.979508346774599278e-05,1.427573609157672344e-03,1.518393704507845637e-02,2.861220251812846113e-04,1.032151760285908958e-02
2.311175633393694126e-02,3.506099667146361093e-03,2.407012301908586279e-05,9.588472267364331802e-05,7.119769672578397566e-05,2.097234191120466606e-05,1.422325062887291403e-03,1.893860159833556447e-02,3.716433447659176978e-04,1.187482906094290518e-02
1.916763528218100310e-02,6.839585114512429509e-03,1.157070983719621013e-05,6.554050651043756299e-04,7.916830802537941185e-05,6.120380568475794025e-05,1.390886888788723207e-03,1.921002918075631963e-02,4.479627600827900476e-04,5.462602241764084876e-03
1.488000942308953869e-02,6.584926293275592674e-03,2.341199503029371166e-05,1.100927754087331232e-03,7.583073893854789410e-05,9.992118868815301415e-05,1.333273112785957277e-03,1.453496780119508877e-02,5.132694403711731291e-04,2.548275412085676799e-03
7.250656506867242911e-03,6.149534185262698531e-04,1.931466653517977970e-04,6.030790109242707827e-04,1.129676073058118993e-04,1.361818309054141645e-04,1.259985931290778143e-03,8.036004097046949707e-03,5.660249511434843270e-04,3.856331539283048074e-03
5.997902994901613619e-03,7.292349801530980530e-03,5.675543489034048190e-04,1.992382218066627371e-04,1.703899204797959662e-04,1.691014030057166136e-04,1.173238681944312927e-03,3.596157818827804172e-03,6.049992716582595258e-04,4.509418198197295662e-03
1.873560064697967625e-02,1.079231250245001744e-02,5.266267843944093252e-04,4.356931762563260669e-04,1.357344455613116536e-04,1.978754084753086705e-04,1.055429622785480828e-03,1.888078332090686179e-03,6.292992409934052922e-04,1.626170920901994985e-02
2.172250167817902505e-02,7.290643009157024394e-03,7.010798292772556575e-05,2.289215674593715242e-04,4.793969067456256214e-05,2.217987937084194027e-04,9.088814582118959987e-04,4.789542405263094499e-04,6.383887787051779634e-04,2.126873522923134266e-02
1.485717047627668590e-02,9.595573926026774612e-05,3.818888117284318534e-04,1.417586040974932950e-04,1.496758819013111125e-04,2.402831881179503788e-04,7.793122966126292015e-04,2.930478771780902023e-03,6.321004266824500287e-04,1.634588615410248469e-02
7.791238272877133025e-03,5.677214904679202083e-03,2.309605122121157102e-04,2.421548123997779693e-04,3.726548176643126008e-04,2.528713526743022496e-04,6.738806333257958518e-04,8.584531824452042506e-03,6.106379694545414124e-04,7.202909094686975669e-03
8.501518338712103079e-03,5.968105939050566931e-03,1.171170081062295788e-03,2.871516437980465870e-04,1.536623777297263700e-04,2.592484819252479809e-04,5.159612117111639015e-04,1.558579305412090797e-02,5.745701058142208256e-04,5.904974227967494825e-04
1.600075024490684242e-02,2.622561911408569525e-03,1.541069590052967370e-03,2.375784703123838266e-04,6.303481105674006973e-04,2.592500798999262880e-04,2.697922108792120228e-04,2.282267911300065247e-02,5.248153599803992040e-04,6.618889787231525823e-03
2.456912267250541126e-02,1.564079932702615132e-05,1.345623091490050129e-03,2.056280288460650939e-04,1.109478841328260428e-03,2.528662125626096320e-04,1.620031922387079443e-04,2.888147921754109088e-02,4.626186304565681174e-04,1.040696740758246218e-02
3.037324547510088235e-02,8.249545189483703089e-04,1.180676148936475860e-03,2.113843068714134333e-04,6.452711905568482911e-04,2.402420266870744199e-04,1.334702336530937993e-03,3.271673461340271483e-02,3.895199742163932754e-04,8.870836961504674489e-03
3.171642577630252868e-02,2.468732959062813065e-03,1.353032742082560004e-03,2.030273985618341907e-04,1.242258258542248473e-04,2.216745150712440575e-04,3.644997165194195643e-03,3.449930982024024956e-02,3.073164081270113768e-04,2.493053889013471195e-03
2.775237336239440994e-02,5.492142806295658049e-03,1.551157767423924161e-03,1.710797218220219738e-04,3.295139665823600236e-04,1.976055987348806879e-04,5.749211578005342972e-03,3.471760573033164793e-02,2.180176742431158034e-04,2.771144781181590893e-03
2.177164203753073971e-02,6.572757205494960710e-03,1.170445572320214433e-03,1.403896574559112328e-04,9.401963208569604890e-05,1.686116859526351497e-04,5.326922054398183434e-03,3.300058969465799463e-02,1.237970568934952935e-04,3.355235752336468980e-03
2.081395975398033296e-02,3.782234279796868170e-03,1.949541669940565265e-04,1.165241436508396479e-04,1.869247480726342889e-05,1.353899535133140425e-04,2.484073407433440555e-03,2.879940255958946677e-02,2.693845404111565062e-05,1.942248709028187659e-03
2.557769279722744288e-02,8.137427492082194465e-04,4.815282487302207206e-04,8.884415049243164558e-05,5.997868807494676543e-05,9.874167538890847790e-05,1.265067188664384336e-04,2.224244129764711350e-02,7.021900940852112175e-05,8.065701589355432719e-04
2.654402228446101769e-02,4.431716887034270295e-03,2.583024920711476306e-04,5.562041827468181693e-05,8.763033276608600758e-05,5.955299610345623785e-05,4.529468617443027433e-05,1.363530124737473599e-02,1.653374847697301015e-04,2.790481596959061214e-03
1.760690286210147767e-02,6.113561058580683702e-03,2.162149146512642333e-04,2.287539717826775993e-05,2.553945371050855606e-05,1.877360875360788761e-05,6.742387873838710669e-04,3.879330359820087198e-03,2.561366561733738985e-04,1.070911664426402350e-02
