1.073780550465805624e-02,7.710095578954748868e-03,5.063216144726116232e-03,1.208795370350066291e-03,1.241811307665060529e-03,5.060110961039523828e-04,1.493657986172738060e-02,6.383539858648321422e-03,5.862112426421490358e-02,1.942012962327024830e-03
8.670217454595780318e-03,8.154877946290949725e-03,4.008367802540962165e-03,1.561656306539786852e-03,1.087535123773428073e-03,5.273397135183049197e-04,9.660189384024808062e-03,2.087454305352928405e-02,2.611316620488502577e-02,3.437001202088440241e-04
6.516775053320725264e-03,8.529265708757808803e-03,2.812720250208869573e-03,1.453134340850633982e-03,4.472489660861752214e-04,5.344444590767946125e-04,5.557994859954693955e-04,4.601377787428811983e-02,1.970918459731661396e-02,1.014346517681410497e-03
6.941387189772188666e-03,8.825819248365724193e-03,1.943263638327569166e-03,7.818720026149123805e-04,1.199192062805608174e-04,5.259664464271874250e-04,3.220699279973457656e-03,5.151600801035050026e-02,6.075365951382942498e-02,1.376152657906259263e-03
9.767027364977209219e-03,9.038026207886845978e-03,1.623487451028883793e-03,4.183123943332367478e-04,6.188664428212058448e-04,5.009238428482316527e-04,1.778274789988883273e-04,3.489202815199051594e-02,8.647142276746726253e-02,1.419391553180685602e-03
1.212157365080329327e-02,9.156029600956386641e-03,1.106795039817519118e-03,9.931286069046244523e-04,1.363051089379902240e-03,4.588209322794698517e-04,4.400734145271144836e-03,1.279426049222286144e-02,9.793877609179699184e-02,1.768674316727845584e-03
1.317340465579453640e-02,9.171363188363128999e-03,1.922539769555457897e-04,1.846593809298984487e-03,1.726461397073818368e-03,3.996676209232651500e-04,5.213723546179479217e-03,6.310772225989338220e-04,9.702345713284937778e-02,2.242303430954253364e-03
1.466509345957122713e-02,9.086567493511740409e-03,1.342704379300679093e-03,2.092901374857972664e-03,1.750473137961085918e-03,3.238371030841497196e-04,2.794831173246652492e-05,3.262369578981757709e-03,8.234067248614092283e-02,2.549206996843900001e-03
1.633420353091896357e-02,8.905603267799870604e-03,1.315265606229529607e-03,1.897339085279163345e-03,1.429795478244854723e-03,2.320787942289905545e-04,9.595894264207227922e-03,4.763766997826688471e-03,5.516671189802992148e-02,2.754422205582413366e-03
1.541455878068776798e-02,8.613239837139810562e-03,1.141516282139690055e-03,1.862674556972677541e-03,7.120569272648806297e-04,1.258476516270339376e-04,1.854150878225581736e-02,3.416299276086792128e-03,2.157543483606794155e-02,2.987438513845927426e-03
1.099129245946973803e-02,8.195059767354632291e-03,2.580031258982585368e-03,1.960696406108079944e-03,2.240160193944075798e-04,7.276157626955299135e-06,2.227096241545614350e-02,3.022137787104190593e-02,1.014832265496435487e-02,3.213597346134012406e-03
4.428564314400846788e-03,7.681961353091724433e-03,5.222270767803988134e-03,1.852358108291356264e-03,5.610808023279478286e-04,1.215725792305572840e-04,2.326975776487553299e-02,6.605133153673678481e-02,3.100638310338067055e-02,3.359916668152825286e-03
3.551771609886690204e-03,7.108452060434421703e-03,7.128016604654217360e-03,1.702769252302770066e-03,1.194807471348338602e-03,2.587402518051500609e-04,2.960561056735773813e-02,9.180605077559306215e-02,3.386755280295708492e-02,3.432531451002689572e-03
1.128768090563206719e-02,6.416270438938175696e-03,7.658098754147104475e-03,1.848208154117227065e-03,1.276994309868205793e-03,4.008860872055052785e-04,4.198277237961571540e-02,9.984712408746503065e-02,1.755672107636759016e-02,3.474147813108540480e-03
1.388448034046729264e-02,5.540594181557068239e-03,7.720554381088210599e-03,1.847973655178749295e-03,8.820571023461048999e-04,5.433078711540984375e-04,4.675130877796709189e-02,9.116387585699338436e-02,1.175511912411587867e-02,3.490587655041070721e-03
8.846487624399539118e-03,4.617682799115886000e-03,8.071537349611360851e-03,8.734295969236298852e-04,5.630013000165554754e-04,6.832795663030946567e-04,3.139699825439477149e-02,6.682890420437997969e-02,4.300942992659720354e-02,3.437909073017284337e-03
2.237110768866562051e-03,3.805669696683473737e-03,8.798189807074639421e-03,7.435775662045857526e-04,4.090276705061166246e-04,8.202757650597269174e-04,5.061898422062612729e-03,4.011915425015970260e-02,6.655864800671930370e-02,3.294327824707701542e-03
2.537588790429401962e-03,2.835806894068780126e-03,9.395798180435290317e-03,1.535755830715958238e-03,1.876508383061649171e-04,9.490489151277551206e-04,8.020904379173566384e-03,3.789707255178308837e-02,7.984658582235022728e-02,3.136298791111202192e-03
9.701488401925025679e-03,1.382827724283897499e-03,8.554883057262926277e-03,9.577753609072167749e-04,1.369975929952213436e-04,1.059180764466757969e-03,3.057633581794414433e-03,6.708131880605780473e-02,8.371342374778062423e-02,3.027006854482618831e-03
1.648926787544857664e-02,3.338276571326288301e-05,5.630140680632695661e-03,1.337688587460362870e-05,4.566617414590039194e-04,1.150073543801627147e-03,2.471374861657255062e-02,9.726261550904838349e-02,7.634290793536181730e-02,2.829235753465373249e-03
1.858653560730410409e-02,4.786614940691870553e-04,3.206251978795146302e-03,6.380129668194238664e-04,7.663745662716160830e-04,1.232519153792907074e-03,3.795173933078918593e-02,9.876503592519500496e-02,5.995502655521256496e-02,2.419081820605001060e-03
1.739846454096299205e-02,1.382299257100248237e-03,5.009053312230714664e-03,1.112320275942378514e-03,1.102523716629065119e-03,1.296940839277712764e-03,3.809620860767604089e-02,8.108874313131543554e-02,4.757925543519674755e-02,2.103470372056232256e-03
1.554763625154340079e-02,4.355455857753934117e-03,8.243861041873376191e-03,2.514476906000264042e-04,1.420676175734603792e-03,1.309420555860673838e-03,3.285654436808282952e-02,7.382336529389749158e-02,4.907446313878310179e-02,2.190054314968929283e-03
1.492538352191935015e-02,6.596879220668386279e-03,2.179938717889878374e-03,3.690721650397114310e-03,1.712411129807366733e-03,1.279612634324345287e-03,2.904990288680090252e-02,8.460775914240875606e-02,5.555491418052391217e-02,2.024518702068718156e-03
1.646969386057558354e-02,2.060561112657133438e-03,1.895934817797245708e-02,8.947203343450007076e-03,2.078716818453833336e-03,1.271174206722713515e-03,2.404875641678879891e-02,9.357966530182772191e-02,5.173775524621850724e-02,6.608281598550335301e-04
1.846527835247368382e-02,9.380107316758520830e-03,4.464815454034858078e-02,1.052586503239728681e-02,2.486123145570560619e-03,1.257143112330612539e-03,8.311881246132609216e-03,8.117022597710910059e-02,3.836773444533996685e-02,1.085228664605269186e-03
1.804511648909053884e-02,1.895569067516979234e-02,5.745430662205695815e-02,6.778887415666326813e-03,2.690471723918644482e-03,1.094001667844213786e-03,2.091440871022337902e-02,5.009389956275590861e-02,2.812397738436148847e-02,1.106542696148754600e-03
1.569075153500300648e-02,1.831696047640281669e-02,5.157944983471413752e-02,2.100516747555588801e-03,2.751656217369725412e-03,8.300906893748706810e-04,5.017240448935843256e-02,2.084824986317071124e-02,2.302137022324247939e-02,4.827668116526307720e-04
1.412938258327083550e-02,7.653520502637783419e-03,3.532147558982602631e-02,7.207498363861412471e-04,3.226832933589713574e-03,7.695240379196194302e-04,6.445601408941577237e-02,7.219345563778855474e-03,1.157545646145488952e-02,5.680920422789778124e-04
1.231749450125732386e-02,6.119090346030022984e-03,1.869487568914308950e-02,1.564319159475366936e-03,4.235472417570935837e-03,8.127391850778301627e-04,6.892445217738964180e-02,5.196123789597533599e-04,9.473059279065783322e-03,2.558450690627781833e-03
6.461734404158217537e-03,1.491790379396237473e-02,5.927724584499471927e-03,1.830218095612551939e-03,4.906722510290320929e-03,2.905687190591508184e-04,7.746657724119201949e-02,1.779419066533076757e-02,2.510483772882154616e-02,6.220601537117047101e-03
1.515133582048086265e-03,1.447832523842557638e-02,2.497393271927568232e-03,1.875202660086287137e-03,4.604078637415729737e-03,5.929338078775271605e-04,8.024300467186926134e-02,3.223809646816821334e-02,2.193169803217164676e-02,6.950192332418020195e-03
3.746351482960329042e-03,7.792771591089259556e-03,7.830832474971793911e-03,3.656146974288674786e-03,3.961158266244172756e-03,5.252707030141805515e-05,5.099525787269524463e-02,1.069808970638312304e-02,7.966502410336480378e-03,5.165268792397616042e-03
2.228621132298308667e-03,2.814396473271669075e-03,1.319351057374314358e-02,6.849956014923865889e-03,3.835632921557144241e-03,2.709014918669239678e-03,6.085991891525482575e-03,4.984595630764390023e-02,1.981193833536626890e-03,3.905668636212479561e-03
9.377351637010668955e-03,5.737812745519813538e-03,2.053861011587410426e-02,8.629194627827111233e-03,4.109051795860391328e-03,5.326386812835039522e-03,4.979392220422715343e-02,1.048807594098273427e-01,9.569854466244222951e-03,4.447365122742386566e-03
1.215795551829125520e-02,1.605884748342921789e-02,2.672248220417845418e-02,6.809956757795984639e-03,4.242628844610166552e-03,5.348359531236586417e-03,5.601118338134459390e-02,1.156711189080034952e-01,1.948509059520693587e-02,5.429505599952308588e-03
1.361331030269207105e-02,2.487143193328655508e-02,2.627710711724334791e-02,2.991378339873111691e-03,4.158709517262946902e-03,4.176661771982928886e-03,4.496238450977690232e-02,9.438977671330348040e-02,1.890054816015314040e-02,5.087521283980442691e-03
1.746745278876004823e-02,1.960171284356589105e-02,1.746069244412953511e-02,1.525107889320140471e-03,4.048805114247135128e-03,4.650323665806005424e-03,4.036855473751314871e-02,7.422849628699280944e-02,3.395269191541062763e-03,2.731475560208354667e-03
2.108135264740081116e-02,2.445373672575507692e-03,1.780933327604804130e-03,4.135809145511538422e-03,3.974060120572396430e-03,6.226590420227766376e-03,3.710418463330301259e-02,6.136044499360591292e-02,2.477286436475796549e-02,4.835676295369886876e-04
2.060633818724406582e-02,2.685661809160735936e-02,1.884503008652809591e-02,7.616400904395454960e-03,3.937807301779178669e-03,6.156777034686315882e-03,2.473206590325385118e-02,4.200149307614781807e-02,5.897231130176954633e-02,1.426057333268452220e-03
1.700920081249845950e-02,3.553646203019315830e-02,3.850575121060170053e-02,8.659683988857818163e-03,3.883000149614436458e-03,4.079946166170473308e-03,1.089885289071016242e-02,1.600927769473043175e-02,8.782263771489168258e-02,2.102534902050715027e-03
1.368647917181170515e-02,2.485823253888760215e-02,4.631280414446738158e-02,7.929372650118327731e-03,3.619418277807816796e-03,2.185924935380935148e-03,6.155650519420735947e-03,3.001174415763190918e-03,9.907989260368635365e-02,7.851318982533706664e-03
1.200372446528972549e-02,5.969249540052316491e-03,3.687669715019281647e-02,6.984873882503845124e-03,3.229530348306206781e-03,1.755361462842580872e-03,7.128212808556538653e-03,1.192294936960685073e-02,8.750705507651661275e-02,1.103346478241739627e-02
1.078001112552362181e-02,8.238115399662248456e-03,1.780223744062488234e-02,4.945152027616788598e-03,3.260683392988577775e-03,1.844827905576802186e-03,4.738750795165718767e-03,2.263506432666561111e-02,5.793417700625173167e-02,9.687030097565557316e-03
8.268395843852714699e-03,1.308007902628888740e-02,7.707028381868541878e-04,1.483971461852304392e-03,3.831625602122537555e-03,9.744923885281635062e-04,2.547929549737456070e-03,4.355589363383023660e-02,2.227894503639371582e-02,5.592027584879031774e-03
4.597119976084950051e-03,1.224194410358711398e-02,1.157195812687091332e-02,6.054582265516392269e-04,4.075540785892033634e-03,9.447212253573225756e-04,8.624738142605989366e-03,6.954872769343183048e-02,4.282348524096044398e-03,7.192582531643744101e-04
2.212600626542442824e-03,9.931220814953933482e-03,2.484294770141828174e-02,4.088454544871749112e-04,3.364575054867940777e-03,2.543855359245618744e-03,9.030823770499751130e-03,9.199279595472548143e-02,1.050211325768075042e-02,3.933759131374261510e-03
2.273612406567646245e-03,5.669532644102492393e-03,4.059763798584727773e-02,1.802030391381081662e-03,2.358733785635142022e-03,3.075979632201429181e-03,8.430735765716183133e-03,1.094710725330169249e-01,4.698494013164176454e-04,6.510239146623245793e-03
2.025725733629540285e-03,7.023155204875460890e-05,5.118683996801011438e-02,5.850407989934230685e-04,1.918361762001632954e-03,3.646469951248755385e-03,1.520924263482321265e-02,1.227472678968007241e-01,1.252240200030424813e-02,5.010389766811440375e-03
1.075670206871111962e-03,1.445753613650256836e-03,5.080632254283697080e-02,2.070447553082902827e-03,1.871917190693369584e-03,4.996784368406680804e-03,2.744610156975949358e-02,1.262121321614981528e-01,1.428289551024362024e-02,4.770917033973131769e-04
4.913670185137886982e-03,5.716060766819581161e-03,4.559591920778874319e-02,3.449551981292652090e-03,1.678629396499292008e-03,5.702088048403483600e-03,3.532479480191322990e-02,1.163792513910004989e-01,9.063897179557738049e-03,3.221392238233426047e-03
6.633794789110896567e-03,1.962234021627368499e-02,4.420467295498653471e-02,3.378200020503483499e-03,1.382555897316569077e-03,4.742172710373728818e-03,4.183924463565502627e-02,1.050523497040314475e-01,2.631038287560128527e-03,3.513361638242301459e-03
8.003507213372975521e-03,3.777873892389867899e-02,4.384988536994233882e-02,3.278188341345364323e-03,1.185064172533223598e-03,3.697331686944713234e-03,5.963363291862967819e-02,1.056440131134653293e-01,8.713072085981815942e-03,1.275571133604241469e-03
1.187909494514276763e-02,5.621564305990543742e-02,3.701450736415137777e-02,3.569240109866255416e-03,8.803956641610169442e-04,3.736993581337780517e-03,7.529627084281245719e-02,1.090876453091148141e-01,2.931880295224903454e-02,1.077825978273850736e-03
1.654354290321440046e-02,6.460128821216160055e-02,2.710779312075690950e-02,3.952267835899176025e-03,4.272560404456767998e-04,2.680640580642071075e-03,4.732611530538016753e-02,9.773037419044486307e-02,5.134334498291068943e-02,1.836218587500171480e-03
1.834737464325980963e-02,5.569609305033716706e-02,2.589712290531441877e-02,4.442054982911065007e-03,3.705897061090796798e-04,1.998839350758123586e-03,3.572276132383711555e-02,7.749786264175630157e-02,6.121170245145345079e-02,5.726506275943169704e-04
1.684839311372481052e-02,3.634014011300794322e-02,3.717874742658849874e-02,4.708465999833454964e-03,8.745782593461373265e-04,8.920876380596737612e-03,1.248166375572218323e-01,6.504395439497868969e-02,5.670765377801881280e-02,1.799290210780355890e-03
1.361970348490378069e-02,1.656630305313138568e-02,4.891421293754727451e-02,4.008408402392717000e-03,1.067457520367227127e-03,1.413185033188719443e-02,1.683184323202348842e-01,5.384430044551510169e-02,4.976327773709779412e-02,3.626364137303452438e-03
9.840688669639561029e-03,2.104616414788508354e-03,4.195295968536807280e-02,2.873495895331837097e-03,3.002670137741579788e-04,1.543476288156726481e-02,1.714310709440250435e-01,3.218630715082047844e-02,5.169165463134452188e-02,4.074754254126423773e-03
8.347853323903411601e-03,1.483128060463784204e-02,9.424207715020938708e-03,3.138005266491192529e-03,7.789186532170526856e-04,1.346843455712323084e-02,1.674238798809336015e-01,1.961639035361925631e-02,6.093114191983749900e-02,3.713598083608475424e-03
1.276052563638008751e-02,8.744971886430096680e-03,3.172598487564336905e-02,5.107829230783412708e-03,1.330314774827495976e-03,9.913672348983654584e-03,1.627057161135455621e-01,3.865052236816494263e-02,6.697232267398366135e-02,3.381806982126830605e-03
2.026253022141644503e-02,1.259838356383053901e-02,5.573101737268511269e-02,6.441583082105753477e-03,1.521025006978773313e-03,6.477374461329156452e-03,1.450845533406416865e-01,6.548112610696799063e-02,6.172681575215079042e-02,3.532148110581734453e-03
2.107700111729952225e-02,2.148660226336145812e-02,5.410864074940582857e-02,5.259989478366909089e-03,1.847065079414528504e-03,4.502717242193968704e-03,1.176227860020445937e-01,5.728127637412849110e-02,4.365451204320443951e-02,4.726816345630539817e-03
1.043149541582052975e-02,2.501248749606979974e-03,3.758407168551212291e-02,2.851119485959451548e-03,2.291388386801180167e-03,3.925423153240723863e-03,9.264446052854878599e-02,1.523934048789259144e-02,1.645920364173079214e-02,7.084826996918049645e-03
3.964580398973025291e-03,2.307488846865954693e-02,1.695922374946567945e-02,1.736987017461028016e-03,2.778299512649203169e-03,3.155939895700505919e-03,7.201351532361979779e-02,2.182930192268486141e-02,9.306829964699885049e-03,8.869679477625803596e-03
1.130565410050389519e-02,2.649651879466453919e-02,3.615797426019035608e-03,2.339805519448972474e-03,3.485520991364641618e-03,9.483758116359722974e-04,5.267160176592083909e-02,3.386176688528467343e-02,1.869930071010698913e-02,7.577080104666030110e-03
1.044573092381554172e-02,6.408446801022021216e-03,1.915759350633389202e-02,3.227839030079236119e-03,4.163539105398424318e-03,1.985832981726136023e-03,3.608798493220371356e-02,3.615976972089286756e-02,4.139089821293722576e-03,3.184163962599108333e-03
8.730412020707135554e-03,1.902170278568532380e-02,2.525090170290408831e-02,3.648229062822563352e-03,4.059178698804000868e-03,3.627949314151310972e-03,2.275588181293557860e-02,5.009431520882642180e-02,2.807897038851717847e-02,1.233207033426220395e-03
1.052095777910806718e-02,3.637037376634836422e-02,2.376968634920918408e-02,4.090716189433540352e-03,3.007023518779435804e-03,2.638141720356480292e-03,9.936207725091468490e-03,7.887743448191891771e-02,6.320969491708143539e-02,2.722223196849390698e-03
1.160716441168900548e-02,4.136476030843819207e-02,1.776491969389338427e-02,4.804607611459229405e-03,1.761717192388963368e-03,2.710091832482638464e-04,1.261437014358757908e-03,1.054187078135799122e-01,8.442290539890252854e-02,1.300770485507924366e-03
6.108487574151941386e-03,3.352039739049970241e-02,8.935708346822546916e-03,5.126304916233882965e-03,1.047877554773133692e-03,2.765758570863882312e-03,6.881202175060594818e-03,1.069690435265386874e-01,8.016430501528121200e-02,5.409747352285911720e-04
4.502020410183351501e-03,1.624710040405915115e-02,3.604846828419153680e-03,4.405388157349237471e-03,1.263595547654706042e-03,2.823043562444229118e-03,1.078713523672357108e-02,7.938705504648806144e-02,5.605306031900000874e-02,3.146819554185805454e-04
1.318736497091444783e-02,4.314842430894633499e-03,4.899485523075605697e-03,2.996037139119729197e-03,2.959140851178942728e-03,5.604633540914728622e-05,2.471065801795208419e-02,4.404935692113164103e-02,3.466518949472027766e-02,2.615111701608330719e-03
1.702444738879435246e-02,2.247102317735376331e-02,5.534881915787562062e-04,2.056545575787800152e-03,6.241330526731150678e-03,4.736380980463258429e-03,5.140161771048774170e-02,2.310089089169123713e-02,3.526490444848700417e-02,6.714619695381482227e-03
2.027849073852050835e-02,3.174310667349358739e-02,2.625132968779708698e-02,2.506795918259908679e-03,9.836433073984273898e-03,1.024338484617933094e-02,7.620496093382662928e-02,1.669812451671302128e-02,5.794664565087914720e-02,9.366962216059071186e-03
2.659184135585064557e-02,2.691545733586413539e-02,5.877137687299004154e-02,4.344738942398584415e-03,1.200304262842685071e-02,1.461751477485705684e-02,8.494008703181671338e-02,1.207753958670334561e-02,9.000115427711538607e-02,9.187623762120358806e-03
3.182325983596829416e-02,1.297589734676760607e-02,6.989124060748172496e-02,6.642490062905258286e-03,1.213886224019980475e-02,1.589249788761038645e-02,8.034316778528259595e-02,5.106002277960407405e-03,1.187425289354238633e-01,7.626389578948887873e-03
2.790478212873941100e-02,3.711925165831614099e-03,5.312431616318281924e-02,8.156405662989198516e-03,1.080260522164190433e-02,1.327979415276492499e-02,7.133802763002811131e-02,3.697683871130544656e-03,1.340170898612553785e-01,7.186944505360680184e-03
1.338398029346381073e-02,6.367183108022436699e-03,2.839752388560475710e-02,8.832484505791571641e-03,8.996700489207924006e-03,8.396758270774483390e-03,6.126973942815378688e-02,1.148889534711992205e-02,1.274312042991531668e-01,8.073243414809427171e-03
3.475828069724540195e-03,1.623746416890257255e-02,1.192061635923137401e-02,1.031937574707701699e-02,7.687361338205910520e-03,4.556408485367015315e-03,5.318647753908790216e-02,1.764419687998947800e-02,9.823598137541485198e-02,8.015070259001527697e-03
1.455393325143054806e-02,2.675366590739031505e-02,5.607495027180270722e-04,1.336334974279245781e-02,6.839485064841274893e-03,3.235775775581323753e-03,4.789313786979928350e-02,1.362995693874103492e-02,5.773063090419291998e-02,5.336924068552611339e-03
2.028423791112876282e-02,3.409594688533147677e-02,9.358859601376537732e-03,1.586199835221238988e-02,5.428576667258682396e-03,2.264454047576062827e-03,4.031099795131874719e-02,7.775790915802218220e-03,2.064598217812801603e-02,1.014854518027339921e-03
2.292896172665613574e-02,3.480823237080717114e-02,7.485863134489979635e-03,1.598719898668133146e-02,3.894487351148790029e-03,3.293443170709161498e-04,3.809202160803622228e-02,8.068000331562892244e-04,6.855748207081550742e-03,2.131678371363488270e-03
1.818952908816263980e-02,2.897530631382082278e-02,1.148570955195200860e-02,1.557000690239436491e-02,5.022839464175515162e-03,1.082512195083745916e-03,6.529029279818075737e-02,3.083522027104947799e-02,2.527408103889003735e-02,1.710646833356379692e-03
3.413121375565263647e-03,1.958209640296209447e-02,2.892363479534465487e-02,1.738945257640230752e-02,1.007242547523610511e-02,7.939283211090131590e-03,1.246187884429717369e-01,9.071077609361843930e-02,3.380013253233579706e-02,2.168046504600580800e-03
1.245213514179788206e-02,2.636935115171289146e-03,2.072449758976945000e-02,2.114761435095447242e-02,1.591267549073338561e-02,1.698540312752076786e-02,1.829117663685390638e-01,1.329169225798256804e-01,3.305411879558838029e-02,6.848001993341632301e-03
1.974027704872950706e-02,2.786822099058789901e-02,1.391631709037143873e-02,2.517510471369464875e-02,1.886481915412558524e-02,2.101941773479093153e-02,2.123439038754321717e-01,1.279185472707721760e-01,2.843547650912237046e-02,9.968378372536926615e-03
2.302676505411102581e-02,5.814368602947764947e-02,5.395221749357996532e-02,2.875893045392459435e-02,1.946516368552775669e-02,1.924329745932843241e-02,2.148072264023172528e-01,1.230092735127698012e-01,2.249684856188691878e-02,1.186786964556536990e-02
3.156546755515834274e-02,5.920454481129868579e-02,7.673257302782370004e-02,2.881950126824290442e-02,2.014337064665430374e-02,1.708325518471545679e-02,1.968910672618820468e-01,1.710780191961851215e-01,1.479278056160725392e-02,1.363887743109389039e-02
3.993556404354786649e-02,2.547232645329549489e-02,6.916654936777844043e-02,1.899356716122834257e-02,1.981898794038799982e-02,1.713888009279785490e-02,1.579326135574326828e-01,2.273416554308820559e-01,1.587772974927437533e-02,1.380131863682736854e-02
3.292686246605597278e-02,1.277161318672726323e-02,3.221121400328075257e-02,2.258182103975109843e-03,1.452482084748976839e-02,1.611173429959750214e-02,1.127350953209343282e-01,1.980784705587144978e-01,4.393542414817457747e-02,9.630261598975630583e-03
7.772256159237189363e-03,2.765062308672030719e-02,1.453385613972276239e-02,2.662155200040018307e-02,2.889387238573100716e-03,1.098587604198742428e-02,9.220151908461010626e-02,8.326570331041791007e-02,9.599741157327655594e-02,1.559172246078526424e-03
2.119671408278142599e-02,2.378698299052161430e-02,4.268705487123025666e-02,4.405125439446522934e-02,1.181754362839469545e-02,2.747325977129914856e-03,1.012161473268727852e-01,1.555396106192061777e-02,1.392149647399752999e-01,6.155124516593359768e-03
3.970984800150208910e-02,1.830270986296688579e-02,4.180697756404080229e-02,5.215890671830147873e-02,2.465602629849733204e-02,6.551361374756906400e-03,9.983518827563661602e-02,3.753600964815446278e-02,1.458876730785079734e-01,9.408629793327618826e-03
4.462913813606971675e-02,9.027107576752147269e-03,3.022677240349225594e-02,5.402909861444747663e-02,3.193298243227939148e-02,1.473002662935699557e-02,5.837994140650586833e-02,2.589951367927527393e-02,1.252824827513149275e-01,7.842515877400800875e-03
3.826088404198567383e-02,1.773928007385959169e-02,3.034099096797084408e-02,5.150710579537040590e-02,3.209293250249863755e-02,1.751986913953901617e-02,1.171850408506871707e-02,3.121575842282554511e-02,1.053317892871313138e-01,4.673803704493406132e-03
2.362895705620654194e-02,5.220464144858903005e-02,4.238556073851421080e-02,4.494603365240548015e-02,2.632400478348985440e-02,1.237492363623260427e-02,1.491679063074939637e-02,3.949453296035452393e-02,9.379384686302957852e-02,3.229120497498450242e-03
8.683348130303567003e-03,5.902413550314584284e-02,5.195032074520022219e-02,3.628290214718746243e-02,1.853676441783986412e-02,4.247222181995601031e-03,6.603512329099149591e-02,2.769808539014326915e-02,7.686770504394473125e-02,3.678140604693238072e-03
4.068688750452277569e-03,2.349935708837960768e-02,4.986431655483383740e-02,2.819283454313999820e-02,1.282872084720711528e-02,5.681963438686376449e-04,1.231604553636938409e-01,1.308047852641365007e-02,4.741923325070254019e-02,3.690817045954666604e-03
1.012966009665359005e-02,2.310432736057483477e-02,3.326773147552814641e-02,2.134068366039652137e-02,1.017408215921812402e-02,8.307954311713039051e-04,1.718980522882658513e-01,1.051297568581679824e-02,1.342571326859980964e-02,1.726520929992648914e-03
1.417451672535550641e-02,4.380814839795491022e-02,2.597285384540220371e-03,1.479051989936608011e-02,8.644635965085183116e-03,1.575056053339332976e-03,2.214947768324882216e-01,5.221818832641133591e-04,1.533773604972408361e-02,1.549733005660117527e-03
6.235874429003280574e-03,3.704856290160329912e-02,3.166145659565631348e-02,8.415291671741657181e-03,6.798790477153609027e-03,7.900099802517704037e-03,2.550898836401377934e-01,3.687787900771379718e-02,3.274889539203713895e-02,4.596350668852680621e-03
9.307798076566529966e-03,1.885318776625498002e-02,5.565133976724089687e-02,3.505152614447148637e-03,5.101079362700084927e-03,1.220545164037653563e-02,2.357346524183841496e-01,8.024741444454326633e-02,3.591326128522866895e-02,6.686509811155268157e-03
2.156205107469900267e-02,5.016535453543911546e-03,7.105039974346555320e-02,9.823823988146167079e-04,3.990223567785567901e-03,1.105309049029780215e-02,1.581132324288644642e-01,1.028204337797455625e-01,2.945586929379813423e-02,8.232159811581587702e-03
2.607624145014548686e-02,2.645844958453746898e-02,8.699148623083008403e-02,3.395854119696692028e-04,2.629101636771005723e-03,7.950998185090676212e-03,6.100848561601671799e-02,9.987277787491266601e-02,2.225844850842144396e-02,9.541983820389137241e-03
2.670665248091845523e-02,2.320680541793512797e-02,9.370611364595986259e-02,2.665972437789117418e-03,1.573960000165223420e-04,7.304956194877504361e-03,9.237019814533498768e-03,8.620936009113752685e-02,1.591052545236033844e-02,1.007483661117964877e-02
2.985110663511861273e-02,1.503192944056824104e-02,7.319945234790051214e-02,6.389037986871636682e-03,3.413828355463967984e-03,1.000191354874730050e-02,2.379772345965526503e-02,7.424763582386967320e-02,4.825447242357359945e-03,9.996086785228310706e-03
4.067391685939670404e-02,6.342850391784048136e-02,3.720547698155742683e-02,1.024008193708027953e-02,8.160465963196375516e-03,1.620624323453358911e-02,2.324393634504911405e-02,7.104719200098928711e-02,1.050521786236272709e-02,1.123143583755341866e-02
6.129098608497527551e-02,8.272791982221697205e-02,2.215972977428955215e-02,1.415353674761124503e-02,1.456260192491799083e-02,2.666085335861273498e-02,9.798737215458937222e-02,9.387213173051618675e-02,1.752155476963794534e-02,1.548912015869724663e-02
8.750796171341049257e-02,5.925683721516257496e-02,4.040174334658038630e-02,1.894751635680543000e-02,2.192184937015200646e-02,3.871998032527722289e-02,1.341722097271390302e-01,1.594946258040152165e-01,3.289570464701560559e-03,2.254508543629262646e-02
1.076620052490926405e-01,1.661099367028521026e-02,6.352376028717629519e-02,2.320065681520656897e-02,2.747858309075030397e-02,4.540335734994607741e-02,9.327680103120600252e-02,2.393122982937742893e-01,2.793665417217866542e-02,3.057671520316974922e-02
1.088434644622210123e-01,1.148772269435885396e-02,6.194331156052072795e-02,2.400011651745473720e-02,2.823250870332675785e-02,4.117909977865235466e-02,5.683088335050006171e-03,2.578942457144381417e-01,5.481134021766560088e-02,3.561616023823013788e-02
8.820009502277613433e-02,1.241422584153013473e-02,4.108092243665366350e-02,2.099501080903191236e-02,2.389086544579641092e-02,2.729026430747915830e-02,1.305120089163294417e-01,1.804817323369240778e-01,6.366292433708034548e-02,3.213479571036158972e-02
5.829504846107549931e-02,5.553035513495854780e-03,2.832538896349388532e-02,1.668931173721581451e-02,1.755626478524809769e-02,1.079545718360878058e-02,2.617955886260066589e-01,7.814042548401259336e-02,6.544101419824910337e-02,1.879542279338857966e-02
3.580651305452092759e-02,3.264774422185749703e-02,3.422861770731383535e-02,1.273391762887587583e-02,1.247404466824445293e-02,1.531980264065551387e-03,3.659778404351161640e-01,4.062096650576779711e-02,7.412081625532582208e-02,2.186036968849403191e-03
2.273940305911300794e-02,6.107568725090498085e-02,3.904551279143014808e-02,8.360199812056708785e-03,8.276425747446391687e-03,9.294356457017104861e-03,4.045832444573868591e-01,4.096793287068604267e-02,7.775948704182659987e-02,9.631251307771560369e-03
6.689104831852582013e-03,7.656162033288456403e-02,2.200091550870228452e-02,2.551069665243394652e-03,2.246373040967713456e-03,1.763814090594720274e-02,3.859872833209097021e-01,2.376737129994356199e-02,5.249436757018780680e-02,1.475111923280175014e-02
1.795813354740634707e-02,6.650904006786077793e-02,6.128169606293892846e-03,3.635587697916148071e-03,5.746921136956999882e-03,2.906115651941253847e-02,3.622872853184093689e-01,1.634469757265201995e-01,1.403280051822828819e-04,1.523242567656988428e-02
4.024235859327503217e-02,3.862873767224758725e-02,1.881847853220126529e-02,7.034104140916643162e-03,1.198176876027967803e-02,3.854692311845487468e-02,3.644849999649412142e-01,2.708170461353548997e-01,5.179267851249173826e-02,1.276311955484300646e-02
4.728017794122874040e-02,1.825587875820414152e-02,1.961906007591613862e-02,4.705857189206143730e-03,1.288559150449960188e-02,3.917588987720911631e-02,3.664140228253363052e-01,2.730539941249772729e-01,8.093927996590201401e-02,1.070409751290042795e-02
3.987259647412790681e-02,2.235698248706418506e-02,4.158085216388547611e-02,2.901582486944958086e-03,8.647706292978240422e-03,3.073906589098605521e-02,3.218200135122816219e-01,2.162557254681963526e-01,9.083416419349964188e-02,1.401407045992978523e-02
3.299766849549619352e-02,4.382688994838218610e-02,9.281775509431079707e-02,1.095903980196364681e-02,3.318134646783537246e-03,2.116740780209673892e-02,2.337306034122134946e-01,1.889091777658092053e-01,9.659910907643984301e-02,2.261830994971643360e-02
4.324854330268190078e-02,6.358508872904510001e-02,1.355240713411050846e-01,1.334887996906801086e-02,2.118635036654268385e-03,1.961049464644197202e-02,1.696512525968705831e-01,2.212595880971806594e-01,1.062373967036710776e-01,3.001415394162032513e-02
6.982506917020486759e-02,6.888989897077320290e-02,1.365805992314348405e-01,8.170019535423317381e-03,6.721056713125944139e-03,2.741884579537325062e-02,1.822020625633842261e-01,2.722844729552920673e-01,1.129986357968015553e-01,3.089331274636151689e-02
9.041010424568263204e-02,5.773955951785750274e-02,1.150584019676910569e-01,2.084454367055282127e-04,1.259911228123365527e-02,3.611074453102183779e-02,2.334736626670093074e-01,2.920964588552700247e-01,1.055258818404488930e-01,2.565639397409394049e-02
8.582993679657235919e-02,3.497646114093356379e-02,1.179343794453013017e-01,4.201841738199840227e-03,1.383501219511434552e-02,3.610709482628703115e-02,2.445877956765752648e-01,2.762716808018648718e-01,8.837416051216169521e-02,1.723930227401548193e-02
6.360413980553614177e-02,8.773702791281808716e-03,1.583454308703176328e-01,5.238972913915089166e-03,1.098566816924515660e-02,2.767061607389415326e-02,2.081455708791103976e-01,2.511749063064218079e-01,8.237679891087056061e-02,8.646493081578495582e-03
4.673310128131542840e-02,1.120877069552358475e-02,2.000789949442273175e-01,9.134795724566314307e-03,1.063972464397450711e-02,2.090355653907169722e-02,1.942207360442245456e-01,2.342207258499832689e-01,9.684177635119775585e-02,3.953926741021226987e-03
4.532741576244598419e-02,1.594350205953841415e-02,2.049489836220356465e-01,1.822317631618722983e-02,1.618062165211693257e-02,2.357172820202794311e-02,2.422858900736553911e-01,2.309577720707602921e-01,1.147209553307096536e-01,6.678143421099685603e-03
5.123351270807840335e-02,4.368972076421204914e-03,1.728386405864756614e-01,2.623534621954295293e-02,2.329676316813514628e-02,3.216582218010231864e-02,3.097634978985549514e-01,2.461129988017302650e-01,1.151390875166577038e-01,1.534158467573999707e-02
5.776862031907990802e-02,9.929353314943628606e-03,1.284550779073686810e-01,2.714952891064226909e-02,2.702743431979421143e-02,3.872455268545244023e-02,3.479072140126497348e-01,2.766058093482156588e-01,9.754644536393834720e-02,2.409106413065947860e-02
6.874926125586189318e-02,8.114632033610092235e-03,9.216698345663512648e-02,2.352674777945852266e-02,2.829692478679490808e-02,4.156406851473675584e-02,3.599189179382490389e-01,3.003241840447836708e-01,7.311940972698655061e-02,2.908996625258944077e-02
8.282913786129784961e-02,1.405917251198363430e-02,7.098619219736274077e-02,2.051073488171123102e-02,2.947315728233822901e-02,4.236816791448352187e-02,3.481598504566437713e-01,2.829780463046785988e-01,4.492952882709220358e-02,3.094304125586732485e-02
8.607706165372870644e-02,4.207854224845618968e-02,5.802291536886713952e-02,1.685883673877928979e-02,2.877249806137806634e-02,3.906296259943923405e-02,2.817626223003987795e-01,2.177538528926002137e-01,1.122124146056494021e-02,3.017277076487343002e-02
7.194294957631645893e-02,6.054662049815674740e-02,3.851414353176252359e-02,9.131435906842035738e-03,2.438764099142954472e-02,3.107844115386167519e-02,1.684911518233415395e-01,1.617960868913584926e-01,1.893605056173387063e-02,2.528955655678419984e-02
5.526603806967649718e-02,6.606073995471395399e-02,1.149737258475812436e-02,3.219580020335720510e-04,1.949599352297089888e-02,2.521007434813754555e-02,8.276352294058425541e-02,1.923787139460354512e-01,3.009605480430713534e-02,1.763030261093779388e-02
5.424419634817035513e-02,5.655316158951421979e-02,2.129760734430104913e-03,3.645247483879329731e-03,1.772767105469459301e-02,2.646982035888566925e-02,6.594214534797906979e-02,3.098895209047404231e-01,2.162971710029322828e-02,1.337548224017959947e-02
6.673938325646562586e-02,2.444645427846094121e-02,1.007572463284288691e-02,3.377925629170845136e-03,1.708039614692643746e-02,2.905810427980931587e-02,6.534684061848788916e-02,4.225891420067228177e-01,1.242293458492639210e-02,1.647492860233608705e-02
7.380516268691773851e-02,2.197956671378481150e-02,2.657333474957090935e-02,4.918419269210731228e-03,1.290169134289314082e-02,2.460453823196127182e-02,1.978528237552336713e-02,4.418851917723879974e-01,2.071826108990668797e-02,2.231140664485280894e-02
6.305560126606693516e-02,4.955760827899664128e-02,1.751625237432206245e-02,1.044415139549594029e-02,4.746805293473884725e-03,1.359052374172411461e-02,5.525542183243764560e-02,3.632041204343121055e-01,4.545289960125895035e-02,2.320073183449481921e-02
4.142320269647615377e-02,3.841931594270132921e-02,1.630386031672831360e-02,1.559383033182639745e-02,3.201998038605973190e-03,2.048014374052719699e-03,1.117795932579693924e-01,2.491828992529332987e-01,6.928446405559937626e-02,1.851117930382658108e-02
2.345768146206659785e-02,1.043254022066188863e-02,5.107487406462528357e-02,1.573877655883377732e-02,7.546313099352165189e-03,7.598545551610750952e-03,1.526626822573720343e-01,1.568648324284233342e-01,7.817241967990923301e-02,1.376323113141186306e-02
1.262443513136558143e-02,6.501231441383256877e-03,7.375963712729328992e-02,1.117273505050932550e-02,9.001836103222589369e-03,1.664727758400558547e-02,2.251396630199787863e-01,8.587853866658276547e-02,7.714642833762090646e-02,1.073759744858094299e-02
9.923525903440819432e-04,1.974180066488556012e-02,8.890164993283512784e-02,5.818754496285825570e-03,1.021904241750886365e-02,2.489891947115921433e-02,3.450083682646613026e-01,9.477877992279115649e-04,8.169644938610177987e-02,5.599562333513013850e-03
1.508896228529415552e-02,4.706712162787494991e-02,1.052687363872504278e-01,2.877482189556567274e-03,1.201035116701298228e-02,2.977666614219606420e-02,4.606625947880715333e-01,1.040721747796476138e-01,9.222722481936930505e-02,2.445479935181312132e-03
2.923881094274338385e-02,7.291868711127258429e-02,1.312531533516601845e-01,2.840172863622764630e-03,1.315018785363333310e-02,2.953577761216760050e-02,5.036346743060613473e-01,1.702806944913993759e-01,8.962005572148039334e-02,8.319593256224036906e-03
3.678615116000890500e-02,6.846057453249590474e-02,1.663251776754643974e-01,5.198731181295337955e-03,1.324457971835852829e-02,2.597085133403857077e-02,4.646061227445890673e-01,1.779977403343587783e-01,6.381878329170227737e-02,9.509282126723974174e-03
4.220344945542042758e-02,4.268426898257742658e-02,1.852098931208955024e-01,9.478606870750290112e-03,1.336725164173750702e-02,2.353437219507804185e-02,4.026720061380096305e-01,1.885512898366621948e-01,3.386879397033602801e-02,1.059205661545822852e-02
5.023234733022199916e-02,3.248328182064995351e-02,1.550340821411338166e-01,1.336869003611579690e-02,1.359720620012157266e-02,2.444586692875344233e-02,3.731009065152153248e-01,2.608605379857404372e-01,2.747614150235416081e-02,1.600665004406937389e-02
5.838795800893100546e-02,4.618053701132895233e-02,8.062737810365094848e-02,1.374318292714422560e-02,1.311330023340942508e-02,2.616466036061003766e-02,3.656439850390636459e-01,3.642414863007616965e-01,4.824064361333735979e-02,2.369768886883579992e-02
6.343901164045379071e-02,5.599279805365049711e-02,6.696231297633766129e-03,1.196201106837288357e-02,1.314930911091830197e-02,2.618295738289786248e-02,3.360537920589183325e-01,4.299831613584665924e-01,7.361622444502739782e-02,2.896493726378063932e-02
6.722074003756485505e-02,4.695867555776600533e-02,3.316529125621509727e-02,1.303408883544356252e-02,1.560608131669073695e-02,2.607804153749682802e-02,2.803735410629709102e-01,4.410094811709341367e-01,8.069143690697332116e-02,3.028640311706466345e-02
7.102431762945098093e-02,3.658658423428585299e-02,4.433435237870681639e-02,1.644637727666598687e-02,1.836612760422751817e-02,2.764158720473465849e-02,2.436477845158714350e-01,4.221206161973652948e-01,6.468265230871478311e-02,2.864968158338940946e-02
7.105002189298029180e-02,3.926552857331584018e-02,4.707989553746812217e-02,1.437766435206614887e-02,1.701183255245224124e-02,2.896839327796737334e-02,2.568600691989171292e-01,3.873577937729530962e-01,3.515674587412986885e-02,2.453375717433185429e-02
6.430228871446602712e-02,4.273955464765805817e-02,4.857441146841627588e-02,3.446717732949685069e-03,1.170163365812906635e-02,2.780048060103857549e-02,2.959139712570870162e-01,3.416109989091415389e-01,5.456585480339974301e-03,1.852788008457537799e-02
5.552815567071443109e-02,3.482625419412337109e-02,3.970319475813148535e-02,8.024208801192193874e-03,7.752197782915722438e-03,2.602161354879922381e-02,3.204660207678919348e-01,3.045560915816937220e-01,1.250165424501112170e-02,1.305460543915336509e-02
5.308317856793282746e-02,3.034783763999404291e-02,6.190943384201527330e-03,9.825662502917626578e-03,8.677418367266476890e-03,2.735676123525911108e-02,3.292374693424667265e-01,2.919973239386691732e-01,1.297809150177297970e-02,1.042260504367942611e-02
5.485243669989722792e-02,4.833422755513160085e-02,5.423822808458665656e-02,3.060522326366256918e-03,1.137753444119900606e-02,3.004038476900707313e-02,3.391203266543448280e-01,2.741269884183340499e-01,1.182954412856668941e-03,9.482438340443022015e-03
4.326587135781381072e-02,7.574956852469669211e-02,1.195089238492357681e-01,1.645930841491615197e-03,8.950366116453488743e-03,2.503150325847188287e-02,3.312640038420086586e-01,1.879628292298337611e-01,1.052525200620837986e-02,6.870148995745152531e-03
4.593462514439787189e-03,8.204152795749215799e-02,1.556412091023564592e-01,1.832304233027972013e-03,2.090650723632513606e-03,5.818755286758650787e-03,2.689250234591777367e-01,1.915850266211636607e-02,1.359090929990340764e-02,1.940586240604067272e-03
5.037023006485793347e-02,6.278769973327869014e-02,1.484278536672455906e-01,8.696254535429746163e-03,1.800152574430340796e-02,2.255878045321853959e-02,1.426555729488479529e-01,1.593754429902292935e-01,9.674561654115372902e-03,2.297094443750286041e-03
9.638701438275003308e-02,3.944222318882867340e-02,1.173766975776854848e-01,1.330944221051202567e-02,3.193022024168713779e-02,4.894030742508781451e-02,4.383506155449706093e-02,2.678064432682772944e-01,5.928669686845485995e-03,3.754453316640113478e-03
1.178138104352312171e-01,2.428483826714424726e-02,9.573155430446386727e-02,1.815471134347420440e-02,3.979763632388498562e-02,6.578698011597461370e-02,2.782269508515550771e-01,2.989704447390286735e-01,4.063668874439632997e-03,3.357862824907104516e-03
1.119860807171510347e-01,1.741357459381989020e-02,1.011483331870686730e-01,2.585875674963321671e-02,4.016182039223960276e-02,6.930668321617261540e-02,4.924329869558727868e-01,2.796351394758311848e-01,2.114347500512911426e-03,1.672052365847755129e-03
8.016205084723361518e-02,2.556382587687057450e-02,1.205027581684995353e-01,2.999956347860132516e-02,3.189918673034391333e-02,5.741201507946373794e-02,5.815328998722737452e-01,2.050104300951686165e-01,1.337000071127061179e-02,2.711751102161361494e-03
2.878437319214528084e-02,5.062217743959637750e-02,1.179871011258973035e-01,2.383263973800495497e-02,1.612249214328059094e-02,3.319942419256408095e-02,5.081390020796985318e-01,6.255854882189323951e-02,1.604074399444425231e-02,1.000110626175223366e-02
2.649826214793697676e-02,7.445641945517539328e-02,7.239133276662050587e-02,1.262957868454157688e-02,1.722524326005995870e-03,5.297603324542109887e-03,3.417685434596471894e-01,1.142966621029897212e-01,1.053662446596741707e-03,1.762223843266495088e-02
6.894297924228827423e-02,8.029025148779775356e-02,1.205145060896099796e-02,7.131344220480380011e-03,1.548845715981565091e-02,1.906239690058434549e-02,1.796288084300744492e-01,2.636021181498874877e-01,2.642696000082955451e-02,2.304081421465163995e-02
9.279460256258355300e-02,6.800728294381964967e-02,1.119554943652798645e-02,8.013848538690127726e-03,2.351326200342133965e-02,3.832658058777400900e-02,5.982859895738618095e-02,3.552447905508846482e-01,3.948501564807752745e-02,2.574456533015707926e-02
1.028766944241724796e-01,3.803896238201198710e-02,1.178281501542758312e-02,6.298860066926436491e-03,2.797239021346013821e-02,5.233199345184636614e-02,2.853080509040006527e-02,4.033508683338066780e-01,4.018249637034788241e-02,2.575775144210657244e-02
1.036289898273931587e-01,6.405584717290239982e-03,4.171270826261003900e-02,2.304768052741024663e-03,3.008435975828339937e-02,5.739872487570289727e-02,6.826791480081274843e-02,4.230474595310916297e-01,4.795121650989267459e-02,2.257012751678609888e-02
9.473376674243588758e-02,4.075627571804656818e-02,5.590860013984998850e-02,1.224351681955566581e-02,2.892326332321746435e-02,5.019311319187796938e-02,1.435633607947562826e-02,4.080250856305217555e-01,7.360415876962511650e-02,1.671940279474202692e-02
7.858815608902218475e-02,4.099127516074442534e-02,7.035089282738568595e-02,1.743420824053979259e-02,2.500758772858789267e-02,3.596568967553188945e-02,9.839905519909433740e-02,3.646317191285847192e-01,1.058114899461986697e-01,1.110741607860922867e-02
6.454266744215865492e-02,1.812400485731862493e-02,8.695763112784521409e-02,1.843862054044883431e-02,2.187539317672703224e-02,2.724192713542204075e-02,1.373691363567558221e-01,3.362528317346761830e-01,1.237722949796541405e-01,9.418706992809666723e-03
5.994396958266172415e-02,1.290920737267164942e-03,7.678127114949687138e-02,1.910688100380907722e-02,2.240593445609722484e-02,3.102291406919825342e-02,3.057137248596167312e-02,3.573334633879718392e-01,1.153953384157905826e-01,1.265701012022761238e-02
6.163019000775719208e-02,1.366134006914721585e-03,3.573391759116574529e-02,2.092387948637032535e-02,2.531070896139720264e-02,4.140134766059291871e-02,1.351922002903589992e-01,4.034904868959138802e-01,8.481236252467018455e-02,1.753965019355295529e-02
6.344958350477837572e-02,1.009401664606695767e-02,4.849745662897914436e-03,2.243083694186736796e-02,2.732669557719956746e-02,4.908450969020793087e-02,2.432403330051895463e-01,4.345235884470732834e-01,4.656472465335981248e-02,1.993512824561901806e-02
6.823124476360342694e-02,1.639431521696678093e-02,1.283169757606010888e-02,2.250613795613584309e-02,2.800504902887716863e-02,5.351394969770876392e-02,2.949452937946099862e-01,4.666967086129572007e-01,1.351051993935447823e-02,1.962058240666787745e-02
8.125824420325222786e-02,1.399334412681635907e-02,3.722471945344878186e-02,2.236703553404616879e-02,2.928641424243572794e-02,5.841026829986220581e-02,3.466693185393001087e-01,5.332301684981605172e-01,8.562267056968986961e-03,1.887799567234939996e-02
9.356931632649957697e-02,5.799191067049836584e-03,4.138947200995319459e-02,2.308360149778355269e-02,3.025891404140754193e-02,5.984870618727262948e-02,3.739876492230469474e-01,5.845410955062952940e-01,1.739632520285036912e-02,1.772963564629126409e-02
8.778095766364597818e-02,6.491286329498064007e-04,2.513761814359857447e-02,2.283560116150179509e-02,2.691198290199597193e-02,5.017950496385917974e-02,3.160628060611492818e-01,5.225246080482742750e-01,1.453694845020903070e-02,1.496665856967796873e-02
6.348995017119597739e-02,5.011079464459596532e-03,1.974925896120992286e-02,1.982391614631639695e-02,1.882106611805592356e-02,3.219255349102351921e-02,2.070638775542019416e-01,3.490593814497514602e-01,9.464754448148170185e-03,1.180073636254097211e-02
3.895666497078527357e-02,8.954316791486820887e-03,4.097787587930953185e-02,1.608594146818919865e-02,1.109305661939173279e-02,1.698559799439592483e-02,1.323186814738979145e-01,1.804232150653065914e-01,1.114054487485024308e-02,9.374671747003278030e-03
2.325628255298461955e-02,2.806781028799533017e-03,6.584274349027362250e-02,1.422726907929941324e-02,7.128795794430379390e-03,8.174445943871868486e-03,9.050644112666321461e-02,8.774971070377024507e-02,1.569106431306874910e-02,5.432332986881577980e-03
7.365243692469507567e-03,2.197675069570619033e-02,6.010817922650536077e-02,1.254183693624785420e-02,4.380854068341800966e-03,1.666184725564075209e-04,2.788373577838350326e-02,2.767112168231834757e-02,1.821209559860335198e-02,1.473937237001474469e-03
1.269084914648936982e-02,5.065797991852224319e-02,1.305051482230039014e-02,8.200578244159687294e-03,1.719647434574385521e-04,9.198533769519033620e-03,4.103470232126631145e-02,4.791172082177393848e-02,3.148936617293453255e-02,7.887000600593207025e-03
2.724441342621398976e-02,5.975737276179717700e-02,5.801734679555779067e-02,3.054249618946012265e-03,5.219046544138289737e-03,1.619378810051144701e-02,7.337859014680521430e-02,1.336342771604644708e-01,6.879662839944475361e-02,1.040837546624524476e-02
3.332081850094996411e-02,5.370921171303412456e-02,1.194710713337872737e-01,1.345769238717508349e-03,8.104991931505463668e-03,1.980062137524171012e-02,9.294081614496044197e-02,2.416463612193191779e-01,1.138287827685141168e-01,1.109830720906566232e-02
4.101754366651369499e-02,6.135279228347941677e-02,1.392710145904330621e-01,3.274367534459835579e-03,8.402679151915799088e-03,2.249277226610390742e-02,1.293831614058924273e-01,4.022694352450225108e-01,1.360763901016150135e-01,1.338890390628328514e-02
5.367505607204699214e-02,9.265607503533893063e-02,1.173796690054119546e-01,4.682958659567320117e-03,7.099341412536371715e-03,2.460154817884296907e-02,1.386777901340293384e-01,5.686808291871158216e-01,1.315483249510946140e-01,1.644986226687511835e-02
6.206314667885821923e-02,1.258028745254272940e-01,9.658684335672067245e-02,2.182261570926487520e-03,5.754056614588401453e-03,2.595260491220208882e-02,8.773116487566798294e-02,6.398649352552657765e-01,1.219481723278935115e-01,1.833550604035505752e-02
6.303038261012310073e-02,1.403034784456020367e-01,1.170704710616870814e-01,3.530002634908614798e-03,6.615829213424380753e-03,2.930694213923023053e-02,4.068315647665896040e-02,6.060922973284417203e-01,1.178230347018137392e-01,2.093397840865868220e-02
6.464002471152205387e-02,1.344593958711703119e-01,1.619159450130892020e-01,8.843308685100026434e-03,1.019782302049979800e-02,3.478372193428053843e-02,6.771427410714277173e-02,5.672861851453293580e-01,1.060558080838004819e-01,2.624083658369246244e-02
6.947718082683340679e-02,1.108672175162098428e-01,1.752688553590660003e-01,1.107674602936699164e-02,1.342596821075073103e-02,3.617118699980988172e-02,1.405865345101973973e-01,5.801747123824043673e-01,7.503004937056242940e-02,3.090828510248911504e-02
7.177320634784099818e-02,7.488193708284889005e-02,1.336594958317250670e-01,1.132719116242753531e-02,1.368605758790351901e-02,3.058361644518383521e-02,2.010694905471015204e-01,5.847531455787287058e-01,3.584806599397174359e-02,3.063105882012719106e-02
7.212424198461676872e-02,4.420554907099030761e-02,6.794105090375406053e-02,1.286618184560554129e-02,1.335213514275574408e-02,2.514843003266905436e-02,2.531689267262207110e-01,5.164828604613144192e-01,1.042654879489956533e-02,2.738129628112703773e-02
7.596490550672287123e-02,3.397349791109660622e-02,1.281006015781474203e-02,1.688989221555511205e-02,1.627191787035569756e-02,2.579497807228090661e-02,3.020855346154905918e-01,4.030801888204370020e-01,4.657792880313977105e-03,2.623406417748714789e-02
7.773526342388013821e-02,3.753307611698180474e-02,2.498932744882826837e-02,2.123782123755281470e-02,2.113654548656809795e-02,2.714280755457169556e-02,2.908498649653027401e-01,3.036301155802297314e-01,4.308559666511000905e-03,2.718784525696782070e-02
6.389221961623120505e-02,3.680266211401438808e-02,3.852100855363796428e-02,2.267312788290717224e-02,2.239622306968244714e-02,2.156790037036508678e-02,1.919885703504673746e-01,2.205760444366832163e-01,1.530794083511383824e-03,2.560682652981149249e-02
3.282862901705775605e-02,2.197024786827517923e-02,1.031302505757776197e-02,1.909969533894235322e-02,1.721777741706358861e-02,1.062747741394684531e-02,7.936278696101464747e-02,1.298923830321889183e-01,5.159393828288566172e-03,1.953782611157614535e-02
1.402686683663382193e-03,3.190636839991607687e-03,4.835404723061764720e-02,1.124567052974705279e-02,9.193619008797301526e-03,1.579316073952405277e-03,3.048041355855525200e-02,5.801315667089344125e-02,3.737537392951200202e-03,1.262283141750485289e-02
1.161448112412528065e-02,2.389760841100425220e-02,9.294679631288056687e-02,3.456301302843578938e-03,4.929201879767177753e-03,1.072237868727628652e-03,3.429629235464595055e-02,5.861985125180878969e-02,1.580513124235088940e-02,9.438681472892030203e-03
7.206928347495389700e-03,2.667342483930708330e-02,9.755039089831435417e-02,3.422982073373392409e-04,6.746458050478769050e-03,1.651996295627172241e-03,4.177918068861512235e-02,1.152641041592796511e-01,8.870919360361257874e-03,9.631814862279132472e-03
5.938502687760480528e-03,1.801188922845347457e-02,7.320393610720300759e-02,1.584209565987007963e-03,9.745384644542944355e-03,4.377887770043446120e-03,2.948944929477909441e-02,1.390638348755205977e-01,2.314164784497468180e-02,8.491457628814959302e-03
2.114049202539163702e-02,1.782949525876215136e-02,3.707065016098889249e-02,2.685904133315809156e-03,8.417745190032587671e-03,2.222812363270159405e-03,1.216343540066390852e-02,8.870166803446963288e-02,5.824296966697511263e-02,3.365689406153463993e-03
4.155832232480740490e-02,2.882928777660719727e-02,4.257837033239333588e-03,1.020621912382228998e-03,3.787346237123557363e-03,3.813014200180588672e-03,8.391115984545914619e-02,2.284087845586728338e-02,6.936859739070351527e-02,3.813226547588409367e-03
4.941123663765938090e-02,3.310008533321855129e-02,2.988483837871109411e-03,1.687120829089384239e-03,3.031613930176665136e-04,8.701326225133034289e-03,1.515431998735700669e-01,1.955677596826091436e-04,5.645148210102239605e-02,1.063714146508723361e-02
4.108375887359485418e-02,2.335004999522928559e-02,2.291090498023504868e-02,2.111501382702665568e-03,1.967068000010272801e-05,8.558253856525126907e-03,1.586440501747010956e-01,5.098914787931861647e-03,4.602831848073305615e-02,1.522467158760469966e-02
1.897231764106530744e-02,1.179273635124836184e-02,5.803660395180670895e-02,2.174485726293818363e-03,4.065900006571441204e-03,9.073610536335808413e-04,8.050977368207873353e-02,2.065703251230781301e-02,5.460380270521864726e-02,1.319094004505237151e-02
1.720440149378018452e-02,3.627088737941356559e-03,7.675461233154780294e-02,1.143206250652746732e-02,1.338752242591734372e-02,1.454261725259368282e-02,4.623468844566423763e-02,7.466968855196771948e-02,6.546517832606760234e-02,1.970830950339166540e-03
5.641979943278125492e-02,1.185752323627136187e-02,7.991637137782024725e-02,2.239151413982752234e-02,2.364855803743971460e-02,3.108146894541545524e-02,1.482425857916871981e-01,1.619346314940562637e-01,5.376333611818570613e-02,1.146630152287896054e-02
7.331233592585911785e-02,3.844816001860702076e-02,8.035427877406374486e-02,2.933811594040100154e-02,2.667278627721260051e-02,3.720285088597061890e-02,1.710389115249446035e-01,1.983569267549336046e-01,2.200853496265735634e-02,1.650594401355264321e-02
5.597716412549114812e-02,6.227108120051208506e-02,8.152689388492058431e-02,2.852652603126277012e-02,2.081072299587041069e-02,2.873090432812055312e-02,1.229822129815174997e-01,1.289142562560906258e-01,4.473121740202055940e-03,1.254748108227520323e-02
2.444568825114801572e-02,6.819851632725447421e-02,8.188627971407373696e-02,2.135282033008505109e-02,1.348949546527788285e-02,1.504152695578493508e-02,6.876816553054986014e-02,2.110398397537782342e-02,8.800961520258976031e-03,7.905659235714854530e-03
7.911526468386581579e-03,5.512161519876389998e-02,8.740727694975675144e-02,1.234176813415099362e-02,1.087652164863154615e-02,8.768102481817325461e-03,6.219237402314173324e-02,2.298596980851376134e-02,3.100553226212450931e-03,6.236290551026142485e-03
1.125705024608652551e-02,3.504123496899241158e-02,1.072021817027342810e-01,4.187983870423300434e-03,1.057391447834410067e-02,1.118478139526202231e-02,8.032990046733123890e-02,4.545708699359309046e-03,1.393042026524595779e-02,3.162435707664660277e-03
1.773783102105399787e-02,2.326265036798154731e-02,1.349085426303421320e-01,3.514357761909168640e-03,7.638908169974593237e-03,1.370964610136908221e-02,6.401431765597738466e-02,3.337902473409395249e-03,1.177031177875205448e-02,3.720558864581230071e-03
2.083635605470221183e-02,2.706602352430194716e-02,1.458581958010232715e-01,9.905104575747600282e-03,3.887459639399462423e-03,1.398867231715002386e-02,3.396943043236125975e-02,5.285820291513629310e-03,2.028269765725302688e-03,9.449949388265816222e-03
3.364784198580027252e-02,4.159054167649875455e-02,1.272572364797406319e-01,1.065894159925093350e-02,6.103376924510187790e-03,2.056566990110515400e-02,8.933100895115805851e-02,3.462727277860949693e-02,1.598782827732595987e-02,8.630641709459886332e-03
6.065081202310013131e-02,5.741560185664139337e-02,1.032465312926806184e-01,3.422935699067467755e-03,1.559360829997328245e-02,3.664482979094093457e-02,2.498932966579479331e-01,1.239196398311184361e-01,2.166507788208837243e-02,3.279018957179237644e-03
8.085555178988863834e-02,6.705124485451958993e-02,1.077681155755205317e-01,7.434474299858748018e-03,2.482083536435103835e-02,4.987873490445065422e-02,3.845874753077574426e-01,1.682753405919414913e-01,2.651918259281120169e-02,5.281126561446605923e-04
7.399020659683375190e-02,6.315341792229733908e-02,1.363732798346023734e-01,1.549493433290358851e-02,2.619676490056230961e-02,4.733513099926561080e-02,3.663896343417435419e-01,1.132869628205228213e-01,4.685415231037119710e-02,3.695723895985765766e-03
4.876537572717341146e-02,4.276183099470014931e-02,1.501856811227633426e-01,1.934738533244597519e-02,2.043690835364380884e-02,3.332609429132390305e-02,2.403110781956843689e-01,2.338716701452626598e-02,8.331526611758062473e-02,8.369873842492905197e-03
2.932288266836103122e-02,1.746205369330419352e-02,1.255331206600025507e-01,2.119428269898114905e-02,1.407371692426445837e-02,2.319121157870498301e-02,1.614284697018040504e-01,1.652788763676178024e-02,1.142664992000739788e-01,8.265514988359633566e-03
2.442006448475378746e-02,5.539978314454742717e-03,7.449634174274347154e-02,2.108228001257798218e-02,1.126572018370916063e-02,2.376665467994407144e-02,1.959162081444881520e-01,9.413094660769727451e-03,1.217578519722936348e-01,2.838677045592853231e-03
2.525572825656901416e-02,9.380699622617158506e-03,1.980162675873025149e-02,1.739262169107033337e-02,1.070081797304399049e-02,2.856719963239234480e-02,2.619594918092519320e-01,4.562463315979552528e-03,1.123690982685077999e-01,3.061232543302427021e-03
2.518927558692436383e-02,1.331938936747847566e-02,2.648120015167170285e-02,1.147382314432073870e-02,9.526867649393576734e-03,2.982140733054939458e-02,2.628466173372592807e-01,4.802507286381034468e-03,1.024316520900256655e-01,5.394242644539047615e-03
2.502483001744619170e-02,5.666054481993839168e-03,6.146751430823628459e-02,6.723643005682723023e-03,7.006742471280432913e-03,2.650999068990076563e-02,1.979511027389541933e-01,1.757623274590495305e-02,9.444817817071400612e-02,4.210092631357473594e-03
2.284994819856972503e-02,1.021198539856596997e-02,8.649058444572381432e-02,4.012055240908730946e-03,3.616818774081599977e-03,2.060954156565194054e-02,1.197737216388420345e-01,4.851832184068946563e-02,8.066599932184789767e-02,2.088443590282311902e-03
1.345434610911701995e-02,2.708288471306794301e-02,1.044505090382645829e-01,2.276988329564359499e-03,5.661214993219817072e-04,1.292367923453065053e-02,4.966208692346524289e-02,4.364349298650774256e-02,6.224928149368703922e-02,1.345211665386197766e-03
2.919118665312248496e-03,4.377099377470459324e-02,1.172160825626298586e-01,1.588496574072634704e-03,5.638637534478616042e-03,3.998520523398039518e-03,2.147053645340593619e-02,6.675645880346177050e-03,5.117972274516711245e-02,2.023013957224796978e-03
2.090830275936220520e-02,6.200737130668454444e-02,1.275268154812749799e-01,1.434870078308213628e-03,1.185081642392732740e-02,5.268451932781532954e-03,9.069572481754314963e-02,7.381410544027791620e-02,5.272939953289351028e-02,2.135419522528981401e-03
3.676321151156395489e-02,8.032091665188666185e-02,1.403035730547556037e-01,1.042348185441996627e-03,1.916094153780007608e-02,1.411201718862005114e-02,1.428653738224713032e-01,1.338547087767076038e-01,5.562906398721870205e-02,3.857088583607559684e-04
4.736581410543831694e-02,9.290906402876211723e-02,1.561339687887339511e-01,7.029312688353848981e-03,2.532105650759559207e-02,2.080846938689421069e-02,1.713261294363239151e-01,1.739004850847017947e-01,4.475846715814892074e-02,2.190386885312572713e-03
4.675639227737903719e-02,9.384014635783127778e-02,1.676123181334179257e-01,1.328284576166937313e-02,2.677278559835836666e-02,2.310086208184182824e-02,1.746785636898506577e-01,1.737721881578713767e-01,1.825407135959546123e-02,3.616317378226076729e-03
3.225250527435859216e-02,8.343949048556247028e-02,1.687933308507245933e-01,1.666607090790151249e-02,2.339960479329982607e-02,2.159708878240452698e-02,1.543761693525304568e-01,1.222560608871451626e-01,1.383008531712288242e-02,2.610529793477753876e-03
1.202615459041950219e-02,6.941907327310685438e-02,1.638366752967478357e-01,1.831793901009873965e-02,1.959211251972119150e-02,2.019649476358334125e-02,1.289633157028582666e-01,4.874578322626733212e-02,4.301744624628053154e-02,1.072515733073350300e-03
6.925647140146410372e-04,5.975851964391210719e-02,1.578008121900286997e-01,2.022510603016160549e-02,1.874098906872374154e-02,2.161470337016116808e-02,1.269803546178971121e-01,7.428619306335313907e-03,6.729870279240983411e-02,6.154222392148793463e-03
3.241246722635949054e-04,5.609785969955995155e-02,1.432988612905241876e-01,2.051817680703967722e-02,1.960205613554964060e-02,2.482198668754113241e-02,1.583307429955708723e-01,2.434870085881877394e-02,8.682952732116736017e-02,9.761755208189375893e-03
8.847005559146990661e-03,5.554564077004250922e-02,1.099146884971869687e-01,1.602340071387858139e-02,1.961513156460376051e-02,2.791542376916680140e-02,2.100682119957960059e-01,8.019880799085085665e-02,1.029588240613196898e-01,9.573320704228343789e-03
2.056570687437663664e-02,5.614792332689285542e-02,6.622986243784355354e-02,8.129957974350808525e-03,1.861889319646625393e-02,3.114349063302499290e-02,2.633081675242032182e-01,1.430603610597039332e-01,1.188966280410521797e-01,6.135743651484413218e-03
3.077449369539195928e-02,5.793504423513209933e-02,3.668808179597149444e-02,2.269964431094733445e-03,1.765862592890011379e-02,3.541886127243664556e-02,2.977696974265354180e-01,1.915055722357849877e-01,1.346587844100958220e-01,1.708194392767024535e-03
3.619025668618600783e-02,6.033812391139944942e-02,3.366277034146977071e-02,1.758951292837213597e-03,1.681263355479519980e-02,3.931310434674391979e-02,2.977462623953730514e-01,2.092781219079941912e-01,1.440037958901587978e-01,2.803946049067630036e-03
3.554391544538185871e-02,6.146593607923235558e-02,4.601035682589420944e-02,5.371671347181654690e-03,1.569296260874324112e-02,3.987747700722647087e-02,2.702016642232027976e-01,1.905542769268555592e-01,1.412591269379073755e-01,7.734391407231359060e-03
3.168966858363151534e-02,5.990456922459216210e-02,5.735767750209089244e-02,1.052416050625584569e-02,1.443946121284694212e-02,3.652130165640994630e-02,2.370412499429083164e-01,1.528919979525297235e-01,1.279683061778479902e-01,1.183482654292254688e-02
2.805101739592976220e-02,5.583384974008558793e-02,6.335529498609195065e-02,1.535032359966077148e-02,1.334099629651082537e-02,3.213646728288142157e-02,2.029406022843106561e-01,1.205565196152765944e-01,1.095828930506825560e-01,1.273949573834395887e-02
2.477747037345141845e-02,5.041665336529056740e-02,6.739513406007301144e-02,1.811822594103924475e-02,1.235090295023205317e-02,2.958489682870945117e-02,1.570998265557418672e-01,9.782194052707043896e-02,8.825426496296870371e-02,1.087350734376015503e-02
2.122303281394859187e-02,4.479172956440587161e-02,6.899762106125861827e-02,1.802269024557332650e-02,1.132687497377667975e-02,2.859320779189668954e-02,1.071287937410920627e-01,7.690925482592071705e-02,6.086142470822094447e-02,9.547377408839138879e-03
1.833645005842817616e-02,3.954048964607088934e-02,6.364052507507714229e-02,1.640588026068491578e-02,1.028573148386396213e-02,2.718168821597499729e-02,8.044635900688963670e-02,6.150610426973655842e-02,2.496727828612692324e-02,1.016010915360378297e-02
1.606727132410516387e-02,3.470072534371231032e-02,5.120479647166931159e-02,1.497842785121942556e-02,9.292594475423528178e-03,2.472817369286623920e-02,9.010716788982806036e-02,6.248443552597508777e-02,1.362657468447506411e-02,1.068003327718716235e-02
1.303479152243075881e-02,3.013523245162037789e-02,3.822152905744397727e-02,1.365754013773613773e-02,8.339031918425367229e-03,2.213876374639559344e-02,1.225316993497311269e-01,7.925034813299222658e-02,4.431963984142200941e-02,9.870750443656159737e-03
1.040466463528232424e-02,2.581370627369583559e-02,3.096807653351874023e-02,1.178774428670112048e-02,7.393527000189003759e-03,1.999352991136988181e-02,1.575117112373956296e-01,1.006757422949559333e-01,6.285470981752709629e-02,9.562250620111770530e-03
1.111844969919522676e-02,2.177683743647485307e-02,3.022548322357644646e-02,1.002153718213949496e-02,6.459347404813273012e-03,1.801882663589638583e-02,1.818252481964982015e-01,1.160071427629702501e-01,7.138689605446768560e-02,1.139237581200035904e-02
1.482256721239161995e-02,1.801930034634711270e-02,3.317606208524442879e-02,9.233589128626670459e-03,5.551639454704916654e-03,1.595929761312720602e-02,1.844980929291382410e-01,1.159311883012324879e-01,6.933000804149333507e-02,1.413174911294321802e-02
1.837684610527840628e-02,1.450046798322566360e-02,3.705145636469806686e-02,8.891768818117633949e-03,4.669846289401395276e-03,1.393785015026900373e-02,1.555756628614315684e-01,9.504897422937443052e-02,5.408254222975500403e-02,1.562104025977577131e-02
2.061436787824468334e-02,1.119893090617525566e-02,4.030815386075783241e-02,8.020508281549754842e-03,3.808091735621869402e-03,1.207736789529196240e-02,9.858422208932832165e-02,6.230322071312821564e-02,2.974025184913522968e-02,1.530324043357738674e-02
2.240770572553184292e-02,8.108932574415743388e-03,4.216771339326672030e-02,6.695347436199977978e-03,2.968635502668480908e-03,1.032431036501368221e-02,3.844763690063351946e-02,3.868511019751660895e-02,7.145386919508995086e-03,1.387340088148523130e-02
2.383476208094155446e-02,5.215464211992548900e-03,4.175456929760668068e-02,5.531955773240652789e-03,2.157123220485701251e-03,8.622309016294571471e-03,5.771297165357253817e-03,3.681743227977457567e-02,5.560083996257954124e-03,1.213962310637096108e-02
2.476004969633286562e-02,2.496227349599130195e-03,3.802633576258133974e-02,4.625047752438156239e-03,1.375220849867160935e-03,6.996942229305200614e-03,9.634972798076967687e-03,4.939602387250198456e-02,9.397323834800935805e-03,1.083269455514031428e-02
2.600811420253297188e-02,6.610319490062653569e-05,3.108705668978732628e-02,3.711158395811623052e-03,6.226628345543533134e-04,5.475547172440915593e-03,2.915688582939818946e-02,6.130925129284445219e-02,1.128230744522536882e-02,1.021194624379750601e-02
2.762941313020476908e-02,2.484104668441491394e-03,2.287203270498572305e-02,2.742082183403978055e-03,9.733923187427509505e-05,4.046548965120721694e-03,3.424260073701881901e-02,6.611081993949637081e-02,1.677433344182848590e-02,9.748021468371580178e-03
2.857919467632711111e-02,4.770856532120091448e-03,1.558064003114729978e-02,1.842999918939273313e-03,7.790065823602932912e-04,2.696520424456702418e-03,1.547158165633695515e-02,6.718797788500668888e-02,2.725810786226253585e-02,8.945232556216060199e-03
2.895540938929836230e-02,6.939465083836464376e-03,9.783471362903700327e-03,1.041341444022593314e-03,1.420950976313109168e-03,1.429698307523594777e-03,1.076021124257930950e-02,6.770753242635001168e-02,3.949187757376261543e-02,7.840029064800980649e-03
2.922612622850939701e-02,9.000235726976175965e-03,4.609212309915931144e-03,2.816463006274998702e-04,2.026217268347484286e-03,2.508958513765310178e-04,2.879567903108778276e-02,6.425981989210008405e-02,4.424169229060783554e-02,6.385894041252514891e-03
2.763341541585687122e-02,1.096057594932495043e-02,8.142104735083619677e-04,4.469236188004077279e-04,2.589929428473107184e-03,8.438105348002752047e-04,4.070677223198512079e-02,5.228393420648842771e-02,3.191268987097418269e-02,4.551332281282316830e-03
2.230144165320869371e-02,1.282611771573383477e-02,6.682852213551198836e-03,1.115997574876540334e-03,3.098389986421293610e-03,1.859153991896327334e-03,5.116766474890539068e-02,3.516458224321099973e-02,5.045016867051724078e-03,3.000605526777440184e-03
1.486753644954063105e-02,1.460066461967312809e-02,1.255711574702032471e-02,1.718771953791128557e-03,3.554587265899692566e-03,2.796174321944110489e-03,5.961830407778945934e-02,2.142590207461524121e-02,2.063049110502608585e-02,2.339166450644436859e-03
8.435272476010433063e-03,1.628564391348001628e-02,1.758738170712760215e-02,2.268280059791418900e-03,3.981318103005468054e-03,3.655825602514482450e-03,7.406345631919326877e-02,1.353896956687582892e-02,3.163724908036126549e-02,2.041521496883702720e-03
3.557222868093076664e-03,1.788019248598835681e-02,2.135620221640711219e-02,2.766931795638295950e-03,4.367498773683524405e-03,4.441076342355330248e-03,1.036155604367060834e-01,7.146648391995797170e-03,2.817512037999072086e-02,1.269439125916574070e-03
1.002530950469900008e-03,1.938156936407220421e-02,2.448001655166288579e-02,3.206904728416414864e-03,4.660121038872483065e-03,5.155191553126988596e-03,1.339579025497090181e-01,2.506315511625230308e-04,1.894530089363535494e-02,1.042203315106452442e-04
5.432605604365974006e-03,2.078535739882570940e-02,2.771075244670432106e-02,3.588736871230345168e-03,4.878620894771297165e-03,5.800673264400677681e-03,1.390205515262126768e-01,7.469697254664015539e-03,1.071867819684388032e-02,8.909163763060830342e-04
8.667009474349026896e-03,2.208558460664921189e-02,3.092321625195875584e-02,3.921639254971038407e-03,5.135362198393721676e-03,6.379997305156438411e-03,1.153911396449351506e-01,1.338522982404410054e-02,4.845175171150235653e-03,1.607672386821334606e-03
9.736841241170596933e-03,2.327500961913163413e-02,3.360364638234927120e-02,4.205579018537452911e-03,5.392134993530771359e-03,6.896065296128622325e-03,8.113019306347583892e-02,1.672078909258895713e-02,4.038146686163947329e-04,2.282566513371892501e-03
8.929885463700201753e-03,2.434550278070433255e-02,3.568520432294736838e-02,4.430074243108256607e-03,5.407175094468483559e-03,7.351814752102769739e-03,4.891416534141489886e-02,1.655172926229098174e-02,6.534813725771001017e-03,2.984828135364476272e-03
8.030880784270749695e-03,2.528839589310915778e-02,3.739292503134385159e-02,4.602159664450372091e-03,5.249881085619269999e-03,7.749955962563310520e-03,2.224615356889801665e-02,1.587191595894505564e-02,1.263959550132915353e-02,3.592598632459978285e-03
8.273688457668824242e-03,2.609481836348157696e-02,3.877609779901430159e-02,4.749492506961348025e-03,5.485969835071684807e-03,8.093109269772915185e-03,7.799734933598120694e-03,1.911312405536670297e-02,1.595101025005055129e-02,4.028493517208497562e-03
8.238184290812246638e-03,2.675606596483558197e-02,3.974791112242077179e-02,4.865371846536271916e-03,6.242340140624625527e-03,8.383893307618725532e-03,9.826660679582547436e-03,2.525613169038050387e-02,1.506602490751253465e-02,4.364321318256984134e-03
5.955928414441000705e-03,2.726398059237372662e-02,4.030660775706309401e-02,4.900640407857681166e-03,6.651670364688946728e-03,8.624831238516600038e-03,1.780925534785210776e-02,2.857945327344032019e-02,1.174419450949376609e-02,4.727137800699090543e-03
2.610614041718233285e-03,2.761130520257938301e-02,4.052026254356447948e-02,4.878511378887478989e-03,6.076694636401227395e-03,8.818284299606470727e-03,1.692631466197367512e-02,2.650243301312086089e-02,8.653842651664722316e-03,5.058734206301134656e-03
