9.931186491546388495e-03,3.817746328004302872e-03,5.954094449606244649e-03,5.398321501850166654e-03,2.845268459192630290e-03,1.016921442174870615e-04,5.718035436017078997e-03,1.925255713818466857e-02,7.431879459495845629e-03,3.961446885936562023e-02
8.828600050793958265e-03,2.709075293549302946e-03,4.801020015886200802e-03,4.913905236756148202e-03,2.791078175414474834e-03,8.239891228133241954e-05,1.224562610881799705e-02,2.099722722942504519e-02,2.370911748638094424e-02,6.131937172697435323e-02
5.942893959360152391e-03,1.532800130729244448e-03,3.997650429254294598e-03,4.398439826010339636e-03,2.705141616422871830e-03,6.075441986852117793e-05,1.929581862201180248e-02,2.609731075422268981e-02,4.208818723376064885e-02,6.797728962923769991e-02
1.592604021329402722e-03,2.979120198835971591e-04,3.727682748959091751e-03,3.840381994177511499e-03,2.588601091358591101e-03,3.675413220116486522e-05,2.140809051784915359e-02,3.182614258299285709e-02,3.958188668249513348e-02,6.350202183315861726e-02
2.171234928934106904e-03,9.863604578875576588e-04,3.102475835656810614e-03,3.190000488398896973e-03,2.443166229247132216e-03,1.042018588229518592e-05,1.548890006046860744e-02,2.956481416952289054e-02,2.548862085233820005e-02,5.970531528807775101e-02
3.945906117696197299e-03,2.310734382924222331e-03,1.352521316816484047e-03,2.473637996697380763e-03,2.271059658579594690e-03,1.819645190192595110e-05,5.584092294261478601e-03,1.764357322496956648e-02,1.545903590194952146e-02,5.753721173839430186e-02
4.690297731032567335e-03,3.666076923564638278e-03,8.553175191802983319e-04,1.801305848830691289e-03,2.074833461085144777e-03,4.901608573168533421e-05,7.326199625827049507e-04,4.970975149968975479e-03,1.379841121532101103e-02,4.807329411395983715e-02
5.792566424118282889e-03,5.043712997103358756e-03,2.329912194951948203e-03,1.122693115109864911e-03,1.857302412704027765e-03,8.193663617476619650e-05,8.215452638286092641e-04,1.994601499802613719e-03,8.912775461164876636e-03,3.177009854774925923e-02
6.642485031798971498e-03,6.435674372845631708e-03,3.001749527673994080e-03,2.015058752381165092e-04,1.621722585324618772e-03,1.168371018391330259e-04,2.042717519903526797e-03,5.756917340947608104e-03,9.505676655340262321e-03,1.901313463055176803e-02
5.999555440869565846e-03,7.834694131960889818e-03,3.742020507880141136e-03,8.681797689564200874e-04,1.371697466622621682e-03,1.535693203494465882e-04,5.092424523633767332e-03,9.196245959773486842e-03,3.219286557373930019e-02,1.396049861286388118e-02
4.762570371332894813e-03,9.234270623974225739e-03,5.136439046507581228e-03,1.535199907604411877e-03,1.110529599049801808e-03,1.919571610541396210e-04,8.365151508791090346e-03,1.013484263475947916e-02,3.854939703818536373e-02,1.190302404544894312e-02
4.720901844692530769e-03,1.062921302701334489e-02,7.170380480496207562e-03,1.731552342067117171e-03,8.411233490411334970e-04,2.318223205347898089e-04,1.140619503821087809e-02,5.567986055334685214e-03,2.430871370899316194e-02,8.232853349129799769e-03
5.249819472254675656e-03,1.201597344445517676e-02,9.567726567659418091e-03,2.303121280016290091e-03,5.670768810767260262e-04,2.729961629427455727e-04,1.312792074191333758e-02,4.897737008713180448e-03,9.580870161271716479e-03,2.275484317110187428e-03
4.481029393324884903e-03,1.339185559718008081e-02,1.193180002970281942e-02,3.771025367124947961e-03,2.926259183902270647e-04,3.152753760451950434e-04,1.485411500264519416e-02,1.910748709395617556e-02,1.315130979121118503e-02,3.449451187047392845e-03
3.106266138175885552e-03,1.475455125783333224e-02,1.398720843661750701e-02,5.546862426630135359e-03,2.002306370285450931e-05,3.584067038795961261e-04,1.882008768360171266e-02,3.241347492807498953e-02,3.030543213143961634e-02,6.300801310606288924e-03
3.330585134108564153e-03,1.610397850325137256e-02,1.585913319263861088e-02,7.017950712608908743e-03,2.506849705195347876e-04,4.021928934278823494e-04,2.378755605915518212e-02,3.945431697973175722e-02,4.486591356020077498e-02,8.313475040860128507e-03
4.694039452287961968e-03,1.744336972582243017e-02,1.783277470474078918e-02,8.220698395869205713e-03,5.163211347560438128e-04,4.465398886988292907e-04,2.605992018023488288e-02,3.870497856008982968e-02,5.196844085661195961e-02,1.471895643292437696e-02
4.460459378522175361e-03,1.877531215738809794e-02,1.998975539148618169e-02,9.128998466912653653e-03,7.701914745736421425e-04,4.912435144637310961e-04,2.436016499718943878e-02,3.506057667084891416e-02,5.915180096825282952e-02,2.640070527488808799e-02
1.519066728477704280e-03,2.009914792089579141e-02,2.225780860814733156e-02,9.732355454269366740e-03,1.013667315227128251e-03,5.358944378688811029e-04,2.066115009132601585e-02,3.584473992298849165e-02,7.300513131208372086e-02,3.697760235233247400e-02
2.573146954374557795e-03,2.141908198666962054e-02,2.454585350989013301e-02,1.072085568139151748e-02,1.257471518717123097e-03,5.803418916935918544e-04,1.727105709879851042e-02,4.254616186182968302e-02,9.187853534290271740e-02,3.735762773206809800e-02
5.637717210112382776e-03,2.274956556720549028e-02,2.679339425858652882e-02,1.260699230800273705e-02,1.497093291700196454e-03,6.249184396785907591e-04,1.543566703294438867e-02,4.778499344079306654e-02,1.075268329567094228e-01,2.493928789096311674e-02
6.721798336247197803e-03,2.409764896300227097e-02,2.913890668956792274e-02,1.473391650647254761e-02,1.709470736155503786e-03,6.694640194092707801e-04,1.535364099388494830e-02,4.348781873292001388e-02,1.121841842082076102e-01,1.140463057792612950e-02
6.611486875127412996e-03,2.545047224494142307e-02,3.181024285233433752e-02,1.644206893507167699e-02,1.905433544043728467e-03,7.128275869655425470e-04,1.599616787346558322e-02,3.197656459452750954e-02,1.064144617641018392e-01,1.458459583597363461e-02
6.708124938330534137e-03,2.681200839160283178e-02,3.454821215797840295e-02,1.810646313778979319e-02,2.138137272140559677e-03,7.549439504844383331e-04,1.665239390111800805e-02,2.521584877781454792e-02,9.762785278450571147e-02,3.734583372563732989e-02
7.073752035426353682e-03,2.823006820129209116e-02,3.676627223045024484e-02,1.986690568310929550e-02,2.391205122115866877e-03,7.979561149776627548e-04,1.908009762511876997e-02,3.017332989349345504e-02,9.075702483756324657e-02,6.327393609152211218e-02
6.416726978729852572e-03,2.971783204850625068e-02,3.873587550614593367e-02,2.084660479463534138e-02,2.557543099189801567e-03,8.418112784050389664e-04,2.513014059620695753e-02,3.797141896592853838e-02,8.619424124159411060e-02,7.599231531443984000e-02
4.411857139672888638e-03,3.119340976070774513e-02,4.143510374892148823e-02,2.079719082682125048e-02,2.677500747717555165e-03,8.817492096788036478e-04,3.217760305559562439e-02,3.475837513416763641e-02,8.398533255546987430e-02,7.228582285037471467e-02
2.582327897930703463e-03,3.264512341042241639e-02,4.458171895892923398e-02,2.089525290984893188e-02,2.993032186420400021e-03,9.176403823417043611e-04,3.543389610744469842e-02,2.238465970998169616e-02,8.141994667093727100e-02,5.678809869026851115e-02
2.008638776557363208e-03,3.426420737117373549e-02,4.641213548431021713e-02,2.165727824659860121e-02,3.444142973525389506e-03,9.595900508797043866e-04,3.518124189102691396e-02,1.740130868240786013e-02,7.230849091026259057e-02,3.628121533679237037e-02
1.682573677426378155e-03,3.609465917240929633e-02,4.583443372435035135e-02,2.134793540003176657e-02,3.481231297269107763e-03,1.008136266199538512e-03,3.614553547370174397e-02,2.783729456195324636e-02,5.701619857369705918e-02,2.009815447087697632e-02
3.733586941406386982e-04,3.773997256058807953e-02,4.340069985166929156e-02,1.764989401384223916e-02,2.975996856749759095e-03,1.041758330535998362e-03,3.920704053105462245e-02,4.272503671602901482e-02,4.292171161168654991e-02,1.673434348598246829e-02
1.216267712987884053e-03,3.910191247349479454e-02,4.116888115807653542e-02,1.089090609267715989e-02,2.781155188357397386e-03,1.058838567837225688e-03,4.046253359508458769e-02,4.788178138189846250e-02,3.036091271345878889e-02,2.598738245840589989e-02
1.656881895061258856e-03,4.102739651129857362e-02,4.243955015123708485e-02,5.547613864749232140e-03,3.557565629822084623e-03,1.105430328793878753e-03,3.986025822071265212e-02,4.243304745409247347e-02,1.596443293322378360e-02,3.614576294760755287e-02
1.114949783920277278e-03,4.376754377728168943e-02,4.821286805524441221e-02,7.015894667578870605e-03,4.715377274017991220e-03,1.186228102666023795e-03,4.350991674528995046e-02,3.697067453254679337e-02,8.507852271804929034e-03,3.478969849715663615e-02
6.852715993102057295e-04,4.554331693233987233e-02,5.430972681701586036e-02,1.479810214111691551e-02,5.348414996618826647e-03,1.202655161307969976e-03,5.361678024286172656e-02,4.096921816240621517e-02,1.253876239700524656e-02,2.684579241568149297e-02
9.341818658821965295e-05,4.534051081256897792e-02,5.788220908344267335e-02,2.119431655306659376e-02,5.484824890356010396e-03,1.143849422078981959e-03,6.108866159286907571e-02,5.177158022209750465e-02,2.816037950073534135e-03,3.318778002795545745e-02
1.781656545334804826e-03,4.479422313742196377e-02,6.195029779362925398e-02,2.017126848375005652e-02,5.771097697548431549e-03,1.233027795358827014e-03,5.296616576752970207e-02,5.356882084561500473e-02,4.482800157158164239e-02,6.156682941190697728e-02
4.360501258582593839e-03,4.135724385108281026e-02,6.227753195697395550e-02,1.433436130657783289e-02,6.486832190946514344e-03,1.480914695067825620e-03,2.502824636385540466e-02,3.108395632076823428e-02,1.054034782264994946e-01,8.659500233488325038e-02
5.623189164526895371e-03,2.436989962918420169e-02,4.023754077078810915e-02,9.645247236195407872e-03,7.220946278019561154e-03,1.107377499991103308e-03,1.618235063181359609e-02,1.429014931588935139e-02,1.309577601800172852e-01,6.968871619701844100e-02
4.944474448053409396e-03,9.957078125857164383e-03,1.126679537729630490e-02,8.255674499307160893e-03,7.479071987467553369e-03,8.556770698278864202e-04,6.009599970711145683e-02,6.702648705832167653e-02,1.138192900974542565e-01,1.149235412939868251e-03
3.708883457780783825e-03,4.416245358138116278e-02,6.533447069392919748e-02,9.895766650175923801e-03,7.727952637702317773e-03,3.927779687883763138e-03,9.572488897316180911e-02,1.146983208599325621e-01,8.414571469911345802e-02,9.473002895137784540e-02
3.245565088932016000e-03,5.572401374543861641e-02,8.721768634468674009e-02,1.354637954149377765e-02,9.016577551623971773e-03,5.896450862782100233e-03,1.129934555745316926e-01,1.535418782770300306e-01,6.048919899393593452e-02,1.625733694853616906e-01
3.705383807583630205e-03,4.409362418141831580e-02,7.447735424016820038e-02,1.426997191630053480e-02,1.047204498177553393e-02,5.091733190981672513e-03,1.086855424324424668e-01,1.789302571403625364e-01,3.939312805633768400e-02,1.826795961072160135e-01
4.501991706799994726e-03,2.801487569215660098e-02,5.336727062049205494e-02,5.614927470603638116e-03,8.667943879397675341e-03,2.392909583101484119e-03,8.894367625547559830e-02,1.840492376422130649e-01,2.079247136571851090e-02,1.720023183146952572e-01
4.797219895847523036e-03,2.203371290594795945e-02,4.411158164727275316e-02,1.172302041860005459e-02,1.963306598494107304e-03,1.917033759857647568e-05,6.063412977821285021e-02,1.696099293564999888e-01,1.542597587688938204e-02,1.537630409128734887e-01
4.187121410848453594e-03,2.674413345825098556e-02,4.305599721189941331e-02,2.969738011075520601e-02,5.758445744598869598e-03,1.199782840635894810e-03,2.785714159385645206e-02,1.449882008534078837e-01,3.350093547317350984e-02,1.280790463374901766e-01
3.130095527118465469e-03,3.382328999362549382e-02,3.422589482573493158e-02,4.199702394552198847e-02,8.833366479634823659e-03,1.627945136852912249e-03,2.910409448362152613e-03,1.197497191105997699e-01,7.694721626716154173e-02,8.780922549076465577e-02
1.908907938972032774e-03,3.363011416247711771e-02,1.294217481342302238e-02,4.750841373209806900e-02,6.652282382292943642e-03,1.711918158948917169e-03,3.994578364553650653e-03,9.883602524964557601e-02,1.335433664309843282e-01,4.660688353378902860e-02
1.058076112389213196e-04,2.764955129539865136e-02,2.054700926889434578e-03,4.662630414462964890e-02,3.759777040903073634e-03,1.511030033313517321e-03,2.831249163885176529e-02,8.258176222580169978e-02,1.771873574670797258e-01,2.805773487184733128e-02
3.064249093548570592e-03,3.267214501350471784e-02,1.266434288617074300e-02,4.057749928939886896e-02,3.516594532816975059e-03,1.485590617577995862e-03,4.648178518294396322e-02,6.872346247292668298e-02,1.850836038438329056e-01,3.627598300092134409e-02
5.638510157186658010e-03,5.858280801344660504e-02,5.176178410301671834e-02,3.203656681278223284e-02,4.475245189321678217e-03,2.006548231830052043e-03,4.179625276342732038e-02,5.673930255987895410e-02,1.553634678835247585e-01,5.732108164940740574e-02
6.504215552331550111e-03,8.857128564039340457e-02,8.132597832581490993e-02,2.165008027773827545e-02,3.298703937737111971e-03,2.109048447485736485e-03,3.528066773745067858e-02,4.889278994822891106e-02,1.057335928652433227e-01,7.942649864121067993e-02
5.817926823514837226e-03,9.847291976186262064e-02,7.889281078692507443e-02,7.916158211476460871e-03,5.626606117417067530e-04,4.440768583140866426e-04,5.158454043634492364e-02,4.432931706140944006e-02,6.156847406279163104e-02,9.388498650914853250e-02
4.691225059608894465e-03,8.656602680727588928e-02,5.649882616909454591e-02,6.218135113850154633e-03,3.804853111623123472e-03,2.157548194158791927e-03,7.989363058516019134e-02,3.582940418136034560e-02,4.372786402549926760e-02,8.871326948737985607e-02
4.099459207582432756e-03,6.771612918241662338e-02,3.663032220577996240e-02,1.300257316286214382e-02,2.854938059954086841e-03,3.033052866838405366e-03,9.106562908196642880e-02,1.816170825895000937e-02,5.525418711053912968e-02,6.087136928221707766e-02
4.380574412008034386e-03,4.914586256689718741e-02,2.354836742531564095e-02,1.003726501638509648e-02,1.772776404520515822e-03,1.166564244046378734e-03,7.717566360846785101e-02,2.280270073869810482e-03,7.784366147693799753e-02,2.722660192717486771e-02
5.057417789248723483e-03,2.907818993481245395e-02,9.794458315122430564e-03,4.206559653867380719e-03,6.001203443809144909e-03,1.517861025211171815e-03,5.284145651237574098e-02,1.416073759000069897e-02,8.969211088177235502e-02,8.683604530760533763e-03
5.111286710722935840e-03,1.100363200360510510e-02,3.553148611581557863e-03,2.037867262864228278e-03,6.981785254659661315e-03,2.597355721530045757e-03,3.008670815413927099e-02,1.745249561893222334e-02,8.535284937010467754e-02,6.420566542840223240e-03
3.875698705766596110e-03,3.036215685843318864e-03,8.606363825388870653e-03,3.139136728110186562e-03,5.222754948053847691e-03,1.383745101935312215e-03,1.127917141462104686e-02,2.320138228650046874e-02,7.131801313899086003e-02,3.332667450918837954e-03
1.762376646241691630e-03,5.932202141801391944e-03,6.205969939907333803e-03,5.440863086522692432e-03,2.244788470624003475e-03,1.035472223246622966e-03,7.902859596641918088e-04,3.609360502116504971e-02,5.035013091602560248e-02,1.024909299468084595e-02
2.556827658681739700e-04,1.319172870713042865e-02,4.602158670708222758e-03,8.296466512383852965e-03,9.677663883908094265e-04,3.043525531693611931e-03,2.665187856758317354e-03,4.908109707273584227e-02,2.317798236517255861e-02,2.079351256493847805e-02
1.893747948335679828e-03,2.139823735227064719e-02,2.583018683316731616e-03,8.269948711271762898e-03,3.234904937084742520e-03,4.213190886597262090e-03,8.110259095074475941e-04,5.852580631506684727e-02,1.583340674492922373e-03,1.194956128001429044e-02
3.481441419747292529e-03,3.152149018930011648e-02,1.245327325917259045e-02,1.103038415204734505e-03,3.642917123011703544e-03,5.479383270311965516e-03,1.912438625299398877e-03,7.125550472898395382e-02,1.418839020915377107e-02,3.436032621711796083e-03
4.562045268346399604e-03,4.174440988175580347e-02,4.470656525295727685e-02,1.029316138017281543e-02,2.586740431734334180e-03,6.910210425508645643e-03,1.517871921015962779e-02,8.716045961937556041e-02,1.553332631915569501e-02,6.711623214693531944e-03
3.979652225385699876e-03,4.725429252208313002e-02,7.829940396672196989e-02,1.831996266526499106e-02,2.637469775052589524e-04,6.979867024384722382e-03,2.813800810815738837e-02,8.623196753601351794e-02,1.079776926915391316e-02,4.597660944239648911e-02
1.952638978256629378e-03,4.609130632065701338e-02,9.176492315345495532e-02,2.119713431595807857e-02,4.424039411644674347e-03,5.058188054320158535e-03,2.515824234921376981e-02,5.113038648764810234e-02,6.672841636174101781e-04,7.713482043393353471e-02
6.289598916256747751e-04,3.925425481442318398e-02,7.955809103308342234e-02,2.240767154317514775e-02,1.068640227056897977e-02,2.448829186278099306e-03,4.351160054374234899e-03,9.207526208444742968e-04,1.687278673544201357e-02,6.968765717026194351e-02
1.503133520538939023e-03,2.749505707880623567e-02,5.644442207241624765e-02,2.160259664458894988e-02,1.413387681935107144e-02,3.710534184962443723e-04,1.878318720112508167e-02,2.997830041943094076e-02,2.359451130164569657e-02,3.543018420104588478e-02
3.143984204824244646e-03,1.261401495102895502e-02,4.234009442179265115e-02,1.659988625844830215e-02,1.252783246427881594e-02,1.009882847330667794e-03,2.812214388476363611e-02,1.948940264093581426e-02,1.053732169952142396e-02,5.658034437734359330e-03
2.683931518057072578e-03,1.581571596540418123e-03,4.229418021177119152e-02,1.274096966514586676e-02,1.032764753578564731e-02,1.692922527062513775e-03,2.226347079483160726e-02,7.749415772095456095e-03,5.638220122426736494e-03,2.813078521498384079e-03
5.046152865117766850e-04,1.245467638897204687e-02,4.245528269578331682e-02,1.830005784415045245e-02,1.229013961058670994e-02,1.704684236356172845e-03,1.148751345626464367e-02,2.180220662755912031e-02,4.743620773031676473e-03,8.526463866280841949e-03
3.770442573595703204e-03,1.900566008727933021e-02,2.835660163065266068e-02,3.024271745106928144e-02,1.558372468855214951e-02,1.476721801019029818e-03,5.701865251102469952e-03,1.806154329407186690e-02,4.036545937665608069e-02,2.729636630051606588e-02
4.681197838124192233e-03,1.983449452039758379e-02,2.883629510986920278e-03,3.492921679168160820e-02,1.358999611917083641e-02,1.408296971495750670e-03,6.643063377986410667e-03,1.524257666495778922e-02,5.840055082100502337e-02,3.739592545576812810e-02
4.417648407086844850e-03,1.603304824597203207e-02,1.944129470936316328e-02,2.410478907860364589e-02,4.810101225908512169e-03,1.448840063387034621e-03,7.095247344317337501e-03,3.128656640021029028e-02,2.203678564135932300e-02,3.321210742904605329e-02
5.729137518793736734e-03,1.376298572153444345e-02,3.187019781569362664e-02,3.024551638736679322e-03,6.267853921593272495e-03,1.420864890557314505e-03,1.368825426011115870e-03,6.345563062197778770e-02,5.371354652602168545e-02,2.403707800748672296e-02
8.445083322859805661e-03,1.731895004224458939e-02,4.052613928031808394e-02,1.651178500878758976e-02,1.473983626163395157e-02,1.339437982174717170e-03,1.829176888185560582e-02,9.032020214993870255e-02,1.144005610501292874e-01,2.049545118258997919e-02
9.733395668103472440e-03,2.186894160396884307e-02,4.943528548573352527e-02,2.509823877159752387e-02,1.856566654769747221e-02,1.288330295264800097e-03,3.618723477961786200e-02,9.641375078638518559e-02,1.178251425611734765e-01,2.720465696630464114e-02
8.401617509148090121e-03,1.982625482078376189e-02,5.035770452318218821e-02,1.973450915422100826e-02,1.798465143472330330e-02,1.263802173138651270e-03,5.086514672351591382e-02,9.159821944671002469e-02,7.050522263926521649e-02,4.459798869299638063e-02
6.355142046040233514e-03,1.284004630198583990e-02,3.565325931663511361e-02,5.413963909955661971e-03,1.446083071480627931e-02,1.225131347570756427e-03,6.232233383112727870e-02,9.436480145152396914e-02,1.812534513641774966e-02,6.305309660659093318e-02
5.663331940299679880e-03,1.079861303401538457e-02,1.436668271439985045e-02,7.112522364061690111e-03,1.064838743863454756e-02,1.170246183077800536e-03,6.784294566735007970e-02,9.999424398917047818e-02,3.737484959097685938e-03,6.622323104519173276e-02
5.856816666481719572e-03,1.911751066624034143e-02,4.172017100931390936e-03,8.734156072644510063e-03,9.748266960022421157e-03,1.122323742670695932e-03,6.360008523054798413e-02,8.690695623265187741e-02,3.874547347941231096e-02,5.747035350025642142e-02
4.688382944004523475e-03,3.270806713378658637e-02,1.114387397555761071e-02,1.703289744744144367e-03,1.284950351471073927e-02,1.090707669288220336e-03,5.257944555972289546e-02,5.350253419962086587e-02,1.087327525072099427e-01,6.549348085728359803e-02
1.077940268724170841e-03,4.350437808313957488e-02,2.749378226300126446e-02,1.829679291197132060e-02,1.741159329948500575e-02,1.056802889595875612e-03,4.287618697293731074e-02,1.925901977171307414e-02,1.884535807387760220e-01,9.961218302335113350e-02
3.496694616801676852e-03,4.926842303538134238e-02,4.450424130474188444e-02,3.391991998060630426e-02,2.053224207905742990e-02,9.991538268076707429e-04,3.756278141098122469e-02,1.079068234655902042e-02,2.468766186729730860e-01,1.189342024846584273e-01
6.835257971021250351e-03,5.213783375132589187e-02,5.671775270028955873e-02,4.318849533416342645e-02,2.189969223971119719e-02,9.430329483503993018e-04,3.242392001513721284e-02,4.659269686712404213e-02,2.561833878013902721e-01,8.082860600532862372e-02
8.289077566521921986e-03,5.178892016479328536e-02,5.777006835247466832e-02,4.061964223568951399e-02,2.013638166807515256e-02,9.355786594394547087e-04,2.392460023027609406e-02,7.854998597661234927e-02,2.076378316379544064e-01,6.288388019838218532e-03
8.609608816691425789e-03,4.561360878449014639e-02,4.419993477245217489e-02,2.300959073559069243e-02,1.063037546280669321e-02,9.307667698475624064e-04,1.435058287178849791e-02,8.171705783200335083e-02,1.190914566759946752e-01,4.213433512425875799e-02
8.493924872498531675e-03,3.521893581233161846e-02,2.197248346688235321e-02,2.360274104867473959e-03,6.464950536602148690e-03,8.264469734317457950e-04,9.217926974412510299e-03,5.506526558342943189e-02,2.902244460322125907e-02,3.812023640417117054e-02
7.952178471973905122e-03,2.672162667732626631e-02,1.091625650946607528e-03,2.034458769890479246e-02,2.137113267711018491e-02,7.147808122433203836e-04,1.265101169241447492e-02,2.352272770481371456e-02,2.446895985440605825e-02,1.010621751069618740e-02
6.419945916629954050e-03,2.332471388086048217e-02,1.380495964329384387e-02,2.477944390579951348e-02,2.595062725755370447e-02,8.186927820340065502e-04,2.349297725451427246e-02,4.487482890399202388e-03,3.066463484488806887e-02,7.614664450890597583e-03
3.142868861056845233e-03,2.177188392958709015e-02,2.290729624095878478e-02,2.402216232963607159e-02,2.414642244424546405e-02,9.574350883495776239e-04,3.370059118061805720e-02,1.837340832259402260e-03,8.558042003889966554e-03,6.273460640678178712e-03
1.730986817210981724e-03,1.716630761028919983e-02,2.578337771758791933e-02,2.543202564115459863e-02,2.377713322892089504e-02,6.069031713584162801e-04,3.368361122138747998e-02,4.025855547466982397e-04,1.552534310797758221e-02,6.607876111434147874e-03
6.270937353740617393e-03,9.541912288326771796e-03,2.006208513958330705e-02,2.564091598138443576e-02,2.515576569685069180e-02,1.130508816419110172e-04,2.173139273311973374e-02,2.766410194864237990e-03,1.824060433703531686e-02,1.712054931059775464e-02
8.101464697757533237e-03,4.897000920537043604e-03,4.155971508328457076e-03,2.056412050117543619e-02,2.491219902850716830e-02,4.009127844857605992e-04,5.124380315471263256e-03,4.046140374712473876e-03,1.863219573586423483e-02,1.090275549237377205e-02
6.821291693738279656e-03,8.378944029799783449e-03,1.752385092702189728e-02,1.325372588465911772e-02,2.338221062970197162e-02,1.817597641368991343e-04,8.712658585516048701e-03,9.484856550385865198e-03,8.778906596925142858e-02,1.238468346878973496e-02
4.122695918127303356e-03,1.653235719315043067e-02,3.263020533654293481e-02,7.308070125286278591e-03,2.156609031582168781e-02,2.170475397045883636e-04,1.673396997473178965e-02,1.000520642278129695e-02,1.493864356676316285e-01,3.817261518499817652e-02
1.801672188650261684e-03,1.985256721095611521e-02,3.064912687010019898e-02,2.375235511984617742e-03,1.763182246994888375e-02,5.068054979761231569e-04,1.698968667290767787e-02,4.989795960996395996e-02,1.716902797055591678e-01,5.514495514027079048e-02
5.057621223493871188e-04,1.379844543647114861e-02,1.526429800233889550e-02,1.097933453852982695e-03,1.169538399214452642e-02,2.897182171502165433e-04,1.055133774480364328e-02,7.419810550193409182e-02,1.685240399617221885e-01,5.947313897497617102e-02
2.406788034172672325e-04,3.204609030247062857e-03,3.238853527720983103e-04,1.297502309332284253e-03,7.857247284517632907e-03,3.590535325879991671e-04,6.688698661063729664e-03,6.461863248463389775e-02,1.714147266087869270e-01,4.527722873832681905e-02
1.256791791720721693e-03,4.720292461437073511e-03,9.701077055364029991e-03,5.340283180439784998e-04,7.470528549937591710e-03,6.378866810366550736e-04,1.438626041072100722e-02,4.168437417266519091e-02,1.741589559486030614e-01,1.314382712720367843e-02
2.243522018535490815e-03,6.980672254592074251e-03,1.613852532520777816e-02,3.928563548216183754e-03,6.069591774662522546e-03,4.270403930220578823e-04,2.747373721516719117e-02,2.928995107366374681e-02,1.361190369914126730e-01,1.509560810637975217e-02
1.643178082089696932e-03,3.999496226018696768e-03,2.089446609768779578e-02,1.154078456969855233e-02,4.319222697484143090e-04,2.505544307199839308e-04,2.939398284443200948e-02,2.816919652563585827e-02,4.515412277771294058e-02,1.424363202552141223e-02
9.990787063128296532e-04,2.634137744046287193e-03,1.953187099994281584e-02,1.715329203093737820e-02,6.121810322996640817e-03,2.887359729135986221e-04,1.453311858876637705e-02,2.922324675448011513e-02,5.106587938735787646e-02,7.269835562480010151e-03
3.860305071964601886e-03,1.054992851288517886e-02,1.062484653284118119e-02,1.637539257909361584e-02,8.675986783447000097e-03,3.186689848831010508e-04,4.393737938945445690e-03,2.641635320620050464e-02,9.665339483026701151e-02,9.359236623056727683e-03
5.332581888938272251e-03,1.764772211782714498e-02,1.430415119626728647e-03,1.294572685082374768e-02,7.300832409101848039e-03,2.491166160864896769e-04,1.234809604116796945e-02,1.365951677274714927e-02,9.441790000390448689e-02,3.027376557412126551e-02
5.916930181648543362e-03,2.252903112665092383e-02,1.397543579530928330e-02,1.478217103836572920e-02,5.805239357760332009e-03,1.823458221659295651e-04,8.277214300652695200e-03,8.418773220484255040e-03,9.381549738770005031e-02,8.914078878010728291e-02
6.446618887312811214e-03,2.328449765964081888e-02,2.788821941835844392e-02,2.417053135166858172e-02,6.351018939294255164e-03,1.626515470163736429e-04,1.911600360229073411e-03,2.213452866466299532e-02,1.173278224890361293e-01,1.356831561710979961e-01
6.619376513103283552e-03,1.897751366998409045e-02,4.019803756728589778e-02,3.400518544120363640e-02,7.642916737112512120e-03,1.429726691666009547e-04,6.561942958009289164e-04,9.389793127093952127e-03,1.330185432247270871e-01,1.662711358253908533e-01
6.274897901266325226e-03,1.310154215972087269e-02,4.488419173594680733e-02,3.551311200323509221e-02,7.491132371318758899e-03,1.022340812196529487e-04,1.763538803871268854e-03,2.039993474107031773e-02,1.112871480593140561e-01,1.872002856823805073e-01
5.951591732700670968e-03,1.132583904153790233e-02,4.363878629379691620e-02,2.826221980433332726e-02,6.006681659895185196e-03,6.246945917428195862e-05,3.535431162291840460e-03,3.547306905650839115e-02,7.699479244225758412e-02,1.860931106420496139e-01
5.551987382676771762e-03,1.422280785555068983e-02,4.462607323281089083e-02,1.923766522145398117e-02,5.878327332804402991e-03,3.408326646140199384e-05,1.278477542950902206e-03,1.779263519378493710e-02,7.691881034572084497e-02,1.476801153894350405e-01
4.098489968648283410e-03,1.615287374041705915e-02,4.839874795363565546e-02,1.310320981549787170e-02,8.716418808567383270e-03,7.155595136187606657e-06,1.074728428438015415e-02,1.752179050011953843e-02,1.117860460952753154e-01,8.241807781659121757e-02
1.015532503617217787e-03,1.314804851658376607e-02,4.767430201775585408e-02,8.614978827499687394e-03,1.196290521256453479e-02,2.303970670106831860e-05,2.899692424845562444e-02,4.234130994849621271e-02,1.359097065023309181e-01,1.781117238566235980e-02
3.134667459617257283e-03,7.353053874338918126e-03,4.128206914813042222e-02,4.466065916272380851e-03,1.184722543671212769e-02,5.165787924875725402e-05,3.978192414902614188e-02,4.420943544832219713e-02,1.232483933935500237e-01,2.680123235597682563e-02
6.943030356553756346e-03,8.026939039336743794e-04,3.395817378792414382e-02,1.987095035575128267e-03,8.465319652605232670e-03,7.618459635179674868e-05,3.153830734080759202e-02,2.860507945387269838e-02,9.500958234794341928e-02,4.214836209715740190e-02
9.103530732169563128e-03,9.251290199156202501e-03,2.407975580111636552e-02,9.991370483253938020e-04,4.700673880030929036e-03,9.863674454303048207e-05,8.169800512444298432e-03,5.611380229314946386e-03,7.237523364861740693e-02,2.531156836591691439e-02
9.572830246408894211e-03,2.328465453511842018e-02,7.136603321433589858e-03,3.631445236992256187e-04,1.936786651689460445e-03,1.200218808449390434e-04,1.291576827307612529e-02,1.362888911919396019e-02,4.861737366745984279e-02,7.337803033924837279e-03
9.409605074648394810e-03,3.367190437200243136e-02,1.130321692392406534e-02,7.756271042335732488e-04,7.625531452900079048e-04,1.392447866802073422e-04,1.746572331826720670e-02,1.779727501751243723e-02,2.754040449478412783e-02,2.259783207375858777e-02
9.151602941611394759e-03,3.332666208317958123e-02,2.075861783893962961e-02,2.302173863779086692e-03,2.721356685395586068e-03,1.556925126471533243e-04,6.726076930282700803e-03,5.196496722591443379e-03,3.730531675295486321e-02,3.686439090983638714e-03
8.361676133373531147e-03,2.548307735297587057e-02,2.087698871940833756e-02,5.440286871254306454e-03,6.585150821067650186e-03,1.697812376803957163e-04,6.449098679300423534e-03,1.303844768093094519e-02,8.037766864206818962e-02,3.346832892143551674e-02
7.015497872828801301e-03,1.819306877183958851e-02,1.972239596762221867e-02,2.559625454557170818e-03,7.166239642438974877e-03,1.817549115171446228e-04,1.045813347643724696e-02,2.521199181732493994e-02,1.173815334775754199e-01,6.633196444732888941e-02
5.778265339183912171e-03,1.442380547203971249e-02,2.110080783880663446e-02,3.983476980297142624e-03,2.889841314331402684e-03,1.914159800174014959e-04,4.354264024066336648e-03,2.991845815196580993e-02,1.189420030690919033e-01,9.130308057203612160e-02
4.522277547767326183e-03,1.354427662549234808e-02,2.227455373328205562e-02,5.923494961483026511e-03,7.531060202160613781e-04,1.986851305236334454e-04,3.466015608891892877e-03,3.344252718059375490e-02,9.205320986242898629e-02,1.141842670826172801e-01
2.364743500234962707e-03,1.574438546782149645e-02,2.004702729095997338e-02,3.607739672381185016e-03,7.065488190794041133e-05,2.037337463784494383e-04,5.981317562182951984e-03,4.053785867982113295e-02,5.337040089406898391e-02,1.304635571859275867e-01
2.966167940052981226e-04,1.884344700653249952e-02,1.322604971904303012e-02,5.461215832642389231e-03,2.018422648130488266e-03,2.067219932190049404e-04,5.111027268055985152e-03,4.878152734106488975e-02,2.081012972217595805e-02,1.291459038816421545e-01
1.662109602382434888e-03,1.775021244076416954e-02,3.037052914579002963e-03,1.115464393259870367e-02,2.017776278554795320e-03,2.077312400426486615e-04,6.534573319216187455e-03,5.015704229434020389e-02,2.326040844640669264e-02,1.094160423085639572e-01
1.046474751304088749e-03,1.225580701956634731e-02,5.860343710452912275e-03,9.677537681891119903e-03,2.611934271926099043e-03,2.068826520365600824e-04,1.112785779929335514e-02,3.784765651067105441e-02,6.652274795394601259e-02,8.060448825160858310e-02
3.460584000448945624e-04,8.700220829039323131e-03,9.615669576997382464e-03,2.114673655443110884e-03,5.511564929668382254e-03,2.043662781222264631e-04,1.555755864230670693e-02,1.385629062265280806e-02,9.663945115260774710e-02,4.907879590974874306e-02
1.690190182593536480e-03,1.091169115322136556e-02,1.148948747859804970e-02,1.306630567975361479e-02,7.140094298753951740e-03,2.003811868614436545e-04,1.700376927637564997e-02,9.334540492911984344e-03,5.214719771346481431e-02,1.663888187708593980e-02
3.602467702870141685e-03,1.614544116583566460e-02,1.683635623282566871e-02,1.475110820319665283e-02,4.993500365638459289e-03,1.951158581402924865e-04,1.351269277645552117e-02,1.958783954635907529e-02,5.047086229998667267e-02,1.072070680271773775e-02
6.281368434317405672e-03,2.074611487587952122e-02,2.159463112884367833e-02,1.233210075811282287e-02,2.283298600048766329e-03,1.887702790581078629e-04,4.959280151937193667e-03,1.994936159683742549e-02,1.339102340164201599e-01,2.268142063944018905e-02
8.481057287946217396e-03,2.300828907988695590e-02,1.578778783039095149e-02,1.305087544483191954e-02,2.462850731959552800e-03,1.815593996465309304e-04,2.852392351238887836e-03,2.515785983796873723e-02,1.548464525699290995e-01,1.395192034000920789e-02
9.243915719280709764e-03,2.159220336654034400e-02,6.323680021671981843e-04,1.521265926357977596e-02,4.181828959757920121e-03,1.736966781340749206e-04,1.715303820556779695e-03,3.896257122045092280e-02,1.365541390682814826e-01,7.947476911647124304e-03
9.216487353690254805e-03,1.812937572541981762e-02,1.611874531813663886e-02,1.448923711916288819e-02,4.531125842398342485e-03,1.653861042599624851e-04,7.348156481629979607e-03,4.506735809678930060e-02,1.214802335189128779e-01,2.260232757344777382e-02
9.391943645965374760e-03,1.878884948582150785e-02,2.221268759729009071e-02,1.164377208233022265e-02,3.267721589884269810e-03,1.568237893288319232e-04,1.290048102380632507e-02,2.960940161715170868e-02,1.320702993327585173e-01,1.007065650147376604e-02
9.668556259121387567e-03,2.608831701102415010e-02,2.055639500953609228e-02,8.154102893633257548e-03,1.901367209155355523e-03,1.481959859363322506e-04,7.123056907890248229e-03,3.877042342578563856e-03,1.667342279878069600e-01,2.959179917930188433e-02
9.418140957323137621e-03,3.253183986467769045e-02,1.639100704974432582e-02,1.297212414816209438e-03,1.239394620023892037e-03,1.396730014611327446e-04,5.682363180229042798e-03,7.896295360559982268e-03,2.056084202618068124e-01,7.589209582232396556e-02
8.539285370539575343e-03,2.926204281632898557e-02,1.287588628308470803e-02,1.116192656083923179e-02,6.396062041572809533e-04,1.314052732228106343e-04,1.654558138581476573e-02,7.020072579267525904e-04,2.251402513424533569e-01,1.081309519316595857e-01
7.273085968185953598e-03,1.750492063831093556e-02,1.068015888543028327e-02,2.572683427829558847e-02,1.603871117425296252e-03,1.235220416039718011e-04,2.039877283103132613e-02,1.240297719656382851e-02,2.196021494050183487e-01,1.176874183021171388e-01
5.729404310725802300e-03,5.601060280848585426e-03,8.528431947882145550e-03,3.680961701497027089e-02,6.759485147967628574e-03,1.161297834709297332e-04,1.564052294277954933e-02,1.153760671414827410e-02,2.062944324329278600e-01,1.042017066283891791e-01
3.918288967685723892e-03,1.671077134198124814e-03,4.848960056620599951e-03,4.331347643027256417e-02,1.378636261143065256e-02,1.093102398630357061e-04,2.324305143870603833e-03,3.772021102467803741e-03,2.069648836270039094e-01,7.159118217497019432e-02
1.620890167912356593e-03,5.705732269829972420e-03,2.409902273643343452e-04,4.781379676370155207e-02,1.957807407739489344e-02,1.031194169495381686e-04,1.644186042752820986e-02,5.518004257269275292e-03,2.247655169116488105e-01,2.885307388606747625e-02
1.466412117989679062e-03,8.739442315625092078e-03,5.149214584300782285e-03,5.021427543361129536e-02,2.121666232074293640e-02,9.758768538842648691e-05,3.499966303610679147e-02,2.103587620541341741e-02,2.385029679217590126e-01,9.023867650357980663e-03
4.863322479520914947e-03,1.045586560539819507e-02,6.537937697259235334e-03,4.653286275787551357e-02,1.761974103445682754e-02,9.272034211835829438e-05,4.821144856334261958e-02,3.782862987972122198e-02,2.208793472756145904e-01,2.537741296801133278e-02
7.568318657773582224e-03,9.860954949133540759e-03,1.214323529048919048e-03,3.496289972981968946e-02,1.001219754233738379e-02,8.849855409277858245e-05,5.311281551908124399e-02,4.281283344648780659e-02,1.659325094845338078e-01,1.557092401325760669e-02
9.768762493262653224e-03,7.861408232105120131e-03,2.028205302502867485e-02,2.011664929164758142e-02,1.840863052247503073e-03,8.488094483974737575e-05,4.970802296081160143e-02,3.559561065455112833e-02,9.874780773694287472e-02,3.852622100936815321e-03
1.274870781528121381e-02,5.970690802547357415e-03,4.293332117153805111e-02,9.803601518815985294e-03,2.884943983569154564e-03,8.180580808577575080e-05,4.166608783106966890e-02,2.394638013823262648e-02,5.749432736750292872e-02,1.154693110463690664e-02
1.643371072020323453e-02,3.436256113774635058e-03,5.754789790423009421e-02,8.468076285561697281e-03,2.783602982815650082e-03,7.919375032614493770e-05,3.397591501180236701e-02,1.316036336705734069e-02,6.518970235421465975e-02,8.930218480440559048e-03
1.866621447992759114e-02,1.300157488753654654e-03,5.950030893985062269e-02,1.354202144097717275e-02,5.288336044590069736e-04,7.695067445570588443e-05,2.859279417627247355e-02,5.332000087952735307e-03,1.120305106812889695e-01,1.868053838314075871e-02
1.758317414695097225e-02,6.539203075870723275e-03,5.116087362316597970e-02,1.769722706574358359e-02,3.895452785482257565e-05,7.497108868720903639e-05,2.363686323347303705e-02,4.022659758976233034e-03,1.597473640580960308e-01,5.178203159816440609e-02
1.358175861368431277e-02,8.300779125928837987e-03,3.748150981492097411e-02,1.540714386776349983e-02,2.202961018183357406e-03,7.314166242884742196e-05,1.733008494343910022e-02,1.242621994327840554e-02,1.700790326158913568e-01,8.994220410044378999e-02
8.776892802979789979e-03,5.543242252265496994e-03,2.650218120922788120e-02,7.168686725621173893e-03,4.506499495944034719e-03,7.134490751156229019e-05,1.185721750468138672e-02,2.897467787272419923e-02,1.343864463348960203e-01,1.080416771429069805e-01
5.259336534413601785e-03,1.040965759095230717e-03,2.580741515411594939e-02,3.051913109665465793e-03,4.850048666962433232e-03,6.946288643152373054e-05,1.205023764375646317e-02,4.841611832734914189e-02,7.134553725852765815e-02,9.944599962387984382e-02
3.766461537460932991e-03,3.022418055295060437e-03,3.330781921213327862e-02,1.198714665742941360e-02,3.890375936353209115e-03,6.738086770737353182e-05,1.899826164406248283e-02,6.323829890661453179e-02,1.030287564261407954e-03,6.872965035613295970e-02
3.620475137009362791e-03,6.874548973393099921e-03,3.812251632169392362e-02,1.696099748580505440e-02,3.176730123909976469e-03,6.499083905719915363e-05,2.621588396170090873e-02,6.387288201506531593e-02,6.606321301227366383e-02,1.740285084097063090e-02
3.668742282196988010e-03,1.037479883462090122e-02,3.383114713262834472e-02,1.559519308715841268e-02,2.960951531796966567e-03,6.219478496606546322e-05,2.534345536066426319e-02,4.640580562672409759e-02,1.218104032986253582e-01,4.398459923959759099e-02
3.128522921336552090e-03,1.204068161908922532e-02,2.526183246195720308e-02,9.677923478431717588e-03,2.692382546849039684e-03,5.890764736588144503e-05,1.549280572004955482e-02,2.044749181906743360e-02,1.618302517730356160e-01,8.417170222822817349e-02
2.054650503083833585e-03,1.159178322455446143e-02,1.982904261736662815e-02,6.120733232859613265e-03,2.254614590470745052e-03,5.505990100400358649e-05,3.902053414519872365e-03,3.118183806718524947e-04,1.905878482532000762e-01,7.659074438384586014e-02
1.194230141769332502e-03,1.063432027579081993e-02,1.787992008183483111e-02,8.620375816384804810e-03,1.898393581180003167e-03,5.059968298825974682e-05,2.607846560810066390e-03,9.800514166320163992e-03,2.068311696015025236e-01,3.285017963908061500e-02
8.994059755186868113e-04,1.030901381854443764e-02,1.548884739564396380e-02,1.011635199752216469e-02,1.681151652125048275e-03,4.549442583229833926e-05,4.076193290431809335e-03,1.436088689751670311e-02,1.908257306063087522e-01,6.202125819304089155e-03
6.575383523596713261e-04,1.026660039540417367e-02,1.211153634278965517e-02,3.383251125680384382e-05,1.486254244109629866e-03,3.973195740098406988e-05,5.229322672276761827e-03,1.661271024037112506e-02,1.298748977533146221e-01,1.089508471641606469e-02
1.604001642773947430e-04,9.995727261168020628e-03,9.949302956064731002e-03,2.100227381129092519e-02,1.284456127529517338e-03,3.332104582574772560e-05,9.804307302168281668e-03,1.963060769687521856e-02,5.127868063902304291e-02,1.787717323702806352e-02
3.071890997738554400e-04,9.626688923986577787e-03,8.043763379716042244e-03,3.882449305167127301e-02,1.127418243709032162e-03,2.629138110631901488e-05,1.848887952830834125e-02,3.134895753397014956e-02,3.571096064912754591e-03,6.514124142433530551e-02
1.062734112758032586e-03,9.386449033448653403e-03,2.193354888752971181e-03,4.154169230132171570e-02,1.025319067813262180e-03,1.869299891585628846e-05,2.976920652757197860e-02,5.725539382840315328e-02,6.127332500532591160e-03,1.176224343159821828e-01
3.137995060166762825e-03,9.205724476548321836e-03,9.572928282697644453e-03,3.059905993182403250e-02,9.503828272965961872e-04,1.059516633699011340e-05,3.954766926906969765e-02,8.894923939859755713e-02,3.819839604456375798e-02,1.558025178818839285e-01
6.389081444884453509e-03,8.966028357137886123e-03,2.437649287023624378e-02,1.515399814230134271e-02,8.944055046750790973e-04,2.084762818371265069e-06,4.145228835189247035e-02,1.081471795135722641e-01,7.348968396820231008e-02,1.509546142651180811e-01
8.902600422533605423e-03,8.687227170186421002e-03,3.686059651995180625e-02,5.773598588557823366e-04,8.638496427478678172e-04,6.735798068916689691e-06,3.158460446103805025e-02,1.034757538890032774e-01,1.045290979751548194e-01,9.204492714779886897e-02
9.410197782624040580e-03,8.414626151264382667e-03,4.302928419976961849e-02,1.339505396671821814e-02,8.527157012654477128e-04,1.575104945045100276e-05,1.372985613751081038e-02,8.008296392533961749e-02,1.336486909943707391e-01,9.381388296289167733e-03
9.037167387259787202e-03,8.130035254102937342e-03,4.307168971971837845e-02,2.632724284161755413e-02,8.533512161116118102e-04,2.483528824309454906e-05,2.070358398038323663e-03,5.462543213098707690e-02,1.585203123017950022e-01,4.659547040265444445e-02
9.248833519570266726e-03,7.803790086271744642e-03,4.074824106382887029e-02,3.445857935952314349e-02,8.702357083522116498e-04,3.385565429982766346e-05,7.549141582867228972e-03,4.280756319703748342e-02,1.755095881464597274e-01,5.169771657668904841e-02
9.131760589235295156e-03,7.437242504457744832e-03,3.892723410281938995e-02,3.564018689021362929e-02,8.966884604923201427e-04,4.267539145447317997e-05,3.167974021387924902e-03,4.712615575377285260e-02,1.894832384900315136e-01,2.429764326592774928e-02
6.568529184773605305e-03,7.039097078015525699e-03,3.708390899206138319e-02,3.299592108705354243e-02,9.060984955163716792e-04,5.115720645272401463e-05,3.816203068682987032e-03,5.547426059076444871e-02,2.051699319631000440e-01,4.527104140792310646e-03
1.776034254470236886e-03,6.605360513321256385e-03,3.464701063637139200e-02,3.060413077657817699e-02,9.024477121266715569e-04,5.916664000056608879e-05,8.354076524962483416e-03,5.623099014108136340e-02,2.054558227393830649e-01,2.432639940094569186e-02
2.261900508912782423e-03,6.130267478978370863e-03,3.337111800544999285e-02,2.822309849343921165e-02,9.308877379086400415e-04,6.657536457140128517e-05,1.211612095703787535e-02,5.126701800709268508e-02,1.586796093918407258e-01,3.968122672555956382e-02
3.374388490433989727e-03,5.615846971641337559e-03,3.265825431978307269e-02,2.369220252952045080e-02,9.699769574971815831e-04,7.326432617520228059e-05,1.822533745638681493e-02,4.774651245204446226e-02,6.317296746416148356e-02,4.641090846326031277e-02
2.643974069282908294e-03,5.066920379829256520e-03,2.659752908395422027e-02,1.817257621413864710e-02,9.110066001967385670e-04,7.912665190897290421e-05,2.542810068983973604e-02,4.437837496509352414e-02,3.452616229472314779e-02,3.719324572876220314e-02
2.420496435140624767e-03,4.486511266754531976e-03,1.190011877895443687e-02,1.515818144480943902e-02,7.880982549413828803e-04,8.407025163650317897e-05,2.991832581877649361e-02,3.477421522961524070e-02,8.527070708167271140e-02,2.313040642943789069e-02
3.230886067256784865e-03,3.878036306549968639e-03,4.495168165878395128e-03,1.557048266021040205e-02,8.293322073588427776e-04,8.802005041336821017e-05,3.000659795142812322e-02,1.701421398503963345e-02,8.447529940317199948e-02,2.138826037436735231e-02
4.042322458499844097e-03,3.247343373343100983e-03,1.222683997305333559e-02,1.699517710661010983e-02,9.705923425876706277e-04,9.091979806142251727e-05,2.654241408718076983e-02,8.263224787312440506e-03,6.002664656550291133e-02,2.494227448439700207e-02
4.714932355042045047e-03,2.601533160350872394e-03,8.738375624703420552e-03,1.715603737190339942e-02,6.762328910926713576e-04,9.273341334381649860e-05,2.075066632536440650e-02,4.008407284794535813e-02,3.402164533924904172e-02,1.338834401507595084e-02
6.109092022291807283e-03,1.947778236286306979e-03,1.008494529261464052e-03,1.586616114191813018e-02,1.865140597440177674e-04,9.344583220710910324e-05,1.386886624084805557e-02,6.977198974686805999e-02,1.122146187896494104e-02,9.542808196142421595e-03
7.814861867628721676e-03,1.293618692526705537e-03,1.118235459250634112e-02,1.396481307631852568e-02,8.068250181696139806e-04,9.306334223306160546e-05,7.904109158345905273e-03,8.213797149847312795e-02,1.079646690652676273e-02,1.946571962272765702e-02
8.093653902762175043e-03,6.472536080604491919e-04,1.757189926230575891e-02,1.217851118141385046e-02,5.254747158732632874e-04,9.161339845633032733e-05,5.068282396612580794e-03,7.101895224592122413e-02,3.303648034700302355e-02,9.905714584752450813e-03
6.568054868729558161e-03,1.712423636746280078e-05,1.854715445369460244e-02,1.094133196796343022e-02,1.521457816684468627e-04,8.914392872553145337e-05,6.207943136110084630e-03,4.493448790158263012e-02,5.006764279769460729e-02,9.807678500868303659e-04
4.926866108625887163e-03,5.885193313190878548e-04,1.648360441021243586e-02,9.885332139938673643e-03,3.298041751715049619e-04,8.572214948699465866e-05,9.748367287143032411e-03,1.713571928339512052e-02,5.119865376843603377e-02,4.206620088063450086e-04
4.415181648632839941e-03,1.161722681681486881e-03,1.497082572984651666e-02,7.684206876645349911e-03,1.866587904792012752e-04,8.143292493748559996e-05,1.260537481865684969e-02,1.270723050339877744e-03,3.317357740338557764e-02,1.080069907156167540e-02
4.206103005799537164e-03,1.694915229748015714e-03,1.454218120640477473e-02,3.928708581145577347e-03,1.021797032210683843e-03,7.637671362735351478e-05,1.350324778931288883e-02,4.795131244511158068e-03,8.855482982701227274e-03,2.259004555154269650e-02
2.733691204058961467e-03,2.181140435292930856e-03,1.378320672644322079e-02,7.083551590481103246e-04,1.797215026594416783e-03,7.066715652769894396e-05,1.465179203774835855e-02,7.752132216380218117e-04,4.907730341939452352e-03,3.128747158517226207e-02
2.542858374818931155e-04,2.614276938236157182e-03,1.260270402381058127e-02,3.144165183312616803e-04,2.236977534045148184e-03,6.442836906564198022e-05,1.763660491916509837e-02,3.240896354992242254e-03,4.550230913337726356e-03,3.318405542776596551e-02
3.171245444785452880e-03,2.989168286311630601e-03,1.150530732199994688e-02,1.883686976766213352e-03,2.144729889348583225e-03,5.779200648043112597e-05,1.929956735134953638e-02,1.782297602340581020e-03,1.811892991077458659e-03,2.564545607028446278e-02
3.965644843961109271e-03,3.301725361354848533e-03,1.002790356017766588e-02,2.593092429117355331e-03,1.635545259481987297e-03,5.089417690276402115e-05,1.556133545346993600e-02,7.729466279683846336e-03,7.776039581303283502e-03,9.643507104220612122e-03
2.330757874703310358e-03,3.549035943949081090e-03,8.518635809284129390e-03,1.541956380337662332e-03,1.201392235230035882e-03,4.387227969959178487e-05,7.270305530116277608e-03,5.738435806428873395e-03,1.291876449347342803e-02,9.497971557385881392e-03
2.058557848009322081e-04,3.729447812273953278e-03,8.365106390438964770e-03,1.478121534161569352e-04,1.198757437743923305e-03,3.686184779511205892e-05,1.591553714908997344e-03,7.931456800562326423e-03,1.736536146770660191e-02,2.645846636984399564e-02
4.477866201975751930e-04,3.842605810342731090e-03,7.421065617189972000e-03,5.992050498333280090e-04,1.442604424569644307e-03,2.999347186399863846e-05,8.637022268535863093e-03,2.731097835189932183e-02,1.899084367750968755e-02,4.339729639767046093e-02
