3.798017167553484862e-03,2.257906043872987337e-02,1.015087961337046880e-02,8.618276836696674419e-04,2.481242888385601017e-03,3.327195458641935433e-03,5.722137403469883254e-02,3.666363872568193655e-02,7.753767109112489828e-03,3.727840371460065805e-02
1.339336661056776852e-02,2.573568251236397347e-02,9.496541610237477574e-03,2.210930306827049285e-03,2.630511942184213768e-03,4.247828236163448540e-03,4.397207113283622959e-02,4.130968629839260747e-02,6.269046011661447322e-03,1.980305134181947063e-02
2.072864538982054430e-02,2.741900543530587445e-02,8.690697626281999183e-03,3.606482518655142536e-03,2.788196104219976129e-03,3.371277389675652637e-03,6.652850114814176478e-03,1.375877614885303440e-02,4.621295544977446941e-03,3.213470732464050739e-03
2.826718825562997417e-02,2.425638684066782833e-02,7.746207106334807892e-03,3.789914912095342960e-03,2.900148136897204038e-03,3.352148497398149251e-03,6.578098498978929287e-02,4.197088978486833433e-02,3.049584837158245652e-03,3.680832410259950865e-02
3.641158478923274544e-02,1.927878999491908912e-02,6.678359949196433290e-03,4.646740756806390892e-03,2.982247988203931381e-03,5.175107167428243983e-03,1.501576637102953193e-01,9.742390055755568989e-02,1.411096711596018360e-03,7.211199221832893802e-02
4.061720012774804045e-02,1.604606028438506846e-02,5.504527725514287914e-03,7.703222401649502740e-03,3.146161408508596491e-03,6.951897257505501582e-03,2.072454288284983903e-01,1.279345483883515266e-01,7.130841631083566874e-04,8.718106955878424102e-02
3.765133660981255515e-02,8.043644115905751110e-03,4.243622462900482548e-03,8.793040428892198029e-03,3.356334747353496677e-03,6.572235209156665134e-03,2.238106436285473844e-01,1.424343512857250971e-01,2.855688251395089531e-03,7.134990858096293409e-02
2.993581540665133517e-02,1.451047475404459997e-02,2.915567735759367479e-03,2.598346356100700652e-03,3.365785334404053104e-03,4.240183986985330937e-03,2.189508235322797647e-01,1.621614096125124360e-01,3.400061458363179238e-03,3.742316563196884660e-02
2.204996989834353757e-02,4.566386978004369213e-02,1.541014604193512117e-03,7.587028289352574888e-03,3.229553935548688456e-03,2.302853181090034999e-03,2.151951362564201720e-01,1.766063224484314687e-01,1.640266384311804635e-03,6.709755534934409675e-03
1.663741819880075815e-02,6.469019909664595891e-02,1.409331386802163319e-04,1.277936353206747186e-02,3.513872001321982803e-03,3.068841112049688642e-03,2.158483559979273714e-01,1.535196310970923239e-01,5.001010614484366996e-04,8.537297827311546641e-03
1.336698971091396584e-02,6.145255403922672555e-02,1.264348297485011659e-03,1.138349189023134256e-02,4.364442897736040515e-03,6.716517270324411266e-03,2.104447711941347388e-01,9.104509016205367122e-02,2.985666846224645688e-04,5.557243057739678395e-03
9.308438873114222023e-03,5.043628991862046662e-02,2.655853780924589437e-03,1.012883497214665113e-02,4.900005588340613019e-03,1.127923326677342936e-02,1.939387744557329596e-01,2.604566894976763011e-02,2.524536446275303138e-03,1.125440894246315660e-02
2.034811526316294885e-03,5.200094008101684151e-02,4.015468618812330706e-03,1.175449883250715734e-02,4.428171772010635818e-03,1.462130790897131667e-02,1.691814248548224597e-01,1.513854409784943719e-02,6.045477041409615809e-03,2.487825997189984858e-02
6.908760023740325579e-03,6.633040265615401665e-02,5.325892555574847885e-03,1.182285390896964383e-02,3.604935407754238010e-03,1.603763642128569131e-02,1.354320995565673758e-01,4.266371920076783564e-02,9.317951275807676709e-03,1.383311065587221160e-02
1.419781313668548074e-02,7.525124871163806073e-02,6.573069109565262205e-03,9.009443875032586979e-03,3.411040140195125640e-03,1.581409586208592025e-02,9.543737246258729434e-02,6.816293464495912224e-02,1.264808327822094375e-02,2.220276121203285449e-02
1.947392149688264087e-02,6.663396247325724386e-02,7.747598111654415386e-03,9.156471808059620313e-03,3.683816758094185431e-03,1.399018418483386449e-02,6.726433130574399621e-02,7.770311611781863248e-02,1.422148490289629023e-02,5.802598571711516107e-02
2.481773488389268575e-02,4.663699487921860176e-02,8.840676527058019193e-03,1.577623383408658514e-02,3.614979519875187106e-03,1.046645695586737208e-02,6.011896870592303016e-02,6.276193724325446199e-02,1.038949841703110805e-02,7.191730701154712413e-02
3.061986051421401386e-02,2.824856280485106216e-02,9.841884443422072026e-03,2.335462331360723537e-02,3.201066289136794175e-03,5.926691768370954093e-03,4.961680105951169623e-02,4.680928062525830519e-02,1.560287109029526338e-03,6.620508262210278438e-02
3.464964295689300366e-02,1.705366649070796936e-02,1.074849820750743354e-02,2.430052925940820105e-02,3.248963135597663851e-03,1.539197702008734091e-03,1.185252114367122377e-02,5.085961916536645838e-02,6.004674242764219093e-03,5.622088177963549538e-02
3.481193476922573443e-02,9.884235959782780925e-03,1.157094174618055089e-02,1.817713089323431952e-02,3.924905288589901342e-03,2.005433681646472815e-03,3.187900174781304469e-02,5.797340404926101809e-02,7.101204296998920099e-03,5.192410547318848657e-02
3.166674872165985144e-02,2.336114190750144225e-03,1.231328772118298401e-02,1.034948177119879992e-02,4.242324225356766676e-03,4.445659464757723001e-03,4.210091033788323361e-02,4.311170804352491837e-02,3.026635253793658574e-03,5.294641078454507405e-02
2.847262502907188866e-02,3.830212354917174149e-03,1.296111794599657044e-02,4.129146676537037534e-03,3.532000872579830857e-03,5.742502683863653229e-03,2.157087768308271758e-02,1.771730095670777036e-02,1.801528685182411833e-03,5.466434074143065869e-02
2.823305238112787038e-02,1.403622123523341932e-03,1.352262297258913747e-02,2.751912646693872519e-03,2.492191324581926812e-03,6.559558064043130229e-03,1.133434463382463134e-02,1.366978624717807983e-02,5.058767244831363120e-03,5.712307768468573993e-02
2.984143404778193814e-02,1.198017314219790297e-02,1.405514328335566096e-02,1.371459222479272030e-02,2.025052880855716768e-03,7.941106775740487331e-03,3.079742056945159595e-02,3.968175698327933154e-02,6.594296127831437634e-03,6.552323676442683986e-02
2.890819825380623598e-02,2.769378586616725799e-02,1.457741232566174897e-02,2.632598739457730347e-02,1.966179360634083117e-03,1.007264785703323659e-02,5.576307289908898762e-02,8.272028078775615911e-02,6.528247128502263560e-03,7.957560336402998147e-02
2.423295741993350405e-02,3.506446254277842400e-02,1.500970567256189672e-02,3.252260610564149113e-02,1.698629257558907039e-03,1.230337772619494174e-02,5.970209184543684433e-02,1.333177399839350630e-01,5.251576220129222129e-03,9.040741894377826715e-02
2.074312845714686507e-02,3.216622577370049918e-02,1.535863514878779180e-02,2.831520125852938358e-02,1.200626551526726409e-03,1.436725037115893847e-02,4.943720789416951311e-02,1.768362182277548600e-01,3.697791395275840023e-03,9.377852573537467928e-02
2.243820015007856605e-02,2.347614014903703569e-02,1.584857354082523997e-02,2.053968588427813532e-02,8.232300522413438367e-04,1.631723701460335504e-02,4.927403917548985740e-02,1.802470945146244230e-01,2.489611581150890512e-03,9.446048553574225293e-02
2.503029342760120998e-02,1.305747537606429150e-02,1.652908745107740593e-02,1.937790738182296538e-02,5.293121811529054917e-04,1.732461566971865360e-02,6.536041660227252803e-02,1.270425801887327677e-01,1.518992622925507225e-03,8.890978154849413229e-02
2.106099046002449932e-02,4.113403170970732214e-03,1.698257880072714943e-02,2.507350732037607818e-02,2.338533406023935102e-05,1.617256535153802771e-02,7.842551095218473767e-02,5.296726734843472395e-02,5.621699986067793574e-04,5.962422251127869055e-02
1.085120833285048263e-02,7.826860458743155162e-04,1.715357755696613265e-02,2.683360246258349388e-02,7.139986256321521809e-04,1.315383598593192378e-02,6.893530766753504235e-02,1.032125164406000502e-02,3.046526279968386503e-04,9.509209821663760706e-04
2.180011914613056226e-03,2.092830018314989233e-03,1.799334638788051624e-02,1.621725167274109744e-02,9.522779197605578264e-04,9.968492196764180274e-03,4.104415968599185727e-02,6.830397979916736501e-03,9.213786232696644356e-04,6.178972827999958117e-02
3.076993469971929518e-04,2.359623265273043044e-03,1.970334103946620730e-02,2.079216272460041124e-03,7.569932357865001007e-04,7.715288056846510839e-03,1.857934486150178074e-02,1.582811043601803358e-02,1.259735923782894472e-03,9.180931913246849485e-02
1.448678657104247001e-04,2.595895005633214788e-03,2.030764829100280972e-02,1.591223811503738109e-02,9.782629369320659275e-04,6.182281454212583752e-03,2.028680583548592153e-02,3.110567308284636207e-02,1.386150006354104798e-03,7.474974315695595561e-02
2.113249080484485166e-03,1.556474845754167186e-03,1.937826224424185964e-02,1.961459431826744274e-02,1.893332510984127798e-03,4.732443781395655885e-03,4.275502055440912746e-02,6.535100916985912833e-02,1.340497112222248594e-03,2.996729987861018046e-02
8.548997491026248327e-03,2.345939247295389038e-03,2.127491073748545222e-02,1.722797936451767389e-02,2.690266700323604415e-03,3.135579289543851018e-03,6.909968121787957163e-02,1.081395245983591269e-01,1.027688182914987753e-03,9.761479872601272478e-03
1.535016834731461888e-02,8.480354256973682628e-03,2.711803246330095341e-02,1.315722037019310953e-02,2.898457155073759506e-03,1.710191038597650478e-03,8.853891413860090487e-02,1.334864354768220962e-01,3.137538872806266326e-04,2.921005009378178224e-02
1.792810406368510259e-02,1.267383923529762091e-02,2.538533734578786796e-02,6.610508463047372330e-03,3.099469291457293291e-03,5.796392167954376789e-04,9.996899483170100520e-02,1.406402072491630406e-01,6.567928402448650147e-04,3.690007967679698186e-02
1.531405662327472300e-02,1.038407266001058725e-02,3.765510486255758005e-03,3.249802123878835994e-03,3.882294165213631080e-03,2.864329324857851867e-04,1.062877718982351422e-01,1.559350609438725221e-01,1.587016689994404399e-03,4.469095958186616174e-02
8.265490524988244186e-03,1.735055091705342426e-03,2.905572694100763687e-02,1.298995181604883573e-02,5.207827538246178473e-03,6.916315821220371573e-04,1.178705076975283123e-01,2.024520613232375088e-01,2.706380694931213686e-03,5.730505892568960730e-02
3.002456350075663472e-03,8.695429343799448291e-03,4.933629190318152002e-02,1.875924985970642625e-02,6.773781069764460254e-03,5.374067950812824040e-03,1.452541288186482704e-01,2.708624297282893334e-01,4.376600698452613909e-03,7.221161268566353431e-02
1.362151671367816536e-02,1.647960922861283276e-02,4.732148622081785994e-02,2.007050745104073733e-02,7.954614945177612001e-03,1.051208832248556359e-02,1.732202403513018185e-01,3.047453571464615041e-01,5.348578194827628522e-03,6.678941775166287453e-02
1.316902897795726654e-02,1.986120919747652938e-02,3.445901623584195911e-02,1.765419574743271394e-02,7.752465876294168355e-03,8.768564722127322741e-03,1.675590325769635291e-01,2.431150817759065719e-01,3.295159521629813758e-03,9.286976544620005949e-03
6.789147510835140398e-04,1.951354218854389755e-02,2.225743655594839346e-02,1.221027600114826805e-02,6.170949376733736447e-03,1.105759186920366984e-03,1.266656005633154114e-01,1.084718375232080201e-01,1.260103822528563754e-03,8.772007499745929082e-02
1.425983616237339394e-02,1.813347274377059143e-02,1.078436621799982661e-02,7.159333190208484743e-03,5.135648557265761784e-03,1.072150166463637158e-02,9.613848344628461717e-02,5.125157578237116152e-03,3.913285258404213679e-03,1.599055105063175719e-01
1.352863753915903994e-02,1.908280355333611192e-02,1.662736715279814707e-03,7.491135432785032099e-03,6.244659011412876347e-03,1.245498431472759696e-02,1.084341092329270256e-01,9.060876913194845089e-03,1.498770645193485190e-03,1.667150441412047490e-01
1.119700999135779269e-03,2.345133350992502710e-02,1.295404916134923826e-02,1.355705296043092922e-02,8.285213948482047716e-03,7.776695757928839617e-03,1.359416020158174254e-01,9.418741319940200640e-03,4.118810350539372361e-03,1.337947327929733532e-01
1.077026248881026230e-02,2.884689588223723899e-02,2.311672164292207995e-02,2.005357665865508190e-02,9.198050874149016343e-03,2.268241145897927254e-03,1.322331923019127164e-01,8.144482585356865173e-03,8.938544153537123643e-03,9.846056402255769224e-02
1.814458292003598427e-02,3.247806689739359681e-02,3.313330518465950475e-02,2.269238291564527193e-02,9.496974462231407704e-03,1.937138610107100398e-03,9.977367324106511948e-02,3.717532544825338098e-02,1.057246629552795192e-02,5.969660696484362788e-02
2.655590973704716889e-02,3.479319675115193772e-02,3.554967539491535322e-02,2.272402412163566920e-02,1.116105464436487060e-02,5.784947588864271066e-03,8.189089253183609585e-02,1.365782416694457171e-02,8.003796065989528599e-03,7.277147690468815239e-03
3.837274518080947827e-02,3.826789714270397574e-02,1.946277198076128145e-02,2.431743181265751119e-02,1.418104041955959259e-02,9.821733259802451280e-03,9.578653405177708913e-02,5.665210025024732671e-02,1.360758283469026136e-03,4.000484617986659747e-02
4.880024738270013346e-02,4.363339477381474735e-02,1.068172056883623204e-02,2.991410917759278545e-02,1.658732587565821606e-02,1.379044000973354660e-02,1.131451139565078090e-01,1.137659256827081855e-01,6.124207418040232206e-03,5.657536264983188679e-02
5.419949203146361139e-02,4.912919279702841757e-02,3.406109205653187061e-02,3.736635253911329418e-02,1.715026587883934986e-02,1.696301191626858537e-02,1.085986493730798919e-01,1.384218180878648008e-01,9.376222761092132055e-03,4.593646369747971664e-02
5.425217885026885345e-02,5.149123807104204198e-02,3.640771157345479292e-02,3.989362963815486218e-02,1.665852668805604259e-02,1.722874011055258378e-02,8.613339930373579978e-02,1.552084233767685728e-01,7.349185135907740189e-03,2.849216280235220694e-02
4.629691100586782321e-02,4.694675085960350880e-02,2.288258194458054826e-02,3.199121923591429634e-02,1.683423823437051742e-02,1.256503490796569492e-02,5.315585039410676560e-02,1.630427732755998782e-01,4.806144826372936267e-03,1.370679567202401708e-02
2.935334994030370029e-02,3.525173077184832332e-02,6.420909830548455349e-03,1.699909694733450424e-02,1.787778711767376225e-02,4.821965309772458658e-03,1.064217101690734767e-02,1.455284428027823207e-01,5.706516245538788973e-03,4.694573522767709825e-03
1.157964231369133616e-02,2.248948605508601165e-02,4.882566551176121747e-03,3.980984056700120205e-03,1.720059700342248601e-02,1.618442826830342142e-03,2.830227318842756107e-02,1.282675480060474216e-01,7.878356992961592711e-03,8.003903838170388710e-03
9.898874492117501044e-04,1.495301087504733242e-02,9.466697211122549610e-03,3.365993588126348253e-03,1.237141814076707196e-02,6.054779096846162750e-03,4.869137108568897393e-02,1.403068475223053502e-01,6.752546372326522807e-03,2.066278032616482643e-02
4.638834489158956929e-03,1.253402991900433305e-02,1.205086029007202200e-02,8.318883569145524987e-03,5.498890357751904691e-03,1.045229262867304783e-02,5.443512514536653912e-02,1.504682696156934840e-01,1.188883768901051290e-03,2.902167505211138143e-02
6.534745020735664711e-03,1.295405545283979769e-02,1.796329381349516183e-02,1.251707794642535447e-02,2.130695733280399233e-03,1.181046560057624761e-02,4.634893496212716402e-02,1.259610286847167027e-01,6.556674439934953233e-03,3.233327471017848759e-02
1.709967998330771954e-03,1.672859495865918963e-02,2.090081299002356091e-02,1.364352189782724878e-02,4.776413023340215364e-03,5.380263084430014775e-03,8.023656187987431715e-03,1.043115217919726584e-01,1.354407693568732834e-02,4.444281056649754258e-02
1.535639187825642293e-02,2.165935986952008396e-02,7.147042172285796025e-03,1.172009823227028978e-02,9.567896285937470963e-03,2.942113000631141513e-03,5.084412616007986940e-02,1.228770946874753883e-01,1.701322597836967682e-02,6.312504452091861895e-02
1.303442248479314003e-02,1.967897891661216092e-02,2.148899426715463606e-02,1.080898361861766348e-02,1.102738932175298392e-02,3.374755518351560250e-05,7.881644603299486906e-02,1.450561995661099057e-01,1.508691522763953331e-02,6.383589413969852078e-02
1.301191421415990972e-02,6.985550969225437848e-03,4.370437364056067864e-02,1.313896999014555617e-02,8.864701578616433417e-03,1.491618959921142337e-02,5.018523407105286022e-02,1.415276653615937241e-01,8.310650301063619502e-03,3.916794420144546068e-02
4.162378142716906954e-02,8.854486612822169700e-03,4.407274386805509758e-02,1.495559585030761633e-02,7.343051765760364585e-03,2.748106192139805615e-02,1.212227322702720198e-03,1.548823301885986492e-01,4.881542229048786664e-04,1.984388313180348445e-02
5.407602773109952687e-02,1.891574983394439177e-02,2.889234233386339668e-02,9.655632680076051827e-03,7.909893200080144599e-03,2.952534166477214020e-02,4.073771272195390869e-02,1.902113232890910166e-01,8.243883349785765050e-03,3.255243697029893551e-02
5.930953902152651808e-02,2.378660767959884723e-02,1.306383749309317568e-02,3.396095181012193098e-03,6.125119546789238936e-03,2.954176681722387940e-02,1.057886100621750758e-01,1.527733931238527409e-01,1.310093457864721506e-02,5.922193194804992872e-02
7.060702503041296763e-02,2.770125253654982106e-02,2.491769823008953104e-03,1.257676898117746078e-02,1.707994737134942067e-03,3.463701022071224989e-02,2.056910184253334939e-01,6.557712263494351601e-03,1.470142102901931050e-02,7.040171698248490206e-02
7.808739271287476469e-02,2.850384989024134022e-02,6.062574440762464115e-03,2.341911165152634530e-03,1.142758029814529806e-02,3.649580340531189543e-02,2.685396719423136513e-01,1.196379501748214003e-01,1.393393359520897663e-02,7.713723282318854513e-02
6.576091521376185856e-02,2.206730035368267839e-02,1.220707221813693323e-02,2.768496129210196860e-02,1.469642259884372699e-02,2.549334070752298786e-02,2.227420750323048648e-01,1.087447520258419814e-01,1.177955452969682570e-02,1.050706735999500513e-01
4.205122180121606545e-02,1.252832175657471632e-02,5.780127993171058770e-03,5.857080702319627380e-02,1.016010115170854627e-02,8.387984958246380920e-03,1.110083621956816230e-01,4.203700015297034964e-02,8.361468913526976660e-03,1.314026237480072634e-01
3.164592955725892970e-02,9.218593287867945379e-03,1.959384237903531029e-02,7.256130913280295358e-02,6.736506705092496286e-03,8.902367879000355581e-04,5.000381174704969511e-02,9.060061400660264497e-02,3.791924759109906347e-03,1.016042332322347197e-01
4.231980506132696634e-02,1.427864684322265737e-02,5.037350905661418937e-02,6.980363925559344984e-02,1.260883168534120656e-02,7.406743278394039079e-03,9.042469963290183932e-02,2.907206441951990517e-01,1.261959128831753639e-03,1.006079699105740660e-02
5.743885188277428333e-02,2.024941785781676426e-02,6.314131507298799406e-02,5.979623103208342449e-02,2.436177874092510312e-02,1.688283043286835372e-02,1.738902510524656386e-01,5.316040372346751974e-01,6.793648599871218025e-03,8.469088530199976594e-02
5.963015206036014620e-02,2.016230400353482069e-02,5.092571433145312576e-02,4.776317163730894877e-02,3.221773604091942439e-02,1.719103364267391201e-02,2.203766074817972986e-01,7.104668825427443712e-01,1.264284532680482083e-02,1.310360470018705203e-01
4.648582929561730082e-02,1.425794878184281737e-02,2.852172809190648903e-02,3.649489641212831648e-02,3.327990069581838323e-02,6.758160574945902555e-03,2.026028777409072112e-01,7.928510135445392404e-01,1.525685154544035790e-02,1.270775399846340303e-01
2.288885297510691308e-02,6.161458187401173438e-03,1.232321916668775025e-02,3.055471484231923537e-02,3.259696512765916654e-02,8.490525456766947685e-03,1.311780652528425906e-01,7.535710950461892432e-01,9.762006611071582379e-03,8.841251595263080465e-02
7.198153303023238983e-03,2.153708593727855780e-03,4.710946225785083916e-03,3.113849451041375560e-02,3.251673838538542832e-02,2.364248180957349149e-02,2.080229896241531790e-02,5.711665734037982833e-01,2.476071493497942425e-03,1.944986294437849386e-02
3.767328769561684859e-02,9.948794200598227652e-03,1.500526078428831428e-03,3.399066207225349967e-02,2.894924332596590655e-02,3.703848447044889858e-02,1.045842216173690775e-01,2.928683533858211785e-01,1.344733505115807727e-02,6.841999842842454160e-02
5.949868512644897883e-02,1.604142094446698447e-02,1.124140543436461318e-02,3.551338617494310956e-02,1.903570680601983714e-02,4.727840653903039869e-02,2.032931625478677229e-01,3.440530047602032016e-02,1.747509462184126949e-02,1.455377230248088016e-01
6.755643855218793070e-02,1.940715246370908198e-02,2.374519256673680162e-02,3.424595782728900167e-02,5.923989700564012348e-03,5.223420243582008182e-02,2.397379666264358167e-01,1.077183203931067756e-01,1.537566437028415299e-02,1.857939967153897087e-01
6.433448415979088619e-02,2.020372270483373339e-02,3.766038169747687459e-02,2.697858948006979368e-02,5.760158558718280440e-03,5.137776889058424251e-02,2.129114519719172982e-01,1.209826719682136481e-01,9.766186439119103543e-03,1.743169881646950969e-01
5.605796652567386629e-02,1.976865645411876593e-02,5.240977078511983162e-02,1.222314072145211025e-02,1.432119335098790656e-02,4.655914157198250136e-02,1.498137723809976340e-01,5.872567713555024160e-02,2.637874075537378557e-03,9.919365592019104005e-02
4.772814314043678785e-02,1.975192815512496688e-02,6.166880245781556497e-02,3.388022227853056383e-03,1.914715268429260930e-02,3.929655262386855946e-02,7.316945150073971005e-02,1.503061434564439969e-02,2.593236021645915160e-03,1.988354329233816067e-02
4.205650274411128903e-02,2.074180764436910768e-02,5.391798236948013023e-02,1.089307763518731695e-02,1.834719530367725365e-02,2.993600617688214546e-02,7.371107056414529304e-03,5.412018225503308078e-02,2.812837956792551761e-03,1.068878704307997668e-01
4.141208044481198974e-02,2.184951734633371404e-02,2.741723986422587439e-02,9.759566152165295022e-03,1.117754068726131353e-02,2.149132611744998186e-02,6.773349271374945468e-02,2.885251516108166062e-02,3.384789638592418989e-04,9.564905877391788325e-02
4.737559091209247314e-02,2.197630366306264557e-02,1.917669352660752264e-03,6.038158521059872400e-03,1.080713195168448316e-03,1.969265109010507817e-02,6.973867233819626421e-02,5.921102511659781520e-02,1.987131897986982570e-03,1.344955589979392185e-02
5.614037722966701283e-02,2.083196540197728569e-02,1.548149422231170046e-02,3.713620585163067683e-03,6.644467318783594395e-03,2.474351258607221035e-02,1.794020219084287160e-02,1.499699910452804152e-01,1.534998310376528932e-04,6.036993381220766286e-02
5.858313432136802446e-02,1.818455905950512597e-02,9.694114036293983647e-03,4.077193981435016379e-03,9.873811430858303595e-03,2.817333944092702963e-02,2.372395173712242913e-02,1.572532729950826824e-01,2.866142510504576454e-03,1.017651161812702099e-01
4.814044598542199099e-02,1.273541066372830231e-02,5.043400677802568378e-03,7.844663131843914242e-03,1.063044568296806977e-02,2.285657300425916749e-02,1.011436004565750835e-02,5.188051360597094319e-02,4.391105013734651619e-03,1.357118994562744319e-01
2.484714881006403961e-02,2.938237121699465403e-03,1.648532406281055795e-02,1.147930622110860874e-02,1.195540475787311083e-02,1.063122275518609168e-02,3.142530310502482382e-02,1.153871371126840850e-01,3.439759217721578746e-03,1.346153075316849079e-01
7.554569356008650205e-03,1.065291204265516115e-02,1.990191870789863315e-02,7.733684692557486404e-03,1.528971999270378572e-02,3.406091714634056772e-03,5.723476041226140121e-02,2.704869153337084997e-01,4.445749304413483061e-04,2.320435664256696381e-02
4.287167766931527374e-02,2.514251042281137258e-02,2.112671717574406485e-02,4.052624237167674719e-03,1.992914353160825033e-02,1.757541167028482676e-02,7.043840887355035107e-02,3.719050540519859283e-01,2.262205454811177640e-03,1.850173047686546612e-01
7.339721667745924272e-02,3.803608031796090749e-02,2.894894034275803663e-02,1.419669649239128570e-02,2.373027984165782325e-02,3.186636649109853697e-02,9.481096072373441930e-02,4.291685467575228063e-01,1.795409580130603476e-03,3.512668002513385512e-01
9.415744810505322082e-02,4.849492681831028829e-02,3.962625209495940215e-02,1.362753080871914428e-02,2.473520296636987428e-02,4.509309720906385516e-02,1.238203029039727926e-01,4.702799060767020034e-01,1.760281932417263667e-03,3.676992274747818978e-01
1.054615428888458079e-01,5.582576634295371293e-02,3.541162022659882086e-02,3.300974795874019388e-03,2.304386197718516840e-02,5.643929347797646545e-02,1.373549767483073503e-01,4.825601914370941103e-01,5.935774334985439993e-03,2.814172194266600924e-01
1.119521025166221595e-01,5.936273620248766481e-02,7.014035670601008812e-03,8.840687019643871450e-03,2.109026461142122014e-02,6.684338143231451090e-02,1.536521884399575655e-01,4.423657853548059182e-01,9.692091692904712674e-03,2.149059627938393890e-01
1.186237224389131983e-01,5.984091295836164309e-02,2.955420630065861559e-02,1.521704438264652112e-02,2.085242449724328609e-02,7.627195313191595383e-02,2.165194711583883214e-01,4.134655307372991362e-01,1.263952783848554251e-02,2.172051611707065399e-01
1.240509402976076175e-01,5.863195902881492699e-02,4.922303316421576536e-02,1.318895381230794119e-02,2.054178656483781132e-02,8.082806564935961224e-02,3.213661487763906921e-01,4.973378448265808327e-01,1.199981635452710381e-02,2.381205679460606239e-01
1.199757161158876845e-01,5.560318098911676971e-02,4.567520534531224752e-02,6.804118831949800342e-03,1.613238216283359450e-02,7.577440076984480466e-02,3.959291430976031312e-01,6.552854340710846381e-01,5.483798911017937969e-03,2.192876318976474392e-01
1.019134759612009833e-01,4.904545351298503914e-02,3.312265708151582860e-02,3.668487581385786525e-03,6.951795926194835433e-03,6.194521335377137228e-02,3.778605603388733858e-01,7.169998252582274745e-01,3.907753305780146784e-03,1.676120722889237469e-01
7.634783696343278026e-02,3.830990063538362161e-02,2.370244480106021429e-02,7.893766277646319107e-03,2.784767222108945443e-03,4.653221657724103399e-02,2.851571397011773978e-01,5.970706961015563863e-01,1.029634269302489441e-02,1.307950702355942518e-01
5.372015104847711192e-02,2.635291212620128470e-02,1.333333850973066406e-02,1.778624510580574872e-02,8.943683934102587829e-03,3.617648496515484674e-02,1.879631237116200504e-01,3.748565076629037374e-01,1.122866539983005327e-02,1.250161469297760286e-01
3.817702446155749746e-02,1.834552090057717244e-02,5.278675117137689339e-03,3.061567259456720799e-02,1.103902206992180696e-02,3.047577334148537584e-02,1.277053125001666178e-01,1.526419653544763277e-01,8.819647451976003402e-03,1.191414460835098499e-01
2.646537025043131305e-02,1.655776017655498020e-02,2.153387273021639681e-02,4.412592176238876174e-02,1.018065602449024290e-02,2.351430126359755138e-02,8.644445843469111823e-02,4.174611276777492885e-02,6.197806773382272434e-03,8.615943829343969407e-02
1.306010603768910719e-02,1.744521199636722350e-02,1.312750355976788352e-02,5.184715259045567792e-02,7.383494121611353794e-03,1.146228738326014220e-02,3.014150681050783639e-02,2.081168444673123230e-01,5.205396518665902916e-03,3.365098442864537798e-02
5.749672097478047278e-03,1.486695452543916433e-02,2.221946180423721093e-02,4.536775469473439820e-02,5.137447619811853598e-03,3.313992727321124748e-03,4.319260514987671717e-02,3.327282259516378682e-01,6.441774836622583648e-03,2.341529499779499562e-02
3.058489643192062457e-02,5.745980750928377997e-03,5.685674759192231587e-02,2.681081867968652596e-02,6.716906845612101093e-03,1.668064911039907408e-02,1.120780415966830812e-01,4.173302273744901036e-01,9.317073913982384936e-03,8.695544621719253353e-02
5.857690175929200493e-02,7.361287788267861787e-03,6.448014984597885690e-02,1.222122695390633756e-02,1.226839970007869395e-02,2.776608449065525591e-02,1.686786344941370031e-01,4.959420896429371783e-01,1.174608484982794798e-02,1.528263172071137044e-01
8.262477983157992534e-02,1.856278458420607472e-02,4.743966901603830638e-02,1.521356033254620509e-02,1.841071795801718994e-02,3.646071048446199170e-02,2.184023528316120788e-01,5.903638291026702678e-01,1.110963779580206520e-02,1.869340421909841399e-01
9.427983166579155527e-02,2.406969687562382498e-02,2.469894342194563219e-02,3.060831219013149945e-02,2.249486887162609194e-02,4.027950956188453696e-02,2.517052422570613679e-01,6.643446247714499542e-01,6.863270006616885299e-03,1.611983546816740942e-01
9.210957446728654241e-02,2.539371811944757945e-02,6.875927884489777854e-03,3.990464463261967493e-02,2.485530492940682401e-02,3.831981932974101723e-02,2.490324533587859601e-01,6.591600428109591903e-01,2.148408019684875780e-03,1.036582355562788577e-01
8.488970340849991136e-02,2.623190777570669555e-02,7.374753742259787873e-03,3.126697459172853716e-02,2.675174221939508393e-02,3.446245680050076532e-02,2.137234447761437450e-01,5.780325286230783011e-01,1.567588131311190621e-03,6.824295607285474352e-02
8.181546556113182544e-02,2.766640091783482622e-02,1.907929246773571244e-02,1.044001802362150809e-02,2.845034468529301919e-02,3.277537346422262909e-02,1.763903666569891227e-01,4.871426614105818231e-01,6.529160808721277444e-03,6.211715123207117717e-02
8.232745354387122072e-02,2.817597882607544846e-02,2.146869885147818097e-02,7.514510216193554665e-03,2.957983614039719558e-02,3.287009974443844823e-02,1.642320193912343851e-01,4.195450696422926007e-01,1.351625031665852975e-02,5.137698940961274441e-02
7.974086769401513008e-02,2.674119858458437471e-02,6.134808657415173790e-03,1.450837552144873185e-02,2.946105809730549530e-02,3.190118267463337709e-02,1.771256004837461207e-01,3.449436674766618305e-01,1.796786351599533038e-02,2.807781217934374532e-02
7.151389644164647674e-02,2.437659688235352048e-02,2.308309486472311794e-02,1.455721814789849751e-02,2.658491989778080308e-02,2.860445885777650188e-02,1.955703477789483835e-01,2.617468582264561028e-01,1.860761635953023935e-02,1.993154771638667305e-02
6.178132132434982493e-02,2.337499103056916647e-02,4.771713770452462589e-02,1.322835496338843446e-02,1.946263928998211157e-02,2.436283361951605692e-02,2.093059879344605634e-01,2.385350754599587231e-01,1.645229734106864669e-02,4.279630729919128157e-02
5.662903209842043428e-02,2.528502237142523160e-02,5.252233680160306450e-02,9.949091485136236923e-03,9.330439299658451965e-03,2.203720173728157192e-02,2.322979744513647693e-01,3.205098270198764032e-01,1.206454899609878811e-02,9.370817155362499984e-02
5.977157124218968748e-02,2.932421749586970605e-02,4.003288330028635655e-02,5.286067791409724409e-03,9.129318314663949392e-04,2.411223061879077742e-02,2.789883755413734567e-01,4.606277594715617596e-01,6.533411894428460369e-03,1.785994943870642671e-01
6.899845675382550170e-02,3.310735968725055794e-02,2.155549682427744529e-02,5.921797748468202692e-03,1.496373858709612592e-03,3.012641704035408374e-02,3.274684603354531820e-01,5.743343358608569149e-01,2.600564544711147369e-03,2.857548610149331925e-01
7.368785461810636872e-02,3.386572898277645516e-02,3.022808712164397425e-03,1.450682010465325841e-02,1.520403780695905958e-03,3.478216637978023135e-02,3.242113655096229285e-01,6.102660608210043192e-01,1.656254785274925614e-03,3.387137017993356869e-01
6.073655003422148702e-02,2.809336763107892973e-02,1.389500126874576406e-02,2.331328490265312248e-02,5.514974369129583415e-03,3.070008284803146456e-02,2.367820940733422197e-01,5.636163390397945783e-01,1.367099743875375886e-03,2.528321117217972036e-01
2.903359436361397511e-02,1.372581688331684334e-02,2.714751609900092552e-02,2.421661241098249998e-02,7.049602132735578904e-03,1.618836702559037569e-02,9.802722114807596587e-02,4.753427488187996763e-01,1.529012452759006017e-03,5.238090415003757161e-02
5.347352331658242197e-03,4.478689606031722309e-03,3.585798137752903986e-02,1.675616012513093250e-02,5.854382870814515971e-03,8.170247011181832209e-04,1.514950575747232159e-02,4.061333246947855802e-01,7.677619703250827474e-03,1.382471776445740319e-01
2.624415506842085397e-02,1.666393362575412443e-02,3.732568842868909387e-02,3.872338926856495542e-03,2.877368363999784247e-03,1.083431503060651099e-02,6.230767866380766684e-02,3.581461038577031797e-01,1.557967412583600129e-02,2.308629576546357975e-01
3.629306174339415325e-02,1.872549758093156047e-02,2.422549562803354151e-02,1.094412670638217518e-02,1.595942179483153100e-03,1.429800973493114587e-02,8.694296373220891661e-02,2.603838734689577494e-01,2.334276807408735416e-02,2.347427984121809863e-01
4.825202676057449569e-02,1.636518952916043296e-02,3.179766481687823845e-03,2.136989070289726372e-02,7.854616451125548404e-03,1.920643412345702725e-02,1.485601144430512277e-01,9.173622686020387051e-02,2.855587957937651480e-02,1.890743791805586382e-01
6.182881932030473426e-02,1.544907552777523459e-02,2.804128166474376127e-02,2.255022754539209168e-02,1.580035769631711259e-02,2.735773531483874296e-02,2.240758942591841441e-01,4.850145028444199230e-02,2.894666568305080678e-02,1.171100833100826577e-01
6.402008032692406425e-02,1.421666818984243692e-02,3.343177886304868340e-02,1.868817322316879137e-02,2.341696330022690134e-02,3.060617711251458276e-02,2.383398484285186303e-01,7.508686771145792194e-02,2.528728618361029967e-02,4.632615776800937113e-02
5.078998032503613536e-02,8.668066171437092265e-03,2.060539200230962834e-02,1.883706966332081983e-02,2.651592751690272365e-02,2.271520603494871920e-02,1.812380372038687182e-01,4.676041245532656931e-02,2.169548384657806958e-02,6.283384709517506744e-04
3.367583291694312142e-02,1.060223745181637211e-03,1.063770650268010352e-03,2.534062856133884392e-02,2.248727857666792465e-02,8.243790027852911789e-03,1.231904978218317515e-01,7.065068458731377232e-02,2.125127571472864782e-02,3.310387897879017716e-02
2.432832209270307383e-02,1.731788418132552618e-03,1.903447322922679000e-02,3.259949200564751792e-02,1.432519822488612440e-02,2.477331248850075246e-03,1.190972056137661050e-01,1.507040340670767753e-01,2.350614871926353169e-02,5.736662382187247833e-02
2.297548108743572778e-02,2.704624605947896984e-03,3.735274651997921858e-02,3.536751625149376493e-02,8.134946816443392598e-03,3.474354116316748144e-03,1.541705336548056249e-01,2.121979649109024813e-01,2.724928453750551441e-02,4.041441735211453307e-02
2.203471716268308803e-02,8.577906450585186943e-03,4.927642163323560365e-02,3.324063121222824851e-02,6.160686065035861532e-03,1.744946594297761000e-03,1.765505450657836595e-01,2.033689551827010389e-01,3.186034188037797227e-02,3.459384238373405807e-02
1.469085417772715216e-02,8.507134785065696009e-03,5.436029549456228988e-02,2.951586486841000292e-02,4.571277896656123808e-03,3.842911555490369051e-03,1.456384433007418544e-01,1.132539143752522848e-01,3.490901115149157297e-02,1.122288063601391411e-01
3.916138294968031335e-04,1.810434878586743594e-03,6.136803496298001009e-02,2.760707759378016810e-02,8.246475871596191777e-04,2.020357267764593887e-03,5.883059451252874855e-02,3.890564332838814671e-02,3.351171933645809980e-02,1.253182907656118783e-01
1.574935528138666704e-02,5.789721463797340220e-03,7.554952054702956943e-02,2.560660999913268870e-02,8.484432816414614817e-03,1.082147604062790210e-02,4.887537237853378791e-02,1.921890042481083083e-01,2.927417655375393057e-02,8.076240713937464510e-02
2.878041112409424757e-02,9.513014621925679551e-03,8.577639405546791385e-02,1.673721595344509344e-02,1.284655730762766616e-02,1.517304209210766988e-02,1.345192074927292203e-01,2.784978612704564482e-01,2.623638704814127906e-02,3.530314533857582815e-02
3.751912375653070758e-02,9.978775846319410878e-03,7.681978474431926107e-02,7.879289387180781184e-04,1.130538625587914660e-02,1.437673360283830450e-02,1.780390634091350011e-01,2.861648691347082329e-01,2.301360461104162008e-02,1.506695638145324513e-02
4.260894730669733538e-02,1.056968573920322348e-02,5.234954939417496567e-02,1.949589466869091486e-02,6.924215334414243750e-03,1.217354452822060062e-02,1.868867215799484005e-01,2.536192667647635401e-01,1.358206214317071552e-02,1.796236498002334349e-03
4.391735830887656677e-02,1.293253175130711259e-02,3.247568941832800621e-02,3.204235869412365434e-02,4.170724617150387871e-03,9.970789870106331471e-03,1.801679873345592431e-01,2.029979974451335545e-01,2.565470556169578524e-03,4.005144516052291243e-02
4.054688007036401365e-02,1.606209006955888058e-02,2.862426226574397645e-02,3.821118353932526773e-02,4.252401023471233908e-03,7.182899303771928153e-03,1.695251930694433307e-01,1.168524272315662194e-01,1.738535695475455084e-02,9.455359956227026019e-02
3.446108944931557116e-02,1.889464124715382540e-02,3.443288100981663213e-02,3.986233564715049166e-02,5.531739027032152485e-03,5.706378952526856667e-03,1.593039915082135327e-01,4.883985609860976582e-04,2.338604548383008824e-02,1.502157251815299244e-01
3.433748504844211236e-02,2.262508265046453068e-02,4.088061049306055544e-02,3.659355945943591065e-02,7.103261540671030119e-03,9.669108915927582953e-03,1.676353112430732928e-01,6.513227119676777421e-02,2.080219509395626887e-02,2.160238073560360739e-01
4.766378260534520628e-02,2.883756131252333127e-02,4.410618911776804929e-02,2.971727835603999238e-02,9.798325109960245860e-03,1.968392535331572879e-02,2.153883425243923733e-01,1.311573439970068096e-02,1.450402156533837049e-02,2.976744288218228229e-01
6.425864234611310122e-02,3.502195951102139021e-02,3.759574091806695134e-02,2.473659166105509830e-02,1.304552221573021184e-02,2.876358601306698570e-02,2.719973563333533684e-01,7.067960598000665173e-02,8.725699324170525448e-03,3.418061446230676870e-01
6.039117346930383129e-02,3.495913225374545907e-02,1.501143798753986659e-02,2.594008116147120471e-02,1.348594148737869425e-02,2.751421628359421861e-02,2.596295667653127914e-01,2.793287161659222667e-02,6.887899025953459278e-03,2.808596750717685109e-01
2.812688152100743799e-02,2.559491068548619408e-02,1.479170911802755485e-02,3.053989538609658966e-02,9.252907005409011232e-03,1.515642697341049346e-02,1.498631150797026801e-01,1.436819255950740615e-01,1.189470041168811526e-02,1.425266663703273207e-01
1.277130234778158305e-02,1.093044209942346974e-02,3.115241848106165001e-02,3.076972663819957376e-02,3.262668815607171896e-03,1.268214222578531274e-03,9.132363079972435904e-03,3.044244692656087325e-01,2.217714924160375106e-02,2.792457821673185320e-02
4.005225937560722566e-02,2.747292825987642569e-03,2.569817348677054872e-02,2.175485821743353490e-02,4.617858448398730114e-04,5.922860924639763471e-03,8.688240868897852132e-02,4.071870534472943337e-01,3.006336341955223590e-02,2.403033588282083716e-02
5.134915250803369358e-02,1.275162489397545749e-02,1.151592057447832322e-02,6.167511701779403339e-03,1.224473034099825188e-03,7.862464193914918409e-03,1.314434038675217908e-01,5.210710084167126110e-01,2.906775942321566594e-02,5.785976788622153311e-02
5.537960079220962534e-02,1.968050107832029771e-02,3.198137820955695119e-03,8.757267291249521898e-03,3.848434745646670246e-04,9.594169376188526124e-03,1.483482445371079594e-01,6.345799244666484595e-01,2.152814101760536225e-02,9.665706350449972117e-02
5.671994870183954401e-02,2.429379443231005978e-02,1.062403052021978697e-03,1.733862883921813078e-02,9.303332647486441077e-04,1.162205962018414418e-02,1.367345082966587855e-01,6.422688703800876198e-01,1.466989412710857990e-02,1.120847972533522419e-01
5.682585975632225422e-02,2.672896585103899311e-02,7.617311435313627033e-03,1.773184945788948419e-02,5.939757280090812459e-04,1.233675315467577631e-02,9.972019794153268168e-02,5.303686530868827465e-01,1.105929546599834085e-02,9.132233476561571472e-02
5.886856087772544127e-02,2.709585060588631453e-02,7.380790847380483410e-03,9.947900753885623171e-03,4.489626576736538768e-03,1.366326501712411892e-02,7.824903648176013971e-02,4.094754689372363532e-01,8.297112740330766026e-03,5.517589583739425374e-02
6.435430617086296268e-02,2.534721843425455715e-02,1.375392756661076611e-02,4.161513821557175086e-03,1.409619524416407324e-02,1.869088422320226706e-02,1.017210810749191591e-01,3.570987869177819629e-01,6.340247387015239544e-03,1.196054300477769790e-02
7.026505897663862243e-02,2.164250886004373542e-02,4.730404934321484622e-02,1.743104890412948763e-02,2.297848427932934826e-02,2.605161315060833954e-02,1.396916557634594325e-01,3.482358648551710512e-01,8.123625990042787973e-03,4.903635821803110917e-02
7.394659815399456937e-02,1.814911368885589044e-02,6.562368203747459550e-02,1.907193479633066679e-02,2.629202214567341253e-02,3.143692151139321905e-02,1.549724205254874587e-01,3.423620650734161552e-01,1.238918836594538921e-02,1.118364745583867587e-01
7.728978749678359905e-02,1.894862534404257587e-02,5.513366641311973765e-02,5.366753266576935154e-03,2.452219819596911793e-02,3.325715402934356635e-02,1.678005725415953608e-01,3.389521441702527116e-01,1.255048280638972232e-02,1.257559798158520148e-01
8.201224816785145089e-02,2.521038319078936288e-02,2.986896048038220966e-02,1.377607479025245649e-02,2.087194370445406150e-02,3.306372659985492429e-02,2.086546211088877445e-01,3.320882323696237037e-01,5.860408757125799666e-03,6.689806737825801375e-02
8.372880496660417560e-02,3.145214938103146202e-02,1.005802966325854662e-02,2.459847571887685547e-02,1.685341492236419603e-02,3.203009059506977535e-02,2.456159330375153604e-01,2.880942743684467011e-01,9.046001965634584141e-04,1.839455533476112847e-02
7.585477548725459707e-02,3.081830781988478124e-02,1.642408432375676210e-04,2.426090445463798331e-02,1.276334904429673664e-02,3.002133730876103967e-02,2.258791192389499325e-01,1.965498300810606391e-01,2.740778111937315024e-04,6.354937166102382629e-02
5.790526550794119348e-02,2.359734700350244949e-02,6.773530662646104483e-03,1.993362613201613356e-02,9.152312718452073129e-03,2.646570199281914754e-02,1.597240805328196400e-01,9.195755994467674777e-02,7.163146971769921920e-03,6.040917548856300501e-02
3.513811884032824046e-02,1.570292156664424704e-02,1.018865391971862655e-02,1.515608763798574968e-02,5.413385637795319755e-03,2.015904809898843783e-02,9.689576365944849168e-02,1.548806524292074827e-03,9.502060097604597688e-03,4.981623270050934693e-02
1.197485563059350402e-02,9.738652134029114615e-03,9.126016642294655645e-04,6.371881537672173523e-03,2.447295265726424311e-04,9.945619495270032612e-03,4.498153063224406834e-02,7.763085982710390964e-02,1.824055189657941903e-03,4.757028861565608391e-02
8.186056830496345887e-03,3.891959312668173861e-03,2.841167600879538485e-02,6.120186529328303961e-03,7.348407422594206533e-03,2.408343693443313477e-03,1.669160748580013343e-02,1.214882650825416521e-01,1.078477997590878909e-02,3.714257662497236212e-02
1.918381657616353292e-02,1.108649538155832793e-03,5.502180163829457904e-02,1.426708569050154189e-02,1.193279286727565343e-02,1.087500758346689363e-02,5.997326933802695631e-02,6.678459578706880118e-02,1.926719766713514206e-02,2.973049790261856132e-02
1.698366417035622813e-02,1.666786128612647837e-03,6.280952887637408777e-02,1.296633190585810662e-02,1.085274222814846916e-02,9.804659001969305218e-03,2.983239139402060064e-02,8.454993855517413393e-02,1.898071638223342017e-02,5.753756168634380219e-02
7.756398968648877540e-03,1.297011728419802164e-03,5.219954193445421747e-02,6.103489734971965369e-03,6.163637742706179132e-03,1.342787714675601918e-03,5.574190692469464803e-02,2.146348742105788077e-01,1.205856581695138180e-02,1.034572400940905051e-01
2.821405786959069011e-03,1.597186458709818832e-03,3.566847963045194359e-02,5.118310834346046292e-04,3.272870629756519708e-03,5.248272462886853854e-03,1.118973866970503356e-01,2.203841058515300100e-01,4.807770509904597117e-03,1.124717264463239302e-01
6.235899505083546644e-03,4.150391333467594486e-03,2.203342857474043306e-02,4.111319229579501675e-03,4.974148956253732733e-03,4.232884939986543589e-03,1.016974996744992449e-01,1.383819990527300481e-01,2.302451917817267130e-03,7.739289559634585092e-02
1.424622284495334970e-02,1.288710636218967122e-02,1.202146523855876677e-02,2.673944517504559318e-03,8.999966049403302498e-03,7.547517034941280886e-04,6.679116136307822194e-02,6.952766360262604972e-02,3.214903141227096715e-03,4.663702453412367499e-02
2.395173740893118824e-02,1.994882219096627204e-02,1.565726417758274945e-03,3.536836418181745975e-03,1.155522634698940773e-02,4.076799265534263722e-03,4.204424341499368722e-02,4.581642660338774986e-02,1.790645317170669716e-03,4.890385878966056754e-02
3.437594556127758494e-02,2.301555602150240007e-02,1.192604463742902472e-02,9.168473325633577295e-03,1.139505770711973960e-02,5.621983989370592932e-03,2.179818734158932986e-02,4.492819640880183624e-02,3.558061226988935843e-03,6.561302656633566377e-02
4.188397723921824523e-02,2.174941545788494288e-02,2.039425898501749657e-02,1.019805323267698391e-02,9.805257755162796393e-03,7.595571271674735406e-03,1.319851438709911812e-02,7.023146757055730161e-02,8.105581720285821162e-03,7.077933723112163344e-02
4.336414328867049806e-02,1.827050464467346730e-02,8.150523958425333684e-03,9.355244778888887822e-03,8.186212983831353193e-03,9.963358875094432965e-03,4.068530627231427277e-02,1.302746490007919422e-01,8.671782078402428054e-03,5.626156066551816354e-02
4.247995909827378958e-02,1.717909807737782665e-02,2.597685833968969502e-02,8.777373530910769980e-03,6.698478283812030198e-03,1.282664023614165164e-02,8.807802223064037372e-02,1.783879620234844754e-01,7.278647334307806332e-03,2.683750938192341895e-02
4.456537168782694069e-02,2.002333889149954249e-02,5.868714424251579576e-02,5.016763998615302901e-03,4.628592109661072707e-03,1.718099916604270624e-02,1.049961989894192677e-01,1.539750765968527779e-01,5.912775471080209018e-03,3.827177440935184381e-03
4.667998840301269825e-02,2.121610199091191265e-02,6.670621448328983849e-02,2.404290540426006796e-03,1.542465989026322454e-03,2.045285133621149373e-02,7.667821168388892772e-02,6.919841397854009646e-02,4.228846126530261609e-03,2.545902941552699236e-02
4.133590945650791881e-02,1.517769188099030858e-02,5.190436603568018836e-02,7.829341948707234378e-03,1.774994282143329541e-03,1.814036488282948223e-02,3.331331073413434929e-02,7.527088347564856591e-03,2.389765494326000564e-03,4.845423897454068096e-02
2.883432118320968310e-02,5.050835887273577574e-03,3.130363661836486205e-02,1.053611204507289879e-02,3.798599173441751572e-03,1.162056494554486105e-02,3.662901934043473300e-03,4.153226949716082306e-02,4.922678534136561580e-04,8.089142042970456914e-02
1.742056316132559179e-02,1.938355794398947561e-03,1.306006027931582575e-02,1.667654100212222559e-02,4.018488209186674674e-03,6.917951251901983956e-03,3.764206838752336137e-02,5.601127535529112911e-02,3.336501716714404802e-03,8.672629422240896169e-02
1.242301747679374485e-02,4.209623587795050491e-03,5.103822399546776786e-03,2.462344456962349895e-02,3.421417885590855804e-03,5.374620425817814261e-03,6.844680241405207144e-02,7.930073232209905454e-02,9.364889974488572674e-03,1.483537021516969159e-02
1.162003008224295891e-02,4.945631533632204209e-03,2.121445865913557452e-02,2.194197626431202211e-02,2.740845981349802635e-03,3.045519114657032136e-03,8.392938340969462174e-02,1.068591796037149239e-01,1.287569142865453709e-02,1.234545203402534763e-01
9.823368491753022708e-03,5.629653642547096347e-03,2.791029825747732770e-02,4.042011573246236805e-03,1.658534464575193773e-03,1.103989970273991893e-03,8.033239563901428681e-02,1.188574306069528352e-01,9.089034265494722736e-03,2.557497545930031979e-01
5.016606829536165296e-03,5.078173633011853066e-03,2.708231303931273037e-02,1.604757086174344455e-02,4.176891448016662681e-04,3.097926071108444198e-03,7.487674299438031034e-02,1.208690588446942049e-01,3.590965301965869843e-04,3.264731430035926474e-01
8.166289791265365916e-04,1.742153804303095020e-03,3.145713175496853836e-02,2.401547430448143158e-02,5.546496417386721257e-04,1.802753763364515083e-04,8.524178160567202900e-02,1.458333614399834610e-01,5.668296771739935597e-03,3.293168137863276002e-01
1.811061921146895834e-03,4.398268954458683412e-03,4.231461322425945915e-02,2.132788810417186529e-02,3.272112988599471146e-03,5.012331538474528933e-03,9.431230355198552684e-02,2.024930259896578766e-01,5.065008372968938903e-03,2.805459265018165893e-01
6.661835571505165740e-03,9.957573342682093584e-03,3.853361636360026765e-02,1.918039446557386063e-02,7.902522141347087178e-03,7.280736627009297239e-03,6.183903230195688522e-02,2.486125758904806360e-01,1.588388339367588758e-03,2.042728408744521051e-01
9.646170309387670783e-03,1.023847916080247722e-02,4.574489007077348415e-03,2.249406058073516110e-02,1.201592131194925868e-02,4.389989746588521431e-03,1.395791786712292926e-02,2.402510968540273739e-01,1.402035091419861525e-03,1.293429581006387274e-01
8.185447654276971352e-03,5.473301500908116062e-03,4.107465767056247413e-02,2.771132176218056922e-02,1.325769885455834081e-02,8.683204175509325311e-04,8.103867074720762231e-02,1.846931022128083522e-01,6.675959303851150377e-03,7.236861917395359667e-02
4.686974314016250504e-03,1.184997726704457377e-03,6.588473730144869811e-02,3.201387510103662071e-02,1.173993073685193275e-02,3.931604009630569781e-03,9.725812418149418215e-02,1.257777157024150549e-01,1.520110520937256390e-02,2.990988484082519883e-02
2.204372654268647522e-03,5.147227537380207919e-04,6.290666449156538664e-02,3.535133624677565256e-02,9.712826498100225053e-03,3.234100781471955025e-03,7.412949642680217999e-02,9.717846189459675155e-02,2.381284714688062729e-02,7.967513966058778832e-03
2.282665920298008067e-03,1.175933351652446845e-03,5.024144171449404506e-02,3.488163221387664825e-02,8.277992040296354437e-03,9.237024560429267159e-04,4.408332261629129695e-02,1.056482362797519226e-01,2.992631126525397214e-02,4.630247332589659121e-02
6.107817403349407454e-03,1.333968400617631129e-03,4.038907937328705539e-02,2.707788204805215704e-02,6.021879466312337649e-03,9.050437074943002477e-04,1.764905803934352022e-02,1.456495360496777303e-01,3.073588846942739219e-02,8.567158282585828066e-02
1.310021603515832377e-02,2.439657460850967220e-03,3.044373137898617743e-02,1.555068894327684553e-02,1.639247262846628504e-03,2.293258754475321036e-03,1.312290903539096130e-02,2.067446828035929829e-01,2.468260370956052926e-02,1.227051030872192416e-01
1.868649536370638881e-02,4.817306836609700285e-03,1.652937183840727173e-02,8.004371977022656931e-03,3.607484058855576006e-03,3.096190480923848021e-03,5.337009423674411029e-02,2.656662336393640911e-01,1.523257022494872888e-02,1.496105427607819505e-01
1.944288725943785906e-02,6.309797090555427541e-03,9.182185031907840128e-04,4.930722619148866954e-03,7.110954847188180779e-03,2.291820524515734200e-03,1.012939467196866394e-01,2.965589579765097183e-01,9.273605072333476751e-03,1.614200820066539477e-01
1.981956894557401067e-02,6.341891771312484043e-03,1.365903251120281076e-02,3.956975311018269895e-04,7.891968996372121167e-03,9.687075820219671549e-04,1.483458968731830585e-01,2.975787513094055869e-01,8.871679241228391799e-03,1.638254054825932227e-01
2.567027058943846876e-02,6.328979526494857462e-03,2.640717174999059752e-02,9.636718021425393424e-03,7.274487549836835404e-03,1.854991651058959410e-03,1.739082513033143873e-01,2.873195901956649423e-01,8.819284982406035145e-03,1.668523240888514780e-01
3.240438673887297005e-02,5.850120613892825783e-03,3.509163155137831613e-02,1.564611740762236053e-02,6.780097205267851014e-03,4.740329923575990582e-03,1.584932569951630899e-01,2.732047995531072249e-01,5.624567001122637161e-03,1.733487590352721097e-01
2.986452385698701653e-02,2.693862842092435705e-03,3.643053166017445194e-02,1.411184059564371193e-02,6.588604751348153474e-03,6.434383827996213376e-03,1.128150558986408536e-01,2.431575457553591391e-01,3.387641710375172577e-03,1.807397079748288282e-01
1.802815931676144887e-02,3.457915767208833563e-03,3.138270045986692180e-02,1.086108086565775420e-02,6.331526471663928915e-03,5.681468132957783086e-03,7.565198697127321903e-02,1.878383759637376194e-01,6.269922785418530382e-03,1.865657780681530264e-01
7.326831742381359307e-03,1.016566040949758339e-02,2.641205070871885038e-02,1.249250034415894453e-02,6.088295089137485232e-03,4.507746395060687264e-03,7.266710818529771576e-02,1.169412134965174960e-01,1.095416631149030359e-02,1.841514707347683133e-01
4.146343296522487371e-03,1.395184169264475534e-02,2.722863153077015319e-02,1.702747318116990677e-02,5.902776477960696398e-03,4.921287401566772773e-03,9.313699383908127793e-02,5.596351693395063692e-02,1.169983185437168186e-02,1.665525587012187669e-01
5.194142465540243191e-03,1.218388472111366083e-02,3.368842532594228806e-02,1.949328406871785740e-02,5.371293076789436863e-03,7.094165244184150697e-03,1.151406785078398776e-01,3.131402550648209465e-02,7.856929173338597291e-03,1.442798074049088108e-01
5.164035262411926369e-03,6.230153936599160634e-03,4.226275664955561617e-02,1.999862059820619112e-02,4.464531377401532650e-03,1.025481731922520644e-02,1.356188913740420665e-01,4.819831682737223816e-02,2.077887440304775329e-03,1.400168223519936139e-01
3.117846408045617766e-03,1.642453199986358518e-03,4.988892774266384667e-02,2.147929291135534588e-02,3.808202560205509700e-03,1.346969590290716771e-02,1.617198595166646213e-01,8.114212624749345126e-02,4.759910716700540070e-03,1.559882793530915357e-01
2.529272841463483038e-03,7.141740711784401322e-04,5.400522045041650232e-02,2.504763857817594169e-02,3.684541938834797609e-03,1.615867551726359388e-02,1.874290283956161762e-01,1.003631680994199193e-01,1.353652884963385192e-02,1.685375054737715539e-01
7.721424765853145827e-03,1.690883148052301551e-03,5.368557674634018284e-02,2.946665894558293808e-02,3.931211144838259001e-03,1.862848382934200256e-02,1.983481787658674667e-01,1.048732667717078848e-01,2.386783354971485846e-02,1.622242589102031174e-01
1.645024936911910346e-02,8.501947477322776073e-03,5.219882085886459744e-02,3.076164110616008002e-02,4.562363540500347439e-03,2.054004134693605127e-02,1.894097694317533609e-01,1.072873646179250823e-01,3.221102650159753111e-02,1.430498897219786014e-01
1.589505841320091456e-02,1.147328438081061247e-02,5.181962546466559183e-02,2.378837222471483215e-02,4.659597914592945346e-03,1.827995436911750496e-02,1.575642656535221620e-01,9.094260993953365291e-02,3.302567284389600066e-02,1.101031347826477852e-01
5.762575559092281835e-03,6.601086168301017153e-04,4.468126265452272705e-02,8.620142770911628713e-03,1.923766231515883435e-03,7.324602687385372082e-03,9.015274304530915273e-02,2.048077587725371726e-02,2.424828208890785972e-02,4.431176019929634891e-02
4.133260299425139950e-02,1.991055646271561175e-02,1.960171885742968342e-02,6.183715742820555285e-03,3.787069858874198003e-03,1.019411643636341028e-02,1.225713270353706412e-02,9.748156475879724003e-02,1.194500202034294058e-02,5.770883985829133866e-02
6.716377206874792061e-02,3.461093813896438942e-02,1.798244816385105235e-02,1.042923395246788017e-02,8.253091123918393501e-03,2.406999939551721437e-02,1.125393599107556153e-01,2.033397899599432845e-01,5.623512044890048057e-03,1.605956539053652876e-01
6.833882729664585154e-02,3.403462812585581615e-02,4.643636951188648276e-02,3.294826357885689665e-03,7.753350180881586617e-03,2.678389148704918635e-02,1.667091237023785033e-01,2.460579918917225328e-01,8.143027016710140814e-03,2.207258360590986790e-01
5.389694938726603129e-02,2.395149114259701589e-02,5.392371253329712039e-02,4.755656672867101913e-03,4.419905032909027948e-03,2.302052392148758522e-02,1.717189619623211982e-01,2.250810600307562026e-01,1.397932740902895106e-02,2.306171774343722114e-01
4.222785413278538208e-02,1.551406023784980374e-02,4.973201742918184620e-02,3.992355313246100448e-03,3.184752857646578218e-03,2.307594039268145991e-02,1.590880071831483888e-01,1.693796254091401443e-01,1.751134613543944493e-02,2.194712154418390349e-01
3.844347223545781927e-02,1.192719565153009705e-02,4.531411224461819043e-02,2.796760747531754944e-03,4.774270026614871494e-03,2.873851502890427401e-02,1.476036555759896451e-01,1.046627294377821538e-01,1.881996016667071212e-02,2.120287719095086953e-01
3.334410218724673941e-02,8.158445028857787967e-03,3.969370651535760602e-02,5.046984537914084822e-03,5.368739508097443436e-03,3.231460918243107133e-02,1.292228662078033219e-01,4.371899845301462084e-02,2.061377766316460636e-02,2.002182390727609562e-01
2.070541157044632555e-02,8.467952251774493993e-04,2.925384460321986402e-02,1.428107786366828932e-03,2.757366875505698131e-03,2.896728213626236989e-02,1.002538089692555090e-01,7.651716620726087097e-03,2.305082342482130814e-02,1.649792064417668069e-01
6.398478055158278097e-03,6.706977337453861980e-03,1.845032020146446933e-02,9.840586998864689003e-03,7.265840351515351738e-04,2.231138548363279309e-02,7.649733325578532417e-02,4.161867394100900869e-02,2.358148158660790597e-02,1.136717943971496947e-01
9.885265754913320942e-04,9.958629389889594660e-03,1.300064938999154901e-02,1.040331804370150937e-02,2.104380231814356218e-03,1.674521706966556819e-02,6.788704154924138368e-02,5.180750582197161253e-02,2.056865063634541468e-02,7.343948129770533351e-02
1.213291397486564952e-03,9.122438179517713269e-03,1.035325604614150199e-02,3.128257302218930176e-04,1.566575706221765701e-03,1.186188712691771396e-02,6.313504958355710406e-02,4.418106618311690159e-02,1.547903071761696191e-02,5.479053364488191413e-02
7.117335990420529251e-05,7.491318181101292231e-03,3.884748166296510350e-03,1.303805924785658883e-02,1.017894296596515667e-03,6.557994431805136068e-03,5.355254934083240187e-02,2.768797287089922940e-02,1.138463490551698022e-02,4.800315991382725356e-02
9.812447477881478496e-04,6.686405486114917716e-03,7.457321410791960606e-03,1.883724731075998512e-02,1.094519026648700134e-03,2.160242397426474260e-03,4.977439208952798289e-02,6.378837611003725094e-04,1.001656325814578516e-02,4.703315427595834014e-02
2.918916223075553387e-03,6.051792251048191199e-03,1.862764886704702458e-02,1.348740031551718017e-02,1.189408424571440160e-03,7.336412320679281795e-04,5.873685012139892581e-02,3.208669501703549642e-02,1.083144520181762889e-02,4.908288201730532513e-02
3.144492616098918444e-03,5.021532413582351084e-03,2.526901120343471793e-02,2.782982413702124458e-03,1.019641635509514321e-03,3.696102590449292478e-03,6.708398963899879497e-02,4.911893988102487840e-02,1.245371697667662855e-02,4.444675487651265910e-02
7.497698735472414430e-04,3.915633024486180405e-03,2.741574258132347189e-02,5.529354548028450958e-03,8.533335122686880369e-04,7.309497256520114915e-03,6.447298472992749052e-02,4.631477218263880397e-02,1.388923579318294618e-02,3.419049547092811031e-02
8.429381829930391451e-03,3.022518916945739469e-03,2.724476768139016264e-02,8.040462456741706912e-03,8.230588595823152588e-04,9.998446172483327343e-03,5.827684479820952057e-02,4.724877550082068334e-02,1.447847516194843490e-02,3.727677346530815228e-02
1.586109663229226530e-02,2.223029540460788166e-03,2.596783690508950443e-02,6.319644061932821848e-03,8.037729898682521596e-04,1.077800188348638014e-02,5.197192541454444953e-02,5.785679046408560844e-02,1.402452912472677837e-02,5.684494380513005485e-02
1.980007766868553676e-02,1.407003925792588411e-03,2.401549866011991677e-02,5.049763561489502978e-03,7.303694992853141830e-04,1.058859690283380298e-02,3.881051513775498479e-02,5.685908866162806691e-02,1.312805898971631906e-02,6.629691641605532648e-02
2.131764089503568674e-02,6.528633330968166767e-04,2.251664480194498844e-02,8.205416110931541829e-03,6.589564234548948851e-04,1.016401805567088840e-02,2.383476559603665834e-02,4.405938074669681764e-02,1.240499206908871922e-02,4.719967915765442557e-02
2.154447189369970012e-02,3.438963738492599958e-05,2.202669623067760388e-02,1.481572836719077454e-02,6.190714012282212296e-04,8.624812498479024481e-03,1.792290733467651401e-02,4.073836371114349791e-02,1.165707189574432048e-02,1.284188533346711930e-02
1.831652537617643392e-02,4.659859896623684181e-04,2.027542412946535533e-02,1.990583650267180663e-02,5.832225248907596483e-04,5.413955227360208594e-03,1.100429945533423250e-02,4.136774735516377671e-02,1.084830369534639689e-02,1.753072065858649053e-02
1.149128203544421724e-02,8.680416196546822264e-04,1.439043796076429176e-02,1.996823256588821024e-02,5.357439852562083079e-04,2.135988681712483895e-03,1.103037325852650706e-02,2.934364037683487997e-02,1.090066882089189837e-02,4.175028139996032200e-02
5.975432656858996154e-03,1.152849538718660888e-03,5.926172825289665984e-03,1.483495647729441216e-02,4.879222326370991005e-04,1.014743013142473463e-03,3.129073042534927934e-02,2.717060600443119145e-02,1.162813032131092446e-02,6.649537497309954137e-02
4.389625213924608360e-03,1.304664139265281683e-03,6.875216232476391185e-04,5.056661409018569503e-03,4.459709534663690777e-04,2.394392329751281363e-03,2.489976620376276040e-02,6.196155614512138810e-02,1.019098932993198377e-02,9.595459204848967583e-02
2.842376235409950838e-03,1.329864242203233861e-03,2.486572115439740494e-03,7.755477393624823912e-03,4.036041860985502597e-04,4.602423492857808836e-03,5.007461968286228485e-03,1.054391548033868364e-01,4.653549945127039879e-03,1.263774051763115747e-01
1.399995450011879122e-03,1.236768911154529065e-03,9.071915444763415173e-03,1.865880386492616352e-02,3.569599053916580850e-04,5.682327422053838964e-03,4.084866602526545515e-03,1.145483156380893569e-01,2.092421389269416305e-03,1.403001295637119339e-01
5.030152873054237819e-03,1.028335089651778418e-03,1.493814242049158227e-02,2.280533948962680871e-02,3.082317495205079525e-04,5.163419336198515029e-03,2.153905842347936250e-02,9.863328202056004246e-02,5.388037516199992508e-03,1.203976316302034916e-01
5.703295561162807781e-03,7.132335071408455601e-04,1.681855799734280343e-02,2.060288884533784115e-02,2.587426318554930139e-04,4.321497901774591296e-03,2.945420469086452650e-02,8.905102871569450795e-02,3.903919918921980228e-03,7.812232984513611811e-02
6.973531368190776306e-03,3.052034345431664086e-04,1.591907582609208491e-02,1.568837466950697909e-02,2.072627576241198213e-04,4.356810983703877926e-03,2.081048949532100789e-02,8.101359298899238337e-02,1.592850590809742747e-03,4.861097547816145559e-02
1.259851829724759412e-02,1.865978287162203646e-04,1.564377634564177028e-02,9.715589550538184654e-03,1.532244617681886910e-04,4.908814739657508912e-03,1.787643165013504815e-02,5.281824689155122099e-02,9.922909530513664839e-03,5.115429339122497948e-02
2.138307349906777219e-02,7.495426701206299534e-04,1.742973080149430587e-02,2.062086553359873415e-03,9.733762658046528099e-05,5.045101744803930956e-03,3.765287071295279897e-02,7.629026263581639711e-03,1.486103066995718425e-02,7.434121315511843520e-02
2.962424829901794815e-02,1.354452789264227021e-03,1.839313582445325709e-02,7.224601547957042354e-03,4.009519010236778185e-05,4.646809631725441932e-03,7.231859896404987942e-02,3.619742286712998580e-02,5.337821437681714194e-03,9.864259428795658924e-02
3.460362486939076027e-02,1.977294789299603641e-03,1.411901681303110064e-02,1.552303858527978066e-02,1.810642229005448640e-05,4.164538477200221793e-03,1.002018958471627141e-01,6.817990476167902492e-02,2.185306897158317829e-02,1.120627409468210878e-01
3.547087208190548291e-02,2.625825075230547954e-03,4.878533229236063293e-03,1.766300756072563052e-02,7.630296408480088575e-05,4.014822074901445645e-03,1.044856446543893369e-01,8.242340944889874066e-02,5.432525205513318717e-02,1.082043732003280800e-01
3.380620544002774230e-02,3.293535576311264982e-03,3.068096120982859339e-03,9.709037775097292128e-03,1.339792944110635884e-04,4.301892366919022812e-03,8.707981017372429244e-02,7.493994993080144162e-02,7.563364753433102217e-02,8.990561553527870453e-02
3.258086418951150476e-02,3.904403804737258902e-03,4.018969674046927489e-03,4.918780363224210458e-03,1.914090611111169500e-04,4.247743500194968783e-03,6.760898437070410327e-02,5.329178050060745520e-02,8.038796224828596848e-02,7.201651148944994418e-02
3.254557267248221059e-02,4.412098046118126393e-03,2.069417998720947567e-03,1.599657616421614609e-02,2.471961526350202197e-04,2.585407629117894134e-03,6.226723100265203065e-02,3.294258674001455944e-02,7.387086683615859406e-02,6.711011621251740389e-02
3.118999261664755218e-02,4.921343532936123949e-03,1.191096531496650332e-02,1.650882716182464766e-02,2.980908606534009102e-04,3.982089323077112226e-04,6.764776562384718084e-02,2.144916404227141526e-02,6.224356285811122325e-02,7.231963782184183676e-02
2.675376218642629839e-02,5.480207123686294673e-03,2.173408211716860300e-02,9.529273194766029256e-03,3.444807835409769824e-04,2.249127817543663480e-03,7.312906713422791249e-02,1.781474248231468965e-02,4.833065514446907573e-02,7.744441928745889048e-02
2.102486215925907301e-02,5.816826786207976094e-03,2.688742049075376270e-02,2.593126100855693006e-03,3.907506207615671335e-04,1.071814498874968172e-03,7.907644167685355663e-02,2.352008466036181050e-02,3.383697456948819154e-02,7.902900551109398597e-02
1.625948965717780373e-02,5.777259790615771502e-03,2.553568884975467024e-02,1.085248996987853848e-03,4.335553101746664607e-04,1.900937953947267429e-03,9.030293601427767658e-02,3.750022033786334918e-02,2.058405225093064977e-02,7.854427076358835857e-02
1.189553786957218973e-02,5.905760047079239294e-03,2.465118136415799660e-02,2.854415217459330828e-03,4.609352336989826823e-04,3.506738778218254724e-03,1.021424981163509549e-01,4.361734488962493161e-02,9.299904035314741912e-03,7.300275046861005868e-02
6.951632918920673185e-03,6.538983754064899880e-03,3.152099675063568807e-02,3.819497703914805607e-03,4.774489339586963509e-04,2.078130097643249036e-03,1.077483682327307069e-01,2.537893666670966789e-02,4.057060567334248510e-04,5.758301423844630618e-02
2.887204163999970274e-03,6.436693558751771689e-03,3.480815181810867354e-02,3.354741321539867274e-03,5.067308821616400101e-04,8.438317480416125584e-04,1.088329214482160329e-01,6.713289480239404555e-03,8.044554230440908310e-03,3.359419397767970938e-02
9.996991565394065977e-04,4.253968897348340931e-03,1.087135273385818161e-02,7.336586228784187534e-04,5.379233867877520475e-04,2.270761262630760502e-03,1.050037352541501462e-01,2.455074488801734650e-02,1.139094409299038109e-02,5.108243241297616595e-03
2.409436872768144257e-04,1.457510150900602312e-03,4.082394985193311954e-02,3.811396890847095192e-03,5.188877127928657410e-04,1.135773084198591319e-03,8.292090266775808960e-02,1.940897359484407281e-02,8.969799111924102453e-03,2.623692732406832442e-02
2.633574323900064393e-03,1.009323861660081081e-03,8.778976330041446396e-02,8.929550120371543970e-03,4.704884096560609441e-04,7.451291279485881131e-04,2.914197160466711414e-02,1.035860070444210093e-02,3.289326847840985755e-03,5.554576047340192835e-02
5.571802256298853499e-03,2.918300485222507980e-03,1.020934943291460922e-01,1.228321766869931719e-02,5.042292246083102765e-04,1.335702560778977751e-03,5.016948088984275744e-02,1.623632075566729116e-02,8.273499093166191906e-05,7.237302136138899777e-02
7.527106307093073614e-03,4.239779160040737550e-03,8.855729006757279143e-02,1.159670382340841077e-02,5.786720825627713087e-04,7.313413549325048718e-04,1.271437403099400232e-01,3.514178011963489667e-02,2.185062116386770215e-03,7.200832978146276542e-02
8.290975341847056646e-03,3.523712924586861524e-03,6.709515137421592779e-02,6.841946933527505957e-03,4.525254898249021101e-04,1.482663047917275891e-04,1.717593247243835719e-01,5.379952000851660060e-02,7.724931049500654429e-03,6.360402596366736272e-02
8.985252341397034770e-03,2.131148382799999842e-03,4.796230921557764759e-02,1.491608927416854637e-03,1.997237205756037276e-04,3.044263345461199755e-05,1.765482876527349476e-01,6.556511113197238672e-02,1.153621916372387507e-02,6.152247413856962860e-02
1.037642389244827767e-02,1.316927028466647947e-03,3.154026345919714452e-02,1.008479643588984466e-04,3.816191004502105747e-04,2.101993357957241239e-04,1.578042647627032613e-01,7.204201966064707752e-02,1.162657620970570030e-02,7.002749271011403376e-02
1.147748031426661444e-02,7.560441212554504372e-04,1.529518961229728649e-02,2.637634787337963301e-03,1.110735573153853002e-03,5.592643469902070386e-04,1.335294166493129764e-01,7.383973786635224246e-02,9.965461934667485880e-03,8.048761407876070528e-02
1.127392803901862417e-02,8.596623268139892519e-05,2.523243254339257655e-03,6.121411837602525746e-03,1.523080479886344644e-03,8.907389952513892995e-04,1.136142560412068681e-01,7.210909565411063871e-02,8.748771522480802351e-03,8.494426473687044510e-02
1.188914825186141236e-02,1.045224533206233920e-03,1.461305415372064244e-02,7.129698404699489483e-03,1.005601259446545692e-03,1.119041482678206955e-03,1.065220641018735231e-01,7.649909803187117385e-02,8.083876335632110902e-03,8.614810272438606920e-02
1.669897676364417993e-02,1.842960900061140460e-03,5.519870953822938672e-03,5.286715559551020092e-03,1.876936326239472125e-04,1.325371355014967828e-03,1.137440255752631968e-01,9.606493645837781148e-02,7.269193491784365149e-03,8.906251161322048526e-02
2.471838937581779735e-02,2.528382496272784177e-03,2.673134574110545489e-02,1.263734039286722177e-03,1.118947612740348957e-04,1.546187110652366041e-03,1.218098748416015925e-01,1.227105912806353977e-01,6.281481648064949144e-03,9.074734207565807176e-02
3.068681025617889246e-02,3.209206295168726304e-03,5.966828222044347901e-02,4.002263540542411006e-03,4.661893641197894329e-06,1.739954757075764429e-03,1.179894165350064000e-01,1.385412857202149850e-01,5.457141188789523499e-03,8.691974585372533313e-02
3.098062212122474485e-02,3.833366173854899604e-03,7.009996352860717317e-02,8.195607257396868295e-03,8.723978788538540199e-05,1.885820140741883066e-03,1.066316670865457422e-01,1.371336533339481967e-01,4.828475480021959289e-03,8.127949874313757095e-02
2.625711868677218022e-02,4.323430978370125001e-03,5.838027848332623393e-02,9.126030852654346687e-03,2.963047572790689619e-05,2.000468177542137280e-03,9.905990408968899652e-02,1.243943919409097321e-01,4.254514817331949555e-03,8.118735837949966894e-02
1.953736259778852957e-02,4.698604921906331978e-03,3.929140978382126420e-02,7.474385912611868944e-03,1.668861342681890025e-04,2.092189861106087418e-03,9.802790105631185857e-02,1.044820940299593798e-01,3.730803037607265810e-03,8.907707547881302257e-02
