1.179476287760986800e-04,7.080393543685958163e-03,9.378217014938166262e-04,8.739303558763760870e-04,5.272822194678524312e-04,9.481520492438360714e-04,1.551224432177819579e-02,8.422406798804460415e-02,3.006918049696262127e-02,5.126664616705909477e-02
1.236100733030519869e-04,2.020802548760153652e-02,2.711360683451267961e-02,2.277268392357655307e-03,5.577008104086908415e-04,8.726493714220599643e-04,9.664585208362937857e-03,7.128673583142308701e-02,8.631343710275478365e-02,3.860018606638844496e-02
1.280405261880984919e-04,3.377197602858071634e-02,5.978688214041628923e-02,4.518089173787849869e-03,5.791981210233664110e-04,7.893601270410264799e-04,2.213259061855595271e-03,3.907247651904243585e-02,1.403268583059884278e-01,2.493133609276822898e-02
1.308381181355580951e-04,4.486608463599595781e-02,8.627711527773522515e-02,5.248384652303838584e-03,5.900868739258227419e-04,6.995431033164495327e-04,3.025842445140277878e-03,9.108313367059178017e-03,1.741797390588079308e-01,1.902398287187613210e-02
1.318423066384134075e-04,5.226729684681034188e-02,9.656295056075722694e-02,3.849136378986970242e-03,5.847190245388896208e-04,6.045014394412580316e-04,4.713966536702500140e-03,1.594065471873139066e-03,1.799359805151886094e-01,2.002711066119445757e-02
1.309971981708644767e-04,5.353135448631356208e-02,8.930043848886087821e-02,2.433693201992735700e-03,5.655438810648643526e-04,5.055411681267520801e-04,3.841084024656009691e-03,5.382215099271857317e-03,1.628238866927624873e-01,2.384209659120791955e-02
1.282030766350628710e-04,4.667906977559285742e-02,7.132942797029070969e-02,2.575161232397842146e-03,5.442836961051026028e-04,4.039482290189683970e-04,1.910206798946110238e-03,1.611308068690475714e-02,1.346802423300756113e-01,3.000057872885998622e-02
1.233820880169287661e-04,3.437862488181909343e-02,5.173314423776820270e-02,3.459588785430803715e-03,5.166663986065928721e-04,3.009643313152854556e-04,5.839069195765563165e-04,8.976988861758520427e-03,1.032349037954750220e-01,3.322202607072671093e-02
1.165417619098667621e-04,2.411660910243675071e-02,3.631706343312390839e-02,3.904829979608046876e-03,4.592574814661088680e-04,1.977242421507039273e-04,1.358683015741974850e-03,3.439113296041781953e-02,7.100976777843191756e-02,2.034925897205386303e-02
1.077480786887020377e-04,2.118575917013513360e-02,2.605380945390976810e-02,4.009555181447816558e-03,3.830982962761190461e-04,9.519820640480625693e-05,4.661199323114602333e-03,1.038139898962513741e-01,4.137017193064659870e-02,1.245355309994418923e-02
9.711668681470157067e-05,2.197442755553345728e-02,1.841864783013784715e-02,4.277950513623660078e-03,3.418127340016025397e-04,5.776743909075324982e-06,9.450933201353785978e-03,1.596123739940488728e-01,1.675971834522490753e-02,4.772265243234779380e-02
8.482095893492104348e-05,1.808336843391637749e-02,9.942313282699873425e-03,4.663628372916714393e-03,3.172810709854581666e-04,1.044651957114423155e-04,1.280562502924713179e-02,1.707036206583811278e-01,7.420855578412546665e-03,6.192106525981422305e-02
7.104690290888509337e-05,6.432688303451615172e-03,1.086954339221039931e-03,4.916650556311079508e-03,1.991212368568593685e-04,2.003803264438237439e-04,1.079411155665156025e-02,1.400682177002019746e-01,3.823291601763184611e-02,4.825196616702855101e-02
5.598818969542030787e-05,8.731166524078745952e-03,1.321733320271892623e-02,5.040677067822386948e-03,2.814587314074942228e-05,2.934228112752763386e-04,2.537710824204373900e-03,8.905370848349719592e-02,7.427460823918358157e-02,1.941121632107832562e-02
3.995866183538974157e-05,2.215710610218359772e-02,2.300547589880468785e-02,5.138133284799340818e-03,4.931670600753754771e-05,3.836230903874131943e-04,6.994944263370170626e-03,3.785228161955038473e-02,1.059747883855712280e-01,6.337805205967420377e-03
2.338135208989665853e-05,3.147110757923506086e-02,2.825052562171171885e-02,5.194626894282071937e-03,1.969762659093972769e-04,4.708740452481125806e-04,1.087904473341465457e-02,5.311154038817858872e-03,1.280047049100980494e-01,1.725175597707944916e-02
6.517281108298319842e-06,3.623718049452366585e-02,3.013411422056864325e-02,5.150977444720850583e-03,9.039579047418456700e-05,5.554930530064166412e-04,7.685536832680812946e-03,3.091920825270056891e-03,1.454229485769803765e-01,1.444528860054520268e-02
1.053345773115025360e-05,3.740811072720271607e-02,3.163167424305993181e-02,5.005107362462140122e-03,9.351202626687455917e-04,6.388081628974512111e-04,4.187107827848068550e-03,1.745890497966757354e-02,1.635059667719685195e-01,1.216271852081123213e-02
2.726784972651166911e-05,3.778543515884271592e-02,3.417666565080809682e-02,4.775528133254408614e-03,1.464967137847042336e-03,7.219555441560649703e-04,8.059793506045513645e-03,1.418559568333814871e-02,1.770022810062128471e-01,1.909169425275650950e-02
4.279257044332230502e-05,3.999157664229111009e-02,3.671533000792278484e-02,4.453668274568622215e-03,1.037542043485890474e-03,8.045609615944860661e-04,1.602848048834994502e-02,2.288502673794443748e-02,1.768795978628738275e-01,1.345118397846471400e-02
5.705530196741126915e-05,4.264973252933312170e-02,3.757623420495215250e-02,4.029624183557483329e-03,2.909802712886083676e-04,8.872212737239911677e-04,1.438271781256870822e-02,6.775009818390197169e-02,1.627664999171112570e-01,3.771621998930573677e-02
7.087321482342904871e-05,4.086454974386594108e-02,3.613284276256602950e-02,3.514458681772505456e-03,9.914420257829699012e-05,9.743169519000159781e-04,3.154085908179072358e-03,8.201324804919550571e-02,1.389112626465789091e-01,1.233998589088821651e-01
8.332664726465168826e-05,3.292725221844028383e-02,3.321164328344088784e-02,2.908975548177086031e-03,3.353367680081152094e-04,1.068703593082470996e-03,2.444965851776133639e-02,6.419374686023737731e-02,1.040947267275293131e-01,1.879199714036567936e-01
9.165386124869921399e-05,2.432320896425806123e-02,3.125064621355347350e-02,2.193237793915818728e-03,4.243033263772643055e-04,1.165472327946703726e-03,3.338095920878075828e-02,5.262570426507538063e-02,5.926225484843753583e-02,1.977088030156085863e-01
9.683696248828108446e-05,2.131622708874672534e-02,3.238421279436992650e-02,1.382540751062102946e-03,3.028052566090902713e-04,1.263019380001144474e-03,2.819793765321313567e-02,7.598914563353226237e-02,1.952700326771063949e-02,1.704052614186998271e-01
1.039923145218559506e-04,2.200328861204278730e-02,3.393654721728250889e-02,5.331361204339714159e-04,2.380279976719155434e-04,1.376548314992219815e-03,1.801478613827571865e-02,1.158917268422752916e-01,2.247572478522905093e-03,1.329852128734003158e-01
1.104687868478938751e-04,1.786147501108693858e-02,2.867101644035175909e-02,3.728780814421576409e-04,2.585632514442852718e-04,1.514665090881716974e-03,8.964774530492023580e-03,1.310030375266872382e-01,4.415170603485726181e-03,9.467522996687822989e-02
1.047186308065199434e-04,4.106914765497480212e-03,1.331602545112205681e-02,1.434677451411351095e-03,2.003413283454498267e-04,1.649812622775648392e-03,2.156273941266945247e-03,1.095038991055247712e-01,5.199533484207697481e-03,6.337475324190264270e-02
9.169802681103028587e-05,1.422588894435276169e-02,5.454584754101454193e-03,2.589377586179562266e-03,6.593945621997319680e-05,1.767366330859106638e-03,8.944500221416016791e-04,7.824234048483651172e-02,6.748834372563702541e-03,4.736638630124334615e-02
9.595027473805316383e-05,2.677532120166986260e-02,1.647957809955949079e-02,3.597160587107322248e-03,2.135551475705487756e-05,1.929948589846136901e-03,6.717027571239379130e-04,6.320811003093536329e-02,1.858838482958284632e-02,3.707985249438626452e-02
1.074447457569875457e-04,2.724093533543178736e-02,1.467438477322174570e-02,4.569058006786209589e-03,3.475782320467527692e-05,2.174148578683845513e-03,3.527017383010634839e-03,6.447680677223112389e-02,1.330235723994745850e-02,1.512644293119569903e-02
7.357509019080652347e-05,1.867969763628952659e-02,6.272600910829408995e-03,5.976646563069643384e-03,1.612153202442323985e-04,2.370237076694133548e-03,4.009840971532752443e-03,6.999338224803137998e-02,2.931005505614162933e-03,1.484567270615044614e-02
1.462359387159231273e-05,1.003240625394978894e-02,3.481008276676631104e-03,7.291473056451973876e-03,4.935594578225762589e-04,2.438844628992629590e-03,3.075701113813593662e-03,7.084227185895282386e-02,7.560411097135703515e-03,3.062485023184745303e-02
4.399103882268567983e-05,7.304093034536749546e-03,1.141346290291230837e-02,6.448591994148209980e-03,3.822897499983387280e-04,2.659039319462143131e-03,2.614269216351316864e-03,6.177185638800868073e-02,7.880281327066333483e-03,2.136176282085493552e-02
1.221364374728142244e-04,9.262352706624012513e-03,2.230551051645660032e-02,2.518230437588184212e-03,2.825854113868662694e-04,3.220371173052005535e-03,6.731974704580216597e-04,4.429036283263523832e-02,3.203874038370392585e-02,1.343436014523691213e-03
4.032268003476785102e-06,1.200365721051842478e-02,2.701114559003546522e-02,1.876305025562227018e-03,6.193152359083725373e-04,3.498521444543299837e-03,4.549865175833352378e-03,2.972147294078656549e-02,5.650189066070192973e-02,2.114757615613628572e-02
2.406256433209677124e-04,1.386745216578715023e-02,2.717930113256739402e-02,3.357762048783359543e-03,2.697259467374472783e-05,2.775164471166350396e-03,1.027118862161759127e-02,2.960387194958508453e-02,8.268576949483109895e-02,3.119376281347523844e-02
4.306504308044643186e-05,1.336048485557295856e-02,2.853630321046905782e-02,1.905285905482946053e-03,8.329030488941209205e-04,1.779879086431179541e-03,1.392722708317695353e-02,4.706742001044450507e-02,1.025911319614263295e-01,2.938190664387808904e-02
7.176805851564750866e-04,6.998311798957794136e-03,2.800520491440552581e-02,7.775356486335794530e-04,1.166440276084092361e-03,2.086746913397332162e-03,1.822278432003181931e-02,8.120218845201251923e-02,9.396971616039713482e-02,1.484922028952243706e-02
1.160846211400955652e-03,6.104740967826576686e-03,1.758062960002503006e-02,4.885497238494943342e-03,1.139308691205483375e-03,3.731310640902259917e-03,2.636887169191178687e-02,1.278110800860220442e-01,4.633963541239297101e-02,4.495609620664242460e-03
6.534412524697067555e-04,2.110754105138928569e-02,2.656848449242046190e-03,1.078310152642475428e-02,1.147886349368288945e-03,5.061753529645882273e-03,3.639468394163604403e-02,1.734268658089364867e-01,2.151833679567643348e-02,1.422279417528037396e-02
1.416030170846510963e-04,3.314171647066856130e-02,2.467096008777434554e-02,1.616804946982388844e-02,1.162247545818837109e-03,5.246848098221898633e-03,4.464852650715728927e-02,2.038832244442122799e-01,8.274345894303206106e-02,9.794903097952811430e-03
3.640995422195149995e-04,4.258105575386263164e-02,4.385617469180176642e-02,1.878854836357152225e-02,1.294585530934199173e-03,5.276982178437615752e-03,5.006250058675987269e-02,2.152727036848278985e-01,1.307466038604623848e-01,9.601830109048194520e-04
1.889991945259922898e-04,5.102505008861418084e-02,6.238383375892780913e-02,1.954944615065768235e-02,1.743232860768728154e-03,5.988543783112084545e-03,5.096022807925144199e-02,1.997598225002113481e-01,1.727491288827145977e-01,3.016027490443024851e-04
1.593637280464346479e-04,5.528203936693347476e-02,8.025815752728537866e-02,2.002274623175716306e-02,1.804753000787249692e-03,6.497532230566230478e-03,4.438678003718837806e-02,1.361325446689226615e-01,2.067759254600582408e-01,1.388165225080438374e-02
2.310674763364710014e-04,4.869333371395384580e-02,8.962242717273202763e-02,1.972880325450497921e-02,4.110207218195398543e-04,5.511108642663710248e-03,3.279255358137631721e-02,1.895443476106411368e-02,2.228183759709764789e-01,4.741294880083345153e-02
2.002430419592837177e-04,2.867030709091910462e-02,8.353095570965160532e-02,1.824221551688348306e-02,1.984229809699848517e-03,3.349100587353202353e-03,2.311741794858633570e-02,1.182889364110027153e-01,2.174542173491547381e-01,9.271212355618821399e-02
2.704058477200836207e-04,3.110376030698173803e-03,6.765922338080528065e-02,1.727547705699373354e-02,3.578036078582650954e-03,1.515199788658927937e-03,1.567977868425235108e-02,2.304764946109774948e-01,1.940500000709263206e-01,1.268120112424912238e-01
4.853352970253999228e-04,1.407299856124920139e-02,5.525654988965510162e-02,1.863496475905100647e-02,3.506228320889330421e-03,6.896287580553997747e-04,3.642148533658368798e-03,2.999723174970670980e-01,1.617447000917605349e-01,1.303218147855876308e-01
3.016341084094957960e-04,1.824640884104318517e-02,4.999361875122659143e-02,2.167131097815524349e-02,2.505260555198941114e-03,1.829408142580509389e-04,1.431320025134825633e-02,3.396063535453739957e-01,1.410091015579352236e-01,1.102879886711011365e-01
4.559600837111014646e-04,1.938358576063025154e-02,4.281305412227275065e-02,2.374450538578614170e-02,1.316996659714950385e-03,1.021857084477076740e-03,3.113402104247826180e-02,3.673305218347615031e-01,1.467485404220173761e-01,9.087848179615470867e-02
9.275337377349146322e-04,2.550797170841056713e-02,2.818034642594823350e-02,2.256831857985029319e-02,7.567283446191950202e-05,3.386860626903663313e-03,4.143122086521324604e-02,3.813769013880948799e-01,1.596080988230473285e-01,8.377340310993919292e-02
4.504002360155883638e-04,2.912609196023153296e-02,1.438343791554234918e-02,1.826653763080333948e-02,1.489811858870736640e-03,6.225940748567273392e-03,4.464201523167057872e-02,3.592708989249630003e-01,1.437879627302810770e-01,8.362175724201234561e-02
3.422211041312618563e-04,1.941810366630131526e-02,1.387182477726747916e-02,1.383162729413854250e-02,2.166549839084032977e-03,7.626844249487469557e-03,4.064785624668675046e-02,2.850726629614773744e-01,9.865752043869442656e-02,8.918454146715650011e-02
5.693882915487414112e-04,1.538356116140083066e-04,2.957144009725754669e-02,1.316288893712404436e-02,1.961182042112207501e-03,6.288174358315089078e-03,3.152284161353056252e-02,1.733157419789148057e-01,6.122702660233481087e-02,1.078571925451753122e-01
3.519852643054772155e-04,1.397481226360742547e-02,5.118038129064304831e-02,1.702733103205588197e-02,1.925507586835701473e-03,3.767048268082552522e-03,2.365703507659064689e-02,6.053314084952731572e-02,5.485575665771261905e-02,1.355313831864936314e-01
2.587308222197796589e-04,1.339850406481365649e-02,5.945559172290907496e-02,2.028916203934366669e-02,2.594179239073699916e-03,3.382906215285151879e-03,2.037712636444804701e-02,2.012296916003764036e-02,6.015604332906939605e-02,1.514129216658208488e-01
3.592107212688428267e-04,1.000291538645976721e-04,3.910398229566214995e-02,1.579723413298723608e-02,2.309984529361505320e-03,6.582695365167509464e-03,1.883195994172344803e-02,5.104951167198656936e-02,3.297100563517407767e-02,1.435987402054384743e-01
4.083718720811133616e-04,1.711724625366412011e-02,4.333797435235138204e-03,3.214793575198812703e-03,1.007295139207674533e-03,1.148105466568199659e-02,2.059681440647219419e-02,2.838555960001168041e-02,5.779482110777320325e-02,1.250769303724266202e-01
3.669195457524066471e-04,2.644506859875971408e-02,4.654009666503640397e-02,9.140164721374386542e-03,6.373823927023054489e-03,1.478836067314281098e-02,3.409358061234113446e-02,3.423474205643268348e-02,1.958023882070435984e-01,1.116837560291052134e-01
3.484729760915426149e-04,2.426105234078706346e-02,6.949584856041546299e-02,1.382236304237526719e-02,9.957673474371311548e-03,1.444118764372849181e-02,5.767821035698666998e-02,9.882668724231857826e-02,3.260393189424926064e-01,9.680226341271802593e-02
3.730906707486211630e-04,2.008080612798653075e-02,7.590052704428827679e-02,1.197925873671776449e-02,9.445075889905094751e-03,1.115793889811230420e-02,7.396926340274352640e-02,1.229125420872842211e-01,4.156664312154656482e-01,6.052122500932832772e-02
3.881196588737244346e-04,2.587704965392582587e-02,7.559768514515985416e-02,9.360418727572768216e-03,6.609169860362990728e-03,8.111523159539163821e-03,7.163173244670889561e-02,1.034496364235230753e-01,4.829095163353304687e-01,3.403732701564327924e-03
3.845483555907051204e-04,3.926025321043190991e-02,6.971204783885184830e-02,8.691219821354866093e-03,4.625018559989412317e-03,7.812001714954470467e-03,5.890067913161621538e-02,8.508608609210975560e-02,5.425812352826501206e-01,7.467458944443562674e-02
3.876897234035641912e-04,4.650210906409336931e-02,5.314033231659939793e-02,8.237814855499904845e-03,4.103278772497127164e-03,8.733375812546387632e-03,4.617420424941505452e-02,1.035751683390851580e-01,5.590544925763175632e-01,1.169111600112006516e-01
4.010706018052493586e-04,4.100292934345847046e-02,2.546855613362124932e-02,4.983045350342450545e-03,3.244719045260508524e-03,7.072110793102828578e-03,3.107710494926389094e-02,1.345819355394267669e-01,4.926552364449646726e-01,1.057775754698953713e-01
4.122528006827180943e-04,2.901464971273895119e-02,3.798903036212517535e-03,1.938376484880390297e-03,1.194595853306653320e-03,2.435839957990270418e-03,1.048883232238299879e-02,1.241915334764560758e-01,3.718776355596556948e-01,5.201010959558963198e-02
4.224476485376833031e-04,1.773837762070671134e-02,2.059328468436624412e-02,9.288994912348257776e-03,9.625016156681305644e-04,1.427536123400394586e-03,8.289530307679796386e-03,5.620362486888834386e-02,2.770067662930500441e-01,6.345307208909347838e-03
4.396276423872456625e-04,7.198384949786173700e-03,2.003208653789726942e-02,1.261224643273448597e-02,2.619745304387048265e-03,2.540263170147976507e-03,1.871942785561069716e-02,4.187020827081093521e-02,2.486609649158458557e-01,3.558503335877409579e-02
4.574524333394377486e-04,4.490314257116594966e-03,1.346003907096096977e-02,1.302557126585423934e-02,4.413494973598800115e-03,3.033129686661796293e-03,2.436722559636273627e-02,1.389615609707215982e-01,2.447699271942932187e-01,3.162482157566244567e-02
4.676971521969550084e-04,1.547915038449170812e-02,1.458431453201191816e-02,1.648421023085727341e-02,5.750146169068194590e-03,4.109207131810513162e-03,2.850790089812212796e-02,2.037888119454890901e-01,2.026121824137870620e-01,1.743340428659475791e-02
4.857193474004404079e-04,2.320631409171072107e-02,1.871638694127106262e-02,2.112783824296913041e-02,4.250651341234500113e-03,3.804598152336323858e-03,2.680772250646709307e-02,1.952719555676465379e-01,1.145329744447128456e-01,1.337525614301740724e-02
5.251434987409161299e-04,2.769704772560739603e-02,4.720171380832454550e-03,1.164032205289222688e-02,7.715257875693798395e-04,1.765946332795324293e-03,1.797371347148922840e-02,1.079119478563584089e-01,2.010845893037267740e-02,1.120910495394012753e-02
5.521191472545320311e-04,2.920328139382935562e-02,3.783238545409510489e-02,2.309775176509688485e-02,6.215228061416439367e-03,1.084256566507459888e-03,9.479687187329456297e-03,5.328968436622352756e-03,5.181880002278405062e-02,1.525389571502168765e-02
5.380476095609268471e-04,2.795153340212563897e-02,8.913755830516564838e-02,6.984258970489196083e-02,8.099626582390133042e-03,3.284897224684082701e-03,6.380405301408289404e-03,4.591048562925027082e-02,1.083052242031638801e-01,7.708140856914769135e-02
5.543076741948802389e-04,2.810757907121477772e-02,1.145359214611247761e-01,1.006594914857344564e-01,5.410425414882013249e-03,5.832729845578437169e-03,6.190506854687927336e-03,5.117401181352184553e-02,1.730767722769585015e-01,1.548842563486440282e-01
6.621507197056617335e-04,3.497278434058427588e-02,9.997861431267801580e-02,1.024153881519024312e-01,3.780111099251379854e-04,6.022127202455401784e-03,8.065312310857013570e-03,5.274119642033519434e-02,2.550276670668777945e-01,2.107315069239606153e-01
7.093216470813637053e-04,4.522355834142204739e-02,6.639113902344417895e-02,8.624248853875016163e-02,3.730567448845494797e-03,3.941697683798360032e-03,1.429802873240273997e-02,5.493808195348988399e-02,3.286181468236385461e-01,2.132361429714016432e-01
5.596408217510588298e-04,4.725738856906935154e-02,4.478260604417500651e-02,6.857961700873324573e-02,4.794461259756075018e-03,9.817410809595189872e-04,2.132695108741317416e-02,2.772521497927522144e-02,3.514421562932777410e-01,1.619629686223487963e-01
5.378140132736529671e-04,3.547733868352083431e-02,4.189053722371256089e-02,5.400783049669259650e-02,3.383822141046671176e-03,1.784944399606622645e-03,2.186801750169021369e-02,3.680238329735328884e-02,3.133935140907743722e-01,8.953039521984287874e-02
9.639261727532186718e-04,1.820284738545421832e-02,3.975952941712347644e-02,3.898157675113650411e-02,2.381942988151327864e-03,3.086417858328449702e-03,1.707513055114468631e-02,1.018177307256190878e-01,2.532450754701468520e-01,3.145393805938946630e-02
1.090327454868554808e-03,7.467929050882679901e-03,2.627265826265471477e-02,2.300313009414870977e-02,3.889591710470667943e-03,1.397851301686272836e-03,1.637392798525436066e-02,1.203577346545570831e-01,2.126167159299207632e-01,2.097876302166285303e-03
3.484240775896386088e-04,4.882662025626239265e-03,1.013696949502338775e-02,9.815422166992725933e-03,6.757086841863226521e-03,2.927988932207238777e-03,2.342501219314216399e-02,8.664621770037618520e-02,1.921979697071218018e-01,1.633400766292163186e-02
3.008574121736970735e-03,1.432843511587067464e-04,3.437711896132509756e-03,1.496999301001812610e-03,7.942748399252082259e-03,6.016370337667504252e-03,2.876490236950292670e-02,4.161581620507932150e-02,1.640689595762772623e-01,9.178006108002701238e-03
4.675302582096599324e-03,1.708940614060197594e-02,6.406891273057296887e-03,3.069412711375779125e-03,5.582119700474684303e-03,3.424387373394170275e-03,1.982246198626189809e-02,2.375837190960852080e-02,1.092187522844065839e-01,1.999318454345570817e-02
3.877904819576971120e-03,4.403724064413690881e-02,1.439882175937029843e-02,5.236145763577090655e-03,5.508848079322291140e-04,4.234670395799933901e-03,4.056243333617392567e-03,3.609103328933412069e-02,3.730696932142123223e-02,5.275856908692293928e-02
1.591113235632220669e-03,6.574323244807073197e-02,2.444254011632691903e-02,6.296810057917060811e-03,3.961272721225829116e-03,1.102945256235287816e-02,3.035718522873788114e-02,6.661805982257246184e-02,1.859553363477123300e-02,7.005406152792205410e-02
3.432236011236860151e-04,7.068718580402531815e-02,2.998840899273470806e-02,8.801427371922606116e-03,4.970282308250097668e-03,1.241792676475454195e-02,4.593110780816875988e-02,1.075637054947961996e-01,2.914844959896316368e-02,7.582651705737457337e-02
1.244584976184926915e-03,6.117961489091836014e-02,2.292029721023264299e-02,1.382302951114847481e-02,2.942645179649389792e-03,9.758755978823566504e-03,4.661730738144957698e-02,1.396339392781491273e-01,1.461232762983984829e-03,7.652215471208778652e-02
1.206186085537648729e-03,4.591038382907679932e-02,4.711054158007037251e-03,1.850401905797755334e-02,1.280952322057972437e-03,6.980514873633773126e-03,3.678175694794180023e-02,1.305621047523493616e-01,3.998032404671483797e-02,5.871165380251156668e-02
9.430211957616322694e-05,2.957434956477891091e-02,1.370777870527505743e-02,2.029162116441777380e-02,1.616050535396708690e-03,5.473737072846815606e-03,2.429647209788872442e-02,7.360459062523719287e-02,5.872283955342744860e-02,1.970792158810039801e-02
1.731109936547467389e-03,1.631522077124989561e-02,2.097887717334698948e-02,2.016493095361257537e-02,1.788099675439439647e-03,3.863069695336871640e-03,1.416053807107199233e-02,5.990430089025514972e-03,4.675002462761542604e-02,6.530380601329197933e-03
2.935792496439380925e-03,1.525914045152592519e-02,8.202985753614775929e-03,1.805213300685389391e-02,3.008263245260027734e-04,9.086265022033342001e-04,4.913402827053495875e-03,2.904386195305449017e-02,9.973220196176992708e-03,7.795477809304875161e-03
2.732527556710401956e-03,3.042304962279277977e-02,2.587672839933250271e-02,1.110943034421275552e-02,3.288210366053216562e-03,2.795246735078524454e-03,5.624622334001916531e-03,1.934842639323634469e-02,1.204707663055148426e-01,4.251674944838623044e-02
1.760832196140655085e-03,4.938208428583935189e-02,6.489257133880399486e-02,4.918678155944624080e-04,4.405456817515336111e-03,5.219550025769045636e-03,1.182601164131416062e-02,2.337077583523642157e-02,2.505789931490542410e-01,6.463443683343149393e-02
8.146169181668380188e-04,5.398234519486525690e-02,8.331868039807314996e-02,6.683347753138194243e-03,3.300751599198915517e-03,4.933084963506123750e-03,4.489729140832818960e-03,7.940291778936578448e-02,3.303024781839972168e-01,7.313880587380185150e-02
2.841467536052408598e-05,4.026624434590514445e-02,7.077768929854388880e-02,5.173621673292842262e-03,2.234315114481110094e-03,3.448969977836452514e-03,1.432625210132126153e-02,1.239647536810194739e-01,3.147414383868563093e-01,7.418340973868063626e-02
7.829224577803906579e-04,1.955498464772669961e-02,3.746413866649603991e-02,3.830010231066010521e-03,2.869835768150058586e-03,4.399937772799960775e-03,2.815403710922512875e-02,1.413388139861907755e-01,2.181107190006749130e-01,4.721902110997854007e-02
1.108274725351583723e-03,2.838451312523628152e-03,1.972731548191997576e-03,1.635732865530337490e-02,4.328768112728392792e-03,9.267658491556741290e-03,2.344541677794886522e-02,1.392452541198451188e-01,9.022003265781686210e-02,1.691030761644422842e-02
6.904074246429643246e-04,8.906369056626547986e-03,3.661951004640664337e-02,2.873061233247482110e-02,5.197230746944666441e-03,1.558127473579607770e-02,4.612049006145561500e-03,1.318515738081240118e-01,2.108371931041625943e-02,6.839647401375248403e-02
1.699885504997916523e-04,1.958386299637058375e-02,5.669780335973828578e-02,3.762006806188606528e-02,5.891312428851011238e-03,2.032246534738895230e-02,1.491895555214494719e-02,1.197464417317418012e-01,9.223722483153486140e-02,4.733710568408928260e-02
5.854555657439780569e-04,2.842219600586590872e-02,5.829050109744360331e-02,4.183562816934568995e-02,7.315199262976961048e-03,2.292349216125458972e-02,3.137437100410526980e-02,1.060785137718754656e-01,1.272514225403763855e-01,2.570323163103899189e-02
1.194225491938047547e-04,2.980322063409383132e-02,4.950141205149924395e-02,4.375010933400858698e-02,8.955448354544618891e-03,2.400205929647921885e-02,5.085837991087059640e-02,1.119736005318256733e-01,1.376125819287114249e-01,6.665348443330157413e-02
5.823387460467521065e-04,2.239362731565050502e-02,4.150959160811950460e-02,4.519655209500132720e-02,1.013758901490914750e-02,2.328294825008573460e-02,7.387802651496665207e-02,1.490189895450068913e-01,1.191778971877979348e-01,3.764918841859812848e-02
7.845940441215015944e-04,1.308003248076099363e-02,3.490506920235928595e-02,4.254659477007969454e-02,1.067681257956058435e-02,1.966986976724792446e-02,9.171148768133430274e-02,1.932309816204762221e-01,6.449320110593520505e-02,1.863659136390606944e-02
6.003968219504634239e-04,9.532773810760800104e-03,2.308580522161524096e-02,3.037584327794633568e-02,9.094379224852559840e-03,1.273063429112131391e-02,9.991208154615134618e-02,2.072344673016796868e-01,1.339984643733039757e-03,5.728118463207505784e-02
4.428972403341040025e-04,1.300348093001455277e-02,7.618265084730255730e-03,1.089895932857270176e-02,4.052770262618240332e-03,4.435163125466155473e-03,1.035471019232489798e-01,1.707189368642795801e-01,2.390679319448824405e-02,8.089444888515863463e-02
4.147894992711726792e-04,1.933878599817399208e-02,3.355639869253362537e-04,5.161161385197277768e-03,1.751059886623982471e-03,1.290074244233795075e-03,1.043042578679773957e-01,8.140909936322811291e-02,2.403403220386426259e-02,1.016192158365366582e-01
5.340951664091938807e-04,2.327973203568767593e-02,7.704289407281671512e-03,9.985587603345542559e-03,3.769408601342848480e-03,2.558587024098547998e-03,9.408293892752522813e-02,4.274799849244650257e-02,1.062570729566707090e-01,1.114255295827518005e-01
6.960711851919493785e-04,2.233359687915057248e-02,2.228662061711742665e-02,6.794232715368991350e-03,1.822649601087874107e-03,2.026717672616522303e-03,6.848735100706079826e-02,1.545129489169901893e-01,1.638719940395857722e-01,1.045794652475464104e-01
4.414083691393643795e-04,1.904435663101991180e-02,3.386910144575570186e-02,3.390107409633664071e-03,2.810545195307018618e-04,3.278676185482667753e-03,3.634110452362188798e-02,2.031437254142443305e-01,1.785430143140511738e-01,8.848529396353771448e-02
3.342619645455231813e-04,1.862369480303927016e-02,3.995752356646541104e-02,2.088561142805672732e-03,7.939351702044884773e-04,6.066087448997422964e-03,8.676948725119459568e-03,1.776294573560031342e-01,1.707369806726209971e-01,6.722701482265353023e-02
8.095193237733837267e-04,2.452288509219232790e-02,4.169621976212642411e-02,3.565640485872273099e-04,1.722153208239341924e-03,7.295106552494773876e-03,1.205941008690141619e-02,1.105583711947120407e-01,1.538059237034263560e-01,4.311867023210130129e-02
3.556703798119595404e-04,3.637857207943505367e-02,3.899220221595943447e-02,2.278043743036860767e-03,4.697667991843378250e-03,5.481299480077109383e-03,2.565590050715278042e-02,5.063095557475876668e-02,1.263702156718093383e-01,2.900987754495434889e-02
4.115266885341077705e-04,4.881923164247065072e-02,3.243764499680567431e-02,3.147271462393590961e-03,8.032277955254563812e-03,2.099187395332668699e-03,2.701398908413744915e-02,3.575862090894309231e-02,9.494756975402149357e-02,3.772838360764245447e-02
6.272746877247222614e-04,5.323317371199431935e-02,2.344137230806171354e-02,9.968078262930664662e-04,8.614094051775524064e-03,6.721191850198192288e-04,1.308188424210959128e-02,6.688430071976653180e-02,6.609794009962663419e-02,6.584793137815374287e-02
4.036874771786457851e-04,4.552436118977739449e-02,1.315657505313525336e-02,2.344960728255305986e-03,5.571845009179933472e-03,1.651548074423464648e-03,9.130663504476232289e-03,1.036124651315208506e-01,2.807876816620334670e-02,9.615486678502142837e-02
3.002776953343950952e-04,2.992532615663699366e-02,3.685696697333174301e-03,5.086210371711756724e-03,1.178015591803825484e-03,8.068812406516702104e-04,2.793863953800722680e-02,1.049159334716702474e-01,3.049060921211365488e-02,1.080036250109389917e-01
3.904421055095401373e-04,1.246091015215012275e-02,3.861723647745039095e-03,7.443963200474852486e-03,1.645077813056728929e-03,4.293867988151992888e-04,3.831968508227058534e-02,6.896219427442676353e-02,9.554818354692767857e-02,8.898000269688292885e-02
4.346392736752094582e-04,3.729509794596071442e-03,1.018592736239034430e-02,9.261947243061126323e-03,2.141837841673101608e-03,1.967545176953419380e-04,4.402860339021050229e-02,2.183356424358622733e-02,1.381229851171782430e-01,4.833655905092196919e-02
3.899115737037194603e-04,1.513238809939053409e-02,1.116910413903702756e-02,8.076962785892661742e-03,2.089223079475533221e-03,2.714573504840910902e-03,4.865277880154483120e-02,1.263056303152511675e-02,1.382127021428571911e-01,1.019571887929238141e-02
3.621934786454359691e-04,1.732014284049262359e-02,1.843257143061063051e-03,2.124546924120549775e-03,3.588455119317552310e-03,3.513849236527504492e-03,4.807809795229517347e-02,1.578509337411194285e-02,9.466397813944850415e-02,1.499227817735081236e-02
3.745349978182927701e-04,9.510304770507283650e-03,2.849909878368551280e-02,6.276201935751531298e-03,6.545347747913241726e-03,4.333879451626885962e-04,3.484575433610718337e-02,2.676911646628005875e-02,2.539221993825224732e-02,3.591296827510780110e-02
3.860643379454208155e-04,4.255454782176757919e-03,5.520972955515748154e-02,1.318819944961334596e-02,8.582962290300196612e-03,6.774745548374015019e-03,8.199712656502048530e-03,1.031850874817349384e-01,4.107053430647215203e-02,5.500099097357443595e-02
3.811343196920088548e-04,1.774384638759075178e-02,6.989614626534522424e-02,1.794197148831982308e-02,7.671717438136257082e-03,9.892676285403793901e-03,2.247046594142130746e-02,1.690518532743485736e-01,8.081435318906789178e-02,6.167814138578268240e-02
3.593558128333720122e-04,2.494292743805023513e-02,7.330814218456438436e-02,2.237390705079508879e-02,4.602384692370601119e-03,7.074431345596513161e-03,4.059424339310705593e-02,1.843624051828199051e-01,8.339631652708612286e-02,4.962031435459081374e-02
3.356103386269829745e-04,2.232110768538741324e-02,7.164712710255101424e-02,2.445553487513247443e-02,2.679548352559823696e-03,7.995812815978058921e-04,3.216578721606061508e-02,1.503887644247283162e-01,5.088316530538628674e-02,2.264310563164192644e-02
3.506264826883615437e-04,9.990390268788130676e-03,6.363712191433641696e-02,1.618315402957588856e-02,5.137418762626738168e-03,3.321240075585209575e-03,7.600630055042940404e-03,1.050269745112013403e-01,9.030594865446441369e-03,2.409993132874694785e-03
3.818532917407871049e-04,8.264884388009657509e-03,4.183749675500990362e-02,7.430676189773586376e-03,1.238817015637000765e-02,6.502857690980168390e-05,8.474395741766159798e-03,8.691391478305841856e-02,8.688047644492294386e-02,6.478407468836931346e-03
3.223591866857441557e-04,2.383956661923763640e-02,8.043211406457652021e-03,3.804392109657300097e-02,2.107389879695701143e-02,1.145677752763920622e-02,6.364678895749598109e-02,9.913391265057575064e-02,1.603443535472029724e-01,6.008666567148535087e-02
2.125290048571363243e-04,2.542522086363915162e-02,1.966804830171859156e-02,5.857039427107915003e-02,2.626837877558394971e-02,2.399079887059541588e-02,1.406328519856649695e-01,1.047193966526962089e-01,1.894316852219505576e-01,1.100767705315275208e-01
2.927649826869927504e-04,8.599981782814489911e-03,2.278607427818137021e-02,5.925068027448273517e-02,2.520232103177575539e-02,2.824554577750332252e-02,1.746183675626152010e-01,6.576338460814834530e-02,1.494299823056587651e-01,9.555261323089153658e-02
4.943100259659502851e-04,1.751985915528455479e-02,2.632300058757632184e-03,4.500566093963381115e-02,1.872135056557549040e-02,2.088038869824461810e-02,1.448706902282531073e-01,1.196973515296208268e-02,6.605461903495664366e-02,2.424288394335105332e-02
2.552159004761429665e-04,3.780257040856675049e-02,2.147617094753002595e-02,2.743052037580104990e-02,9.920975895573901776e-03,8.115177843066929964e-03,9.015601218879704115e-02,7.981217989637898191e-02,7.927415114401663646e-03,4.134616420091757893e-02
5.471499420597454545e-04,4.367764239646181046e-02,3.115069538003756647e-02,1.442913435350077003e-02,2.378101265430513159e-03,6.034551620458953941e-04,5.316222499407119439e-02,9.080001550467181604e-02,4.701755633643726201e-02,6.876569165938394013e-02
1.043332171781027233e-03,3.478326277950822415e-02,1.994135198433164349e-02,7.586316806168913809e-03,1.347277680393330892e-03,3.702653043112211044e-03,4.309022437295287333e-02,3.804963661306853817e-02,6.054032218010857447e-02,7.358438434873998402e-02
5.949626757444456291e-04,1.380076346574998607e-02,7.915724969835134794e-03,4.863099394790077433e-03,1.182896507884684083e-03,1.222198831850357555e-02,5.149187406511462201e-02,4.853181515762883952e-02,5.863752489108179505e-02,6.288982421316025029e-02
1.601863924328543476e-04,1.120893659313502121e-02,3.809014219642339882e-02,3.445145482456520199e-03,3.855029923824952135e-04,1.644820391579231850e-02,7.123619127538549645e-02,1.276123038150502320e-01,4.505918661923725282e-02,2.325730143241296413e-02
3.526946012873577083e-04,2.366846150262621323e-02,4.997413963915950386e-02,1.104789626895217496e-03,5.020687896037194769e-04,1.273047305467141579e-02,8.986788806974531363e-02,1.576040377430785455e-01,3.755541808571372792e-02,2.812200830080039543e-02
1.058531874116807291e-04,1.189424387906170069e-02,3.417106914034114679e-02,3.250187941548998791e-03,1.423064379595187674e-03,5.542298087790271770e-03,8.896391783065708825e-02,1.038644214420081369e-01,5.957639330574886899e-02,3.641916877666039748e-02
1.685510429995316556e-05,1.248046584073009627e-02,6.408117519271703394e-03,8.809723010989756187e-03,3.291260951971490198e-03,9.391945068001233184e-04,6.488678903483244276e-02,2.631586395112434779e-02,1.065163244799476605e-01,2.202993046005239861e-02
5.315377834056126419e-05,2.146131867776341490e-02,6.648799724293368713e-03,1.274258156886135147e-02,2.587250521950744050e-03,1.475482221167971923e-03,3.541248500429912405e-02,1.521639578225911504e-01,1.410879535589249223e-01,9.529711774236815369e-02
7.340331844500212668e-05,3.522713563088922511e-04,4.144682475928638740e-03,1.275081696713165069e-02,8.801524500159690814e-04,5.926626212112242643e-03,1.678291749181121811e-02,1.668481586694977592e-01,1.295478598714240037e-01,1.078129645070057263e-01
5.036548327619509361e-06,3.689771459288529454e-02,2.440103120095762912e-02,1.031158072241553092e-02,4.478683416070000298e-03,1.072948805602927554e-02,8.168171063243698585e-03,4.665636610848918758e-02,7.799860178627018858e-02,4.980043272507946733e-02
3.955811713787291123e-05,6.329743313115428205e-02,3.696085410103670116e-02,9.509636882812991243e-03,5.071823269387926506e-03,1.222855390135844066e-02,2.235644369661352049e-03,1.128041947180728061e-01,2.734577601014057113e-02,9.845051762500098280e-03
4.021970302100271594e-05,6.399149502757209285e-02,3.775846443848134004e-02,1.241264993886018360e-02,1.798347595865306802e-03,9.343440649623686173e-03,5.921156127111265426e-03,1.933583056315102411e-01,8.485730750872168618e-03,1.139976087101565727e-02
4.883788805564493764e-05,4.697746349851922992e-02,2.994862929616234556e-02,1.787324079847673469e-02,3.430927908565721638e-03,4.307626393086187895e-03,2.048784423578514646e-02,1.608348785203937703e-01,1.205713273021625717e-02,1.990231167961001649e-02
7.510641739749811133e-05,3.244885456290290404e-02,1.441815019537704377e-02,2.416229799420493637e-02,7.699834990058108432e-03,7.008061647037465165e-04,3.658051825165724302e-02,6.129257567052909944e-02,1.216646807618143936e-02,1.397138922430280449e-02
9.452111535698221154e-05,3.037704674801092186e-02,5.988152995581356129e-03,2.884848921856360965e-02,9.053367898630926280e-03,5.435747355377597246e-04,3.431085232353224546e-02,4.566205485255733776e-02,3.408572060878324421e-03,4.989681436752036597e-02
1.019773686505047656e-04,3.197793252337823022e-02,1.948467319119601138e-02,2.691800659868300027e-02,7.113638642334514824e-03,2.694338402950904963e-03,2.464454996446264513e-03,1.173995487441947677e-01,3.835282402059989656e-03,1.244152385826486490e-01
1.086888390352821159e-04,2.667859968717892563e-02,1.433001720659882010e-02,1.511019570887096701e-02,2.572677756490140272e-03,4.199404979361940835e-03,3.832696617659948901e-02,1.221003248267635705e-01,8.240359248355212315e-03,1.550140136578473105e-01
1.170579713075339161e-04,1.631547701390368213e-02,3.369252406535314624e-03,8.033878831405894374e-04,3.004055119010171776e-03,3.468117864266192629e-03,5.645094136714795541e-02,4.868538173826200688e-02,1.417813193060073196e-02,1.309855401312793599e-01
1.218146956323980348e-04,4.996656300508302631e-03,1.131077512519448186e-02,9.312332766600855266e-03,7.128298578663891903e-03,1.273640707027579640e-03,4.523303134045463664e-02,6.996907424388340568e-02,1.512241639087951763e-02,8.769035835551301783e-02
1.217984487848780632e-04,9.080891727028436375e-03,8.371258070779237850e-04,6.584299995703779031e-03,7.748672108907096734e-03,1.611061516737773668e-03,2.131083698622730088e-02,1.681058144780140096e-01,6.205151614680448798e-03,7.023246503262144114e-02
1.195685216935253657e-04,2.089052047854819683e-02,1.173326055134710222e-02,1.623048615268688844e-03,5.203513958190497321e-03,6.087089089309188038e-03,2.484731070659571949e-03,1.939738031908053162e-01,1.061261985063328452e-02,8.387901690914012498e-02
1.158802495167388899e-04,1.555995685421639532e-02,8.357666925796787896e-03,4.660830935183124871e-03,1.995760047453789231e-03,1.280024522725914209e-02,2.650063068101984193e-02,1.455308912264611232e-01,6.457229702759875734e-02,9.009233349170714389e-02
1.097961220758843443e-04,9.424750955233509447e-03,5.545023034295998993e-02,1.470994148025991759e-02,6.043624700701912119e-04,1.966959341302686182e-02,5.293730830311711710e-02,6.948171009715005397e-02,1.607828321746682665e-01,6.897682902001329996e-02
1.012681879706960221e-04,3.548591672638660988e-02,9.257200483596526863e-02,2.303377353495753704e-02,1.693731906556071934e-03,2.302142191060680201e-02,7.711605929472899190e-02,2.114234841825031463e-02,2.334392266983746356e-01,5.469025218973781743e-02
9.111063657828372478e-05,4.665003916284009983e-02,9.808318039627461626e-02,2.539378222878407518e-02,3.561879898554902359e-03,2.123398881647152805e-02,8.854051814285565647e-02,3.950644145262897748e-03,2.345618491588621346e-01,7.760621207460377535e-02
7.978198959818693856e-05,4.634413296836911028e-02,9.016793919957699632e-02,2.483702525920519419e-02,3.313096947784067124e-03,1.650215553909111649e-02,7.869369188129968218e-02,3.470922574666635702e-02,2.024100610458257343e-01,1.108377062586705653e-01
6.737364762280563676e-05,4.348755456196048974e-02,9.152882262769147792e-02,2.422556249985937174e-02,1.090990817628793245e-04,1.260674694713806963e-02,5.242931006763444646e-02,1.151736633433715906e-01,2.017240668912702872e-01,1.137272780118303434e-01
5.416964511923956591e-05,3.773834446251300018e-02,9.413694596169347450e-02,2.257159913292123427e-02,4.223574543065222037e-03,1.102241197655723197e-02,2.818261448314550444e-02,1.684601149449640733e-01,2.201299485506227338e-01,9.081260151078278386e-02
4.064782020824261172e-05,2.598271273504626847e-02,7.731337684091241225e-02,1.862335679697871629e-02,5.749349784981699386e-03,1.027785316697937303e-02,1.941139116574799525e-02,1.205734531031139728e-01,1.946482180402336060e-01,7.126512321019361218e-02
2.720625117712996801e-05,1.128882128937650289e-02,4.139398856694059825e-02,1.297017713500480188e-02,4.592388768595338615e-03,9.467620149261517584e-03,2.174754442997683598e-02,1.438500769973639209e-03,1.191468919505019319e-01,6.101157804572589216e-02
1.414771108107866474e-05,1.367321602134344456e-03,3.839570645070737327e-03,6.683607394551037938e-03,3.588083631623053930e-03,9.801927791929182163e-03,2.511227144671356742e-02,1.043270511938903661e-01,4.899845227552236671e-02,4.254072511045775551e-02
1.796002515241773014e-06,1.093110341472263054e-02,2.533577778487753479e-02,8.974681899899534642e-04,4.915319038255344664e-03,1.133602843144198603e-02,2.904093872777671267e-02,1.361949783122759494e-01,1.567257915691445264e-02,1.369299970099660362e-03
9.506563851220891807e-06,1.815369638975633526e-02,4.820100549980052551e-02,3.519050792651968497e-03,8.386237293486566158e-03,1.180524746564357193e-02,3.878063895975461528e-02,1.061601207007236009e-01,2.695806875568612648e-03,6.362457753773095859e-02
1.946429080347793233e-05,2.296283744717828729e-02,6.764240724321064768e-02,7.412532615291022448e-03,1.261383645350374651e-02,1.112908345897360013e-02,5.498721676496849675e-02,2.761403038412921923e-02,4.103678306533954656e-02,1.432550900291387486e-01
2.783747982690819482e-05,2.546602732240516725e-02,8.388053513648215109e-02,1.237951854911842862e-02,1.615808177088285530e-02,1.292369841023728767e-02,7.261863011927516265e-02,9.456988205535030168e-02,1.126836055399944303e-01,2.190862438894962683e-01
3.442075258272217367e-05,2.573341067818133918e-02,9.701803121468928481e-02,1.775664807504916121e-02,1.764791324729993865e-02,1.792686462789744306e-02,8.340129040958067785e-02,2.191897334359899641e-01,1.980422547611241368e-01,2.671688969090653121e-01
3.904582152846429850e-05,2.295625535969744030e-02,1.032310547790173949e-01,2.063316060593931370e-02,1.620819928678823851e-02,2.018900681499559077e-02,7.868637035484933595e-02,2.667127669050663452e-01,2.519424539400649810e-01,2.722429708013208161e-01
4.159766483099703948e-05,1.798027567590521070e-02,9.144772521402121102e-02,1.892892727065587435e-02,1.263566094787979717e-02,1.483788327998222974e-02,5.738278529931029048e-02,1.961241667373130604e-01,2.391267199237235019e-01,2.380250255704675910e-01
4.201783934306649331e-05,1.540671460804236489e-02,5.531968153336078858e-02,1.342074729366281305e-02,9.402810333218851110e-03,5.879549154751317203e-03,3.029094306571003883e-02,5.992764169216299730e-02,1.730713338310325422e-01,1.791010937039675399e-01
4.029968083188399512e-05,2.023215847110663643e-02,1.030699590529492171e-02,7.451235777490137005e-03,8.044977828232867736e-03,5.086782575300088580e-04,9.731653423877559619e-03,4.427652071529374067e-02,1.094615214523795982e-01,1.114507369070081161e-01
3.648768527963672497e-05,3.279641041395372353e-02,1.426578984362548985e-02,4.723997763563261842e-03,7.193512420368400676e-03,8.854920228725886820e-04,2.214187683123548453e-03,6.154392772786825699e-02,9.287302351903739539e-02,5.573478812880017230e-02
3.067897421453587238e-05,4.817659010030875960e-02,7.613679700085602270e-03,6.046332521128668612e-03,5.055849669674961598e-03,2.808609247433879481e-03,8.482722171798389582e-03,5.853856793736848113e-03,1.125859166008492118e-01,3.152490289608335383e-02
2.302107886899374892e-05,5.943476423293743427e-02,8.912969144321436499e-03,8.632086672825353343e-03,2.714247313810201710e-03,5.986040562298942415e-03,7.354275571568757129e-03,7.638170339089295213e-02,1.145316791376008586e-01,3.531628391737259842e-02
1.370701170878878919e-05,6.067824244773682707e-02,9.254758818623315050e-03,9.561469474559452023e-03,2.422938342634697005e-03,7.464729666469629293e-03,1.000389937411034179e-03,1.465323849407751955e-01,5.994155116074266487e-02,4.158592715999047396e-02
2.970432610493186517e-06,4.916825987386763686e-02,5.836148353459225634e-03,8.600672003765987700e-03,3.713305603287547600e-03,7.325280119125858469e-03,5.877920197360657351e-03,1.853545702161459308e-01,2.547155354889130488e-02,3.892910305572944846e-02
8.919376898203272181e-06,2.761980624214755570e-02,1.522370220833173943e-02,7.018400925221889713e-03,3.956603063402310688e-03,8.549042612888128889e-03,2.593360747427994779e-03,1.838023413874939338e-01,7.329926735875538779e-02,4.267838485193574394e-02
2.166388294829481976e-05,4.801467291072326199e-03,7.895633409925773005e-03,5.892883152946103500e-03,2.247934016665454650e-03,1.087696054592811323e-02,1.861641491331199327e-02,1.426216280617059462e-01,5.545167096585917194e-02,5.545651748537564624e-02
3.494269567360810773e-05,8.748011738172287166e-03,7.885639420277434225e-03,6.570363910877449927e-03,5.630318520828619206e-04,1.067149435420279915e-02,2.804041095307746589e-02,8.864482820409541608e-02,1.993737296033646841e-02,4.711250378312366316e-02
4.842122752287970336e-05,7.818719324616063213e-03,2.362315911872153729e-02,1.046379156475749604e-02,1.143951797385560614e-03,7.162363226248674025e-03,2.541280232206534484e-02,6.557588049053718338e-02,1.717030152549086849e-02,1.539321701455972045e-03
6.175850990776941048e-05,3.880614453457364652e-03,3.968799036499699728e-02,1.631488332841302472e-02,3.769690278019573963e-03,4.078729604481172270e-03,1.584323486320435292e-02,8.731086758189898767e-02,2.993517829049557183e-02,4.531963267676271390e-02
7.461526765264420527e-05,1.613237567446908910e-02,4.952875642687006030e-02,1.876460520201008939e-02,5.684002355153869486e-03,4.274107043818627626e-03,5.931001010208057471e-03,1.254364479209169048e-01,2.434969045678720898e-02,4.652681002879222733e-02
8.666203433376570722e-05,1.819784816965576771e-02,3.347877112227670704e-02,1.258274413531845076e-02,4.286137556532134373e-03,6.348932611445866868e-03,4.384547879804703840e-05,1.562800988093813737e-01,2.675925830291583235e-02,7.409854147478118699e-03
9.758698957932605909e-05,5.775091687362824203e-03,1.744674912527909016e-02,1.050940186373425581e-03,1.826900067477474896e-04,7.514985191395594753e-03,1.104610111013998135e-04,1.828610396031327134e-01,8.254806946571531523e-02,1.888092917512259467e-02
1.071033494287627202e-04,1.453421948231543685e-02,8.078275122170715250e-02,1.450066724678205320e-02,5.069863296604843091e-03,6.952721524762890508e-03,2.741663522150451001e-03,2.052779420407860322e-01,1.665953938863690420e-01,2.365671860558638418e-03
1.149561997067874994e-04,2.862759177273836719e-02,1.181322757417611058e-01,2.019150660325407659e-02,7.843244802144270361e-03,5.156837349594080300e-03,9.086775974929544057e-04,2.159844508772741645e-01,1.999257448911342661e-01,4.356913076173477006e-02
1.209286080183470603e-04,2.623329069606233910e-02,1.102318941184606688e-01,1.610719628441684495e-02,7.668305834652976334e-03,1.934922898795198368e-03,1.031350029042237514e-02,2.183872867389455852e-01,1.438384318622303593e-01,4.981058748974642736e-02
1.248468425248152041e-04,9.255310299872211363e-03,7.027769766170816057e-02,5.872193681771343751e-03,5.441089239177247967e-03,3.450177724640365526e-03,2.749814456764470769e-02,2.070557224110438355e-01,2.694985596026802654e-02,9.850217148700712855e-03
1.265845769409005509e-04,1.238039547186791170e-02,2.295507867278942168e-02,5.247251323980876500e-03,2.811727587565884812e-03,1.061014823316782513e-02,4.399384419912969607e-02,1.589738210626640558e-01,1.098056504216533558e-01,3.300116901637069333e-02
1.260659957879089923e-04,2.980389327447184253e-02,1.951616001045610588e-02,1.441134279977485111e-02,8.814440034529511404e-04,1.723784977038989724e-02,5.639199790167107040e-02,8.338260121967328020e-02,2.390463588434563191e-01,4.587502708202916002e-02
1.232677246954667330e-04,3.768647838661292465e-02,5.357637248225587817e-02,2.110084086790335600e-02,1.696344422182046775e-04,2.039098634976637542e-02,6.236679645047187026e-02,2.899908590638902370e-02,3.213452960254112867e-01,4.615627211028824201e-02
1.182195319138426711e-04,3.410539617004125501e-02,7.002648440754535852e-02,2.415509922155436445e-02,8.997629127227013690e-04,1.895475245110291376e-02,5.753586720144434480e-02,1.030511498863309790e-02,3.183825008331134243e-01,5.482720512905225885e-02
1.110037821385696978e-04,2.261982576030978007e-02,6.171667715532564574e-02,2.216496833889650825e-02,2.330356791592021540e-03,1.441143408001652020e-02,4.141204260702657791e-02,8.924111937407875478e-03,2.469760960071755995e-01,5.015259785335469955e-02
1.017536552457323605e-04,9.440075586399650220e-03,3.962690217003100868e-02,1.689296739048427864e-02,4.309829569546529994e-03,8.368744030946064297e-03,2.239973214987880240e-02,4.329282943474548062e-02,1.728714004691328798e-01,6.781714288829861388e-03
9.065016799097881520e-05,3.225473213468994186e-03,2.447927695248882166e-02,1.229743131111351445e-02,4.349238690073928618e-03,5.420083795829196398e-04,1.004413907306560098e-02,7.155510918345703297e-02,1.403891488347920879e-01,4.968138186260256939e-02
7.791806314807216128e-05,1.566528185490784902e-02,2.500211725066572160e-02,9.399765884206153638e-03,2.533272384817971583e-04,8.848224909704844460e-03,5.835641368906007223e-03,9.582966657869007587e-02,1.392885786317427377e-01,7.140273943671883450e-02
6.382065846557584258e-05,2.403315191211356436e-02,3.508411013761014025e-02,5.832223002595839437e-03,6.713236877088294384e-03,1.648594344613203352e-02,6.698184639098738596e-03,1.361695289957398913e-01,1.369622002181448417e-01,5.328801169461300918e-02
4.865377296553253980e-05,2.290018294481077632e-02,4.549922219883127672e-02,6.311165390219994863e-04,1.316422278470650263e-02,1.905096506744533361e-02,1.169510619202921049e-02,1.681696464979569317e-01,1.148061786279457458e-01,2.955574654442246624e-02
3.273886902266604036e-05,1.415447718909959747e-02,4.779056948591327986e-02,4.537594218170018338e-03,1.694536422334943365e-02,1.754480806656544267e-02,1.734286890020481087e-02,1.402308528034199309e-01,7.472769371115652037e-02,1.829975830780343482e-02
1.641556662460973842e-05,6.556106652643037616e-03,3.511609158584087786e-02,8.933188053311291038e-03,1.786498180748035541e-02,1.583877296355754721e-02,9.831545320732546986e-03,6.241464773089454993e-02,3.005646304115350623e-02,1.118167245463890305e-02
3.370192014556554411e-08,5.741495616077461721e-03,1.163143641605441508e-02,1.363043774399087804e-02,1.658705828337712213e-02,1.644808053453997165e-02,2.655670661849639236e-02,1.944620581553159477e-02,2.649218929328173502e-03,1.450350648247055591e-02
1.605488576509474756e-05,9.664429205173243401e-03,5.503362829354960066e-03,1.848884689194123243e-02,1.392763414703162075e-02,1.916594322011077461e-02,8.817648676476860792e-02,6.787466818122939172e-02,1.027208803780652567e-02,5.144159498208357439e-02
3.150464812455412933e-05,1.402075620858800505e-02,4.457376680898468557e-03,2.119450025664269474e-02,1.054944188478015854e-02,2.194835027294428018e-02,1.467911615121028079e-01,1.595274315485654959e-01,4.636439765168949914e-03,1.090127995783066045e-01
4.598451209298135391e-05,1.748983128729374864e-02,6.284784139732857954e-03,2.019249174067985070e-02,7.156113177321603118e-03,2.250172977007528288e-02,1.735964583983532206e-01,2.055087523634240576e-01,1.541958716334835763e-02,1.317232500782514748e-01
5.918576327036994590e-05,2.097427844840494063e-02,9.617915892263451810e-03,1.699283978342400886e-02,4.829884393330063398e-03,2.020753097401269821e-02,1.644847680680948665e-01,1.823042832001729729e-01,9.875687175949075802e-03,9.726842938917726333e-02
7.082944034987107809e-05,2.480467428409494773e-02,4.780205445299898995e-04,1.444385040245193402e-02,3.975185533919249961e-03,1.627262920403361318e-02,1.365234534256043464e-01,1.254382553511750598e-01,7.403889310001585122e-02,5.807172419182604628e-02
8.067306585749476917e-05,2.712844054872062469e-02,1.298489950428416764e-02,1.337736019281869984e-02,3.289065492663290242e-03,1.182434099564373849e-02,1.060922164610608592e-01,5.956029828012951444e-02,1.485366534722222243e-01,7.433817052480028165e-02
8.851656090507529324e-05,2.378207284547352932e-02,2.315127796053945836e-02,1.242088210775524164e-02,1.468517122294066496e-03,6.792838849433979580e-03,7.747864961311429211e-02,4.516097338430367231e-03,2.075922767947016578e-01,1.339070266594629410e-01
9.420720396776099004e-05,1.214300456719294603e-02,2.963485697700200122e-02,1.095851322769404029e-02,8.278512371676426205e-04,7.215046404093301488e-04,4.911720293996368891e-02,1.062214996976573213e-02,2.427600736774755963e-01,1.685093112140369498e-01
9.764349867031080091e-05,1.720234225261235402e-03,3.581611712754931287e-02,1.055633190409419921e-02,2.114821415080002723e-03,5.620926097562832860e-03,2.359764960508953929e-02,1.031857301469342181e-01,2.439656300885443829e-01,1.384478409986778791e-01
9.877785260787330678e-05,4.202218682383861842e-03,4.479179502473382146e-02,1.285933340472297272e-02,1.935723512664605734e-03,9.569903290723240016e-03,8.247907811902252528e-03,2.174723040266833829e-01,2.003492198610850594e-01,7.902748781334904826e-02
9.761803214925631974e-05,1.023229466424219539e-02,5.613930497825350696e-02,1.677858952805220613e-02,9.291732947482109076e-04,8.655418363544511995e-03,6.633868918829438979e-03,2.623919433077203656e-01,1.306726847750624143e-01,5.577651681703742204e-02
9.422736103949534226e-05,2.852928400103192652e-02,6.428204071525370211e-02,1.866136711524945049e-02,1.729725883047196879e-04,3.787449556984874045e-03,1.261596256933595998e-02,2.266597902736529335e-01,8.345285553846897020e-02,8.616072137024917421e-02
8.872358255957237016e-05,3.325527146909205284e-02,6.371536776312997086e-02,1.614960142806344187e-02,1.012277583219397051e-04,1.201641765010240306e-03,1.493717443616037616e-02,1.686357618476498899e-01,8.937020388953866024e-02,1.257573017965567530e-01
8.127638780724584229e-05,2.348901046470888362e-02,5.567402443330994599e-02,1.122447541917610987e-02,1.700467720345214678e-04,3.459194613218709823e-03,6.734440945022144263e-03,1.334869350801803356e-01,1.289230499313653022e-01,1.254266439286867985e-01
7.210380953835687909e-05,1.247538482498745764e-02,4.561323984737297721e-02,7.674356691931431655e-03,9.711135372522668825e-04,2.756947355442353545e-03,1.086263467900534102e-02,1.260213497063828458e-01,1.617148355770393064e-01,7.684530556371721444e-02
6.146760115887640820e-05,9.296149754087637898e-03,3.649360806286980341e-02,6.503121147949762412e-03,4.885091672615936081e-04,4.571025032344326155e-04,3.312775833836726497e-02,1.335316645585893081e-01,1.750411324752685627e-01,7.377920171349575638e-03
4.966738742778793470e-05,1.188570372983124325e-02,2.875902372056975478e-02,6.174904046061633830e-03,2.491532641044812146e-03,5.860063729441021031e-03,5.579327802974620026e-02,1.384107144096787256e-01,1.826934050816531596e-01,4.420420446726069930e-02
3.703362034267693528e-05,1.359874536011353337e-02,2.293682051898660382e-02,5.794293023990731983e-03,5.840471086821945323e-03,1.166567502677167550e-02,7.341646453934216887e-02,1.279764890559466906e-01,1.839108620868364075e-01,5.216845401905817470e-02
2.392017000770270727e-05,8.760809978189331229e-03,1.690002682729076916e-02,5.088197373535711943e-03,6.911299082366161722e-03,1.489233492263996803e-02,7.878808995089031653e-02,1.072539381738304987e-01,1.512778528051756943e-01,2.541155644978354555e-02
1.069694414156584591e-05,4.572059729874729944e-03,3.735950320596210638e-03,2.881226227918854549e-03,6.416326801448686036e-03,1.427805897433079112e-02,6.937196516710467109e-02,8.763946281141765660e-02,6.359583604197181772e-02,2.230560382772207514e-03
2.258721703541959343e-06,2.142064755209650839e-02,2.169642987622929370e-02,1.562648348715672906e-03,6.718780639758490693e-03,1.140194952329462268e-02,5.283252288689791604e-02,6.672227041180527063e-02,6.500647438161978597e-02,1.398324082119026951e-02
1.457222373415817739e-05,3.263483046655317465e-02,5.378161073783269130e-02,6.735754194050175281e-03,7.660155003427256831e-03,8.560174919246711991e-03,4.118116330892049315e-02,3.836384971903736285e-02,1.914238269609083443e-01,5.812180845646572336e-02
2.588013172187292755e-05,3.461093710529843104e-02,7.752259280466466951e-02,1.012888935368711461e-02,6.760727067785131036e-03,6.601494821415445496e-03,3.819457142214081891e-02,1.781299415138921927e-02,2.735245282375232678e-01,1.072780344610714531e-01
3.583553075361376627e-05,3.233880569176600384e-02,8.181413824979096028e-02,1.079060626126512011e-02,3.033123780749034850e-03,4.710358621497625492e-03,3.675166591595096371e-02,3.227129503552794015e-02,2.946145863539043064e-01,1.370970106497681751e-01
4.411658382959249541e-05,3.004562700106845619e-02,6.956726010612919453e-02,9.889253509169856210e-03,1.486236496239878987e-03,1.587994943136751980e-03,3.087138933715161820e-02,8.019941381516230983e-02,2.591726532523121462e-01,1.460264479323235831e-01
5.044081633078311382e-05,2.443377592909503834e-02,5.121389545881616795e-02,8.451308161494154245e-03,4.336520021006312967e-03,3.176532636442871635e-03,2.267036534554384142e-02,1.257615892104836097e-01,1.746058425323125385e-01,1.499640697948590728e-01
5.457109239053644772e-05,1.187011539875109344e-02,3.272067665101677236e-02,5.532252198234128421e-03,5.473952061711619133e-03,8.767494684991009035e-03,1.146758467202642351e-02,1.437495357389455830e-01,5.737620904567591884e-02,1.521795121718602928e-01
5.630701342418509129e-05,2.547670845741387222e-03,1.694783803326261468e-02,5.276932850194985397e-04,6.443377038156355811e-03,1.370893699735306961e-02,1.181531512105908274e-02,1.387719820130256798e-01,5.163631340953284826e-02,1.252148020699067332e-01
5.549102254624957713e-05,1.015456930097621314e-02,9.819996851473776142e-03,4.105669146909874181e-03,7.503602017894141739e-03,1.649087346382581767e-02,4.815636425358712364e-02,1.163162239830413669e-01,1.136007935292143584e-01,4.322913025500545181e-02
5.204291257571000737e-05,1.116828602780876173e-02,1.312769026705982132e-02,5.764393298114700928e-03,7.588616550056692320e-03,1.650717217725509306e-02,8.113031264751105476e-02,7.611998676351486304e-02,1.341589994155157062e-01,6.792150371223269756e-02
4.596016977281662113e-05,1.437484436516330878e-02,1.540780974329002129e-02,6.087170119692489681e-03,6.759821268219087624e-03,1.469938582959493673e-02,9.603588343800009697e-02,3.431813052063194258e-02,1.483870230978569238e-01,1.404726047094506935e-01
3.725296077824660220e-05,2.417863788227194929e-02,1.798886072953866880e-03,8.886294246809452527e-03,6.063904872429695496e-03,1.245062874934283262e-02,9.637008307477988589e-02,1.615746102033643883e-02,1.699252069310314417e-01,1.362104883386074383e-01
2.594635066936289006e-05,3.565527199932027463e-02,2.826487219144531784e-02,1.442714351917091450e-02,5.089699443248467056e-03,1.011591106995779824e-02,9.283141797793241501e-02,3.141052880445300427e-02,1.869200678384356773e-01,8.815311920715182548e-02
1.221970025380788567e-05,4.290860962166541392e-02,6.097559474285405012e-02,1.884398782042057477e-02,2.377187328305507569e-03,7.376795889020404395e-03,8.775544458697628891e-02,7.036307124935979596e-02,1.961004517704174055e-01,5.744406351606046179e-02
3.598121656635988448e-06,4.408503176291810738e-02,8.271191185182151517e-02,1.907440619858465081e-02,1.735144894054111006e-03,4.184181571727489495e-03,7.666517304150341494e-02,1.062561312196581148e-01,2.036933954412332992e-01,6.288220170871842984e-02
2.133436980314208054e-05,3.776015152588976798e-02,8.753877390801206859e-02,1.558963545299153070e-02,4.959322440174056441e-03,5.600679254696076630e-04,5.653213757147785429e-02,1.037585899776145570e-01,1.973998573406126611e-01,7.035156598578569398e-02
4.098193431793812757e-05,2.303690628549886696e-02,7.545595615916858567e-02,9.988225059075039880e-03,5.904481716650564031e-03,3.696349375901575307e-03,2.788746447409945831e-02,4.735620640034107764e-02,1.521259986035200518e-01,4.514402546664185445e-02
6.206233581255005247e-05,4.872529701011251227e-03,5.290225328167677543e-02,2.805047960437615038e-03,5.431744376094043564e-03,8.342317978839707340e-03,6.871264804226132061e-03,4.382349652524594741e-02,7.222229228005545842e-02,7.675267097192846159e-03
8.360760899687633921e-05,7.628749514332842582e-03,3.171550339279970848e-02,5.349295881768057447e-03,4.989713186333190852e-03,1.219735043389425649e-02,4.273366079024573660e-02,1.380206825599817888e-01,4.526913095016206305e-03,5.830060462019719114e-02
1.055419882348024058e-04,1.095211939252472080e-02,1.933562332191835625e-02,1.264328729950497249e-02,4.921071050795054747e-03,1.403339884632007727e-02,6.944903137975112772e-02,2.147748187448559609e-01,8.552442920869547660e-03,8.628607180031572232e-02
1.287808450647321096e-04,1.070501079553109851e-02,1.250824660281473280e-02,1.702269017069272389e-02,4.814381320631224218e-03,1.390654433673143772e-02,7.525124919840077420e-02,2.651546241783723779e-01,2.205390342931697750e-02,8.981537820952478768e-02
1.523085874075734078e-04,1.255620407193820502e-02,5.370243125619808197e-03,1.770153421685753681e-02,4.524913597765284519e-03,1.303983481825622681e-02,5.905689678617824512e-02,2.851372966177913026e-01,4.870942869190152125e-02,7.679624805609987226e-02
1.729184874463086453e-04,1.408737387908485204e-02,1.081530706862570898e-03,1.594281727727291445e-02,4.244571933754602219e-03,1.239972195918381120e-02,3.637079046153731537e-02,2.790079565385307769e-01,4.496183431205569986e-02,6.016725836940475108e-02
1.914744361158723007e-04,1.057233086019028663e-02,2.319181563724704957e-03,1.453194769719407843e-02,4.048968663202933554e-03,1.197370664214222370e-02,2.702898103315974285e-02,2.647400888791744955e-01,2.445978060269005799e-02,5.548194209774177238e-02
2.136580004185536260e-04,4.583622058754690219e-03,1.034551576869267723e-03,1.527973304420744347e-02,3.830071670682112274e-03,1.142841734704109873e-02,3.743789641801219259e-02,2.632037528916004177e-01,6.678016659496199131e-03,7.193159450765924945e-02
2.366424802829330686e-04,2.956948746818221889e-03,2.617539468672371201e-03,1.698943874641231297e-02,3.542499386385203949e-03,1.080862914411992101e-02,5.761556970107403752e-02,2.742958387282777299e-01,8.482138887181973896e-03,1.036603923508450653e-01
2.471756135487058505e-04,7.093243004624123944e-03,2.266150837711357509e-03,1.727555748406555194e-02,3.285639312451040656e-03,1.033530253822846807e-02,7.375994957045878264e-02,2.708634143224258328e-01,2.692453492923106359e-02,1.314792304952812629e-01
2.500135733985329122e-04,1.242036267736488370e-02,1.124296015521527442e-02,1.579323994673613799e-02,3.110661022925688933e-03,9.908596906194732518e-03,8.108236142885122399e-02,2.272323876847770763e-01,4.511546205913284646e-02,1.348995597156992798e-01
2.727846951930754517e-04,1.525959108412663912e-02,1.854682517634082678e-02,1.398541873990593112e-02,2.876139357522469742e-03,9.272564279529717582e-03,8.497879238210678809e-02,1.540352686148893646e-01,5.973218642763723080e-02,1.079975158145150410e-01
3.054040063010033442e-04,1.570779908280061157e-02,2.337472222897430188e-02,1.267685363443108761e-02,2.501843943085880345e-03,8.644810030262467179e-03,9.047238920958218522e-02,9.603563133129423834e-02,7.813902255922537676e-02,6.623564027104347773e-02
2.879923953477573424e-04,1.539632994641670569e-02,3.085881313719323824e-02,1.169383458412882361e-02,2.267544126785508117e-03,8.492701801145897955e-03,9.204465538593560592e-02,8.961605343688142100e-02,1.084884294757847700e-01,3.243416451987232718e-02
2.399436522243040550e-04,1.511179889142023371e-02,4.255934204641097229e-02,1.080144917893505543e-02,2.357462751121068394e-03,8.339247181804114450e-03,7.907057405644218884e-02,1.277767727314922386e-01,1.436694530579377405e-01,1.487870090417733535e-02
2.918742983951366343e-04,1.365832583015841144e-02,4.971511205253770910e-02,9.624430164372171914e-03,2.165150627708618391e-03,6.894763609970989450e-03,5.292457646574969671e-02,1.744828429929736191e-01,1.613666428682786758e-01,5.435315737829174085e-03
4.147079810447596424e-04,8.852301947789232434e-03,4.165206064575930484e-02,7.721895278775675608e-03,9.965995728223036188e-04,4.278965463236840405e-03,3.020959228663517432e-02,2.073085062575871218e-01,1.444974645214824882e-01,4.643415008468855520e-03
2.886993083368129590e-04,1.063878730228944892e-03,2.057751930447713692e-02,5.626419353381034195e-03,4.559241160621428819e-04,2.681837416333351758e-03,2.291979032320961424e-02,2.316268935126183370e-01,1.021804562704027031e-01,1.805471157621352588e-02
2.768203365152424253e-04,5.453396091616180899e-03,1.686134574738476369e-03,4.635555927272053817e-03,6.679068026590799468e-04,3.469134126751874207e-03,2.391885227878423614e-02,2.529207569779206577e-01,6.365116081052109298e-02,3.467554488700353571e-02
9.758782245511774672e-04,6.639211301616491229e-03,3.641332321252279281e-03,5.072479667109167784e-03,4.860541838796822922e-04,5.232890655864448279e-03,2.108493199803518001e-02,2.566721167177404284e-01,4.936573074341619322e-02,4.855116667323287200e-02
1.293801947646448748e-03,2.845847287128137979e-03,9.824355831711600526e-04,5.769138342763488643e-03,1.481142037480517133e-03,6.021824316383496932e-03,1.709686491039198036e-02,2.304617869019804921e-01,5.605551373767338197e-02,4.982948757536469903e-02
9.968330959137957064e-04,2.168106446996023902e-03,5.273771045301874245e-03,5.311884736882843162e-03,1.273254447310004063e-03,5.606723106875668994e-03,2.099344200318667419e-02,1.877120486428969226e-01,7.030214726258268709e-02,4.276841728838116918e-02
3.142720474187505556e-04,5.175023431679576583e-03,5.526735757843755266e-03,3.128954887797033568e-03,3.047143659238827577e-04,4.372849061617169533e-03,2.575305501845070663e-02,1.470335045319418332e-01,8.516102309824219452e-02,4.951943189126126882e-02
2.350331060784914474e-04,5.562913129959945642e-03,5.026486055128872102e-03,3.056059482456419726e-04,7.998744668786318983e-04,1.920434714608328835e-03,1.355528599032060702e-02,1.015136510463729852e-01,1.002643355256979674e-01,7.997837406938168581e-02
3.408340173778087560e-04,4.642693033900475996e-03,5.939222499100727838e-03,3.965263435759501520e-03,2.273668941587046136e-03,2.079938874306227602e-03,1.603877765683271381e-02,3.269687121832046128e-02,1.148093467555975633e-01,1.109817496441955348e-01
2.032939417620377182e-04,4.250534314080519661e-03,6.499173968298546829e-03,7.064962315557487410e-03,4.296663734836009794e-03,6.737202325038893665e-03,4.252546449634072440e-02,5.121200184396249022e-02,1.252964737589193356e-01,1.128961827770585125e-01
1.519595688899466114e-04,5.835514978762377548e-03,5.284686354162027207e-03,9.118571074466511744e-03,5.825073954336902962e-03,1.024975008815464522e-02,5.157459620484261542e-02,1.118569539786663791e-01,1.274774889843120762e-01,8.428502151227212913e-02
1.982683618799796293e-04,9.124703363737647274e-03,4.255291046211161221e-03,9.451218592537943136e-03,5.373329837458795492e-03,1.133009851914727056e-02,4.791701763935166808e-02,1.222338224820719715e-01,1.203319325529319250e-01,4.451632353702610068e-02
1.924558346430824986e-04,1.093934373166386906e-02,6.132579502234179573e-03,7.630603326224928706e-03,2.926754438690468661e-03,1.056309514118311532e-02,4.095047956323440846e-02,1.028552386664906976e-01,1.091035215803184133e-01,7.011289622207571466e-03
1.532837892044440541e-04,7.856961680302025630e-03,1.065795900593133338e-02,4.414633504696320598e-03,2.514025216314031818e-04,9.700495052702285195e-03,3.364636323875180163e-02,9.681036205712162390e-02,1.013573502096483392e-01,2.361368527499006775e-02
1.831629226864189472e-04,1.928951031201010888e-03,1.555761475304119797e-02,1.371919368557647598e-03,1.001214539171718177e-03,8.940307225276561062e-03,2.445418952428004070e-02,1.066002401381246634e-01,9.907162194546641210e-02,4.278801718303609086e-02
2.124648220155494235e-04,2.911286436857099666e-04,1.986704086146535292e-02,5.498366265106154668e-04,9.136594187491168043e-04,6.414263726948704267e-03,1.078103005200875195e-02,9.345325833152912098e-02,9.791761334616778945e-02,5.119721229935946666e-02
1.207263304299910226e-04,5.673599371553532389e-03,2.346485001119007208e-02,1.471048407048682928e-03,6.247674930941192776e-04,1.737918072970758964e-03,3.718654397642837985e-03,5.487473768891180242e-02,9.366544565453571725e-02,5.626094320389819076e-02
7.300352232249591598e-05,1.118657557340936581e-02,2.492432389776855911e-02,1.796342612479197168e-03,6.920958772325879957e-04,1.813669632202033954e-03,3.556647118748792503e-03,4.779059079646884312e-02,8.593227034563967470e-02,5.647150646824933284e-02
2.961526966579872047e-04,9.152149819436829203e-03,2.348787904657336639e-02,1.742770461399611266e-03,8.382459591068126825e-04,7.126456156562420560e-04,2.359710827686772525e-02,1.031409620694687113e-01,7.682344117393914706e-02,3.973361404004636943e-02
4.040972685642190039e-04,1.432396239884065579e-03,2.130607076817392712e-02,1.513510545512630973e-03,8.244539114416173315e-04,4.546760189114671356e-03,6.601718551672285107e-02,1.768101195316673091e-01,6.717412928249595627e-02,7.690951831316171841e-03
3.637906162278754340e-04,3.992525009231671224e-03,1.967933902094296320e-02,1.290176053159133212e-03,7.772734388133332008e-04,1.006310685007681671e-02,9.732284682678789267e-02,2.206011681417886783e-01,5.297132231688450599e-02,1.620859833633069708e-02
1.825370858869326558e-03,3.666795683664896000e-03,1.550988523032764688e-02,1.085690799427829756e-03,8.048832478535728960e-04,1.218786076646684660e-02,1.050622898768815289e-01,2.397093153039989988e-01,2.862263649095307672e-02,1.476761673103513597e-02
2.592995000485396294e-03,1.079084321307293825e-03,6.383828496207812932e-03,8.727933715649815452e-04,8.214868769318706132e-04,9.836022183473637145e-03,9.537133484759724444e-02,2.463431468657048817e-01,3.072553017351152202e-03,1.754508261154237884e-03
1.796570279194510764e-03,1.587552521836100477e-04,3.046103360092924320e-03,6.627862872836116741e-04,7.751560334000344096e-04,4.765849280623943307e-03,7.614432467634066337e-02,2.239109088622205090e-01,2.896540744801850975e-02,1.265203137671078171e-02
3.076581334846260635e-04,2.976530631688378272e-04,5.408277612098399273e-03,3.639372944136882483e-04,7.623361736494822316e-04,2.552939115841690678e-04,5.270877508645869375e-02,1.743818031378333577e-01,3.755551872578215267e-02,1.199712506947735874e-02
4.881507206323041216e-04,2.055736886717284082e-03,3.555920257340907005e-04,8.482123336914183451e-05,8.172180769662628795e-04,1.792250699398461244e-03,3.239126348138679501e-02,1.360867060050535982e-01,2.968659350377130662e-02,7.081487178482339176e-03
4.078236625004716658e-04,8.480914246027647027e-03,5.144861393151889221e-03,4.169959528711474116e-04,7.421890286269636249e-04,2.437992995409792290e-03,1.787006904231264529e-02,1.186666916382870529e-01,1.612528341739841165e-02,3.225497691863762374e-03
2.053860806859875968e-04,1.547457426686173719e-02,5.937293012862308178e-03,4.591022263816415378e-04,2.258002389495782363e-04,2.961355842916543572e-03,4.546669389725050553e-03,8.593260668420697745e-02,8.163263526313309371e-03,1.158862025943824432e-03
2.680304686713458123e-04,1.682785668715586561e-02,3.492987891326381107e-03,8.293683085339801893e-04,9.823250447393064820e-04,1.666472636253458128e-03,6.048991108947509091e-03,3.698351480088191839e-02,1.017898407330014923e-02,1.517119159285251805e-03
3.817177736168084223e-04,1.070549002543784260e-02,1.375142170095071479e-03,2.205878018658920421e-03,2.791569767220528249e-03,3.391981604905619594e-03,4.221753516716547118e-03,3.121479879454889736e-02,1.704431690262826413e-02,3.363620519298666893e-03
3.775156819192370403e-04,3.416634986222729774e-03,2.981304507451450593e-04,3.839139693262431496e-03,4.286435153300049636e-03,9.254101147864528601e-03,9.138927253292383410e-03,9.191138567082665634e-02,1.845652333859243432e-02,3.648354649545780364e-03
3.471731595959680512e-04,2.974990541043416072e-03,8.230750642701106529e-04,4.215858573652473892e-03,4.120744217009801591e-03,1.008648891560894739e-02,1.750507854166465788e-02,1.551494257301884450e-01,9.488358045056020235e-03,1.636214290084901397e-03
3.671715454706573158e-04,9.292997832627526711e-03,2.120408788013668482e-03,3.328348309088350037e-03,2.203246588013709189e-03,4.915541526803016842e-03,8.620635887365623445e-03,1.554547519594094152e-01,1.171364811228142863e-03,1.238758587955390931e-04
3.961324479760524610e-04,1.454603093147104759e-02,3.129420637866873415e-03,2.676448675371318874e-03,2.124112795135096377e-04,8.935320314765397409e-04,1.235669668120110802e-02,1.022488683371823304e-01,3.906278107201587892e-03,2.200973735307467857e-03
4.020396331811340747e-04,1.346419127777093508e-02,4.177088030245419692e-03,2.998324035579552887e-03,4.539821729079166271e-04,2.891078272824930233e-03,3.136195909501648948e-02,4.221754675333999618e-02,3.295395361311189569e-02,1.312378446940222487e-02
4.014858741815774228e-04,9.278216806244269851e-03,5.691048793714342281e-03,3.602553846343946840e-03,2.085942059481138032e-04,2.253914250094304732e-03,3.881108715408756321e-02,8.583579558037734980e-04,7.258429148348764792e-02,3.261831710934179340e-02
3.992183465239192174e-04,7.760160983041044722e-03,7.033550190128007480e-03,3.856471857175969731e-03,9.206030113343235434e-06,1.916018206247688434e-03,3.545549876023847136e-02,2.714151533483992809e-02,9.961698548670948339e-02,4.915494449975635338e-02
3.912653221663145832e-04,8.750871841148052596e-03,7.299273206411182636e-03,3.926618332280550940e-03,1.848857233756261392e-04,2.017785800781465681e-03,3.000101879094208696e-02,4.170034887329471252e-02,1.047688133574285890e-01,4.906191701069415739e-02
3.969385009836381463e-04,7.834963539652609402e-03,6.747836378305946577e-03,4.079146638394969340e-03,6.180178458368502156e-04,1.428573754293021528e-03,3.054243802212299255e-02,5.012619107458615719e-02,9.677098834303041186e-02,3.632258644193715053e-02
4.103696866831476817e-04,4.558146656200990146e-03,6.662807017327326831e-03,4.242375834887378468e-03,1.201118437656229117e-03,4.992143980650432704e-04,3.677325288577034529e-02,5.202904692714024892e-02,8.518344763316242074e-02,2.821894381894411719e-02
3.757720729452680101e-04,2.444695724398507960e-03,8.011798248649216331e-03,4.305848813168026978e-03,1.823521913646460393e-03,2.981237642747231169e-04,4.062730914127943987e-02,3.765461710744992530e-02,7.162299610443789710e-02,2.758915501394514774e-02
3.107890496328706846e-04,1.373606961515001171e-03,1.033260354094092670e-02,4.290283519430421189e-03,2.312520932877387518e-03,1.879392886358977662e-03,3.518151246174966440e-02,6.456862614866793609e-03,5.871853932494355138e-02,1.873740652266333087e-02
3.445016436228682047e-04,2.210975158513722120e-03,1.186883126873924076e-02,4.205172917992137244e-03,2.101550747801495846e-03,4.295258368968025986e-03,2.267243914446499461e-02,2.174706897486784751e-02,5.350711838691163402e-02,4.501332291729217422e-03
4.490152383816319081e-04,7.171407141878815422e-03,1.127249187552131077e-02,4.056717359734430227e-03,1.097249915685203020e-03,5.307467336620365003e-03,1.155007639361296454e-02,3.264713271298362585e-02,5.673668804796068443e-02,2.823192990278236905e-02
3.052280040363131121e-04,7.384668080143950986e-03,9.254200833621391287e-03,3.929618662263175029e-03,2.104634642259703078e-04,3.381530163581818009e-03,6.483869802725566317e-03,3.681538843704649372e-02,5.958287219398127055e-02,4.056846424156205361e-02
2.781296099777337484e-04,1.813819332844258058e-04,7.863941852475939825e-03,3.794123541847376803e-03,1.049322412292297247e-04,1.498023891012761151e-04,6.193152117118132412e-03,4.284449947093150329e-02,5.571714650733248370e-02,4.384288809631189943e-02
9.944569182865961848e-04,1.072428694104214479e-02,7.963317536867657240e-03,3.425316749209229242e-03,3.529456034312396717e-04,1.814997142445518323e-03,1.031704103089142212e-02,3.433781195436551303e-02,4.800109247399590717e-02,4.362667852387927536e-02
1.327932851059897236e-03,1.982786359460384645e-02,8.292043134417689462e-03,2.893710925575680194e-03,3.697767552538985293e-04,2.140293732000716695e-03,2.082725061498759064e-02,3.414332498892834987e-03,4.079467312115561684e-02,4.432929271065326471e-02
1.046384314472412549e-03,2.215856973536140667e-02,7.539675317378303349e-03,2.762020915947416451e-03,2.114930561622659078e-04,2.136135547251370899e-03,3.425949836986628971e-02,5.459083539283384606e-02,3.427683409836220635e-02,5.283603065783747804e-02
3.809241477725199563e-04,1.350540563756136639e-02,6.289915387830949736e-03,3.161336499268615000e-03,1.378141298236306789e-04,2.224488828400752235e-03,3.895158401335701431e-02,9.134901077847064343e-02,2.819711876580808380e-02,6.984997265678873080e-02
1.536187368109488477e-04,5.331879870738284732e-03,6.106114061166421914e-03,3.232279383276241268e-03,1.325117944779612351e-04,1.570582738348709267e-03,2.570734544298975896e-02,1.060065978720516333e-01,2.424905698611448668e-02,8.258728723843870856e-02
2.511231448407685168e-04,2.608949042937677709e-02,7.688314549069294283e-03,2.343804133920682382e-03,7.659554941409345177e-05,1.201767482672686719e-04,7.463952736180446291e-04,1.088606152349552297e-01,2.380130443821923750e-02,7.921781693271862101e-02
1.033314612853188520e-04,4.001064648157495046e-02,1.045021092867401413e-02,1.140784894639467698e-03,2.191881444192099785e-05,6.773770964278379939e-04,2.547518419542139576e-02,1.077395993167677840e-01,2.704374971916860895e-02,6.487903629592833843e-02
3.096033196770698058e-05,4.532735731072188440e-02,1.286472358547515078e-02,5.013336519345831062e-04,1.049905519523582585e-04,1.523950875265257072e-04,3.725917620685843118e-02,1.058012626803160744e-01,3.287523736577368377e-02,5.300569417270890871e-02
6.334900937938501089e-05,4.427745427332636236e-02,1.331136214768954135e-02,3.110004026852457954e-04,1.732018800875633434e-04,1.663412620853435032e-03,3.541051997967339243e-02,1.064568073726648717e-01,3.804557626475013610e-02,4.600598482342971307e-02
7.003045873320892225e-05,3.715036300303341255e-02,1.169896197683624288e-02,1.415248119637877323e-05,2.511633396195440699e-04,2.422722429946076554e-03,2.577659879229456108e-02,1.041866116499527567e-01,3.938690466330344031e-02,3.472096563926298923e-02
3.192352427217841072e-05,2.430720220064716552e-02,9.556408305551100657e-03,4.505438130921915300e-04,3.362791030742277930e-04,2.392350740316318350e-03,1.490722281570728246e-02,8.431287489522933110e-02,3.703194326200916209e-02,1.486980868651404698e-02
9.097426054437318229e-06,1.020371756375075198e-02,7.699405903988372317e-03,8.336779645630888053e-04,4.143795438282843100e-04,2.329859483687768754e-03,6.721730852835971527e-03,4.565181527169997339e-02,3.285769181180345222e-02,5.829193212728327883e-03
1.156543051142042785e-05,5.810826923806251820e-04,5.482772741292621377e-03,1.090191333697984946e-03,4.839646652502201758e-04,2.019149170207592409e-03,1.920077962503893496e-03,7.993092979192832973e-03,2.753137063309369498e-02,1.889981029917848360e-02
1.149577289170158821e-05,1.724775801437719580e-03,3.186841676940255306e-03,1.327351810071188999e-03,5.492400252896313846e-04,3.385394163882991716e-04,9.151565193457742624e-04,1.193396366702432869e-02,2.172327218428844742e-02,2.603322270442248038e-02
3.866351008851697663e-06,4.011865126427886265e-03,2.749279119438933008e-03,1.561271467384223914e-03,6.087362973081520768e-04,2.776020093909700899e-03,5.202334587290339055e-03,1.395561123819770953e-02,1.823651234226603135e-02,3.402732361358473678e-02
1.547678341731096705e-06,1.734756642275444780e-02,4.803315040259242830e-03,1.737066604281502658e-03,6.584847084012474721e-04,5.226098187402271854e-03,1.267884822800132046e-02,2.124419083646932049e-04,1.990618729994902275e-02,4.285803196831750039e-02
6.846758472729410937e-06,3.457816785468016685e-02,7.023365267465095374e-03,1.843217490156914915e-03,6.974315702983654823e-04,4.656684348718009674e-03,1.646916729482037975e-02,2.865887702095326270e-02,2.533919071185389282e-02,4.431969910024607939e-02
1.346395421965709451e-05,4.900287310748906860e-02,6.842342430067239155e-03,1.903648209431982579e-03,7.260536229158002629e-04,1.621341506288517505e-03,1.451705321502987783e-02,4.704430124022860454e-02,2.904432275068428645e-02,3.224256109578126084e-02
1.984825340242910301e-05,5.533989780756891352e-02,4.461120762589932016e-03,1.924104325419706421e-03,7.438353919788959386e-04,7.471702519059288594e-04,1.452639642364635282e-02,1.933806679635100348e-02,2.702699674754889189e-02,1.127842293763092058e-02
2.845369161837040653e-05,5.259491074419136991e-02,2.038376779411100494e-03,1.895182775537194173e-03,7.499156826086461267e-04,9.262900811428434987e-04,2.188239178378748040e-02,4.769641021585715318e-02,2.007537057583873991e-02,5.515162343628287819e-03
3.948823592504719049e-05,4.254313349469741184e-02,1.031484089886677141e-03,1.817415954438480032e-03,7.442933993638092046e-04,6.587703380080269866e-04,2.948253270160079015e-02,9.870269907827615430e-02,1.060620668113795156e-02,8.760966976696376793e-03
5.119889199220650419e-05,2.781192685537777973e-02,1.373045731627134348e-03,1.700059775769021580e-03,7.275294721109651017e-04,1.529806163258730844e-03,2.810660331482141630e-02,1.066303297270980444e-01,9.477345476471572133e-05,2.323664332950902550e-03
6.281705584515919069e-05,1.256972626520272245e-02,2.217838055778312278e-03,1.549198739619628241e-03,7.001649528988473665e-04,2.644994865702627544e-03,2.012943401683940647e-02,1.109505122887479572e-01,1.045472625468862188e-02,2.011546936667435361e-03
7.447695294525875096e-05,2.124071676045899762e-03,2.517463194969387155e-03,1.368002503703892505e-03,6.628675041751387392e-04,2.800315625179858672e-03,1.415452162823740284e-02,1.459937992960690378e-01,1.822954509041629576e-02,4.011495701406932873e-04
8.585221301005310876e-05,1.772795985768901156e-03,1.741055267739890621e-03,1.162103897148940258e-03,6.166988188465411880e-04,2.412090843758368710e-03,1.164094499177683803e-02,1.805392867546953273e-01,2.216774216829011171e-02,1.894070629137807691e-03
9.619449581809704983e-05,3.804484800875841677e-03,6.533254252950090185e-04,9.393243973182329549e-04,5.629546358112050676e-04,2.310999437239261503e-03,7.173395970410766445e-03,1.681128915682083003e-01,2.234393847701026878e-02,6.425424776911045806e-03
1.049894376342551091e-04,9.786743410615176067e-03,5.227859754813441416e-04,7.069182085160906348e-04,5.029586696460655593e-04,2.450504693746019015e-03,1.516200597817779321e-03,1.159229441173428021e-01,2.055917214457356895e-02,2.351692752359539271e-02
1.119631837877136299e-04,1.966847180131155864e-02,1.307326324292808900e-03,4.714263087862453753e-04,4.382198515261832242e-04,2.458192634486883275e-03,1.088534947362595692e-02,6.593924903828904394e-02,2.045122753782414871e-02,4.114875249690581882e-02
1.167910732448564152e-04,2.841671122422578799e-02,1.650192100175843944e-03,2.397121228149433803e-04,3.705648777427747692e-04,2.344822906584867386e-03,1.756589508772043659e-02,3.607515944098722838e-02,2.364294672151777757e-02,5.395795450784080655e-02
1.191055284273643714e-04,3.194544809690631759e-02,8.814741538951761544e-04,1.877917187768536069e-05,3.017313908560382511e-04,2.283262266964001998e-03,2.190386281398221807e-02,1.229414951701906025e-02,2.695776176606188082e-02,6.175474288677034601e-02
1.186454665270701085e-04,3.008134130030520187e-02,1.627599131842173219e-04,1.849586667221032670e-04,2.330506926864802232e-04,2.275056305630811151e-03,2.568067978483986810e-02,1.759845621239795183e-02,2.727203010251203277e-02,6.149302134599959890e-02
1.152654144314359345e-04,2.593238724736463344e-02,6.327061011379822358e-04,3.658065657595601728e-04,1.661642763849547483e-04,2.242972184890763051e-03,2.971929539402414291e-02,4.999270482265369409e-02,2.660770269794050097e-02,4.391089878412412356e-02
1.088744398751307875e-04,2.402532157577925293e-02,7.269551572354353329e-04,5.186653851763353478e-04,1.035452341114429312e-04,2.178844496831078975e-03,3.442828960435598967e-02,7.968273076318778403e-02,2.841381890987735789e-02,6.399577961274388258e-03
9.943748800844363618e-05,2.676534347203517183e-02,9.113305841290747717e-04,6.392148105290445257e-04,4.686160727077780990e-05,2.113637875836527676e-03,4.064096719453781648e-02,1.063226813355910017e-01,3.100513533498872390e-02,3.487468090537235860e-02
8.700774272393015790e-05,3.122305712818868040e-02,1.245964618031147973e-03,7.241296920976617382e-04,4.281346214411613249e-06,2.068323004178765790e-03,4.826609809589151728e-02,1.262237355534263916e-01,2.854442088624479373e-02,5.776234241992742741e-02
7.172743580173269974e-05,3.188463629708986058e-02,1.719700193179897431e-03,7.710091752617660547e-04,4.899789219819996884e-05,2.043153581706748986e-03,5.488785059764411667e-02,1.351128665262793516e-01,1.859967141910017635e-02,5.702542880363670186e-02
5.381098876290853260e-05,2.789973679132295645e-02,2.242463468227777826e-03,7.783794783632361170e-04,8.246465382842440065e-05,1.996115166546619506e-03,5.767934059514465833e-02,1.407952114262408516e-01,6.224501834042270483e-03,4.334480299101874101e-02
3.353998030074749727e-05,2.362331599800004608e-02,2.362485721570636681e-03,7.460387204053423428e-04,1.030831829556979571e-04,1.897881546968866601e-03,5.614889839578413033e-02,1.538910802300753056e-01,1.275918751243785513e-03,2.529132609093653200e-02
1.126388600833717662e-05,2.025198143742609758e-02,1.961526793731677501e-03,6.750678793287000299e-04,1.184153493516782390e-04,1.838675512977658733e-03,5.125358639392966348e-02,1.621421946596425245e-01,1.883963463906596081e-03,6.251318991369182558e-03
1.260714109284867402e-05,1.383183794198902805e-02,1.850908836381212836e-03,5.671125282761834731e-04,1.301041883352072655e-04,1.901658369787766895e-03,4.361628444356879103e-02,1.391362610943967515e-01,1.514538667731200362e-03,6.721103210532577456e-03
3.761456891288293838e-05,4.983523574287089357e-03,2.659220033314390209e-03,4.243280008529437672e-04,1.208508123481302749e-04,1.906825014265154392e-03,3.448214948271048630e-02,8.762678940873502853e-02,6.702238066774123676e-03,7.363676699313143406e-03
6.326212844526126822e-05,1.871476957760515166e-03,3.766202876058955158e-03,2.507776589651695281e-04,8.630270074658117848e-05,1.627864089833448973e-03,2.569593331458793276e-02,4.492297225828023599e-02,1.301981757541535376e-02,2.251738913583609461e-03
8.902574554663607374e-05,8.857913168335958265e-03,4.297234863589528484e-03,5.235245306542252977e-05,6.370278013744377541e-05,1.214429307356967511e-03,1.712125756351833700e-02,3.262584389436885834e-02,1.808261791106393832e-02,4.645537144632255755e-03
1.143655640207259100e-04,2.018423059660662267e-02,4.362354780344580331e-03,1.665016697382434309e-04,6.452090247542656897e-05,7.776311021105788718e-04,6.464942585161719858e-03,3.076789076292471559e-02,1.823922349831245612e-02,1.466052161898766595e-02
1.387392532843480047e-04,2.816698751586680857e-02,4.523504066992414460e-03,4.030323633826758374e-04,1.147292032152886642e-05,2.361174662930847542e-04,7.964483973567054731e-03,1.478167691447378196e-02,1.295681223618721026e-02,1.765171119977981817e-02
1.616148557037192283e-04,3.053675987548291199e-02,4.841774525973232927e-03,6.495956823731516803e-04,1.192987685025819334e-04,2.369675237800155342e-03,2.554899506665272296e-02,9.517245137528242832e-03,5.866921237243498920e-03,6.841785097024884188e-03
1.824830917842432858e-04,2.769446339036181481e-02,5.060299244475791047e-03,8.933994667175343190e-04,1.599390344211351058e-04,5.090468814232830368e-03,4.309291089900119109e-02,2.285024110540233647e-02,4.450385338071309073e-04,5.107352661658997456e-03
2.008694964401752138e-04,1.943703391880432368e-02,5.151568808337519782e-03,1.131034249480311572e-03,5.085716351077470805e-05,6.853954599659506722e-03,5.600680795287180103e-02,2.525623161555201612e-02,2.914591433013207986e-03,6.377478993782203891e-03
2.163459925184762632e-04,7.854913130910010088e-03,5.248873026031435941e-03,1.369892078177558118e-03,1.468831122059280846e-04,5.919790916236690979e-03,6.187827433982441561e-02,3.401681439554392339e-02,4.257043921098708876e-03,4.992603790792533858e-03
2.285413020783578716e-04,1.053270101745455625e-03,5.335317185348428456e-03,1.597672310695689513e-03,5.915220475125852620e-04,2.108926043211616259e-03,6.253082013693758712e-02,5.384635457559143468e-02,1.933174705405070470e-03,1.391931362018909712e-02
2.371499795837028659e-04,3.117922758316832039e-03,5.306156821130686256e-03,1.779053769897182523e-03,5.920878830960818679e-04,1.353952826327504749e-03,6.112259532610139767e-02,6.653935923328857527e-02,4.050328409263422372e-03,2.903236429798833687e-02
2.419399887831557650e-04,1.265539425391562240e-03,5.227542971507664199e-03,1.921213347200985584e-03,4.806229040793245271e-04,2.664752856835829768e-04,5.852917382211686448e-02,5.769596025399897909e-02,9.738974468342959101e-03,3.702083716106775724e-02
2.427586127056427143e-04,2.137620155708975025e-03,5.238102683318461399e-03,2.083099813591274361e-03,1.536365235942480654e-03,4.720826185405624896e-03,5.354417546801331501e-02,3.984078720216149838e-02,1.163502792350426529e-02,3.501413928894570732e-02
2.395364737614988273e-04,8.922996349340905908e-03,5.184559918691282812e-03,2.236157573286813756e-03,1.175642698052541948e-03,7.961437239549505260e-03,4.533650227622414153e-02,3.391472470413399443e-02,1.083364603474585089e-02,2.893485504150327889e-02
2.322895627401693212e-04,1.792375695916543360e-02,4.811248417337050942e-03,2.241116389105441038e-03,1.825768041442871507e-04,6.032638530230483541e-03,3.495453086170315082e-02,3.743772240117487077e-02,1.025293151092936464e-02,2.101492068073642500e-02
2.211192476267653199e-04,2.101656331681010792e-02,4.458814049574351748e-03,2.145123834762048629e-03,1.125848304496005300e-04,1.473767805971699062e-03,2.426366096320276000e-02,3.054590182055999872e-02,1.048739297590455151e-02,9.714902498284513563e-03
2.062102459704299702e-04,1.436738122558156583e-02,4.699995920134977107e-03,2.242220839463931158e-03,3.676423716027594157e-04,1.754173454924229077e-03,1.372523760234730522e-02,8.733536319256097330e-03,1.066965146001076781e-02,3.868279640749714213e-03
1.878265826535817818e-04,5.809042497030576790e-03,4.788482032518540966e-03,2.444414028454645112e-03,2.421568529158600808e-04,2.482093027741130459e-03,3.738295372359954922e-03,1.018560661069138618e-02,1.089286317162056414e-02,1.597639779302590518e-02
1.663056203744870526e-04,7.719033475706228026e-03,2.872948240209088032e-03,2.077491507511606411e-03,6.056688708224242232e-04,1.063448627966608441e-03,1.280132907062435810e-03,9.098092574250369810e-03,1.133804026357632111e-02,2.236415435527425860e-02
1.420503010101063367e-04,2.094362974046000761e-02,1.219772534526031120e-03,1.059556366892182777e-03,5.625422310318301368e-04,1.896000824289696294e-03,4.567852133504085241e-03,1.476146951783373178e-02,1.080100431037097838e-02,1.907135749792113547e-02
1.155197729437572606e-04,3.294796530460802897e-02,4.989287607875028327e-03,5.061771090366287001e-04,1.716916788063986435e-03,4.353127782259973849e-03,1.946024568251560755e-02,5.413295282711642897e-02,8.590705458988346158e-03,6.652101986242813653e-03
8.721862188713368539e-05,3.387261615198268461e-02,6.055686482253594925e-03,9.912380340256249540e-04,9.712760494877810359e-04,3.918001043762902105e-03,3.284436105529433408e-02,9.478115441073857450e-02,6.703157507983628638e-03,6.759226339051351354e-03
5.768496091881023939e-05,2.714129218589081405e-02,4.392657458630021446e-03,1.317810241174096741e-03,6.244385874344365438e-04,1.060547133070578220e-03,3.649641599359390587e-02,1.186970897305429096e-01,7.526427384533213895e-03,1.240060720448266270e-02
2.747765546855561060e-05,2.166018632262992072e-02,1.492761502539961468e-03,4.981955212228707415e-04,1.093432434675272423e-03,1.357015190203956145e-03,3.164057992405989311e-02,1.161417983437288415e-01,1.021363080733934947e-02,9.518587452815096411e-03
2.837018649860576473e-06,1.986497848823470108e-02,1.011016874237150986e-03,4.690427245377588091e-04,5.754859617006326863e-04,1.842004951623231338e-03,2.352239815912248594e-02,9.284733486146531933e-02,1.187421874055753432e-02,2.886816717812142573e-03
3.269894803373516498e-05,1.760119891408320689e-02,2.077013538641659003e-03,3.763785174110693054e-04,2.966540671697659882e-04,1.405761807080120780e-03,1.395342908685611415e-02,6.062511643672916645e-02,1.157443994942164434e-02,4.738051508931567964e-03
6.156764263333505726e-05,1.234920807463999425e-02,1.854810663748277834e-03,2.123714308365043748e-04,4.431199171097307795e-04,1.269266014172034220e-03,1.630106033321449205e-03,2.604267054393171951e-02,1.073596526857111162e-02,1.327848720634581398e-02
