2.050765162780225978e-05,1.413979620832281001e-02,1.057806098466651610e-03,7.731840547826492310e-04,1.182763302977962684e-03,2.241209020775055804e-03,8.113988001458120880e-03,8.737037097923150419e-02,5.324802524216467117e-03,9.920703747810059869e-02
2.832228673743288755e-05,1.613767171876518899e-02,8.729832382004306529e-04,5.162918882291779197e-04,5.732020582149255881e-04,2.194271890563601838e-03,1.034231393992021686e-02,1.168622694253213801e-01,8.310642548219523626e-03,8.937392474852501323e-02
3.556508861365158887e-05,1.655959909587107967e-02,2.870086365339387206e-03,2.894616340029191465e-04,3.647331725970992707e-04,2.105143018571549972e-03,9.705199602866245931e-03,1.101981171082000305e-01,1.218241186346574051e-02,6.807134187638454181e-02
4.258446285091738073e-05,1.586047427066784865e-02,5.007402778441303812e-03,1.540893439469569561e-04,9.949908587173695771e-05,2.241806880524699862e-03,8.770974579166864599e-03,8.514845105701117356e-02,1.883699446721341653e-02,4.625319726988100233e-02
4.617005563441067302e-05,1.647912511268413358e-02,7.384702066760383612e-03,7.467114667837979752e-04,3.422065680074398123e-04,2.444705767053504623e-03,5.707933335317699058e-03,5.167997652851544221e-02,2.846795379190302303e-02,3.573143092099511503e-02
4.496291384384104757e-05,1.990300744181639631e-02,9.857328335932705535e-03,9.188350936023397539e-04,4.799231486090502425e-04,1.839978155146298295e-03,1.681407662764849292e-03,4.828662964310294001e-03,4.050746535436863804e-02,3.906966011695019864e-02
4.536968660455886515e-05,2.401075257099459168e-02,1.214252637154412950e-02,5.481111568311100536e-04,2.236131682294510421e-04,1.673666402386630124e-04,1.040214444047497973e-02,5.260729967622992942e-02,5.501692053957894790e-02,4.922283989787004654e-02
5.017191248117578106e-05,2.530556255720858849e-02,1.428892210376597229e-02,5.200282361039580692e-04,2.620916269545182985e-05,2.856631007344105026e-03,1.489969781124241693e-02,1.022419568569652992e-01,7.201940280123311777e-02,5.931694027103450589e-02
4.560426626435720753e-05,2.296637905456836229e-02,1.654036639956875041e-02,1.473691350822069809e-03,1.004389976765322388e-04,4.858957361473118484e-03,1.363493915335576775e-02,1.268781321261190087e-01,8.851092620871368888e-02,6.736500922317992246e-02
2.534656681378362017e-05,1.885896309711051003e-02,1.885057632907529562e-02,2.739192263856842727e-03,1.677025517536103990e-04,5.589993173212075457e-03,9.796006037652552415e-03,1.259417994039028765e-01,9.778337562338995648e-02,7.053359897941388623e-02
1.874573400051752573e-05,1.540029627644735714e-02,2.130575601486437917e-02,3.445897374866167037e-03,3.171708491919179840e-04,5.354887970566859536e-03,6.256674732712668580e-03,1.149443894780499131e-01,9.595162215885082169e-02,6.406490335981661344e-02
4.031019265816949314e-05,1.505172644386001610e-02,2.453262425034797439e-02,3.785951654109334479e-03,4.532567745428945282e-04,4.517735815255356432e-03,2.415751939360025798e-03,1.125075360966229648e-01,8.883791908531596393e-02,5.155637558879875432e-02
2.810736485354489196e-05,1.878091653448159259e-02,2.869712319503285591e-02,4.327447319273373255e-03,5.103909236040559717e-04,3.323504913541324747e-03,2.891320247180304177e-03,1.266458094103548593e-01,8.644272972751651518e-02,4.747116122388707338e-02
4.999069093117805568e-05,2.352473188453748157e-02,3.287466119286457794e-02,4.992104722792596420e-03,5.589381280419800481e-04,2.042774508070141753e-03,7.060018310905598511e-03,1.520846189899460188e-01,9.087699625381351343e-02,6.200036150961484027e-02
6.184626529297175784e-05,2.511939023734675175e-02,3.628902543015120191e-02,5.523205628102822139e-03,6.671057478233338332e-04,6.965287271508530630e-04,5.750030850514029589e-03,1.753078477181971573e-01,9.717038408471558031e-02,9.122149020552841603e-02
6.568031080829542278e-05,2.465306914692578372e-02,3.933183645778072501e-02,6.196866501759502530e-03,7.363436796094678573e-04,8.205699700168360032e-04,8.678771345419021132e-04,1.775447189403577819e-01,1.045304402166950114e-01,1.267682015199998735e-01
5.083101912491317558e-05,2.687753328859443167e-02,4.279741311211827243e-02,7.172180048749191537e-03,6.441747848814912509e-04,2.131928693592349735e-03,8.233528892354036524e-03,1.427434906930307168e-01,1.168488018852384958e-01,1.634780958998715839e-01
2.807862679003387857e-04,3.184946962075130283e-02,4.673349793976792205e-02,7.753465474397439917e-03,5.674660763959194073e-04,2.749155655617693469e-03,1.392572641454730038e-02,7.677202165618811358e-02,1.329065644274685098e-01,1.923280847492710166e-01
2.975395510653846068e-04,3.476409714695857800e-02,5.044219882406576067e-02,7.513609577776148192e-03,7.552247917838008284e-04,3.009877079444327197e-03,1.919900273478630445e-02,1.518827036258600834e-02,1.469822672012860432e-01,1.999567096863295312e-01
6.870979338964355648e-04,3.490142885002235629e-02,5.369082258201703095e-02,7.633307386067120746e-03,8.429543311259648977e-04,3.435981900609805326e-03,2.411162318731402410e-02,4.570973208546401378e-03,1.597745107004714393e-01,1.812933754382801688e-01
1.926669438264785785e-03,3.695110248420389876e-02,5.753868562829767691e-02,9.345809546599881737e-03,2.718675751117567382e-04,3.430659526653714961e-03,2.617352552538190422e-02,1.503503034445363186e-02,1.785984414064692716e-01,1.391270314428098842e-01
1.913331940645703142e-03,4.156629226897462503e-02,6.256682361995007102e-02,1.130566951371752941e-02,1.461990829202826608e-04,2.237280442517712922e-03,2.339014799962485167e-02,3.069686382373280203e-02,2.052488526000171842e-01,7.112737486720267788e-02
6.472985136985095469e-04,4.205151369451094051e-02,6.632744251511250855e-02,1.077097019063323093e-02,1.406709457521080177e-03,7.505125124945097748e-04,1.431352104345240406e-02,1.024068143921923191e-02,2.323472072251872300e-01,2.315856225530511098e-02
3.631672357712041697e-04,3.360520681800465564e-02,6.538204938724972992e-02,7.564609955220179781e-03,4.723772288875637167e-03,5.211955053706358691e-04,2.287713861955495073e-03,2.831789521615104416e-02,2.528722546932644089e-01,1.229360601900575389e-01
3.712066323124693754e-04,2.083762584559437775e-02,6.042251512128576918e-02,4.484631236388560843e-03,6.749520889537416989e-03,1.553927161967345004e-03,2.220589009685672993e-02,4.461356109653354107e-02,2.653266728272269948e-01,1.918706997559909422e-01
6.297148866819457709e-05,1.301902537489730768e-02,5.566778468252909368e-02,3.634037141900637626e-03,5.350767834607694784e-03,2.810095227576775434e-03,3.372025497642851255e-02,2.393818486694701889e-02,2.686636926017625937e-01,2.032809847819366800e-01
6.974342542123723211e-05,1.444434705655613625e-02,5.244643197780059218e-02,5.038354182326495144e-03,2.081233509412800612e-03,4.054655090870014529e-03,2.751090199680795295e-02,2.364894299161330454e-02,2.596136932682112652e-01,1.566799898968709859e-01
2.168146453428230862e-04,2.142501395523919994e-02,4.716197517224121616e-02,8.564236621067949917e-03,3.005000455657839877e-04,5.436046363969996437e-03,7.340014592879834376e-03,9.026570280837499516e-02,2.364483961432261860e-01,8.110109296663395306e-02
2.221799785034874397e-04,2.669959694575796405e-02,3.609399872447729279e-02,1.321951279874048098e-02,1.068971597317768972e-03,5.645433593486264522e-03,1.245510456890528209e-02,1.630875339985717321e-01,2.008011091489192712e-01,2.108227385075185992e-02
1.588033966493319275e-04,2.452642166297753362e-02,1.945495063592985949e-02,1.463145848994574366e-02,6.877767365701876242e-04,2.227967414541649673e-03,1.813271471720325281e-02,1.983272239961707262e-01,1.574630733627217227e-01,5.500924511637680057e-03
1.586653127135335343e-04,1.314609576941449740e-02,1.267450544348497962e-03,8.553516842630845898e-03,1.163748606925621995e-03,5.469666995510401308e-03,4.327014966086945372e-03,1.398615604421167558e-01,1.187123923265490238e-01,3.166571752829490383e-02
1.895073435247510987e-04,3.234804506520977483e-03,1.242491973095221323e-02,1.898021267526547743e-03,4.285220051717362338e-03,1.436024898986605278e-02,2.450007464184217332e-02,1.380375012470655242e-02,1.060461295140632948e-01,8.358343068473900184e-02
1.894193355068714952e-04,1.471850101040553249e-02,1.625874766488717010e-02,7.776787511942583227e-03,6.095464340944021370e-03,1.964696167323404588e-02,5.567487871460582299e-02,1.768610156471954187e-01,1.314560740432137997e-01,1.512716802284881368e-01
1.730778130514137349e-04,1.465492686129922159e-02,9.680726852664122209e-03,4.915234329631573869e-03,4.179452834324144661e-03,1.899069673908183875e-02,7.382910489257839270e-02,2.456507508590100308e-01,1.678069490366761729e-01,2.210339094988601760e-01
1.698767677255980037e-04,9.460322186936582708e-03,1.998714033633984880e-03,1.897665824716199615e-03,1.214093921201647372e-04,1.445167195475403725e-02,7.165045539023699728e-02,2.037531456887060055e-01,1.615791338011885458e-01,2.603154132585496772e-01
1.734284789578202028e-04,1.089903770785888813e-02,1.400023358027347592e-02,6.836203835169247026e-03,2.343832079286315914e-03,1.026013718255308280e-02,5.614628239380924091e-02,1.251430065182164431e-01,1.012924354960073325e-01,2.347855699257350159e-01
1.703486484318717713e-04,1.901853581163081078e-02,2.628305938732948543e-02,9.318050086064563059e-03,2.418934094212130907e-03,8.679268407603062813e-03,4.016797882245036477e-02,7.595076373844950046e-02,4.358830076956834304e-02,1.451507617802055561e-01
1.642381723041869590e-04,2.394886821338765640e-02,3.586389131263144348e-02,1.027717823969573341e-02,2.134899893791812261e-03,8.466788685783288929e-03,2.946345478144017996e-02,5.887277814724985181e-02,3.282881394008386328e-02,3.627878433551200849e-02
1.615427743398411956e-04,2.275575536065695126e-02,3.351601051465626785e-02,8.557324879317212626e-03,1.919147797615156602e-03,7.553380468911124503e-03,2.262227062895762891e-02,5.426260817865769664e-02,3.659249356229225120e-02,3.403212901741776986e-02
1.601328239178608892e-04,2.247304989125858271e-02,1.784315457625790940e-02,4.244099046152849213e-03,1.131579079702768327e-04,5.697211043613994129e-03,1.958278238398233895e-02,5.991278078537110030e-02,1.122675704571821434e-02,3.485721666183573542e-02
1.577962637112212136e-04,2.797166020521759527e-02,1.086820323808373621e-03,4.229406861068944561e-04,3.008406476236685865e-03,3.415280459753344475e-03,2.244310344541382632e-02,7.180539673019677160e-02,2.030370733052377918e-02,2.018149714435011483e-02
1.577529907908891012e-04,3.580061758412646233e-02,8.681356943951468522e-03,9.887327083631088174e-04,4.291187776411620886e-03,3.132673251579356187e-04,2.889896876072200332e-02,7.065748646261006682e-02,1.520407137828239455e-02,8.803628963657172957e-02
1.604243517444100956e-04,3.948987011514371731e-02,1.719984473306056597e-02,1.423348348645947893e-03,1.992253052314148492e-03,3.696281781211049888e-03,3.124013516955570502e-02,5.848660965370253845e-02,1.192546855443203310e-02,1.315909103486105347e-01
1.604766107940748499e-04,3.769067861586671703e-02,3.062239396135660666e-02,2.907366849062980717e-03,1.573534622427180674e-03,7.127452240186782188e-03,2.349362284487765615e-02,7.659305711892358537e-02,9.477515918471518183e-03,1.404304938830246985e-01
1.598353211517985312e-04,3.695250905381515516e-02,4.830807484718327438e-02,5.993101256030704260e-03,3.289901864720984077e-03,8.546598855500912167e-03,7.316811462742400275e-03,1.485587663684872772e-01,4.955973970826431374e-02,1.202751917674308862e-01
1.700314058416629414e-04,4.347539344130215561e-02,6.840495380060709896e-02,9.781383569238230602e-03,3.045334489785344462e-03,8.382922840978563814e-03,9.941293907500746777e-03,2.266726342098899505e-01,1.494960018382623379e-01,7.880495722845211326e-02
1.864969373423110534e-04,5.203410363175588887e-02,8.528474721111482804e-02,1.225897609356046795e-02,2.627237701316878851e-03,8.087347912360948882e-03,2.268864806672260884e-02,2.364610650175958395e-01,2.441551355891679875e-01,3.024648261751913814e-02
1.849095403971777994e-04,5.102050618450120617e-02,8.894408928451763563e-02,1.224245370455569540e-02,2.780907319073954321e-03,8.386441172486030354e-03,3.209503318821114309e-02,1.651468319229157933e-01,2.956886465159950239e-01,1.751681760855036685e-03
1.750547833152403163e-04,3.962423580514564531e-02,8.099603249781266168e-02,1.137327960606535765e-02,3.097658073097463941e-03,8.899909024691322890e-03,4.181513531065268741e-02,7.032899374401412051e-02,3.285155728316253021e-01,3.637861313100319155e-04
2.090758447342636311e-04,2.961083403190406180e-02,7.750049193270988623e-02,1.176095371114370923e-02,3.315342270774552721e-03,8.611205854751773081e-03,4.913638340146932182e-02,4.486952793581466814e-03,4.024350094022562385e-01,3.211842087888285707e-02
2.670742681387936238e-04,2.829694712103267631e-02,8.325857419760314404e-02,1.229534046993086688e-02,3.306455373299494425e-03,6.408263908675633849e-03,4.566939629060980110e-02,2.959407268763582927e-02,5.055065112459938836e-01,6.734646594552963494e-02
2.368314106526839865e-04,3.112284207471995370e-02,8.153253365917191575e-02,1.042806799301965182e-02,2.782894305808232202e-03,1.996316096557329556e-03,2.938363272809503546e-02,4.140370370436953495e-02,5.457943864597200045e-01,7.561890223067525840e-02
1.573953365003180410e-04,3.314710202045021564e-02,6.140233543030926971e-02,6.908292077045186975e-03,1.797445541297108427e-03,3.281016481712445854e-03,1.073563485604690088e-02,2.222002726246012291e-02,4.856507087679209356e-01,5.065601532606206492e-02
2.714438097220337907e-04,3.577568454175743262e-02,3.617408841282857002e-02,5.468294530277386517e-03,7.112693471425356878e-04,6.982760632283793213e-03,2.360693526212521553e-03,2.164768606723321137e-02,4.017426591702090710e-01,2.177901795576419469e-02
5.104341682716425363e-04,3.826828608022615763e-02,2.388574491346683384e-02,7.584332472029728725e-03,4.220718400061867245e-04,7.386640748104670098e-03,5.815976165357870237e-03,5.486164011289431514e-02,3.653840958067886002e-01,2.192156481523781925e-02
3.108749067203012638e-04,3.477551683978406805e-02,2.780734344177690498e-02,1.008450929715665190e-02,1.319279166066359907e-03,4.812614284957156610e-03,1.246374506263219634e-02,6.278786852631522419e-02,3.474666975775970723e-01,4.519760171095538875e-02
4.502680105671263630e-04,2.692713077247578177e-02,4.474628643283986434e-02,9.539903207644199329e-03,7.809188007610810530e-04,1.277028638638085705e-03,1.454203697472905565e-02,6.807337893362205850e-02,3.086456926111501575e-01,5.539139780803502278e-02
9.033331817858015599e-04,2.785141820604948235e-02,7.357026873023442270e-02,7.654458758213258072e-03,1.559215919662515493e-03,9.648236702114907585e-04,1.085788315175385127e-02,7.328606302675620687e-02,3.036456836661171610e-01,3.704727922337348878e-02
4.109934438673360749e-04,4.311513048434138101e-02,1.051679625160824721e-01,9.130446520763575019e-03,3.431689154444788475e-03,9.825986443893332343e-04,3.788088942089402368e-03,4.026111979803723151e-02,3.957247345501120894e-01,1.323463507976737480e-02
3.878574299813128401e-04,5.782548922122553170e-02,1.200829788877690041e-01,1.424087160092982196e-02,2.521685418652012001e-03,1.462938013140961083e-04,4.507617380445011653e-03,4.099473745797488355e-02,5.209242485230974884e-01,3.283066419281799667e-03
6.245955316030332195e-04,5.468796652507876971e-02,1.074148820822428685e-01,1.773428278492478888e-02,1.995548866515055872e-04,5.050126178593495078e-04,1.299357187847030234e-02,1.057585301769858044e-01,5.466951766919354583e-01,9.559089028465018317e-03
4.227783869245137606e-04,3.582016025485559862e-02,7.665785370092817463e-02,1.599484934021220064e-02,1.986467717941166485e-04,6.082884860641334015e-04,2.045046359187730964e-02,7.533711917910351774e-02,4.390004147153691583e-01,4.523083102133834688e-02
3.422779913662542142e-04,1.585561482364282807e-02,4.534525300306761764e-02,1.107971886773484807e-02,2.008283408801918128e-03,2.338611927621722045e-03,2.261528000433876348e-02,5.105815855675393394e-02,2.835410655677751413e-01,8.329029689665312652e-02
4.494042043515643521e-04,3.024757358302208529e-03,2.296845991660650260e-02,6.575979553490015998e-03,4.480489218261625613e-03,3.756855385735062731e-03,1.334004974599691321e-02,1.881625449653085147e-01,1.615646752832699262e-01,8.543831871550736090e-02
5.076225210110592734e-04,3.323348373962430741e-03,8.323696876285872209e-03,2.986893828529455994e-03,5.252138663659429441e-03,4.701278257594396041e-03,6.371164893053945372e-03,2.463924037282732848e-01,7.313394620008697999e-02,5.318828645246949371e-02
4.812974557643516569e-04,6.191929373524518269e-03,5.490377236983302184e-03,1.546238761016982197e-03,4.617168675812690151e-03,5.572007848754609478e-03,2.405648264187422447e-02,2.060750167223387164e-01,2.377045677150824848e-02,3.155971820624313418e-02
4.685853796524700387e-04,1.057032865629204191e-02,2.466339567216974116e-02,8.048031381280150443e-03,4.037307891168435449e-03,7.159224024793530566e-03,2.823018281000236329e-02,1.048244241876575555e-01,1.436187296672294111e-01,5.405658135011934956e-02
4.809813607813991760e-04,2.141031545938519229e-02,4.876606393738216333e-02,1.544846812595812753e-02,4.313814091171404644e-03,9.584053315182899241e-03,2.067346983133096575e-02,1.846690838611841912e-02,2.583457578994745596e-01,1.056115338883862609e-01
4.954957506421209289e-04,3.560808573308445885e-02,7.072234852731289212e-02,2.173716484631208964e-02,5.199133563444162734e-03,1.093639667184922830e-02,8.380015333511835543e-03,1.327835452831822027e-01,3.390930423077078704e-01,1.420266313422584858e-01
5.205953129273517815e-04,4.242043060065269627e-02,8.176027156756443537e-02,2.476797261717240267e-02,6.065882281564023704e-03,9.050700639888758364e-03,8.415394191737056440e-03,1.945620067870514613e-01,3.819332448620307296e-01,1.333308410486655771e-01
5.186731410736261823e-04,3.609154052951537434e-02,7.480694355457484512e-02,2.170792826449208582e-02,5.885434960404421940e-03,4.889550468011443288e-03,2.994247160803895427e-02,1.729255018172858593e-01,3.804011336049031300e-01,8.725747697896626964e-02
4.538227269606744845e-04,2.344461984128945811e-02,4.912927355310549304e-02,1.094946176106169344e-02,3.623980492911034641e-03,1.831178425350569365e-03,4.781739871089439597e-02,9.847568805753462162e-02,3.174158093766610289e-01,3.534047033157929757e-02
4.460691103835258886e-04,1.590317780414906429e-02,1.751259602143310015e-02,3.190893874428383636e-03,3.112322742072766131e-04,1.765300784183008488e-03,5.285730619431350252e-02,5.019889553166519136e-02,2.153919499731113962e-01,1.410227230310111268e-04
5.839521200490144530e-04,1.694444190360878608e-02,9.379727223663555588e-04,1.192489684333882666e-02,1.110125290956820053e-03,3.732223410078319616e-03,4.505387000468462355e-02,7.688851649833712554e-02,1.444236851870198124e-01,1.802158291560216133e-02
5.946474086535411419e-04,2.101230468266868795e-02,7.473446762782300773e-03,1.181847570045974766e-02,1.280088938793761560e-04,5.816728656840438119e-03,2.948165644372350083e-02,1.449590452201352520e-01,1.421830521819203441e-01,2.095982651182058676e-02
2.770889781897538482e-04,2.415109040008210986e-02,2.426698242498943892e-02,8.529027627875513523e-03,1.273020383900514384e-03,7.121368485437578472e-03,9.983290225558126563e-03,1.814412561768576071e-01,1.746571985274494865e-01,7.317172572132572481e-03
2.243298513486283131e-04,2.981658771061817398e-02,3.726104775314080519e-02,7.463216022580756656e-03,4.628356445685936861e-04,7.956084492587858076e-03,8.294947966349957083e-03,1.621627931681410839e-01,2.060892119152751278e-01,1.332038113786226767e-02
9.177276642488628542e-04,3.959077938093955723e-02,4.598456611070673300e-02,7.010848611776477647e-03,9.101096032145144545e-04,8.299885427645736433e-03,1.760243729838810792e-02,1.290629996884778419e-01,2.457704415891900362e-01,2.067639289788268664e-02
1.004998394289685973e-03,4.409718540630980926e-02,5.138087187789636134e-02,4.475811447106716780e-03,1.729736047731358093e-03,7.063028797988446864e-03,1.507135222820316783e-02,1.193670110494370745e-01,2.923254442752278859e-01,1.559925705061053665e-02
1.435429951051103757e-03,3.292986882069717791e-02,4.697174503652470218e-02,1.532504299083051798e-03,2.987817153027024462e-03,4.303982139212497032e-03,8.102828506889389257e-03,1.221435969253243797e-01,3.007432418297869559e-01,2.703039708492348259e-02
5.365579623510268251e-03,1.056033158262478788e-02,3.250585099860141963e-02,1.188088866346484094e-04,4.684098846800111189e-03,2.865399571138873419e-03,7.018516263701190909e-03,1.201463968196919835e-01,2.500211717511583998e-01,6.312275094566456579e-02
7.125851118081335395e-03,8.326090488560346226e-03,1.862185693924846633e-02,6.409918900188815542e-04,5.155378718881309906e-03,5.049235515489162648e-03,1.305015224158049929e-02,1.204300526973214880e-01,1.851169989636257396e-01,8.165259332114245538e-02
5.134045169845875486e-03,1.726857284263358383e-02,9.173308439201270648e-03,8.429657134202178572e-04,4.319222387709343962e-03,8.509355303363868445e-03,1.773501215872663392e-02,1.149144135572503916e-01,1.475653585499817899e-01,4.593121196892274716e-02
1.732944521741148049e-03,2.104590402211723235e-02,3.232578089958019173e-03,7.783670135133995702e-04,3.356401731655930462e-03,8.861659616947039492e-03,1.490202778690294730e-02,6.835550511420344921e-02,1.168804561300575973e-01,1.196727403060643749e-02
2.545228519528569219e-04,2.215931207257084562e-02,1.782516230274105301e-02,2.321618026672820755e-03,1.553509535993383367e-03,5.914826608497301789e-03,9.277084172902268569e-03,1.679875259904157342e-02,6.293177143531367146e-02,3.002616076452559873e-02
5.167512011627848614e-04,1.655267757432012099e-02,2.121580044261459769e-02,6.608430691562859919e-05,1.942794849785668340e-03,3.128444828914863154e-03,9.691500505763622417e-03,8.013420563060821844e-02,4.606592306308353313e-03,4.061987312062323441e-03
2.942145067719625549e-04,4.464060598540764424e-03,1.026717786244494418e-02,4.846121439424097913e-03,4.335164667363610412e-03,1.113037191927963203e-03,1.573674023219772192e-02,8.747479021813414635e-02,3.164808271968970466e-02,1.229036190406454336e-02
2.969521442074189678e-04,5.348680422846868385e-03,1.298401488398734024e-03,5.183202337539295594e-03,1.984147867234304242e-03,3.128247447578913834e-03,1.698346604381903435e-02,8.009090218622734458e-02,6.484295799891870438e-02,1.101194662587627951e-02
3.870480473848021620e-04,6.942494017852685051e-03,5.499940487680726568e-03,1.262747497437813641e-03,3.785656189760309986e-03,1.006442629675789908e-02,7.061187552694246292e-03,1.016933602717411678e-01,1.154988317934571018e-01,4.614420832259044647e-02
3.724948113245197352e-04,5.154823703214636912e-03,1.060378724018315282e-02,7.984663277578624499e-03,7.753284219712249306e-03,1.590572083177941784e-02,6.936084606149549303e-03,1.303295623620167043e-01,1.473254553679925749e-01,5.770199777606222630e-02
3.241228731284616056e-04,7.680583624290827742e-03,1.628991515265446402e-03,8.016086165238469133e-03,7.174962968876971714e-03,1.788382411296142102e-02,1.327351547624009385e-02,1.207436083537122562e-01,1.151590712819773737e-01,4.817385409974561661e-02
3.266726797206367830e-04,1.537699008391638783e-02,1.223033711489400488e-02,2.659680057120362897e-03,3.970445434994661349e-03,1.720832666054105536e-02,1.023431393672151468e-02,6.973261744460051981e-02,4.455513522968065909e-02,4.084206808321208526e-02
3.471901032852612451e-04,2.453755878365125598e-02,1.028657582279029516e-02,1.447321055724851277e-03,8.429599868793613299e-04,1.589851785201345374e-02,6.062787311763292303e-03,7.265346935239546181e-03,2.308398648171016559e-03,4.343605487985347652e-02
3.456858527038534712e-04,3.309699948650732249e-02,7.142790972962749854e-03,1.414279918045683367e-03,1.915843748516170677e-03,1.380307937685561551e-02,5.019242697597961315e-03,4.443514529813204911e-02,6.328943474387876272e-03,4.548295007984262672e-02
3.369575951114746185e-04,3.978250688313217376e-02,2.027869646896961198e-02,3.102780266508601073e-04,4.990350213328839137e-03,1.001567527342829035e-02,7.021855968370185278e-04,7.881265951502011702e-02,1.941117001624645053e-02,3.770445917451796525e-02
3.396643243976378134e-04,4.114369346109995190e-02,2.123316947674811286e-02,8.979624167307074297e-04,7.682808266987000388e-03,4.954604067863376850e-03,1.306933896036197723e-02,9.426780239914893389e-02,1.369467940678006229e-02,1.863366890524532915e-02
3.468232003143187445e-04,3.513339819169521150e-02,2.108502336929373236e-02,1.603420060967497476e-03,8.685409621802255356e-03,4.719808398695578429e-04,3.029689238065871176e-02,9.250635151561800718e-02,1.018881728556203861e-02,9.791332724700722856e-03
3.492999702575901640e-04,2.641601543422060841e-02,2.469753238669936471e-02,5.723798003016035548e-04,8.001305984517780023e-03,5.759772856222283854e-03,3.835365453981976619e-02,7.791242314008232916e-02,5.251695501126300847e-02,4.016722772379686252e-02
3.499162692074583836e-04,2.304303139924713736e-02,2.049064785108252462e-02,8.501221463394720377e-06,6.635377929058409660e-03,9.339614959615995596e-03,3.347239763319874439e-02,5.710448596898803214e-02,1.175098064463903358e-01,6.047473791175305563e-02
3.526317431208305557e-04,2.776882308162077415e-02,3.225229763443890167e-04,2.953972679469828080e-03,5.080877208784759583e-03,8.583347017296136597e-03,2.425752385651565313e-02,4.583368857687406678e-02,1.903194711941963435e-01,6.859563484586800319e-02
3.558157827357414510e-04,3.581672867050213205e-02,3.039338447355332401e-02,8.109117836314525332e-03,3.059337132607750382e-03,2.988675823674345408e-03,1.970980668005175782e-02,6.386261835940830467e-02,2.336788253752632438e-01,7.746339811111298268e-02
3.572403220749423335e-04,3.961916230666907152e-02,5.519900016983579627e-02,1.071341502758363200e-02,3.398281902187514757e-04,4.869106309063299907e-03,1.906899969350808396e-02,1.104276231968845806e-01,2.101572756441787981e-01,9.419692860679340640e-02
3.573009633531800083e-04,3.391422854871259385e-02,6.549473448851544921e-02,8.227088391603449777e-03,2.897221595667459106e-03,1.239507071144553552e-02,1.478216406973136172e-02,1.549509120724614497e-01,1.169455949010136525e-01,1.041470963290673096e-01
3.567280140843326623e-04,1.995037039117112526e-02,6.137078817125122404e-02,2.721425259010220796e-03,6.651175532382565606e-03,1.849289593168890536e-02,2.413352927527086071e-03,1.611200997465966900e-01,8.058862625194854190e-03,9.055480796751998185e-02
3.550589599396838957e-04,5.483782763085371346e-03,5.034012554218567775e-02,1.731222773161355177e-03,1.113653782785513011e-02,2.213231960977943627e-02,1.409031424657549228e-02,1.165112595676666835e-01,4.339080412753020671e-02,6.172826978233771772e-02
3.516991234981169199e-04,3.049105179127696054e-03,4.046106720145579289e-02,2.542747066029717000e-03,1.516610110555775826e-02,2.224752941926401786e-02,2.621398093480053690e-02,4.060509015206459349e-02,2.483371116512441551e-02,3.970029904819975808e-02
3.466570512996685043e-04,6.219935545851595915e-03,3.378965234295909503e-02,1.028924791096185593e-05,1.611743445258245408e-02,1.935495622250596806e-02,2.813491577774646091e-02,3.358955438668410204e-02,4.075568546344627424e-03,2.770876992382973955e-02
3.400638390378434212e-04,6.622619812062117799e-03,2.846093139958033591e-02,3.520568004915135534e-03,1.372911254287293228e-02,1.560990764117638555e-02,2.012120204773268362e-02,8.996036935514770128e-02,3.332208260970914715e-03,1.144751110382125070e-02
3.318273506537725991e-04,3.761390800518392766e-03,2.529516446552840594e-02,5.794544930952653938e-03,1.147965528952972665e-02,1.258910025723736573e-02,7.085959217269859403e-03,1.292382143450114262e-01,2.481887256388006641e-02,1.171109066490028452e-02
3.218540044829954080e-04,2.713980430794561867e-03,2.776790911798777267e-02,7.009415711335596072e-03,1.129500847447971121e-02,9.458826876827511679e-03,5.829666623109765883e-03,1.330978958903544784e-01,1.953275242822482410e-02,2.754249623215080517e-02
3.102154735484724318e-04,1.003675793930349988e-02,3.480551398945520153e-02,8.356546186750380203e-03,1.047036031106580133e-02,4.722712321869095183e-03,1.658021403159446946e-02,7.797483645094979710e-02,6.331311559975860009e-03,2.498349677066055013e-02
2.970519209453611489e-04,1.533829270104050506e-02,3.821518893493051905e-02,8.850854200795654422e-03,7.073620535981821507e-03,1.724037377417255747e-04,2.364829886260007286e-02,7.122998127431879462e-03,1.141962673939735280e-02,5.381671821531036105e-03
2.824907184842279377e-04,1.825802056645119478e-02,3.230067986362036153e-02,6.827162635048639010e-03,3.763576548938417539e-03,1.905533185217089332e-03,2.374331348656184143e-02,5.163075143021096311e-03,2.420194561773668721e-02,1.867993875338123944e-02
2.666773856767043266e-04,1.888100450483412227e-02,2.230619855032018803e-02,4.125472945539301189e-03,2.785985229858422597e-03,6.088225587933338359e-04,1.753632328174567143e-02,6.543959641959440354e-02,7.428481910647256881e-02,2.542120542751254847e-02
2.498107278515972933e-04,1.515919196138946524e-02,1.508878800007934333e-02,3.602178436027222291e-03,2.087681901314280674e-03,3.030774312757580653e-04,1.190515293043141118e-02,9.064998375623931071e-02,9.569670478893899102e-02,4.131134608536506624e-03
2.321453348908346349e-04,4.709900596282438727e-03,6.102676206223744265e-03,3.078238790999654733e-03,2.508919885223316387e-04,3.006152952253069582e-03,9.454654849613799289e-03,5.772021804428683484e-02,8.003547816339570686e-02,2.169069671699837276e-02
2.139663658148551915e-04,1.167316643111860133e-02,1.364760493041266773e-02,1.923417394587908103e-03,2.102999304668094066e-03,5.977557576788239228e-03,3.540249861416469926e-03,5.302338445095865216e-02,7.399203101010515260e-02,1.902793392593961352e-02
1.955322459546214131e-04,3.070687378835136594e-02,4.232677231542483764e-02,9.882699766808463945e-03,7.915624508827884568e-04,5.810359442089262950e-03,9.696707163288518713e-03,1.168097259845213287e-01,1.287916922124259789e-01,5.281009927159743648e-03
1.770793714082702038e-04,4.878545604992470114e-02,6.795630836172790457e-02,1.408353435397722946e-02,2.683738221681197453e-03,2.788405141408861060e-03,2.337554487259534131e-02,1.871845453804246995e-01,2.200895287251663501e-01,1.519331907970490440e-02
1.589414085387588207e-04,6.079814795893270785e-02,7.994297142572107107e-02,1.168089776468583807e-02,5.193422858924295026e-03,3.090779375552718576e-04,2.890506200098792722e-02,2.163991056390379975e-01,2.582941300523632910e-01,4.326780774822046489e-03
1.415357111059504429e-04,6.130394628436983129e-02,7.549387675518269558e-02,6.506254541137327166e-03,5.229696147759375739e-03,9.994124244302011410e-04,2.421708115771588343e-02,2.177304469853712510e-01,2.092359258671478983e-01,7.960884120092105200e-04
1.250791036008842459e-04,5.124700177655119870e-02,5.983746741467426550e-02,2.450871127630346695e-03,3.478169094567406996e-03,4.184579811423436158e-03,1.122004858612522978e-02,1.922456920172564976e-01,1.535530455101594971e-01,1.287610653740529215e-02
1.095808943222121294e-04,4.005229945974054379e-02,4.267325470872103399e-02,1.078308920075023592e-03,1.010417035184217301e-03,7.379374834917669032e-03,6.021695255327815834e-03,1.230770475706930989e-01,1.758137463348848628e-01,1.792616642440127833e-02
9.543153618749883489e-05,3.758248672672531016e-02,3.101296729702964980e-02,5.530804813988585145e-03,1.454304421287625675e-03,9.285466352187320138e-03,1.968108621327119279e-02,4.721193542308343288e-02,2.435379462659594263e-01,9.737411039140029395e-03
8.341536371809799835e-05,4.484516032135805325e-02,2.389542155628727321e-02,9.159390392204752943e-03,3.231561880790145228e-03,1.010049733373185460e-02,2.201658385541278851e-02,3.534224704218534574e-02,2.560412167278107720e-01,8.941883040819942341e-03
7.343279793938500149e-05,5.267376696405384751e-02,1.472874889681205154e-02,9.741465684545777201e-03,4.371048556415980772e-03,1.001794859319033414e-02,1.309470827502554752e-02,8.361932947331086885e-02,1.747346448535756491e-01,1.812133691613944733e-02
6.442069915325602451e-05,4.914164974962204058e-02,1.851474697187737101e-03,8.944278906252021294e-03,6.191306246233283482e-03,9.279450089230782336e-03,2.535182435284848070e-03,1.028733407661149429e-01,4.489365926990895178e-02,9.658703358802023936e-03
5.706456212097840751e-05,2.982017152702576626e-02,2.646904302415270180e-02,1.058595560616456058e-02,9.216541309413118360e-03,8.648613269686565921e-03,1.852741929618360135e-03,4.441860457155707292e-02,8.400757990796779706e-02,2.835785624520006931e-02
5.402741093509538946e-05,2.231759426423819692e-03,5.550939403117124971e-02,1.514278097362418279e-02,1.115813053124957953e-02,8.219868085342476108e-03,1.316685998784589487e-02,2.712380667203121223e-02,1.968472810228553138e-01,6.503162124176510572e-02
5.415348465874387791e-05,1.935139205562044773e-02,7.994918363231096059e-02,1.816082074040721930e-02,9.142026694497734640e-03,7.152661489577008536e-03,2.568971698828969447e-02,2.610119008540233085e-02,2.796007516783867719e-01,6.176164297927604768e-02
5.182130802321449636e-05,2.464703585691472437e-02,8.558869079175310257e-02,1.483577853873080735e-02,3.626988499343695559e-03,5.738050021321471246e-03,2.632340450462852116e-02,4.354040083702555991e-02,3.026870175552432429e-01,1.853268980593637469e-02
4.930260834934097828e-05,1.556938100220969443e-02,6.383952940942373699e-02,5.625528448948038766e-03,1.742989523811669947e-03,5.862033065546111074e-03,1.367576027546760914e-02,1.142667360408918809e-01,2.533951268218284092e-01,2.988843323395409812e-02
5.846693938010192281e-05,4.044852695677557917e-03,2.505299771648860502e-02,3.991741459237751165e-03,3.949404445552365077e-03,8.530573259660204424e-03,1.076814170789205417e-03,1.419734912849526520e-01,1.622611680998030936e-01,5.569768845365964671e-02
7.443587273102055012e-05,2.127991166884883600e-06,6.570124595748951142e-03,9.254002794057148915e-03,2.805865051923286252e-03,1.271620511830644749e-02,6.103176924413615187e-03,1.200149822600262706e-01,8.526077330296248646e-02,5.838176040789469501e-02
7.126206568233729168e-05,2.633505318855255527e-03,1.536318971687253634e-02,9.588583800770206569e-03,3.707893843378725664e-04,1.700901765139804442e-02,8.356983617064369990e-04,4.932868326954059635e-02,5.873659672255258229e-02,4.663797227517321731e-02
5.809253277615612445e-05,4.937880350126554879e-03,6.688197178888566179e-03,6.875773087555828861e-03,4.582482292399098558e-03,2.065892798084697363e-02,1.228905047542303702e-02,5.642462718811044886e-02,7.074945935921418683e-02,2.274071092863028110e-02
8.988130143319240093e-05,3.220351437036057720e-03,4.127945372816621376e-03,3.292091192825323011e-03,8.950469438312898957e-03,2.254393399874365933e-02,1.861145208743355400e-02,1.585542905128054236e-01,8.227549851630604205e-02,8.236509885260364511e-03
1.477340391049076313e-04,1.275776980609207283e-03,7.777635382612318321e-03,9.560445070706054174e-04,1.180446078882159411e-02,2.037526300688883782e-02,1.516626417852092595e-02,2.168432964619760039e-01,7.290008222551386252e-02,3.141488063831313071e-02
1.127923245644921852e-04,6.461495723509880738e-03,2.789908679930954219e-03,1.334828028799055948e-03,1.138144390545479945e-02,1.210799626265380083e-02,1.755167752633237602e-03,2.139591678643457673e-01,5.187871004665339097e-02,3.670387835518649361e-02
2.110203878912706398e-05,9.779924988657293788e-03,9.334186505656264649e-03,4.188000250009069753e-03,7.690218556349840730e-03,1.354408016247975275e-03,2.201753720560763183e-02,1.566204720230683356e-01,3.457964967012397417e-02,3.147144329461686041e-02
1.289673510774565354e-04,7.550708069910471235e-03,2.415966870290800483e-02,7.574159240940493698e-03,2.913224965821656007e-03,1.516946510193991141e-02,5.285555102804745387e-02,8.147364166402537577e-02,2.774909266382890455e-02,2.698856998819247274e-02
3.742713601084421654e-04,1.880741977205082488e-04,3.628562749285533379e-02,9.601188763333446882e-03,3.979614039539968329e-04,2.322436164117036919e-02,7.616825127124385308e-02,5.075342451893287421e-02,2.538809085154421913e-02,1.927424521233209176e-02
1.642899141749348878e-04,7.033460119420082389e-03,4.475547802611181541e-02,1.040233007916205668e-02,9.521789656896487196e-04,2.264043326871910400e-02,7.598076773980674825e-02,9.602524369629589218e-02,6.691902318976667569e-03,1.692851903671073292e-03
6.387058283428656991e-04,8.193991175861520954e-03,4.931191694870132314e-02,1.106447395818660126e-02,1.237135334486423469e-03,1.588946804336673763e-02,5.548002274153260305e-02,1.723771889839604554e-01,4.220850777717313762e-02,2.811039621743374739e-02
1.103066031956798304e-03,7.821710728285054606e-03,4.460757355388944578e-02,1.053935665729317968e-02,5.098992734199427057e-03,8.310069735547848113e-03,3.391079697778100893e-02,2.164280066534736147e-01,1.029257198825886260e-01,3.467860675022536865e-02
5.583873866372620611e-04,1.215653656839431329e-02,3.097498628577850452e-02,6.773717763120502833e-03,8.628074243057720985e-03,3.496831693563178835e-03,2.189445292925409209e-02,2.303959213203263245e-01,1.468163813021419462e-01,2.806034556698169119e-03
2.249617138031787043e-04,1.860272486125795835e-02,2.435907711412800894e-02,1.585223676483229430e-03,9.865487762507335959e-03,1.380646054399954940e-03,1.570413356419088358e-02,2.478913610292490799e-01,1.691799558978445972e-01,5.892393168807148751e-02
3.041673787422385163e-04,1.907472688316076345e-02,3.729646015294795641e-02,1.079758373178103109e-04,8.065178934456310178e-03,5.835821780495104895e-04,1.419658597190592321e-02,2.479696027741809250e-01,1.699395662258381123e-01,1.144991661178700881e-01
8.424746810929325256e-05,1.305745570013171208e-02,5.546667395582852156e-02,3.774853118272383096e-03,3.821640486516674883e-03,1.043060801990455333e-03,2.086970075793609380e-02,1.872649166236309004e-01,1.285619687808848277e-01,1.276507281486645717e-01
3.030055476069898812e-04,1.044447209720956657e-02,5.244900442181635314e-02,7.658544511656769672e-03,1.077752849128474529e-03,2.912300400141770891e-03,2.870146565762738897e-02,9.682351380590983880e-02,4.032426617008475628e-02,9.759111209214699212e-02
3.972747753519155706e-04,1.979949945734489972e-02,2.449105934901968720e-02,6.503997345105607363e-03,3.947123232397380284e-03,4.488464840403640077e-03,2.320628678946928813e-02,5.709454141991003595e-02,5.293564144520565562e-02,5.542275452798543778e-02
5.619899889940079343e-04,3.733071469044824814e-02,6.562849735265375434e-03,7.765660613165705460e-04,3.356086604711976985e-03,3.818675027134634491e-03,3.356805621017457976e-03,7.942284827179088569e-02,1.109415575639071116e-01,2.221440099849982669e-02
1.867149018246468811e-03,5.009940799448670684e-02,2.326977524801615224e-02,4.992721271889639587e-03,1.172055732271733239e-03,1.188316022720889214e-03,1.657878470543557026e-02,9.456884380593734429e-02,1.454163734430378718e-01,4.203637283775030903e-03
1.897907885838942673e-03,4.951242351928093754e-02,2.984048513188298363e-02,8.550712389437472097e-03,3.797062199247186812e-05,2.108874247254956258e-03,2.727868586505674889e-02,6.795607132451615684e-02,1.862622490777255946e-01,2.009295045143796171e-02
6.342354690571910120e-04,3.805734038123681495e-02,3.675461369974197118e-02,1.171271805957475008e-02,3.955751081442108238e-04,5.403320709912748029e-03,3.180027460991397686e-02,4.266260668599039518e-02,2.241064790496178905e-01,1.317863834266175260e-02
3.638421433666238201e-04,2.259421631071695247e-02,4.216063296396189986e-02,1.513411362270789505e-02,1.450041888532930829e-03,7.424131604217511574e-03,3.255246504705031768e-02,4.188922546010984127e-02,2.223733909472780657e-01,2.816369131278055257e-03
3.399361948210545179e-04,7.923896645043270251e-03,3.926514610206224831e-02,1.587848549211558213e-02,1.573952491267331276e-03,6.487509218538799714e-03,2.677413131163231680e-02,1.787522807517588630e-02,1.757594933433581086e-01,6.805572507482305494e-03
4.886846211545260070e-06,1.916457305860046374e-03,3.283401128772692190e-02,1.301633317769106991e-02,1.223568513100559835e-03,3.200496621940534820e-03,1.829126981782601413e-02,5.583048891558988619e-02,1.267589700548193421e-01,4.315845170705003009e-02
4.708236105169862377e-06,5.335500119940184485e-03,3.129579704012738078e-02,1.017226698062509427e-02,5.156402513110906229e-03,1.783647632551291044e-05,1.863985812497078939e-02,1.253704709860878341e-01,1.138027477935132925e-01,5.913268273350139048e-02
1.254670260316938463e-04,7.399199097664172289e-03,2.784202949689542836e-02,9.176938102753355239e-03,6.817479070882096620e-03,2.396060352618066026e-03,2.936730025082391615e-02,1.397483554617326984e-01,1.220113158711567253e-01,1.766891459376168302e-02
1.112364464282988863e-04,1.297662301250926929e-02,1.093118418924082097e-02,7.355736499164800511e-03,5.677395384776583870e-03,4.840934247680729087e-03,3.561122889902024885e-02,1.173202476990432147e-01,1.121416556575135226e-01,5.705371425246226480e-02
3.105388673508399004e-05,1.642848406346891776e-02,9.199613479693457413e-03,3.925372076219996349e-03,3.645554620211793450e-03,6.877989788148210909e-03,2.715964234562109891e-02,9.063087671892873509e-02,8.872784398088975899e-02,1.020182121677788295e-01
1.832050130189792240e-05,8.016437676658862144e-03,8.879257544755575493e-03,2.450491266323571223e-03,1.801115066991376473e-03,6.397246359353262087e-03,1.585683529856164037e-02,5.343259305609575349e-02,9.832205391000078953e-02,7.924108325193986169e-02
3.850965984011294840e-05,1.021068295306321559e-02,1.338388173823650690e-02,4.296052245633954006e-03,3.719263982366903315e-04,2.565494668933025919e-03,1.846336642186685237e-02,6.627647362850360400e-03,1.526347434471201081e-01,1.050738495930956043e-02
2.914818239535269315e-05,2.453408280065118990e-02,3.205513076787489674e-02,5.489596775432253363e-03,3.074737432366757978e-03,2.480204431264361204e-03,2.916575464923281194e-02,6.885745397762678410e-02,1.962904328502163287e-01,4.599725426002593265e-02
5.945463376330326120e-06,2.707546603328217505e-02,2.911203686684411818e-02,2.840388473702729500e-03,4.855330012230867076e-03,5.058563771118280636e-03,2.691169292550281075e-02,9.310845727684780027e-02,1.779255509681658132e-01,5.114537716881167179e-02
1.397295920020296360e-06,2.493776390629860729e-02,1.612140687700240604e-02,9.382025094043685816e-04,3.891186322978231003e-03,3.227673934676538771e-03,7.749904985514487026e-03,5.723431827183032838e-02,1.225687864499939717e-01,1.867171595090828459e-02
3.282745803365029014e-07,2.725699082311066473e-02,1.532183565880685348e-02,1.271335562586536775e-03,3.151870340266001440e-04,9.389639750576839151e-04,9.448517644685090061e-03,2.064230729939497966e-02,9.430504386004832929e-02,7.175664049122797844e-03
2.730019843657501910e-06,3.028722700536141260e-02,2.933648351628983381e-02,1.188531738274789659e-03,3.668603927724642649e-03,3.271383763013439427e-03,1.080161063781593690e-02,9.608032827541049259e-02,1.013203776273582102e-01,3.967019255421543739e-03
7.489715326035762956e-06,2.352193894522520631e-02,3.920328413329951522e-02,1.377589962065569598e-03,5.928268873277835020e-03,2.252117957224596990e-03,2.893811761804443352e-03,1.362795224029403618e-01,8.255267584246096801e-02,1.033502605758462693e-02
7.423712162879019064e-06,6.473695736557056463e-03,3.018714197996022822e-02,2.274073415654617649e-03,5.897918848083194207e-03,2.253156067011378354e-04,2.687294962928378755e-03,1.353959638747034011e-01,3.884096003771221259e-03,1.206490797131751051e-02
3.960812406324409120e-06,8.955481894466318232e-03,9.552904244847868626e-03,5.750724304568854972e-03,4.427513879661699493e-03,6.898572045462201228e-04,5.254427259957151174e-03,9.599433737917513476e-02,1.153647329693233275e-01,5.481143767539389637e-03
3.066843661430556056e-07,1.242577855363855704e-02,5.880671176267122935e-03,7.010462191651078978e-03,3.114560259895833311e-03,1.354581593113477270e-03,1.066715544891407019e-02,2.554766226877173280e-02,1.738507683980483332e-01,8.334645637086206607e-03
3.973259857857819173e-06,7.332977908719624793e-03,1.149332035876089730e-02,9.658392053653751599e-03,3.142019165406833865e-03,2.844014708032551603e-03,1.998711371810514559e-02,4.007537756872704693e-02,1.637935473412553133e-01,1.896233891625128537e-02
1.013170785932844776e-05,7.266777147684819541e-03,1.506534758048015329e-02,1.590070073745471560e-02,3.732045281089851289e-03,3.414826133649593275e-03,2.625415789915087894e-02,5.347951906223477603e-02,1.475345169466237283e-01,1.596909567133696084e-02
1.767486796977211979e-05,1.963247945537592923e-02,2.025177624076069521e-02,2.149541556044428509e-02,2.598390053479278199e-03,9.103550880011268467e-04,2.041147793528878471e-02,2.116450998875477746e-02,1.794095867349110585e-01,1.320499906321617560e-02
2.566037851452178731e-05,3.606683710764112261e-02,2.091872554723952712e-02,2.127541543279803937e-02,8.932571808325410556e-04,3.032883868539146526e-03,1.363151247964303116e-03,1.131662376662007433e-03,2.353501951826131311e-01,5.382980812063584142e-02
3.392293586415935289e-05,4.354245258436892363e-02,1.160136839628037736e-02,1.543766323100455654e-02,4.247056347058168584e-03,4.238280928929744409e-03,2.043931341548908126e-02,4.937905080355955642e-03,2.475399689656116453e-01,7.548086865592162908e-02
4.249135860990709983e-05,4.032801933193202321e-02,4.413202561383413464e-03,7.776144315626277309e-03,5.115228030150469236e-03,1.420615456653941079e-03,3.365036647177217094e-02,2.670086222920712432e-02,1.933400671597347575e-01,6.013904254536061450e-02
5.101807352623130543e-05,3.419986544031746595e-02,1.699539793550995659e-02,1.276899844223082893e-03,4.452413759408555688e-03,2.241614951663369916e-03,3.854689481643816529e-02,1.103908156337430752e-01,1.270689088629865238e-01,1.855059938542803419e-02
5.905602147388070962e-05,3.065293325419005122e-02,1.434287196559959170e-02,2.180174658197460077e-03,4.085340338522955132e-03,3.184558507602776745e-03,4.339788909262655425e-02,1.743172191970700224e-01,1.183023799260902315e-01,1.806030282389581992e-02
6.634024463496945932e-05,3.052540958299827800e-02,8.547548171934723701e-03,7.694268557121000576e-04,3.080408017551677750e-03,8.477152349643038431e-04,5.093852375584326936e-02,1.786283973505366218e-01,1.707022098332364179e-01,2.071259004656099065e-02
7.267259861278059919e-05,3.271647950401752880e-02,3.927536935964582449e-02,5.149420936482074218e-03,7.670069745709210155e-05,2.894281588935065496e-03,5.485239484147758082e-02,1.775563390940424202e-01,2.197117930609081282e-01,1.524876031125027911e-02
7.779902062397382018e-05,3.235752052837050780e-02,5.237175068593925842e-02,1.092080536430986223e-02,3.403410004010987665e-03,5.292115793485189026e-03,4.917296359124490035e-02,2.045119927664972859e-01,2.067925797259514975e-01,6.281332703888375946e-02
8.147187681779033690e-05,2.400429952999748665e-02,3.579701371241943153e-02,1.135581732579788068e-02,3.421502603285124858e-03,4.165352156053825881e-03,3.726698401307656366e-02,2.082481597957676900e-01,1.339782514540552028e-01,8.243816967883438318e-02
8.351714441351996770e-05,1.249341145708499599e-02,9.723567640147579710e-03,7.046218198490951032e-03,1.335905182240613466e-04,3.421713204447754788e-04,2.993631699237005520e-02,1.646530270560510323e-01,4.936289141956024668e-02,5.776417281639593254e-02
8.381385334455482771e-05,1.171503767430553608e-02,4.338405104439285384e-03,3.466419812479394624e-03,3.222134080737559629e-03,2.396056784498259030e-03,3.408878259389462595e-02,1.413334816616069745e-01,7.742371068187037242e-04,1.233736432568289729e-02
8.226885787646130797e-05,2.650137133459828584e-02,1.954383116576676252e-02,3.115639448821971684e-03,4.621772356568834041e-03,2.505720466309039034e-03,4.400898434184282587e-02,1.835097975668735781e-01,1.894572541428430484e-03,1.691597472271432964e-02
7.883113653805973956e-05,4.448628130336243491e-02,2.733219659803777513e-02,2.823598203371325503e-03,4.991351641507189157e-03,3.212546812514619106e-03,4.668407345592490848e-02,2.257478901119887305e-01,3.815437759167922271e-02,2.015642895530160225e-02
7.350713483696677314e-05,5.270448598041868604e-02,1.930526571419307474e-02,7.454180433425813389e-04,5.311733983853470821e-03,5.919506437454402289e-03,3.738873039639391965e-02,1.863276109869063113e-01,1.072820565997773951e-01,1.351583060998677761e-02
6.635589656233534315e-05,5.359637795634090290e-02,2.448557079429487804e-02,1.247564292950070503e-03,3.746452440491568944e-03,5.283510162210626818e-03,2.627747386143260838e-02,8.907675256404336273e-02,2.271262976568605152e-01,2.520515301279454157e-03
5.748169855809097113e-05,5.603687709477253587e-02,6.376594084485966152e-02,8.439028466542049245e-03,2.114212185735745222e-03,2.982648807354985020e-03,2.438622597958524027e-02,2.493726116163264700e-02,3.822296003549885968e-01,2.485869914201382577e-02
4.703435484132179609e-05,5.866161657243712524e-02,1.122917600636802182e-01,1.811363119821587583e-02,1.020577309401634464e-02,1.363503015542284411e-02,2.709600227306311129e-02,2.532531984380568049e-02,5.006284078392251313e-01,6.574546553239268842e-02
3.520906009470278834e-05,5.270445775187380250e-02,1.297388778342161986e-01,2.167983125527329219e-02,1.456892264582672347e-02,1.799635097993227892e-02,2.072967899183480317e-02,3.508949129636941555e-02,5.179006319036116857e-01,9.212544790895747793e-02
2.224099634420549743e-05,3.593046840422219751e-02,1.084176372437636732e-01,1.647471591791937334e-02,1.238981455964809075e-02,1.489334142100793429e-02,2.871726449876947987e-03,1.548719337004665977e-03,4.376369677829457516e-01,8.171663942278627191e-02
8.398575137541136590e-06,1.434807525442359337e-02,6.978916765017886825e-02,7.035424803883518971e-03,7.372096457722870748e-03,1.011253476135114127e-02,1.526376142361582540e-02,8.095475839303756249e-02,3.083338305959569259e-01,3.973917413003202198e-02
6.022239406236291410e-06,6.230236867533795776e-03,3.080718886724792549e-02,2.162585387602737521e-03,4.659020668215044757e-03,8.155521313302707340e-03,2.589756737693091684e-02,1.640080232562911577e-01,1.702593470631232342e-01,1.402879956781475507e-02
2.070411447615332578e-05,2.289358481533789944e-02,3.271270625269594948e-03,9.378121341696615126e-03,5.252909699905770544e-03,8.513390517330892554e-03,3.225090246813106659e-02,2.163861691305271895e-01,4.460827036131029960e-02,6.303897007170876365e-02
3.531597955030238575e-05,3.271251519131940233e-02,2.507679222859229146e-02,1.237910099952133081e-02,6.722856052719793085e-03,8.497698273161952837e-03,3.778225922155571681e-02,2.178094026966121421e-01,5.057652835133605307e-02,9.620647422101845370e-02
4.952112499041462718e-05,3.442742726048354795e-02,2.833044555295299513e-02,9.634281517829978297e-03,6.761400399569753028e-03,6.989572680097494266e-03,3.939886056314248486e-02,1.657187363017000037e-01,1.032700246335973293e-01,1.077837707733070582e-01
6.298505050943252741e-05,3.291699702305429104e-02,2.212634691201052078e-02,5.136368088829629079e-03,4.550503640774675521e-03,4.460347980830598087e-03,3.545867352678735984e-02,8.882955885465564083e-02,1.246217046119849070e-01,9.956073018647741690e-02
7.538323617326141471e-05,3.560705658804102364e-02,2.417590445171523272e-02,5.408854720242025141e-03,6.490875219079261793e-04,8.703944653473995319e-04,3.169482198911745263e-02,3.816232858740847833e-02,1.451580112376399667e-01,7.749292650146777373e-02
8.640889389701594087e-05,4.302779609933893995e-02,3.879248698417322311e-02,1.067613620176155638e-02,3.024054027225225958e-03,3.481445566608407007e-03,3.394716111881401766e-02,4.278385421095365349e-02,1.865365305422236053e-01,5.025522312127547742e-02
9.578034326770218062e-05,4.807786085369572526e-02,5.334958503544667829e-02,1.468027406843483255e-02,4.347291521526400714e-03,5.945691078570876711e-03,3.986906495347000701e-02,7.944598858783682993e-02,2.398300729395702324e-01,3.212142715391497205e-02
1.032477112434024942e-04,4.495629281619518275e-02,5.600583923427769617e-02,1.349558617733251711e-02,3.039790314470446758e-03,4.280433316923661080e-03,4.241849052678842852e-02,1.009556235523549339e-01,2.714818522090122199e-01,3.399657561937627359e-02
1.085988627941715903e-04,3.376546161066072693e-02,4.672134564960768455e-02,9.121624859258822132e-03,9.322800808821169339e-04,7.285242516826436181e-04,4.005603026685770202e-02,9.096491800437883635e-02,2.538943517643241776e-01,4.939430753708601990e-02
1.116644736409914111e-04,1.811535855641965842e-02,3.243719448800420901e-02,4.850722732027561851e-03,3.578407156098952369e-05,3.395195387880217252e-04,3.866095991236212503e-02,7.239139372772245007e-02,1.975112348494745818e-01,6.173020446497754637e-02
1.123220943639764984e-04,3.453426594401949427e-03,2.054310168330004613e-02,2.344426507021282313e-03,7.513792863776612126e-04,1.952906726425945568e-03,4.048598271465782272e-02,5.981395335052101803e-02,1.455028016117883294e-01,6.420383866669875095e-02
1.104990746704903994e-04,5.617184120110526452e-03,1.505676479407077641e-02,2.689458019469926579e-03,1.934253539027356531e-03,4.680440775759308475e-03,3.657626780911883702e-02,3.352828280184856624e-02,1.266917043336681092e-01,6.156357306899287729e-02
1.061742677431199691e-04,1.005968767080759121e-02,1.327875427311973888e-02,5.803247324298217713e-03,2.408532616725617310e-03,5.522953996790985406e-03,1.874843342050977468e-02,1.754091604268984139e-02,1.277740291957497332e-01,5.680686567018602973e-02
9.937848975142064801e-05,1.387145751777529336e-02,9.770313883089418519e-03,9.172886376538170322e-03,2.125391447008400259e-03,4.958970380896387392e-03,4.700974582883979055e-03,6.023313500158337941e-02,1.247641320837828555e-01,4.798030584781125263e-02
9.019376293360224848e-05,1.672752119355268990e-02,5.504658397911114595e-03,1.017139613996547419e-02,1.747634148019884407e-03,4.415599288708749702e-03,1.705462952179728764e-02,6.422221691025556400e-02,1.209963636899671763e-01,3.616607245044974744e-02
7.875134145587589507e-05,1.568241612609086108e-02,6.143451836755561835e-03,8.926821984749849087e-03,1.603429607538759717e-03,4.290399239783634217e-03,1.428944922387476862e-02,5.342187360395665718e-02,1.326397357465142479e-01,2.680812466658929680e-02
6.522846530296199264e-05,1.185674917779193371e-02,1.071756069497746197e-02,7.268371101755287389e-03,1.525205676036485002e-03,4.222906907955267623e-03,5.850503916218667728e-03,6.238087460188080496e-02,1.517897312532722198e-01,2.202368832446659902e-02
4.984394509273851561e-05,7.974914638747608239e-03,1.119259609822906114e-02,6.150251604005054981e-03,1.375267839845112404e-03,4.034235368177640016e-03,1.942145085627816192e-03,7.302079780956693966e-02,1.499887441865671023e-01,1.812846294265404307e-02
3.285290798329255332e-05,2.513658727197489069e-03,4.922853693379461090e-03,5.440023688972316258e-03,1.225900063938024833e-03,3.794022138643121916e-03,9.779444466301513011e-03,4.603246916844096204e-02,1.184046242117411385e-01,1.243670599147916542e-02
1.454079037106881262e-05,6.867343109893824654e-03,9.522439375847010362e-04,5.075778858761490278e-03,1.141616349680838133e-03,3.622285708205899134e-03,1.589271674838650325e-02,1.282398395164319888e-02,8.432320498679066190e-02,6.504233237761460583e-03
4.783756120944635611e-06,1.770159874102640238e-02,3.984461486304107132e-04,5.115351934991066961e-03,1.093043871412022541e-03,3.680175381714911789e-03,1.640792107308748637e-02,6.616502723596089097e-02,7.670414958627769231e-02,2.332203156285425280e-04
2.479679637091373052e-05,2.617359605074871462e-02,8.008449599040828176e-03,5.183276230930941586e-03,1.052407945279421574e-03,3.848649042677343424e-03,1.443622862091982137e-02,1.032209361394348379e-01,8.957822156038457162e-02,9.823253826276703848e-03
4.516665796903795153e-05,3.235472095579493279e-02,1.715113622952256847e-02,4.833857417119446186e-03,1.026270574723461013e-03,3.595468324014717068e-03,1.738364436914931893e-02,1.398700684010144024e-01,9.784637664975648352e-02,2.205638525918896670e-02
6.556103936026009171e-05,3.734520050712596129e-02,2.459410548589587020e-02,4.188372921601025631e-03,1.019878150425362591e-03,2.842827671604726721e-03,2.424508205058321583e-02,1.712864108284724851e-01,9.667998203139133162e-02,2.718294149434707929e-02
8.565570568588698312e-05,3.924261951280030858e-02,2.843923322916962204e-02,3.641325139902831017e-03,1.040529154395850161e-03,2.454323479948638132e-03,2.475419032026137528e-02,1.680774782453017535e-01,9.878642818154051430e-02,1.837095615473977733e-02
1.051443320493921816e-04,3.636615303381521280e-02,2.777780805632124733e-02,3.259393542017233365e-03,1.096572917992800784e-03,2.992627553345406262e-03,1.395821701338561746e-02,1.267879274919597732e-01,1.016800107027227562e-01,1.128273392841464169e-03
1.237445450908799985e-04,3.091394886932326627e-02,2.389901467846602609e-02,2.853773279195415905e-03,1.154672700189202442e-03,3.791790511654453792e-03,9.744229571128258053e-04,8.819280438813272005e-02,8.825190369301508242e-02,2.064699099815139188e-02
1.412003725031374293e-04,2.546945411196945008e-02,1.891079802875084495e-02,2.374902933763742459e-03,1.176775179062494996e-03,4.121598040564298203e-03,1.799597107626048917e-03,8.215085870825407366e-02,5.682086584324984313e-02,2.850056495576609381e-02
1.572910990023326403e-04,1.916934165963031164e-02,1.321486689545177395e-02,1.957277215034110632e-03,1.229688869755543677e-03,4.180200145221781884e-03,4.461448050770347798e-03,7.854357198475950264e-02,2.416455747471871196e-02,1.924877852740504089e-02
1.718458045205533183e-04,1.093347520707870293e-02,6.308897691894512980e-03,1.650014533105595687e-03,1.392676980278084427e-03,4.187334483797963518e-03,5.405565062507414371e-03,2.691625241425588816e-02,1.038196183323833455e-04,1.864497815866601174e-03
1.847417273585638534e-04,3.531992811987496629e-03,1.333199802092749613e-03,1.286979072276061165e-03,1.512892849827566230e-03,3.769492019481243596e-03,7.023720998493561060e-03,6.688877028921220991e-02,2.076301901637191485e-02,2.345868244684249856e-02
1.958870077926228872e-04,1.075013373113028418e-03,8.619028575673414252e-03,7.865293096372488963e-04,1.403966955098909881e-03,3.059430426071423504e-03,2.199338965975427412e-02,1.401964799410523599e-01,3.918814252489991046e-02,3.559486907606754236e-02
2.052341597382865838e-04,4.129441529143945862e-03,1.381757032179051214e-02,4.462697802299168135e-04,1.380574270194611557e-03,3.322913812282696656e-03,2.315960049506908883e-02,1.449517820784942401e-01,4.549331201053957718e-02,3.286867921551369504e-02
2.128240313183001335e-04,8.930577320310776473e-03,1.427597488209009398e-02,4.449614823052754813e-04,1.854591068198204080e-03,5.145985321589647762e-03,9.833728928195846486e-03,9.020464028650275468e-02,3.210905144071585227e-02,1.782949554941411219e-02
2.187610949650098022e-04,1.046095344874313493e-02,9.766673965648741546e-03,1.439549370602625665e-04,2.130327998211314824e-03,6.169738829224327356e-03,3.586479077065514616e-03,2.229671922011303153e-02,7.080055826588556311e-03,2.959039572838506778e-03
2.231179131463515819e-04,7.098452765008996142e-03,4.429876502183981157e-03,1.144915721317544578e-03,9.632879265980580016e-04,2.844547442245233711e-03,7.222163000405804056e-03,1.589736490368671290e-02,1.239041622804920237e-02,4.186925988659149697e-05
2.259805105515792052e-04,3.386357594527097253e-03,9.246211142132270203e-04,2.671309978283299604e-03,1.027954592660115189e-03,4.119010449498071783e-03,6.469277490628129977e-03,1.954126542664220631e-02,2.107953074763602858e-02,5.753213385033098363e-03
2.276448937372357666e-04,5.909897149524351127e-03,3.948212013337478246e-03,2.925847297062950277e-03,1.468924414386657724e-03,8.798058845033294301e-03,1.090186998015756949e-02,2.384655640909891586e-02,3.179186873367120802e-02,6.292765081345835093e-03
2.285130175566177932e-04,1.539756550638573043e-02,1.272790405715656069e-02,1.909734879477683125e-03,2.702912384305162477e-04,7.255620321898859949e-03,1.813361657617656303e-02,5.551255129079576967e-02,5.007101949766365467e-02,3.221439052489835815e-03
2.286548399507619758e-04,2.574813949330315502e-02,2.070109270260461765e-02,1.131106887774194214e-03,1.998550075162793503e-03,2.645252814974385566e-03,1.601857338916079856e-02,9.265135026796510187e-02,5.508798822976859744e-02,1.340525645032687556e-02
2.280006394916290970e-04,3.117533214293857075e-02,2.163450688378247902e-02,1.335473956470058319e-03,2.093360054395062512e-03,9.566412243650632488e-05,1.139817767807183068e-03,9.891294614795703710e-02,2.658332889918070888e-02,1.578691436903486428e-02
2.272604489853843695e-04,3.170692585907313593e-02,1.701224532347844071e-02,1.835861314626764142e-03,1.509975803913506933e-03,1.088423576483280855e-03,1.347284047504851423e-02,8.005689536055410338e-02,1.868186495724090054e-02,1.280729025170575415e-02
2.275145306182821186e-04,3.210606374961625514e-02,1.403178344603140358e-02,2.000775112627337354e-03,1.523791781749283180e-03,2.997328867614758308e-03,1.457593858874193897e-02,7.021533228504343860e-02,4.165131536292250580e-02,9.122663005819094811e-03
2.282149632954280107e-04,3.659198125789798334e-02,1.586058582089716618e-02,2.004536443625476536e-03,1.677386380818506398e-03,4.987351922676572409e-03,6.373633196466456895e-03,7.215296316619719541e-02,2.763643140710965104e-02,3.699558848784052952e-03
2.279831660530399053e-04,4.284249208114899315e-02,1.882647372069314040e-02,2.128600323405627822e-03,9.447104402527098030e-04,4.001826357122419305e-03,4.167677855881530419e-03,5.258830791009220379e-02,6.550304874597089044e-04,4.303474720710988993e-03
2.288735048096715379e-04,4.151096364697810098e-02,1.906169091490172648e-02,2.299695321555016592e-03,5.205392062392734734e-04,1.089463676993718830e-04,1.326952152074551382e-02,1.284999715417543776e-03,1.435577015662506915e-02,1.194713900693013080e-02
2.347567460726035450e-04,2.549195236013340748e-02,1.740991952068920989e-02,2.385745138328480060e-03,1.651842854404775166e-03,4.892577166888553708e-03,2.266113714533345841e-02,4.280883704504531012e-02,1.000087458559081877e-02,1.859353952472633451e-02
2.421489091311458534e-04,1.613204032182482400e-04,1.679222049470427067e-02,2.418942360218353290e-03,1.714544109253683495e-03,8.665254983049396065e-03,2.108225707603843604e-02,4.343371433822672267e-02,8.020809255952165984e-03,2.581876353447383823e-02
2.434024869807905570e-04,2.144325941276534891e-02,1.789662657779316282e-02,2.461323519475541212e-03,8.234577097918798806e-04,1.045009971591496709e-02,1.205888031903180370e-02,2.099357889428539459e-02,2.329275102421691709e-02,3.032887978643095464e-02
2.463562953171420352e-04,2.877005553330789014e-02,1.867419895131409643e-02,2.498675124995404333e-03,2.859197222513413465e-04,9.220545973900023257e-03,7.378117663821428390e-03,2.649090600146462166e-02,4.255860501359292475e-02,2.640762649557984107e-02
2.680160679840152172e-04,2.390814257351027428e-02,1.680743428129528177e-02,2.502071102630459062e-03,8.595547028151316171e-04,5.633266010076034246e-03,1.059259253419551731e-02,6.937135366796733094e-02,3.977643980016045550e-02,1.528548569525354887e-02
2.924108133937147421e-04,1.472143461379378515e-02,1.223615395937095555e-02,2.478217320600767295e-03,7.768019504382926623e-04,1.985532153648222973e-03,1.536762480508824941e-02,1.050276665510398028e-01,1.193753885322739600e-02,5.421430125054185409e-03
2.829790083593272708e-04,7.847728289345386188e-03,7.278011752453831910e-03,2.441399259197634623e-03,5.014814298540076591e-04,6.412893214454999571e-04,1.802113052095494564e-02,9.854180615981071589e-02,1.579002907759496574e-02,4.363566117789124954e-03
2.728951884941338167e-04,6.015478528894727811e-03,4.044672543362539015e-03,2.389788845714433275e-03,3.996822777660587970e-04,2.858828700101637577e-03,2.180165261289515252e-02,6.412667008361178089e-02,2.282736279378396599e-02,1.360800954827162505e-02
3.409764246776233586e-04,7.293158875810387860e-03,2.161349359489901732e-03,2.318011412757702179e-03,4.394701291446467101e-04,4.765115894068409907e-03,2.781088308875660081e-02,3.196620827601947407e-02,1.428996318941902835e-02,2.894069940906902200e-02
4.180095380611637142e-04,6.681791086938819284e-03,3.013048399577170555e-04,2.227917644558346198e-03,4.450294266806582508e-04,5.655138159809039791e-03,3.090114077817060143e-02,1.183303917066481220e-02,5.446333547782226947e-03,4.283493350771390429e-02
3.328839669320526732e-04,2.710185440424599072e-03,3.484350542646123990e-03,2.123405447948380296e-03,3.328414673270285360e-04,5.608424959045297913e-03,2.747162652072202005e-02,1.341552399695385492e-03,9.976684101074000284e-04,4.856765872516266569e-02
2.301660665527344250e-04,2.021714213686021111e-03,4.536952161730171268e-03,2.006319307657579432e-03,2.294740476116519448e-04,5.509932879636813413e-03,2.093364799437984897e-02,1.101621167811535872e-02,3.084552971558594814e-03,4.472596849939293462e-02
4.919457403320729155e-04,1.270087334623588859e-02,1.794136688283453230e-03,1.877583162031446797e-03,3.810089598819178282e-04,5.732874600154430275e-03,1.694862635283293784e-02,1.130283218403823828e-02,6.002801998835777426e-03,3.516987734825517686e-02
7.959899926946857694e-04,3.248082254355996734e-02,1.117151478079467328e-03,1.736896414167850983e-03,6.519744634240421310e-04,5.972867777280251207e-03,1.648203447340413838e-02,8.554139629261110767e-03,6.974905314668482237e-04,2.443626287311149309e-02
9.365582081927081230e-06,4.779649977743933437e-02,4.858885181327165484e-04,1.584722846451280158e-03,4.463861186977158865e-04,6.112431619975868154e-03,1.454175137369158148e-02,4.035495426232836580e-02,1.964087496302237279e-02,1.454408588302124467e-02
2.128735575149519679e-03,4.671099419026996519e-02,4.851360246626539377e-03,1.427219318917011476e-03,2.711946668978107303e-04,6.363888313070315168e-03,5.399443041990479100e-03,4.981293876076574312e-02,3.641016335748265692e-02,5.092315467723078186e-03
3.697490738039971477e-03,3.107239395842043700e-02,6.196885661696289842e-03,1.270006071987567989e-03,5.494284724925666908e-04,6.669464074198648042e-03,1.027454887689470929e-02,1.775733879975348317e-02,3.310224087470603482e-02,5.290908228817202581e-03
2.907088777360688787e-03,1.410958087973157235e-02,4.233803397002709745e-03,1.105369117414850989e-03,8.699272262366938152e-05,6.754378217965567588e-03,2.509148540084594342e-02,2.881274218255290565e-02,1.359103410081628945e-02,1.570929556167148175e-02
8.257992100793628675e-04,6.115759592521814725e-03,4.468953146336463247e-03,9.260821926983992848e-04,8.107646253075164377e-04,6.887982263316555151e-03,3.334521509777674947e-02,5.220923801567932399e-02,2.849020583872569068e-04,2.063659950117137029e-02
3.360066368897066309e-04,4.883111454408656411e-03,8.433394588043390330e-03,7.539807789088139815e-04,1.080927438415098902e-03,7.578834149853837243e-03,3.636188248894123981e-02,5.048460537552602878e-02,1.595513381944567780e-03,1.487750597220036455e-02
2.073822584162254498e-03,2.710455496466548930e-03,1.068280787017469868e-02,6.106826286042526131e-04,1.449816276619991491e-03,7.856198204160448964e-03,3.697154796119181408e-02,4.609729755873100132e-02,5.641747584775921170e-04,1.506025626979347158e-03
3.382874536892142413e-03,5.415110042045747848e-04,7.233628657103300351e-03,4.552569606088911714e-04,1.725806728722197037e-03,5.086124811773233730e-03,3.359456435892320403e-02,4.985797189031112436e-02,1.510381141713893448e-02,1.015517832007648523e-02
2.208715043055638899e-03,2.182565424004640452e-03,1.643563588767131631e-03,2.452442698706461602e-04,4.667622648604108533e-04,1.947717012964210502e-03,2.443701160837434203e-02,5.671073300747397211e-02,2.916092511621234951e-02,1.469584625984792815e-02
5.785426035340604880e-05,1.296514493836191384e-02,1.103246092845068874e-03,7.164238274379815165e-05,2.238027031355782626e-03,1.049510071317914447e-02,1.351302224301265120e-02,5.867309381892916315e-02,1.755270042384433557e-02,1.384286589026469810e-02
1.067278328817642882e-03,2.448445297476862723e-02,9.018309691390183347e-03,3.210971129841285691e-05,3.656084514129444296e-03,1.594706632703943652e-02,7.508331935914303555e-03,4.668811715270744511e-02,1.788107656033598863e-02,1.059057551353926804e-02
7.637733040650755614e-04,2.989950817908667430e-02,2.179378036472580035e-02,6.354894242873153918e-05,1.919241703014016708e-03,1.608964239451759690e-02,9.247387399584512321e-03,1.555281394027385744e-02,5.173151024037857260e-02,5.237950854278833335e-03
4.821947415636774602e-04,3.204477907360782363e-02,3.250762465644016497e-02,4.370814611266032358e-04,1.156225321149680074e-03,1.237532188328069500e-02,1.658825712229843388e-02,2.524397417518289485e-02,6.591792134308270545e-02,2.889298329422021125e-03
5.842116592674219660e-04,3.838600506387200573e-02,3.776022349155841451e-02,6.543423428679117195e-04,2.681655944915355399e-03,7.904278987101392637e-03,2.333180529325788385e-02,6.066702774545687515e-02,6.412503612602588055e-02,1.201010312028940631e-02
6.346412020145298033e-04,4.920627534763805100e-02,3.932174482652450037e-02,5.922149779333794363e-05,2.568171357708049114e-03,4.943662767003073610e-03,2.066602438204853676e-02,8.971294387370482015e-02,5.737238419859052446e-02,1.633829739067626033e-02
6.594009370976417622e-04,5.614759350091001050e-02,3.902875380976342234e-02,1.424555955827057569e-03,2.562230294766924387e-03,3.719989000911607963e-03,4.680137534628927946e-03,1.184254892417521965e-01,4.857550717479340585e-02,1.038595755338441069e-02
8.035658231084050109e-04,5.229910885917028740e-02,3.548108149803030215e-02,2.012008676441910757e-03,2.534110225862313236e-03,3.516993185533392411e-03,1.761746031859359046e-02,1.395397905297889318e-01,3.405430123500644002e-02,3.088817792480170240e-03
6.075685802562280028e-04,3.911454427866353778e-02,2.708304952741926244e-02,1.155074995538644435e-03,5.393060702895026556e-04,4.914159188617385141e-03,3.589595136657251773e-02,1.392239027890395109e-01,1.457301435168628992e-02,1.354741485017351560e-02
1.496634875571643125e-04,2.307044448816328655e-02,1.553305714933848891e-02,1.754792650650649271e-04,3.279951100426980234e-03,8.915880224709184579e-03,4.610668552646729479e-02,1.163299125145615537e-01,2.042858713150056196e-03,1.398491929850080411e-02
6.475741717339804880e-04,9.544371316110375134e-03,4.750492366409142866e-03,1.031560557130796734e-03,5.694936908206093933e-03,1.342352556104975565e-02,4.756236747004516374e-02,7.997160485503029825e-02,9.969835584049811794e-03,7.510764242165987419e-03
2.021768242083010118e-04,7.435062004307437314e-04,1.823713006856675194e-03,1.478259981552151187e-03,4.807799310511592754e-03,1.418284539981414308e-02,3.983843911934628612e-02,4.080381572630716047e-02,3.578582267794670757e-02,9.218398420067799815e-04
5.722557641720324309e-04,3.572880736293365320e-03,2.176630819824226445e-03,1.273010496787379013e-03,3.107178763192748085e-03,1.041421646399890225e-02,2.821166315359729948e-02,1.224849448009703717e-02,6.480131223640454852e-02,3.197243439596666147e-03
7.853110427727191941e-04,5.171145152664079550e-03,3.349609485389471591e-03,2.824955727392584838e-04,3.716807803925778735e-03,5.582583046557468287e-03,2.144311502352035104e-02,4.796745586436194572e-04,9.197781435240900971e-02,6.239176622474551862e-03
5.491742704098235856e-04,6.063492101301602710e-03,1.067080491544895524e-02,2.240381774751953187e-03,5.438059737543274146e-03,1.811770042969754364e-03,1.960283028195468000e-02,1.076110653834915463e-02,1.194000508329124965e-01,9.684293800300711186e-03
4.369958418795710743e-04,6.550604916255442847e-03,1.423763278654702376e-02,2.293470465733228603e-03,4.647503582874149865e-03,1.902489005961681499e-03,1.432694959453027946e-02,4.048567232931213344e-02,1.347010850663104831e-01,1.357546746919709169e-02
5.223763422430832259e-04,4.354444750196173261e-03,1.290508948225116415e-02,3.918214959104017610e-04,1.319669408070202939e-03,5.170410907427113768e-03,4.269911025843397233e-03,6.970469464603998300e-02,1.217551926423476455e-01,1.715280937220760651e-02
5.583307068433360351e-04,2.799352909595067412e-03,1.166595108866831654e-02,4.637169045504678164e-04,4.022463841535667424e-04,4.931401699551126415e-03,7.810912150497516943e-06,4.816772129951394504e-02,9.313109124209940914e-02,1.919004034989215193e-02
5.040330804587521592e-04,1.274630568250414639e-02,1.550495452074619578e-02,1.602756821300169903e-03,1.709414550195942654e-03,3.094304844370213917e-04,8.938979332711916720e-03,4.235498511455130372e-02,8.155004898005591141e-02,1.743211182969462911e-02
4.737398337015812262e-04,1.897606707472097518e-02,2.320943320619905936e-02,4.815342644012361034e-03,4.814608568456071880e-03,5.428898347326040902e-03,2.409394385370522418e-02,1.533594259638901836e-01,9.725815554678862718e-02,9.624435058513798602e-03
4.871922185455109054e-04,1.745946788497349314e-02,2.958280065378598653e-02,6.673365384183199689e-03,5.502576189704784342e-03,9.265634554316327237e-03,3.391477468009744534e-02,2.174929041261649820e-01,1.186343149231748467e-01,2.996543217559235767e-03
4.915260579691017916e-04,1.157216565680663049e-02,3.171945261626123863e-02,6.766166166964143573e-03,4.028862820531425165e-03,1.114710878377016441e-02,3.558593913101408546e-02,2.138242465814185755e-01,1.235987942829093605e-01,1.473353499614332533e-02
4.795311753549988593e-04,7.237763685303963239e-03,2.980761900029831740e-02,5.471609387214225635e-03,2.250085859543591443e-03,1.129479485138817907e-02,3.233136832357761531e-02,1.690061040567146233e-01,1.101946136437556706e-01,1.996528618165276797e-02
4.757768650170266151e-04,5.191545912998219228e-03,2.418455903360620940e-02,2.802446522910991954e-03,6.377653257853414023e-04,8.515576795399566051e-03,2.467213175420136448e-02,1.145029609748224875e-01,8.893727916214189122e-02,1.783630875341488120e-02
4.785463453814723322e-04,1.642730307068529256e-03,1.574876888393439076e-02,2.440484073996978718e-04,8.640176996663325934e-04,2.729484603136240074e-03,1.200142329634531178e-02,6.419889351640466202e-02,6.883235906393513071e-02,1.199249939970220905e-02
4.764892784014057407e-04,5.454007038065670707e-03,7.069028720716030029e-03,1.866389743755933993e-03,1.660799851412587480e-03,3.420654688203490692e-03,1.093054341407870278e-03,2.127828120192768249e-02,5.003902465765600743e-02,6.817706968113312373e-03
4.816881192707501503e-04,1.451615265815492037e-02,4.787809055080663630e-04,1.781268856023135970e-03,1.541225729059757460e-03,7.027174783660385463e-03,7.149089119870456407e-03,1.335494846814561966e-02,2.646210454210151317e-02,3.638277148171191987e-03
4.992066388807564351e-04,2.279149541499514084e-02,8.286890954785642791e-03,1.359383479493340248e-03,1.198647663389979835e-03,7.739421905648836107e-03,4.874677755663218634e-03,4.088198140970129152e-02,2.743638244657738146e-03,1.063893421905327732e-04
4.985237336451501210e-04,2.771671101087146497e-02,1.651352746007321917e-02,1.447680654309516307e-03,1.154109631592371886e-03,7.276483543958437578e-03,1.715135248683774538e-03,6.410222251049789433e-02,2.808812386456546392e-02,5.571905946933256026e-03
4.763694337185917275e-04,2.808501387263438037e-02,2.136182345356504517e-02,1.690899845786759470e-03,1.238000623372608692e-03,7.038503868844762403e-03,5.238300511621871158e-03,8.090279153900160891e-02,4.108287751646532565e-02,1.044318998294735575e-02
4.993159793667987720e-04,2.607456285944528482e-02,1.948623214887691690e-02,1.711027749236240054e-03,1.213827117643185996e-03,7.101306491586116369e-03,1.430346513978355411e-02,8.094307389355027971e-02,4.515995430011821021e-02,9.705964334883037184e-03
5.711506606254032094e-04,2.555323105268552178e-02,1.318530268252217884e-02,1.657244142438544241e-03,1.151468709588181292e-03,7.080791521173157056e-03,2.135729181606075416e-02,5.838833419738941738e-02,4.898073149375223312e-02,3.452269004581082906e-03
5.477416982650005345e-04,2.697942761812047174e-02,8.281641214921078506e-03,1.705379193756218241e-03,1.163813916105447882e-03,6.955000362365994226e-03,2.208363498352115470e-02,2.716127648749201706e-02,5.475811541764592782e-02,3.002490530663393022e-03
4.178521852495344861e-04,2.716684921893384660e-02,8.103190869514572889e-03,1.787374991533376015e-03,1.220168221740785229e-03,6.898990381486412582e-03,2.012380425806459955e-02,1.178502382329351013e-02,6.063563876236895828e-02,5.300864834519527884e-03
4.907965906513917778e-04,2.554707738909565637e-02,1.173132654389697459e-02,1.818968417735256126e-03,1.260084576763601145e-03,6.915194909785418384e-03,2.234824286203372992e-02,2.301527578468602273e-02,6.891684159635937112e-02,3.014723969371204803e-03
8.082998792484313941e-04,2.694569435490170098e-02,1.649446658879399202e-02,1.828384554847148000e-03,1.291373701204888164e-03,6.900569380927920778e-03,3.172515729188477712e-02,5.345325560737013149e-02,8.335044465955980530e-02,2.772401180072878342e-03
6.756450632367224990e-04,3.513114737082509431e-02,2.003194850627222634e-02,1.853476793277885606e-03,1.351211244715922605e-03,6.862369538464248124e-03,4.597578064103303302e-02,9.337826839434067161e-02,1.021394007005195781e-01,1.062500039731957557e-02
3.094419638129650195e-04,4.605439656678328442e-02,2.123843659150470228e-02,1.882439571778905547e-03,1.440809491103513685e-03,6.885169210854221247e-03,6.068700267260078440e-02,1.347528326999803683e-01,1.205733006864555951e-01,1.769696111544722533e-02
1.246604853682139634e-03,5.112672232328194233e-02,2.080250539670491436e-02,1.897037358289628724e-03,1.514479299891782413e-03,6.935539513644106528e-03,7.067093732487621238e-02,1.625521007426047881e-01,1.366018285223107309e-01,2.134548835556136087e-02
1.264810129045714545e-03,4.642756298465564729e-02,2.031435026855948206e-02,1.896145644796671257e-03,1.550092907958561727e-03,6.882439404380919119e-03,7.072175124044964567e-02,1.633771297747770856e-01,1.481248073604067295e-01,2.207439618448792454e-02
1.006277073273797919e-03,3.581881938341510696e-02,2.045074386260809646e-02,1.884778306988111295e-03,1.616945583290224555e-03,6.790216237479589773e-03,5.975229259046013763e-02,1.445009007318197314e-01,1.497896145377804189e-01,2.238679579556714441e-02
1.219501528847088956e-03,2.522551333669927412e-02,2.047220525149044332e-02,1.873425677291991982e-03,1.760073085400502444e-03,6.902605783684711768e-03,4.335607078029021094e-02,1.263352203582966682e-01,1.390562713306475184e-01,2.333927173416486603e-02
1.237307701451967681e-03,1.678857662792073921e-02,1.945441834465031633e-02,1.864390351313793652e-03,1.832916516149751818e-03,7.075292452509131247e-03,2.917424684791547138e-02,1.180975270721012077e-01,1.217592346659900904e-01,2.434471482713697343e-02
4.040560059500784514e-04,9.774169758359745747e-03,1.738557979524747721e-02,1.829127991488485767e-03,1.724493073794612684e-03,6.786375326575140067e-03,2.069365340569517819e-02,1.168926989986213971e-01,1.050332612104943747e-01,2.516394100525993355e-02
6.058884284456514174e-04,4.500983198437198164e-03,1.473086209021033308e-02,1.753999759445440572e-03,1.734743648962534714e-03,6.326264632697481925e-03,1.668367159821460693e-02,1.208441369870308785e-01,8.695456175972460233e-02,2.590053262343450929e-02
9.531505128422559057e-04,2.508951957225043737e-03,1.181034543776244422e-02,1.701251646090039303e-03,2.113608820869875005e-03,6.831787016731421559e-03,1.409466155027480801e-02,1.249185738034421789e-01,6.106829668411808965e-02,2.606142973720249056e-02
5.806465309850561462e-04,3.660500129960007724e-03,9.666433641629178924e-03,1.705052342787329641e-03,2.188681858622594945e-03,7.674257783121122070e-03,1.010329118096071378e-02,1.156434325277920921e-01,3.073075927970692761e-02,2.523591990228387510e-02
2.795726582128026344e-04,5.125754016727527944e-03,1.011453247302928661e-02,1.633018234752136753e-03,1.105294726947231732e-03,5.739186656790230996e-03,4.081707990009276338e-03,8.779260593688742453e-02,7.386892905210875812e-03,2.305986382300126772e-02
1.311724464568102527e-03,4.330971782732081707e-03,1.301555546334261411e-02,1.408102269197697171e-03,3.103394534105563584e-04,2.535646166694581873e-04,6.603864429032837123e-04,5.721694348042711403e-02,7.441243651048709898e-03,1.745033875247379782e-02
2.076334315327408708e-03,3.499635839649322799e-03,1.563533893993449692e-02,1.315576886678601360e-03,1.781340703666976701e-04,4.113515300557982896e-03,1.937956751737563918e-04,4.321105461798077640e-02,2.227973595017440980e-02,6.647262219596596251e-03
2.379038753237886546e-03,8.094837769221921095e-03,1.677258448688973003e-02,1.542286311344727911e-03,1.320124471491978700e-03,3.363638310051155714e-03,5.400884599775753261e-03,4.396690482765282237e-02,3.478582050681796461e-02,5.323277368207880375e-03
2.196178301315231032e-03,1.615815175187117897e-02,1.756594788625476244e-02,1.453070049279337871e-03,1.559137289739159684e-03,6.930791458898213648e-04,7.799611172229525477e-03,4.017932111276210222e-02,3.267752688254115662e-02,1.118613699894685856e-02
1.406889113840510295e-03,1.440198421873790761e-02,1.595538745818591078e-02,3.386933002287027838e-04,7.502964931231974549e-04,1.857038733319871064e-03,2.567843156004953088e-03,2.006586031238621892e-02,2.028559358264733770e-02,1.092027283357982319e-02
2.631374956846026150e-04,5.402585483070218922e-03,6.914479612418238802e-03,1.042645022329111897e-03,3.381930004310708913e-03,6.911444580655788303e-03,8.093369809410527749e-03,1.051335807051031503e-02,1.857245386358086225e-02,1.235243786854633465e-02
4.812339278280039533e-04,3.117536312938100004e-02,8.169455182215849126e-03,1.129120859128882786e-03,3.508236274566448650e-03,1.132786087374283192e-02,1.998814123043977931e-02,4.392097558626596732e-02,3.175560090931647816e-02,1.871882709352654800e-02
5.010237989349979829e-04,4.361175894296673294e-02,1.974866802735267268e-02,6.055214843155400702e-05,1.301793452926620995e-03,1.241652106152162441e-02,3.146896548098497559e-02,8.189898709230909735e-02,3.935525100849489311e-02,2.359801836412127318e-02
2.715299694192022020e-04,3.939589568939884379e-02,2.180221882905267888e-02,9.074168132189273928e-04,7.633056587350372591e-04,1.092816795939931945e-02,4.172413124904132686e-02,1.229680959001960561e-01,2.918870828798564993e-02,2.032360694028606529e-02
2.382208481557793937e-04,2.935049611039180009e-02,1.815911426873772008e-02,7.062216140235670582e-04,1.223911427724836071e-03,8.562032080092544378e-03,4.953488061390805969e-02,1.516840308384359293e-01,1.429485772743503171e-02,9.701644896490328740e-03
3.139188398559092635e-04,1.952427097751907245e-02,1.422071700122892052e-02,3.882222842111093157e-04,7.581833095285803398e-04,6.081480348869712851e-03,5.433337287306358454e-02,1.514077804163832253e-01,8.677846351727365459e-03,1.945138782101743947e-03
3.060435146971130383e-04,7.026621178417574373e-03,1.003986778102333374e-02,5.162112884669174890e-04,4.543988455774551237e-04,3.176502911709111303e-03,5.566710869876389384e-02,1.230122350191844710e-01,7.529542183979024902e-03,7.591487953082801977e-03
2.569252801532555990e-04,8.818420070431567254e-03,4.445313733686530148e-03,3.519158817928097309e-04,4.350595344084323387e-04,7.437916083827320177e-05,5.309122065337015806e-02,8.540977292508139529e-02,4.850758389869803261e-04,4.339208117365326439e-03
2.525824255070031150e-04,2.261339624012895580e-02,1.142663665412663697e-03,5.051060145282841325e-04,3.449285681039034805e-04,1.532619996651975831e-03,4.776910647089079032e-02,5.673033447515789945e-02,1.210446461664342090e-02,3.247520349617435964e-03
2.556533176635307340e-04,3.013164923189725827e-02,5.482384231718005763e-03,1.107704673575788182e-03,1.359130551777517834e-04,8.523924634250691461e-04,4.176934138404319458e-02,3.847654165627369116e-02,2.295745081631424961e-02,7.470597627229008143e-03
2.334621709462419796e-04,3.132673314845891427e-02,8.109523486760097932e-03,6.926171906245918216e-04,2.855070834680772604e-05,4.325121093324211770e-04,3.586350877671604098e-02,2.615177094527691704e-02,2.509369627161261995e-02,6.308829469845758826e-03
2.438027992598483496e-04,2.596990507209617077e-02,6.603146585860251647e-03,6.214953283775363291e-05,1.210929859368495493e-04,1.136460585559581670e-03,2.954388321628657194e-02,2.700409173993296996e-02,1.286502022655911653e-02,4.267020882665785789e-03
2.868233664354232523e-04,1.392623482376651248e-02,5.064130254020942105e-04,2.410161538338093633e-04,2.143959828699641375e-04,2.462551301370847004e-03,2.202324782149576651e-02,4.564917182835778048e-02,1.188499148365553329e-02,4.783520696959258842e-03
2.479391282406207312e-04,1.029898429348190692e-03,8.711414637183620760e-03,1.311903839191236472e-06,3.192986841150327756e-04,4.712940873171716887e-03,1.347211415183492689e-02,6.275032112918965677e-02,3.531006643850843202e-02,6.628529668335804426e-03
1.567106126276235530e-04,1.562068954103791249e-02,1.152123772907749470e-02,1.064551150282023187e-04,3.996202376753946639e-04,5.313127417248554238e-03,6.293125068646843526e-03,5.788302889704970838e-02,4.496265576600548541e-02,7.936457701556494382e-03
2.568252448845420284e-04,3.144511660111413975e-02,8.156604044658111868e-03,5.068834439563933952e-05,4.481373604703295117e-04,2.566573646357751554e-03,2.195556740845059328e-03,4.075600997130966741e-02,4.295082335128069112e-02,8.578287998780170093e-03
4.844022606059539054e-04,4.699352793227211389e-02,2.605734328130230627e-03,1.994532230537357899e-05,4.806083971392778337e-04,1.194731275391966918e-03,1.752015453567243655e-03,3.066304929885841496e-02,3.484001448940780843e-02,7.570629958197996369e-03
2.755166036858461135e-04,5.373627252379678532e-02,2.219378234606285936e-03,3.089446767459350226e-05,5.001515526823071493e-04,2.493648866624848925e-03,8.524951773545457953e-03,2.410200928702536591e-02,1.837654389286816695e-02,3.536257171377937131e-03
4.955166825715747727e-04,4.845072521562700935e-02,5.458441058243172946e-03,6.909124453426220339e-05,4.996253664433709420e-04,1.168758716958883531e-03,1.488596206791100406e-02,9.144465334708414689e-03,1.408664681244617802e-03,5.324280065868810434e-04
9.588899399516454761e-04,3.840020308343702199e-02,6.513624794683156929e-03,6.815285556735729757e-05,4.783273285022573680e-04,5.092239659116389212e-05,1.697311968323007847e-02,1.050541371183042264e-02,4.042340043824285516e-03,1.607454141152928236e-03
4.751205644175707232e-04,2.770927673471257000e-02,5.854237630724664319e-03,1.191541196633406831e-04,4.410375149762892858e-04,9.017972619833121862e-04,1.758090563464478548e-02,2.604803218640961565e-02,1.861811627426700547e-02,1.124036622572810104e-02
3.168368647690463294e-04,1.245994045133178019e-02,5.613541915801488133e-03,3.125672575333554581e-04,3.901506543471620903e-04,2.272502625719678791e-03,2.005883967787742972e-02,3.543165415412596886e-02,4.451342034451616358e-02,2.191937008966434244e-02
5.452916167018775472e-04,4.290791310072574784e-03,6.533993490492468782e-03,5.575445836808427943e-04,3.260192567134258365e-04,1.650277052037015446e-03,2.116155352123375369e-02,3.421745194629233211e-02,5.169788634834722452e-02,2.641541435552778594e-02
3.336633594195707051e-04,8.314013287335948743e-03,5.563582672981937614e-03,6.066543324870530629e-04,2.505710207634566518e-04,1.057214434167325686e-03,1.748895072658312316e-02,1.838331162028341431e-02,4.738032660428327658e-02,2.313963781316997689e-02
2.475315014519282111e-04,6.052697499260330238e-03,5.722526728902878508e-04,2.571419134998506432e-03,1.670177631008121851e-04,3.063511572106020209e-03,1.223478563248064921e-02,2.541711879015549902e-03,4.814885039520336307e-02,1.544196733520533313e-02
3.536155435432394379e-04,2.497733634786873311e-02,9.690703798646877962e-03,3.000256852480458810e-03,7.807794896488826921e-05,2.112354098225242057e-03,9.182678803524097627e-03,1.883094451949105658e-02,5.097976632176930839e-02,7.598441742425800574e-03
4.034939599882932798e-04,3.194900246801671284e-02,1.496945468884030433e-02,1.262389186574150489e-03,1.379503533509107385e-05,6.376109694407072238e-04,6.960175267650184003e-03,3.800481744179996790e-02,4.205951934882567328e-02,1.688906478193386365e-03
3.602797529017391881e-04,2.534094743964692906e-02,1.226813137010419018e-02,5.276675677270225131e-04,1.056844654817913360e-04,2.381303765543301906e-03,4.147664231497077275e-03,6.517039443052054237e-02,2.024163988131703895e-02,3.305008691811052359e-03
3.472793475963211721e-04,1.472308710225093964e-02,4.792865374789324895e-03,7.552623803174757884e-04,1.948509171203457514e-04,2.312083909443129245e-03,3.277569293871335828e-03,8.379011667294407328e-02,1.895513500351356630e-03,8.531846019949102314e-03
3.793019475531488115e-04,8.212439370841142713e-03,8.466996336434111977e-04,2.089427958347709062e-04,2.791734733577373576e-04,1.801478687230259482e-03,6.455629238252456881e-03,7.852375409791791105e-02,1.324024097351053295e-02,1.099889926335310270e-02
3.798099131127128780e-04,6.150273192154406474e-03,2.295636307182851842e-03,1.233073580636600110e-04,3.560057623534274062e-04,1.871864955439585081e-03,1.272187143448347095e-02,5.578916965187141058e-02,1.412125138487733619e-02,6.055089041182012272e-03
3.488117490242647364e-04,3.462972779620094969e-03,2.582963180012930963e-03,4.212461745631073621e-04,4.220366721088125977e-04,2.214413147500599987e-03,1.966802239694962970e-02,2.786766063791263487e-02,1.324086092231082853e-02,4.763000241663590921e-03
3.628456432243938731e-04,2.640048411991271701e-03,3.663333250542599208e-03,4.548389299298107253e-04,4.759268844329155187e-04,2.211352762219985241e-03,2.269172142150749361e-02,1.380766799887454301e-03,1.577786510082856281e-02,1.404285083009319986e-02
4.071077172828449671e-04,1.004871048647275333e-02,3.768534524713827542e-03,1.862698612217223294e-04,5.185528816021409311e-04,1.860590502457252961e-03,1.746537695157427891e-02,1.553844696889427300e-02,1.810519106061045380e-02,1.776511196833315681e-02
3.583426140339685743e-04,1.825617058426317121e-02,2.646024532233952516e-03,1.374828581525549263e-04,5.475264066704335500e-04,1.793381922843772678e-03,8.099673651756547979e-03,1.992782831483965941e-02,1.768696176468876127e-02,1.774060723446882135e-02
2.534525643247238173e-04,2.883878475751612894e-02,2.921118671122456979e-03,4.703236809735462996e-04,5.567932445467092513e-04,2.317333639657026545e-03,3.973862514991695002e-03,2.026350399475839933e-02,1.950925394489743878e-02,1.501378524997192508e-02
3.407573460362837373e-04,3.567951261597102769e-02,3.718576595310648346e-03,4.417370181253554807e-04,5.484283257370821656e-04,2.347038908645120159e-03,4.678681985029981699e-03,1.643239531468671660e-02,2.505064968783774632e-02,8.427112389271426349e-03
5.535037644318291459e-04,2.763329508858131459e-02,6.837524426535525205e-05,6.289114887171820762e-04,5.338011722458270653e-04,5.027233831197380331e-04,4.478187024190565142e-04,5.196587474052814272e-03,2.589365457063491638e-02,3.702083734776526842e-04
3.263170486399834388e-04,6.752650373622808705e-03,8.308357502367306330e-03,1.941265686558398202e-03,5.084461124644504759e-04,2.271447997745089462e-03,1.038580841904195029e-02,4.007978043275400859e-02,1.757262156345692009e-02,7.435739898921750642e-03
4.641796766648258448e-04,1.039892102428623469e-02,1.469320123510622564e-02,1.987690178588956847e-03,4.489472489874976623e-04,3.156348963630311189e-03,1.874057949055781339e-02,5.795318748636496542e-02,8.072863493263656917e-03,1.241899213149839226e-02
9.467877190343733157e-04,1.462456412271560466e-02,1.476097604594192071e-02,7.915560393468446931e-04,3.664941701811025320e-04,1.301050474279148933e-03,2.044235709679002172e-02,4.207031807333772716e-02,4.827470954356392896e-03,1.815556335492754525e-02
4.827315442739981820e-04,1.249038387029855618e-02,1.143692147027824263e-02,1.409083123925554274e-04,3.148581906464482266e-04,9.855629277914391018e-04,2.059010267390412596e-02,9.238402811555754615e-03,5.779368959083611146e-03,2.331867970562035222e-02
