2.297105792876084560e-02,1.017340721019680309e-04,1.442243191281580373e-03,3.995588488690057609e-03,7.118160514400988063e-04,2.109228165355861591e-04,1.588539637338419810e-02,3.266093599100965833e-02,3.308560238363878869e-03,1.760386426908124718e-02
1.759172782884426550e-02,3.733298310414818219e-04,1.141891734095042263e-03,2.425404362516511529e-03,1.709958738983606975e-04,4.035971919201884598e-04,2.262071806649182740e-02,3.216886333990874591e-02,5.906867663911133208e-04,2.471718202983223811e-02
8.724020500113748022e-03,1.142925902956058162e-03,1.213173947974141359e-03,3.789198825780520051e-04,7.581347977365499296e-04,1.443774681243114536e-04,2.668357156289004328e-02,2.761755343115370950e-02,5.178905119585851778e-03,7.237389804714169927e-02
1.302634612245094246e-03,2.840729730197961295e-03,1.862265851772525226e-03,3.401381547511260484e-03,4.095509103239535409e-04,6.905028655899214185e-04,2.667527491005346543e-02,1.908013591408293935e-02,1.052872429052117975e-02,1.158870593751790828e-01
1.401456751147611918e-03,1.647479829835948092e-03,2.525543466615820087e-03,4.829774165320694854e-03,2.387434695619310328e-04,1.231619724075461685e-03,2.277884561913567918e-02,9.437836305288122701e-03,1.530380070447694835e-02,1.446241470682790575e-01
1.274793808905542569e-03,1.453185157887152724e-02,2.980335945087512345e-03,4.183236141380115847e-03,3.185012113149648808e-04,8.407198982210630379e-04,1.787274070178690791e-02,3.726923512407520969e-03,1.549130294702399761e-02,1.565615804633212760e-01
2.818469142926143672e-04,2.797499791745690356e-02,4.005228943496870475e-03,3.786661762434734464e-03,4.600891510354084696e-05,1.557762862404139066e-04,1.487611950374039850e-02,2.725048296530277209e-03,1.018637159250159775e-02,1.572861885350908262e-01
5.591503135923387401e-03,3.221904717014517638e-02,6.222050226836741034e-03,6.437253001396324448e-03,2.882513421089171520e-04,4.592632232518536193e-05,1.316434513262023688e-02,1.478370409256669037e-03,4.801594245197877801e-03,1.484025770889104423e-01
1.453259765815938243e-02,2.626840419974518434e-02,9.245800854505778835e-03,1.178913196339554867e-02,3.356029608885036423e-04,3.870951057539799610e-04,1.050689254907681731e-02,3.574439756061210168e-03,3.725449622595237119e-03,1.285017081879022971e-01
2.147302710904331821e-02,1.610083508883108222e-02,1.209454784734067395e-02,1.637688616636008218e-02,4.309757416486303125e-04,6.147770341198388437e-04,8.115192039240831309e-03,1.008932506178981947e-02,4.201518511232245345e-03,1.044806900290850826e-01
2.244087063140034685e-02,6.439376295065031564e-03,1.313575146058417950e-02,1.661847028804591675e-02,6.160050019933432973e-04,6.591527782881916866e-04,9.225355012839026037e-03,1.378507592824963421e-02,2.098544058296667771e-03,8.686081675891692278e-02
1.920512257431001082e-02,1.094877941247903580e-03,1.050707668205515428e-02,1.123752182989433759e-02,7.716278034011103855e-04,7.611685094446496609e-04,1.274609715326312752e-02,1.336701356302204789e-02,1.173871420075125235e-03,7.332084970181355910e-02
1.366095279194582714e-02,5.269010396115477411e-03,4.590432654081589431e-03,2.576835515646595277e-03,8.659667019457785442e-04,9.578690810938605494e-04,1.352318077137239227e-02,1.060899604007730854e-02,2.107109401057313900e-03,5.245479353254966365e-02
5.045512360552344318e-03,5.694752860974383775e-03,1.076142019154299658e-03,3.836031827087697538e-03,9.596824717677636396e-04,1.134816221260870599e-03,8.795000468666568094e-03,8.018421730114348722e-03,7.945467119005492854e-04,2.605744306801583560e-02
4.858967650657435543e-03,4.838781206720153480e-03,3.182793808059918191e-03,3.624091189499355735e-03,1.083071308676755934e-03,1.269614512697130482e-03,5.409934017404827069e-05,7.096091805164986450e-03,8.073274735720575900e-04,1.019355095041939684e-02
9.908712117580925974e-03,5.714688374924360541e-03,1.525655653074481756e-03,1.630861773156479537e-03,1.189368200277118566e-03,1.411845699408525567e-03,1.057187523370405578e-02,8.021411494524628705e-03,2.340791855645441271e-03,8.550929911905313929e-03
6.029103122222627051e-03,6.964556309311300750e-03,2.307907131329340732e-03,6.273540856329083357e-03,1.225489617820750467e-03,1.568837952437426029e-03,1.965848890205111610e-02,1.061944189318991816e-02,4.036651027511926372e-03,4.960302304527812456e-03
3.823685983175352607e-03,3.403383709399414488e-03,6.402061345149918752e-03,7.005131188778684036e-03,1.246303733866643056e-03,1.713512023606181180e-03,2.316325083241704136e-02,1.473458627538153272e-02,5.280379494685845214e-03,6.941203138220852255e-03
1.285123531215676650e-02,6.424821604615198883e-03,8.017155234114109810e-03,4.398425698458896700e-03,1.356125308379467487e-03,1.838074425663231313e-03,1.961091264340393894e-02,1.938371096673381991e-02,5.155665113122800437e-03,8.280549972587031640e-03
1.647928159175784946e-02,1.607167362902349461e-02,5.286685231820522149e-03,3.851817979322902396e-04,1.458385391316914612e-03,1.951424751846626837e-03,1.284643144052462216e-02,2.326005411734535788e-02,2.549091019538508255e-03,1.522040406833499379e-02
1.462068981427776075e-02,1.778246432080818340e-02,3.350681309333452726e-04,5.750260480430423836e-03,1.329235506928556649e-03,2.053977427598521494e-03,7.942701198774710161e-03,2.632150745341834894e-02,3.105131673183370716e-03,4.709640676153901973e-02
1.017903032753589287e-02,1.117402271208496785e-02,2.800099413537207853e-03,8.195717752415523916e-03,1.152041378960299688e-03,2.137883632280347147e-03,6.567146101899962694e-03,2.871552276166322581e-02,9.814082387726146342e-03,5.997943208087388317e-02
6.343138217461361320e-03,2.520611744323419598e-03,3.418726436519246067e-03,5.700483603468487967e-03,1.452340207896295980e-03,2.199023935987965556e-03,8.069096320782516429e-03,2.875438830491366254e-02,1.413085484505890131e-02,4.666153350910000330e-02
4.025366756152374062e-03,2.605659045724032386e-03,3.277574173471361086e-03,1.030816326454181333e-03,2.110421133980781242e-03,2.238708563197304175e-03,1.136094630561065161e-02,2.495276726289986577e-02,1.536582724662928327e-02,1.913788011927659155e-02
1.841017939793956329e-03,3.485880178101751457e-03,1.619136927689766772e-03,2.062243598267767854e-03,2.325789838019486685e-03,2.257868380101110857e-03,1.389867593241062536e-02,1.908278115248485812e-02,1.630158933551260556e-02,1.047560843472514561e-02
4.064218962897452937e-04,2.554590254478825411e-03,3.077583538761032370e-03,3.240363702432503233e-03,2.025427846303196576e-03,2.252787710110231486e-03,1.273318048213603962e-02,1.414827076772710683e-02,1.915042991840125094e-02,3.707837234839678892e-02
3.473585899105758224e-04,2.017778877086550109e-03,7.418201008882753175e-03,3.405070080401896571e-03,1.972508658811520082e-03,2.218258744914138481e-03,7.771363099675522058e-03,1.060540597678497933e-02,2.291088318928988232e-02,5.762520460346504808e-02
2.475686749076878163e-03,2.228309162197805032e-03,5.958569370819129241e-03,1.721986812629790718e-03,2.168558932047570317e-03,2.156979010149048109e-03,8.147209361332454717e-04,7.157182423807393473e-03,2.505154126899853187e-02,6.852965899385142501e-02
4.733449350037326198e-03,2.225561944429566268e-03,6.659638136263663606e-04,2.559604986011195914e-03,1.853968878230497549e-03,2.077396407463496988e-03,7.564006642645653561e-03,3.519462397333800088e-03,2.442751590356573299e-02,6.959163492519661320e-02
5.915446715423346852e-03,1.578913782790763998e-03,6.526453566092413165e-03,7.768291265362137731e-03,1.105666692285387160e-03,1.973562208145421357e-03,1.681266332628925456e-02,1.267582597463848097e-04,2.251644922871703924e-02,6.609797154693319854e-02
1.106676446499326762e-02,1.582903952016029899e-03,8.302704059704587788e-03,1.089714569989652833e-02,7.268355134086379801e-04,1.827162940525149312e-03,2.463031185337026877e-02,3.069339297724754494e-03,2.223706696693723839e-02,6.320083761751445206e-02
2.154077448098323452e-02,3.229926789958482460e-03,7.038734925724375244e-03,1.002564018841286403e-02,8.387685459117639715e-04,1.650537733788904520e-03,2.919746938355014670e-02,6.053931818620750423e-03,2.464295644252883360e-02,6.171186838948571063e-02
3.003562045194889743e-02,4.038261748833523422e-03,4.172014631519825947e-03,5.596560440543948967e-03,9.190221676691569036e-04,1.484338211284367149e-03,2.993389246369148812e-02,8.737679174354098799e-03,2.644119648566494243e-02,6.257055065548718098e-02
3.080838023571634207e-02,4.995524390644927749e-04,1.353325703469690760e-03,4.180988405738797009e-04,7.883299413993885042e-04,1.305522054566170091e-03,2.524218557671925253e-02,1.135609756552305449e-02,2.264076977345660241e-02,6.896184667772632670e-02
2.751490924331392862e-02,5.266491097463241351e-03,1.898874874567054458e-03,1.560525341526504666e-03,6.700061998509718262e-04,1.029396361676976693e-03,1.443117001535103479e-02,1.300721337081007373e-02,1.275898754622141300e-02,8.006381808898967167e-02
2.556728533008615842e-02,6.333332542286849651e-03,7.142641284282693660e-03,1.748247094103576142e-03,6.562120070274838311e-04,7.061639051635603109e-04,2.336042320534377666e-03,1.147156080063508644e-02,2.481000497803633516e-03,8.901390745228240919e-02
2.398732069051744825e-02,3.292884181512756043e-04,1.323086979231091406e-02,7.587947141242059983e-03,6.461573489632060560e-04,5.220433523181518959e-04,3.855526041162684117e-03,6.847914510337982028e-03,2.095420857379966251e-03,8.902428575609942774e-02
2.009274901426132132e-02,7.444295991299332629e-03,1.582748481310483971e-02,1.025854374442556304e-02,5.949861673583797979e-04,3.767980901488750386e-04,3.807892890138300963e-03,3.378355470774373030e-03,4.151036645100086506e-05,7.730502572744948897e-02
1.643332791058029971e-02,1.186220294430821200e-02,1.625429910625245805e-02,7.730449738702684440e-03,5.470071407927329030e-04,1.393656220882918679e-04,4.034900328741855904e-03,5.141632667777913841e-03,5.599776424073499292e-03,5.585718663370569520e-02
1.741795278355478746e-02,1.333674623184416368e-02,1.871590485480870494e-02,3.915318038565159843e-03,5.238414659619559108e-04,7.990578790150749651e-04,6.362069465283786904e-03,1.115590766479110547e-02,1.048124506917295570e-02,3.144194962005301963e-02
2.173772855169039953e-02,1.442780036358795939e-02,2.219449926475905444e-02,2.319301072990062520e-03,5.077341909664065617e-04,4.001873125564593746e-04,3.808341244644416947e-03,1.669614084678488000e-02,1.196606394998594308e-02,1.132978541215776645e-02
2.280300753370000100e-02,1.668353303455787084e-02,2.046872943439739106e-02,6.521029381873523489e-04,4.845838641864501210e-04,1.508475625179519055e-03,7.153078955035019164e-03,1.871757443948791899e-02,1.023485045941410938e-02,2.394409089972989249e-03
1.646822682327023224e-02,2.087056966458530199e-02,1.211055313926455955e-02,5.388026984951992115e-03,4.514457238251013901e-04,3.208353548217468543e-03,1.767745863583035371e-02,1.805021135404344390e-02,7.992393190162479927e-03,1.519847722947944603e-02
5.890189165647352273e-03,2.493981037226310205e-02,4.435439072248959641e-03,1.525963169439015395e-02,4.160454927241299212e-04,2.699740794099083751e-03,1.634665258969248552e-02,1.645061968988277210e-02,6.842410809854947151e-03,5.403381827688497063e-02
1.475760453720492606e-03,2.331054769496915952e-02,3.065740189666190264e-03,2.307863357100443588e-02,3.956782613060560051e-04,3.749530377986731266e-04,2.050620193964532330e-03,1.431356472098463221e-02,5.484926580591891615e-03,1.031572473727666306e-01
1.383132147379050828e-03,1.423266519848611147e-02,4.001938587970731154e-03,2.341368323006829191e-02,3.758381527889733970e-04,1.981561152842442435e-03,1.742559324878339977e-02,1.244897758461896604e-02,2.685925200096825859e-03,1.427313753227592852e-01
2.528063879113279233e-03,5.257544185290151557e-03,2.062374795681040651e-03,1.652761321470087863e-02,3.041513622189840910e-04,3.719151685291226511e-03,3.348250136223876461e-02,1.275617765453654871e-02,9.393914950500400563e-04,1.688413404451079014e-01
2.925447863144765587e-03,4.878363251956842686e-03,4.935291913872768329e-04,7.413579615471669292e-03,1.985353610398840065e-04,4.469355052876371193e-03,4.010279698529727738e-02,1.481118235398119244e-02,5.060658980920978121e-03,1.749949961928823072e-01
2.534939209208916626e-03,1.184154244178405209e-02,5.106296283524796274e-03,7.137060755760737604e-05,1.670150742356658587e-04,2.494820104774283891e-03,3.535412443412033062e-02,1.521982319170058981e-02,1.043660705520228077e-02,1.394562210483435150e-01
1.006556773496137050e-02,1.878426600993238563e-02,1.424456245579026198e-02,6.082287021449599498e-03,1.682060338320490417e-04,2.803218948446484227e-03,2.316809584186633325e-02,1.309147379373745181e-02,1.703709509834832464e-02,6.161614291692709550e-02
1.638864688308629136e-02,2.242579211454077265e-02,2.111066336329875739e-02,1.077949735196425535e-02,4.184986771001025389e-05,8.305053422917346717e-03,1.047326264505259868e-02,1.254223480930883976e-02,2.308365731956503464e-02,1.933103546367462289e-02
2.114708172289299359e-02,2.389474423963706268e-02,2.230200539732078366e-02,1.083348657810681570e-02,3.989729693068448462e-04,1.030411351481629739e-02,1.098375053167324885e-03,1.649344182554872418e-02,2.554647091217209648e-02,6.792168865568759539e-02
2.356933887914251444e-02,2.277427134624832386e-02,1.857258191760737323e-02,3.903390959280784219e-03,3.443002848412513007e-04,8.619974811536300699e-03,5.322096057287617477e-03,2.118398249239096878e-02,2.211077461783465467e-02,8.405623050960429887e-02
2.297249405588023402e-02,1.746750083740755688e-02,9.902305607999033199e-03,5.460853659434574542e-03,2.473596068835148517e-04,5.197268304611811149e-03,9.359205657609954987e-03,2.063007980736233232e-02,1.543714261960577906e-02,8.212077352914111394e-02
2.231398399649068762e-02,9.915828777389314175e-03,3.947691403203507608e-03,9.694876736516460508e-03,5.091203226020698993e-04,8.559641411344935972e-04,1.121255578274924121e-02,1.463223241641399726e-02,1.414228232377348973e-02,7.396001041450706026e-02
2.585684820396953396e-02,5.193662385367358615e-03,1.826654951402522167e-02,7.295297538573561683e-03,2.070674681497197971e-04,4.003027006331775529e-03,1.396600774818020953e-02,8.669770811463708982e-03,2.405590580835544751e-02,7.116919327227910763e-02
3.340122576288950124e-02,6.748930152194217505e-03,2.495169751997026661e-02,2.731038000277734301e-03,1.273338488273175959e-03,7.341686791915732688e-03,2.116249090060687982e-02,6.195345555877922357e-03,3.840580225008329712e-02,7.218285173543222133e-02
4.105968806395891152e-02,1.453497814673478800e-02,2.073874176817734616e-02,1.936120139765521797e-03,1.802240968349304697e-03,7.137733687337883930e-03,2.947520256866105470e-02,4.541613450385343503e-03,4.312664351167887905e-02,5.766039706450670765e-02
4.779300600047734632e-02,2.674120601011589077e-02,9.226871871526171748e-03,8.837319219457304489e-03,1.896062442576916529e-03,4.630071976139876755e-03,3.057834809138671589e-02,3.311018645867466921e-04,3.356084580619678875e-02,2.231047350901088286e-02
5.672049712136260913e-02,4.006434305073915125e-02,4.829433200068694414e-03,1.671999653897114982e-02,2.155830789239707515e-03,3.339340005388692634e-03,2.229618535663196663e-02,3.998378173958828594e-03,1.990639922442885221e-02,1.056050451650343558e-02
6.775348700435536442e-02,4.817359384917688919e-02,1.697066404952908905e-02,1.820822627493599161e-02,2.694492115868820335e-03,4.538497334468301857e-03,1.038243702316094842e-02,3.396568662246192763e-03,1.387741417934737487e-02,2.518677165111004798e-02
7.361632547847428432e-02,4.415599212543847019e-02,2.033856122235713423e-02,8.732668411172813533e-03,3.187560995999936912e-03,6.049168855791196321e-03,1.623376442676209650e-03,1.627826081510738232e-03,1.533572743602859903e-02,3.629321782850308820e-02
6.855026165090277734e-02,2.769809450910289822e-02,1.082014001215259903e-02,5.661577126876019342e-03,3.494606584369475480e-03,6.278582636319474976e-03,1.524044171998235712e-02,5.516240208559661240e-03,1.518782416265069754e-02,6.192052788090120219e-02
5.749790012470276657e-02,8.201683682084901991e-03,4.303165140836765282e-03,1.402248171100812721e-02,3.896986098629646404e-03,6.825017017723714920e-03,2.967828221166161559e-02,5.836468191363775558e-03,7.876945068625722940e-03,1.022154643360322496e-01
5.075869742919724564e-02,1.923247335402610307e-03,1.121804142734400198e-02,1.219482558607259785e-02,4.643139497681130802e-03,9.322759610638237798e-03,4.069558899007780228e-02,5.416098358932879345e-03,2.820953777226295651e-03,1.492709874662470626e-01
5.225737035644139467e-02,2.894042531002008738e-03,4.411044101097101426e-03,5.038870777876388284e-03,5.297957393433827024e-03,1.182635757329613020e-02,4.524693227545130425e-02,6.125790646428456651e-03,9.586973512044860007e-03,1.853640803063127951e-01
5.715843503417401827e-02,1.768828268021686856e-02,9.365866061824200742e-03,1.604474485684802970e-03,5.032226656679470236e-03,1.088226851274661303e-02,4.003903167597047674e-02,5.731151898545790158e-03,9.299116095422743991e-03,1.789377615583619963e-01
5.844218771158302822e-02,3.072379888113221588e-02,2.085707108325407164e-02,6.725197515626141209e-03,3.782530982296170713e-03,6.395850139511200134e-03,2.189952344910633605e-02,2.479355592067618817e-03,3.655340198561053862e-03,1.202993577576156881e-01
5.351260822810915280e-02,3.156197555553373613e-02,2.581861993181505666e-02,1.154996586277471683e-02,2.420760522277061108e-03,2.001182866119209126e-03,2.707213916129227148e-03,1.349580960287733626e-03,4.040075004848887527e-03,4.447945026148465014e-02
4.544103958076975425e-02,1.843418351668361238e-02,2.393316638070099381e-02,1.517315404636364849e-02,1.522130526438409803e-03,2.937321151809911004e-04,1.815461223418978962e-02,3.232721025943375084e-03,1.029249059530075797e-02,1.703624457033491024e-02
3.905076965099885805e-02,2.231801931690596038e-03,1.613247324430618426e-02,1.499797929662416950e-02,6.863177395623795262e-04,2.849841911435848545e-04,1.752986026904116562e-02,4.319738623561870591e-03,1.334455492117623925e-02,7.764593253442818310e-02
3.779667623972684382e-02,2.319947637768605964e-02,4.454214873377268687e-03,9.913862356736196854e-03,8.776623158061480244e-04,2.739162870181043388e-03,9.846582373603769006e-03,6.306602699634202697e-03,1.550953883665908556e-02,1.553216520488009955e-01
4.354967439603606855e-02,3.959058926322184258e-02,7.699863546561737208e-03,1.990592694355463547e-03,3.420950576806443613e-03,7.043907898717240677e-03,3.541842638969473159e-03,7.978909556372478645e-03,1.999277992439063914e-02,2.252393024887149875e-01
5.367885883287539656e-02,4.616556681826885361e-02,1.676685188084136788e-02,4.460564848659464947e-03,5.798678412860886790e-03,9.796688687756337569e-03,5.292677025971051670e-03,8.030421777853421691e-03,2.506427223938283502e-02,2.456307958480601628e-01
5.725217435120360382e-02,4.040229661321912552e-02,2.140603897411762213e-02,6.385430333874458561e-03,5.965818433289010909e-03,8.110388452782642602e-03,2.105917724336781385e-02,7.670421550135335040e-03,2.522680137225824515e-02,2.124740004477155830e-01
4.049111224476246301e-02,3.094614441232444030e-02,2.432214773946536970e-02,5.154144434030815888e-03,3.704285322578527995e-03,3.120237447047189295e-03,3.659193267928276261e-02,8.451239713734192555e-03,1.802867839680650716e-02,1.665381639260482272e-01
6.504772574737367752e-04,3.356398062427350809e-02,2.946604007417810700e-02,4.306603425330798353e-03,1.790343748230673179e-03,8.925161150086696792e-04,4.333204817557123611e-02,1.098916098123746757e-02,6.427848076245547097e-03,1.475283547964953978e-01
4.616332309020767383e-02,5.216432014495969716e-02,3.477044719208284562e-02,3.964365205497797674e-03,2.470246252489274440e-03,1.221541146938655720e-03,4.508350059983321639e-02,1.604879331399569967e-02,5.310076822688510577e-03,1.566624154588101003e-01
7.615342023445922925e-02,7.118842986510989790e-02,3.208142503068839996e-02,1.121802962439514672e-03,4.449312010273888049e-03,3.163249498549005061e-04,5.032123576165648676e-02,2.348964665783175379e-02,1.493181344066104449e-02,1.782390321018593460e-01
8.240694503172854568e-02,7.385404049465763010e-02,1.944163635776869486e-02,3.795561419754876938e-03,5.499002831304735349e-03,3.868086402184091983e-04,5.721173327165179900e-02,3.092372572873257341e-02,2.109109454698011171e-02,2.170382080922902690e-01
8.234980409426334580e-02,6.063708598214146567e-02,7.255284000251882581e-03,5.699293636662891051e-03,5.488852170993819592e-03,1.445884895565572800e-03,5.642322590908970675e-02,3.604578859654085365e-02,2.227573141301686030e-02,2.772582111706183849e-01
9.169410486804145666e-02,4.363880533476337253e-02,5.469935971645391304e-03,2.267378144792225967e-03,4.552124677402995083e-03,3.613615621323409532e-03,4.390094365824783601e-02,3.852482510844502939e-02,1.895456203123884256e-02,3.203581218972885170e-01
1.031567686466539346e-01,3.172393542468734257e-02,1.105473035523562783e-02,2.278792606229774684e-03,1.638350040109938380e-03,5.967226055639948332e-03,2.457291791006072090e-02,3.778709052645565919e-02,1.510225787371600147e-02,2.936716720406078451e-01
1.030873571851008558e-01,2.649131605475848680e-02,1.435101284337004027e-02,3.245348543861593677e-03,2.578925324276271341e-03,9.076808408097544051e-03,8.083926960852392402e-03,3.228083466355204101e-02,1.551659922751898353e-02,2.004450258391376472e-01
8.999506275156685109e-02,2.379138785307353607e-02,1.122411048642464777e-02,7.349833954241460432e-04,5.072155910743317633e-03,1.172603030088732907e-02,3.786382169963244462e-03,2.329798476580032668e-02,2.136414866024839709e-02,1.006901145198557390e-01
6.454858222144246871e-02,1.631038623077598476e-02,3.183922501161957040e-03,3.290025009665869041e-03,5.209367625096917274e-03,1.244936589626604619e-02,1.570500358403653998e-02,1.569386763305384569e-02,2.876267340903067987e-02,3.813625011193792075e-02
2.542026357855243363e-02,1.955924670549130488e-03,8.492382320027665535e-03,8.595710559772772735e-03,6.415109389617386533e-03,1.227470989636878299e-02,3.871843728127499079e-02,1.201029981403529956e-02,3.264678966641583469e-02,1.578428849377030291e-03
1.664836011220795567e-02,1.183583119399533173e-02,2.148080096380105067e-02,1.435461861824709716e-02,1.068440178049184092e-02,1.304418656063689036e-02,5.865939529676199304e-02,9.608640225892627409e-03,3.189620907392737292e-02,5.448023049957026465e-02
4.790479234788718593e-02,1.803216234838103324e-02,2.795607755824713186e-02,1.658592912799546418e-02,1.490513630572004242e-02,1.430404018223229920e-02,6.086550150576960916e-02,6.449096339129736094e-03,2.837220344265395031e-02,1.269594458164456929e-01
7.552509895547755703e-02,1.877081732715500662e-02,1.980566607082104302e-02,1.190927383186760405e-02,1.528352193398295131e-02,1.419098964620681136e-02,4.543957189100057692e-02,5.522170863469726999e-03,2.201578690039452529e-02,1.891213460523828438e-01
1.074731454746800791e-01,1.825270977073089468e-02,9.452649124996794633e-05,2.627964035732243114e-03,1.232924673262621000e-02,1.153602441409470533e-02,2.687023215596490849e-02,9.198992871052762491e-03,1.228103100780443546e-02,2.052908134645769767e-01
1.121764568871015805e-01,1.408821891815719221e-02,1.843800887065617095e-02,5.647124108516134340e-03,8.373516950537937542e-03,5.137235133849019954e-03,8.300182097790442109e-03,1.246915018283379500e-02,3.518870074566113164e-03,1.719905257748149396e-01
4.788293825748606014e-02,3.254399065457280055e-03,2.501652973657633033e-02,1.046515224233669425e-02,3.320183097879255470e-03,5.662570667961688148e-03,2.839808508185200087e-02,7.845150689177392625e-03,1.714433197336170641e-03,1.315838650008301636e-01
6.322067934517250354e-02,1.007938751884228032e-02,2.090748316296957635e-02,1.294740866315439304e-02,3.039765192465945353e-03,1.703557160315980964e-02,8.864957395994089995e-02,4.094578164405581790e-03,5.958293727346633366e-03,1.335917477729731684e-01
1.419800910314454045e-01,2.150612864715354886e-02,1.413051860134698773e-02,1.327772987062245461e-02,7.298282394525802338e-03,2.183140110846518503e-02,1.409032704672676661e-01,1.526814324740751946e-02,9.624951813764054051e-03,1.735912680778024519e-01
1.419372943501626960e-01,3.431406448047801677e-02,1.103674265272330292e-02,9.725831881590502742e-03,5.698574837275711957e-03,1.818015855901558564e-02,1.516191595474161991e-01,2.117255497601432807e-02,9.854861069877129606e-03,1.894543632761428731e-01
8.910855492218644480e-02,5.043684538181450461e-02,1.052739070398056587e-02,1.916275957410093749e-03,4.160446314425985835e-04,1.232256311981128928e-02,1.271692347641246723e-01,2.487619729275270669e-02,1.051693462992982740e-02,1.310077269262975019e-01
3.228038816368735547e-02,6.095151045912006876e-02,6.608370328296272675e-03,6.673419939614719243e-03,5.862404409169165442e-03,9.698052691879290380e-03,9.674818153166817036e-02,2.888207270328929654e-02,1.518382650501158039e-02,1.666886303045096024e-02
6.709592613525565755e-03,5.656885716006854886e-02,1.603752965587655361e-03,1.057744678605776478e-02,7.325775058595315747e-03,8.283070014088135188e-03,7.154834166039238108e-02,2.976651148480135428e-02,2.097917849408447930e-02,9.090605855321361173e-02
3.257309267856432072e-02,4.132747292864103611e-02,6.917976426648472787e-03,8.299747103920326885e-03,5.836533633375014414e-03,3.857736703098847003e-03,4.456121860971110765e-02,2.423641305028342852e-02,2.148799516123647835e-02,1.475424181670528800e-01
5.479327617195482725e-02,2.677033007048292348e-02,3.969368939157447151e-03,4.595721002766482884e-03,4.451554537437532773e-03,3.272424701735437893e-03,1.471673074809473451e-02,1.540698695300844398e-02,1.449343573100986098e-02,1.521282682920491180e-01
7.328423860586050220e-02,1.745125020477708566e-02,4.702156252251558921e-03,2.997303275695182168e-03,4.933398095990268115e-03,1.029238630770865255e-02,1.192772298539889093e-02,8.298880793888244872e-03,4.937201692498303929e-03,1.240145664406532844e-01
8.164239194506199560e-02,9.294661782550717871e-03,1.504481647287909778e-02,3.760692551690980167e-04,6.661651935935699806e-03,1.627590336306139127e-02,3.463320529936592118e-02,2.455449002162681232e-03,9.524650507243223076e-05,7.562600673754339697e-02
8.190829642165443902e-02,6.775635477291154854e-05,2.577586850030760129e-02,9.328151785835915241e-03,7.848875090419850376e-03,2.098129054078809452e-02,5.362744875082987167e-02,5.364519547908543073e-03,9.647851586198834088e-04,1.223022057459904714e-02
8.388143875074219324e-02,4.372383879853910735e-03,3.458575735274854041e-02,1.877931042239191009e-02,7.081659799475039686e-03,2.251528545616584068e-02,6.124747112408972238e-02,1.333538135982453507e-02,2.260098688434578756e-03,5.025163531812716633e-02
8.505527720201086495e-02,3.023330079599709490e-03,3.848902539032088982e-02,2.162782830679697496e-02,4.006969895222249611e-03,1.937781430453960896e-02,5.015442021331280309e-02,1.574001787045441539e-02,2.316130607665724175e-03,8.684276589362133203e-02
6.645524900432957238e-02,1.929484246947254719e-02,3.793553326701420286e-02,1.946072984492539307e-02,5.996657158216728636e-04,1.275909085366647849e-02,2.268538216504457222e-02,1.129125114894001004e-02,1.139175180795688053e-02,8.774758923545332434e-02
1.546054626938951626e-02,3.139238891548160049e-02,3.342752859428518158e-02,1.816815833659998422e-02,5.301172306337517681e-03,5.192697846254686576e-03,1.436055371721274392e-02,4.532245750242373285e-03,1.869910195928978572e-02,6.298665643038191264e-02
5.676413660670990430e-02,2.895556793847588878e-02,2.249449758818109282e-02,1.812137222387175464e-02,9.164012679451279120e-03,1.716372422030282329e-03,5.399033221756942974e-02,9.231798500860086305e-04,2.152832977502497358e-02,2.655844504092465252e-02
1.225012256319851361e-01,1.506290940253453281e-02,7.806543930483667536e-03,1.629368595035936632e-02,1.273008255150493741e-02,8.390619747638917991e-03,8.599664201241048744e-02,5.492042929967571631e-03,2.184535125532034369e-02,1.098761807388869485e-03
1.577570883897958520e-01,1.690276937379310562e-03,2.080990650052001170e-04,1.301964244818557166e-02,1.704078774438310198e-02,1.654276780121299861e-02,1.008445853570366507e-01,9.896098967233016644e-03,1.988823112060470605e-02,2.168904514858009669e-02
1.590285215079785541e-01,4.652570251656993824e-03,4.439114535033701452e-03,1.035984716947604446e-02,2.120201105027061037e-02,2.592885027146330998e-02,9.857438350286397422e-02,1.276556883023429768e-02,1.283007997420682403e-02,9.298368987616371928e-02
1.423227502673968803e-01,8.870746260829029048e-03,1.035427677312206196e-02,7.974376837732364415e-03,2.226002828763364028e-02,3.288124814305781740e-02,8.788304980248032305e-02,1.289404742216013894e-02,2.660995993732781593e-03,1.548733817499120258e-01
1.215360606867839366e-01,1.822005241368284539e-02,6.432659968383768433e-03,4.598507427566810891e-03,1.854946611920762350e-02,3.409349712358503148e-02,7.458412311471908362e-02,1.135784584618671975e-02,2.476825956072781156e-04,1.365549725177916673e-01
9.032947863649183617e-02,3.193611192323649040e-02,6.225955003367437436e-03,1.946088287788249509e-04,1.189835471492727698e-02,2.998502165309911358e-02,5.447102487185135483e-02,1.052505487300811789e-02,1.145788148730971130e-02,4.041969737571925181e-02
3.538186858905155441e-02,4.320380850608313006e-02,1.932769401865139930e-02,4.945025206118763145e-03,5.730228178175918868e-03,2.336880165550476660e-02,2.430692572821937375e-02,1.141871912466798852e-02,3.002329856957351717e-02,6.322710165991232700e-02
3.269222118317329645e-02,4.902067466865674822e-02,2.899829825975690917e-02,1.028287470622862507e-02,2.267287379024120891e-03,1.747494663750533486e-02,4.349744543871771410e-03,1.151110508952621347e-02,3.969501456810863721e-02,1.138090008638064088e-01
7.742246390729423666e-02,5.342940541568547141e-02,3.660410451638902024e-02,1.446363190527921901e-02,1.654105854009461354e-03,1.466111761122549165e-02,1.807465443474029487e-02,6.125107018545136207e-03,3.441223218135479323e-02,9.952918135788044185e-02
7.370596551934815999e-02,5.981029763266922095e-02,4.303303226302664791e-02,1.737765449722704705e-02,2.195793742008154709e-03,1.384249321706557817e-02,2.359713793390653958e-02,4.804171844959583514e-03,2.179837478252361765e-02,3.976672713653332109e-02
3.542191448979453705e-02,6.435479711229293021e-02,4.662962261242944301e-02,2.116424344691232584e-02,1.691761699462845242e-03,1.100577213539225517e-02,3.551566962436324137e-02,1.302826675384574986e-02,1.142093327657259412e-02,2.917326681908204156e-02
1.090892912019686758e-03,6.143803218914785369e-02,4.513895409521451185e-02,2.600870934521795977e-02,2.007435917123252681e-04,5.175065203191324403e-03,4.859178301567802089e-02,1.104020236433443485e-02,5.983942927851483053e-03,6.418533840626791664e-02
1.187147617365521754e-02,5.230999224502824729e-02,3.816684624464636993e-02,2.723687272331918804e-02,1.565868492483115694e-03,6.804784616738269749e-04,4.551646572981425665e-02,2.911425043338661690e-03,4.212236854939738206e-03,4.724754024407339797e-02
7.900874089564048457e-04,4.297655250846250247e-02,2.905938584367620536e-02,2.053034295918564067e-02,5.158718738401139783e-04,8.913096690920270775e-04,2.490020471463266077e-02,1.711286867277686530e-03,6.023312593616894639e-03,2.459025294652018162e-03
1.112921414483981561e-02,3.629295100704850452e-02,2.290776474698601531e-02,8.142544348095701393e-03,3.230124156007630441e-03,3.751477283538346037e-03,6.173985163667582848e-04,1.731249593261303607e-03,1.129162153036446584e-02,3.231479701860477671e-02
7.543182784463307519e-03,3.189709314242689109e-02,1.954656816364680819e-02,3.616264745196876539e-03,8.319344386509452266e-03,5.727227996662653114e-03,1.931900352556068651e-02,3.290749064892213062e-03,1.677236922324794668e-02,3.782118077382218974e-02
1.128750272110984332e-02,3.119754741493816277e-02,1.266247608265283486e-02,1.100602779387998068e-02,1.199075158866912474e-02,5.995315733751246587e-03,3.611928806282661136e-02,6.550093427058603646e-03,1.825071432389658785e-02,1.387092949154435269e-02
3.603646219246031679e-02,3.728017790117763020e-02,1.081923631042701860e-03,1.383111404805525968e-02,1.176084233258786922e-02,4.966833983783646919e-03,4.778947605785052732e-02,4.042092871370321118e-03,1.464998347412223116e-02,3.075563058923397666e-02
6.052140255515300188e-02,5.059299892519084768e-02,5.633866628187848488e-03,1.186441184643597865e-02,7.754292995876439776e-03,1.963762713108612064e-03,4.548333256580056744e-02,7.085558625784963392e-03,7.522337500775686144e-03,7.757495965809522998e-02
8.028435040711942583e-02,6.506543454991726982e-02,3.536821270671477307e-04,3.810837876574522248e-03,1.790532763223907746e-03,4.108599821631035015e-03,2.190963061576312043e-02,1.958300930178818317e-02,2.384319807288678376e-03,1.008157240399712440e-01
8.521395189342731435e-02,6.860139195331621531e-02,1.395934057351890661e-02,9.069481901698567272e-03,4.918773573393685379e-03,1.269595793013645127e-02,1.838188108565332046e-02,2.566138647854948607e-02,1.517595415070776936e-02,8.592569975476595234e-02
6.745920239181334155e-02,5.328045438553457441e-02,2.380297024922232649e-02,1.907540817997097071e-02,1.064676841103030444e-02,2.061812501833939354e-02,5.552995338782727719e-02,2.550221317686951136e-02,2.779591902483962915e-02,4.809567621109570035e-02
3.680068994010121664e-02,2.577158333537566889e-02,2.289951897835207362e-02,1.568243286801145053e-02,1.215202064099082761e-02,2.423384030442317025e-02,6.696196336113965919e-02,2.232656224625872640e-02,3.315938438504922869e-02,2.369247568072550478e-02
1.125660977401287538e-02,2.370106380692894171e-04,9.796408127628388265e-03,2.837539658789131353e-03,8.641187169753259886e-03,2.351260976256006399e-02,5.039588102996704622e-02,1.564908771324043796e-02,2.742017794608151912e-02,3.272479476024526407e-02
8.939442519045624758e-03,1.847061900059848022e-02,1.180998931890001741e-02,2.407313198093677734e-02,4.531976735874316403e-03,2.231986805655953796e-02,2.821878302078219269e-02,5.523666937357903095e-03,1.680487917822664698e-02,5.527354233296179198e-02
3.313607324989496089e-02,2.764401023063899066e-02,3.108428934529495341e-02,3.292614156781277501e-02,4.686051111425995272e-03,2.327283428535919380e-02,2.086286424163501935e-02,2.600152334336074990e-03,1.234811217768227998e-02,6.253746480821456566e-02
4.508320501202110753e-02,2.545374612679142737e-02,3.682328182506192094e-02,2.669831118955879462e-02,8.493149375873426318e-03,2.406092384814556909e-02,2.404498067908720019e-02,4.593321886620430755e-03,1.788773884765763877e-02,6.064614121289880339e-02
1.634009937112670258e-02,1.754846385288800006e-02,2.991262828336387070e-02,1.483894343375863518e-02,1.086574312290537921e-02,2.047935202614442965e-02,2.390996604159260908e-02,4.355018085601167210e-03,2.601447252655993483e-02,7.410082927114820806e-02
3.813830921906082028e-02,1.868526499608037100e-02,2.147874637942104314e-02,6.469358580319332225e-03,7.642849413073007393e-03,1.151575466407231234e-02,2.331128918341870970e-02,7.627653786206819130e-03,2.538561132888239938e-02,1.001201505344441051e-01
6.610564045785294329e-02,3.233113289638000348e-02,1.769211905066737922e-02,3.036207429130913932e-03,9.085453244397699406e-04,1.649339356980599695e-04,3.266921704663001969e-02,1.403362310971901367e-02,1.240891150276498406e-02,1.147333951303591143e-01
4.702982478010461070e-02,4.244431805782617612e-02,1.416848208087126589e-02,1.714333966093583347e-03,1.034291751942352337e-02,1.089971429342943485e-02,4.436512052601185307e-02,1.975368896673812893e-02,3.602891827706641067e-03,1.067341691095266693e-01
8.009834637410862337e-03,3.539553710676551779e-02,5.195829756364679988e-03,6.427117691578587352e-04,1.532551681758038617e-02,1.730906003994182873e-02,4.290641533203719271e-02,2.268658919666257517e-02,1.077130605459820055e-02,7.662492499752943109e-02
2.490322878480725685e-02,1.798196446825603423e-02,8.315287333843806097e-03,4.875729717772870307e-04,1.411026866573543252e-02,1.721557401396054537e-02,3.350651167016005516e-02,2.222961693981794287e-02,9.626070251647160167e-03,2.772297213641159927e-02
4.527673634832988375e-02,5.101793841842166589e-03,2.052204236849069705e-02,1.870278139305482472e-03,9.857544295418192715e-03,1.186339160415623983e-02,3.290925203686606570e-02,1.951227354752723547e-02,1.017650083243469214e-02,2.035627202172851646e-02
5.097988368649602337e-02,6.998358482710937724e-04,2.683806822076149554e-02,3.670350834467569438e-03,6.496177400782959452e-03,5.492156046805037051e-03,3.978997213458273369e-02,1.841522325959106879e-02,1.590039798865755180e-02,4.194057369559903159e-02
5.046392593989520309e-02,7.180428366477612130e-03,2.776708650540966536e-02,5.698335768980909016e-03,4.118782493948926551e-03,6.565370658032834011e-04,4.101544098085850576e-02,2.066742608843440479e-02,2.062015951209530268e-02,4.251724695915744257e-02
6.121249911454790249e-02,1.498073269545688140e-02,2.678660420771453166e-02,8.066694641688619896e-03,1.229239572614164173e-04,3.981387559724210851e-03,3.708773479862493422e-02,2.131279168892760353e-02,1.972670828595377013e-02,5.101129834639687999e-02
7.260002572098744889e-02,1.444040634311409207e-02,2.501512472202596302e-02,1.136340425402291784e-02,5.774713242336916921e-03,9.045543377388144679e-03,3.575160580342769817e-02,1.490723523974765014e-02,1.555106836574115386e-02,7.276028319222961616e-02
4.687475477501112237e-02,1.978789771033738487e-03,2.052384364034012462e-02,1.487173360327943318e-02,9.940436048460576240e-03,1.038151905517530754e-02,3.080767075815357692e-02,3.884495619818872838e-03,1.208327896220888834e-02,8.794696927090951688e-02
1.553694338772430850e-02,1.045276361300448431e-02,1.367536546861386482e-02,1.567644487313413909e-02,9.182589974799613974e-03,3.717401111150276868e-03,1.101229267097421534e-02,4.750001599943059864e-03,1.010991611605694535e-02,9.113908592880903825e-02
5.574787784945406388e-02,9.243570613327589669e-03,9.174552674377008110e-03,1.207534432180980104e-02,5.299976781680806534e-03,7.841523506383079115e-03,1.738389300655979533e-02,8.391662894717885970e-03,8.465927506964487578e-03,9.367363451648083594e-02
3.207577363731026893e-02,4.701068324208330408e-03,1.013334667015296404e-02,7.172329205105900003e-03,3.312433547993686497e-03,1.548615190134820796e-02,3.553882256456263738e-02,9.395620774285637702e-03,7.579371765031319222e-03,9.260230520064957616e-02
2.462042222801166802e-02,2.205148067284548596e-02,1.349650912916503832e-02,5.629422721818998915e-03,5.654267520288382837e-03,1.410489814487737685e-02,3.408895676609641212e-02,9.236790913984653517e-03,9.143967075469624714e-03,7.013359449973174953e-02
6.293001001709326581e-02,3.841833308708372113e-02,1.376125673772765796e-02,7.064187825852269800e-03,1.025925079372536422e-02,6.866992910065820160e-03,1.776330118161932592e-02,7.565697918527901009e-03,1.196167653791745458e-02,2.322683086952091747e-02
8.300157462434223921e-02,4.928594449119685916e-02,8.044718254538818156e-03,6.697806960393508369e-03,1.405767733963067534e-02,3.065312070958845728e-04,5.106077541644868378e-03,5.556868152041800554e-03,1.135177101692443416e-02,2.564321250728699222e-02
1.166198904953086174e-01,4.264837660975713540e-02,2.686839909378188965e-03,2.994971803587221856e-03,1.608575677915075400e-02,2.651642677095697280e-03,2.614379592478058290e-02,4.507192694424548389e-03,4.033948687352950473e-03,4.755784767805355806e-02
1.548480304838611987e-01,1.384301232447839904e-02,1.283368989670403623e-02,3.065997032095125487e-04,1.703654657709583603e-02,3.881619241955402977e-03,3.684228768622789529e-02,1.805904740553419688e-03,9.211704223928864413e-03,2.892276101837857466e-02
1.462079152768685497e-01,2.106552719111107891e-02,1.408290972281749098e-02,2.325959870572689731e-03,1.744323908887833105e-02,5.873590769263966477e-03,3.649261188180456111e-02,5.716137186061454045e-03,2.509930695807967641e-02,2.088339777963019520e-02
7.560834280727561640e-02,4.161009490208198575e-02,4.399506710248869343e-03,6.517846211298545384e-03,1.666453912303604221e-02,8.475964336376005936e-03,3.466821500631169645e-02,1.478202681928034168e-02,3.799070492553553724e-02,7.348064425620159934e-02
3.153633503421370433e-03,4.476126544746986125e-02,5.724815330127898394e-03,7.273522254825921796e-03,1.300346408793081297e-02,9.695926417992510940e-03,3.658526482636635657e-02,1.830955260029244400e-02,4.115588607069627092e-02,9.542120650558963413e-02
4.142564840974087559e-02,4.009410437716280640e-02,3.022071127236794323e-03,2.489899320827474241e-03,5.296133993278174731e-03,7.952069080806572349e-03,3.431644403601739196e-02,1.470577982837736192e-02,3.367897150049117133e-02,7.116268679980916612e-02
5.595705442852315359e-02,3.145376856262446785e-02,1.112828693026320266e-02,4.636487677514219106e-03,4.872603830383084866e-03,3.624781868259848664e-03,2.231565311775418614e-02,8.246542270780310435e-03,2.298288811319277106e-02,1.859487544037472656e-02
7.669513791455496998e-02,1.519228298493903624e-02,2.089434587920998426e-02,9.251611261306847550e-03,1.351211764777196511e-02,8.099709768602686996e-04,1.045166009345207224e-02,1.538149492010525143e-03,1.541609520143291841e-02,2.508230143997945347e-02
8.375727391994003401e-02,4.340006406263776512e-03,1.784326998395225836e-02,9.285508051150144493e-03,1.778572101038715034e-02,3.269245075445134999e-03,8.915710817297377647e-03,5.044162213122442909e-03,9.597671245639659982e-03,3.972862212076102434e-02
4.703760861423685047e-02,9.168904430719871518e-03,1.224238984601845603e-02,6.482473912262615157e-03,1.823952852784851281e-02,4.718498193302873497e-03,1.068946228434652750e-02,8.149986490900035588e-03,3.916783601888931127e-03,3.870558916133947508e-02
1.223830272436334660e-02,1.315454516347548328e-02,1.467473622678773341e-02,3.450054914392212263e-03,1.708458735477733775e-02,7.601781810517724280e-03,2.455602516722978947e-03,4.178875231460452665e-03,2.666021709000477441e-03,4.409205067925509036e-02
5.037076011904965261e-02,4.994033561129742477e-02,1.908013380507614723e-02,5.753923582317706188e-04,1.577257949121052549e-02,1.203056616486204364e-02,1.521588913743683082e-02,3.530923172598851058e-03,7.864184143554000042e-03,5.817530267799320837e-02
6.406985802524228779e-02,7.432082159644866348e-02,1.560877234857305056e-02,3.069932794673599537e-03,1.430546597904548863e-02,1.517827636659497062e-02,3.090277822730017054e-02,7.274288510899364762e-03,1.229499370431534622e-02,6.725997666181388057e-02
8.130196494232923288e-02,7.446550761318483647e-02,8.152193610831663315e-03,6.422336725469766569e-03,1.147293319935403441e-02,1.416799796527700751e-02,4.147361572781945588e-02,3.792493634874425246e-03,8.135540529360860834e-03,6.064838915224053661e-02
1.042592142317347453e-01,6.134738028569769464e-02,6.106925902897210150e-03,6.660813709126640891e-03,6.321526728725664068e-03,8.783412439758313955e-03,5.760831115644655248e-02,4.170377693291921553e-03,2.368068600140540644e-03,4.244729157830149507e-02
1.012417628598922953e-01,4.794816100183221103e-02,8.189411567762492142e-03,3.542740631041429999e-03,2.915132313787996096e-04,1.677712662447237947e-03,8.709641928567568581e-02,1.287846943939496315e-02,1.064215354642653565e-02,3.167410954009580726e-02
5.826533370281508639e-02,3.395666968668181046e-02,6.826276161242573158e-03,4.341596386401602205e-04,3.686259001787510134e-03,3.544214471857438497e-03,1.187215674959363199e-01,2.035091079448262882e-02,1.312467587185754681e-02,4.067044306517689917e-02
5.211067284987558508e-03,1.630835066187523441e-02,2.427259047317819989e-03,3.639157726825461756e-04,4.761870588814347618e-03,4.550810684637055133e-03,1.310989467844645151e-01,2.551972161147972665e-02,1.427712437633535392e-02,5.020985102367156450e-02
2.360999510032028154e-02,1.771004693720280073e-03,2.324071591918272679e-03,1.713629179513086512e-04,4.671214322438286930e-03,1.565402577551975455e-03,1.169624027978800329e-01,2.710271404389540117e-02,1.872708567464410542e-02,2.502753765124417912e-02
2.704994529489485738e-02,2.725449351260379738e-03,8.482968272761497869e-03,7.909996944652879225e-04,4.832488217292318054e-03,2.684570635645949343e-03,9.089922415586219884e-02,2.390035266376327669e-02,2.385640237697956439e-02,4.289502816429383025e-02
1.990641205516758064e-02,3.723956063378099264e-03,1.478372275763399114e-02,1.747166514296397870e-03,5.558195372408160882e-03,4.569038811285318531e-03,7.093187845098393451e-02,1.664590195823465596e-02,2.295974303995418700e-02,1.231819801848169915e-01
3.719008787456477838e-03,1.260851789489423821e-02,1.563238792954975073e-02,1.361525180631984995e-03,7.412765474714083126e-03,1.827878084800353600e-03,5.729734873885990176e-02,9.415350575367216826e-03,1.418230922292535237e-02,1.818464897665360569e-01
2.798010430963616610e-02,2.830243123304462122e-02,1.229757028019458701e-02,1.009299656045021002e-03,1.054770520210885493e-02,5.129015517093504090e-03,3.422548924255447433e-02,7.724373167363038882e-03,1.983982522981892187e-03,2.131979371482042307e-01
6.582400094606327690e-02,3.792637788636678275e-02,1.150203222497202769e-02,3.641297961337454023e-03,1.316243270526501995e-02,1.321379888848416700e-02,5.170987423487265373e-03,1.348942752572607380e-02,9.180849103690810753e-03,2.293391056962374441e-01
7.686194795653226997e-02,3.075264090518020632e-02,1.891480634854230194e-02,3.096944840443418764e-03,1.239827754689102300e-02,1.765326405007058494e-02,4.147884709487947852e-02,2.149306257491508110e-02,1.747140490387295506e-02,2.315323458655555167e-01
3.339786241391231453e-02,6.972960068911552081e-03,3.161462980522121435e-02,2.192447209923142817e-03,6.888681746241981201e-03,1.491112164446774246e-02,4.916773705147910872e-02,2.320376187501432819e-02,2.181836683342630936e-02,2.098080758596772843e-01
4.314204663041058124e-02,2.140347709273441451e-02,3.828344396603164390e-02,8.561808999362735539e-03,1.233852713563422451e-03,6.746587366174950674e-03,3.277382732284787187e-02,1.623659750455207912e-02,2.321929744163202941e-02,1.649546218742824200e-01
9.088804844396247695e-02,3.643814100495301050e-02,3.045622018612208909e-02,9.416380925086675902e-03,6.846511055427843308e-03,8.436691978619707474e-05,2.256898429494606784e-02,7.271606720681701719e-03,2.528134180178017582e-02,1.135451804677906074e-01
7.646715248406120435e-02,2.839599645589910293e-02,1.141473375937427509e-02,2.421862674375808988e-03,6.126664280900122155e-03,9.423610612212139290e-04,3.201833226778737912e-02,2.731517249009865391e-03,2.815631838100943196e-02,7.033667853645303447e-02
3.034487514428246824e-02,4.856878834044141280e-03,8.569224032451068160e-03,6.764666959663154407e-03,7.924389204562516014e-04,1.475617841825882254e-03,4.452712032685133409e-02,5.121002773444106003e-04,2.598327642621857739e-02,3.661011023811124032e-02
6.204916765379926528e-04,1.980006136874070885e-02,2.206145060476303807e-02,1.002265884636893006e-02,3.892717966953441328e-03,2.093961803535262720e-03,4.569940269555397561e-02,5.111894807804436697e-03,1.645444167343601549e-02,9.461586184644677280e-03
3.180095778409894672e-03,4.069001172510822162e-02,2.752646936876464515e-02,5.634448255737643102e-03,5.575798198232136300e-03,1.321567895475226359e-03,4.208118469578537441e-02,1.415658981381831376e-02,8.159915733927854478e-03,8.107744587994694663e-03
3.455168706829626294e-03,6.019177840726076117e-02,2.698018090098049798e-02,9.888936741498865427e-04,6.676573851421177368e-03,3.571188108477842040e-03,4.383257796059451816e-02,2.102020891923357671e-02,9.809777445009408223e-03,1.540727989254592548e-02
3.805194290814377378e-03,7.236843770132465881e-02,2.345270199793535876e-02,4.872259811298423719e-03,8.968360333086620659e-03,9.025436056957103492e-03,5.106469083887350824e-02,2.245945325967841841e-02,1.565036963006321072e-02,1.914876849778151743e-02
2.618479630922266460e-02,6.197056919604299052e-02,1.917069801858132388e-02,5.698540271661919725e-03,9.675688376612161593e-03,1.185389449720609424e-02,5.928202768014967372e-02,2.189325069411389088e-02,1.219157897352136054e-02,1.813080338011200179e-02
9.720950685459962826e-02,2.476827082064117502e-02,1.514101822575968093e-02,4.953685241919263474e-03,5.729715420369760510e-03,8.034530087605127810e-03,6.246635685643098235e-02,2.423870058293064664e-02,2.285565538925715505e-03,1.644161804785165479e-03
1.600334990167109062e-01,1.965519116278246700e-02,1.224557622805026030e-02,3.748772404069799363e-03,7.092722448025956701e-04,9.629640581135768488e-04,5.311879089050895036e-02,2.842486433547614794e-02,1.523430885487273186e-02,2.421527447653244736e-02
1.578765314900072159e-01,4.525385600227226079e-02,1.114216528604743128e-02,3.356068062773452480e-03,4.620011883302359464e-03,3.462993599566769210e-03,3.259975985211608501e-02,2.866410968296615944e-02,1.561981059535143442e-02,3.260952068553438221e-02
1.002172861042022051e-01,4.578777428439532310e-02,1.035384694234211221e-02,4.153914588404506412e-03,4.593203173852858888e-03,4.066426229845274479e-03,1.774361525994675240e-02,2.250708669995777136e-02,4.565810388773844722e-03,8.843668275933573575e-03
4.548210755143278217e-02,3.503628889459708962e-02,6.711491656756590068e-03,5.011718945659935850e-03,3.784013723142764553e-03,3.554742075113901702e-03,2.351477959395123843e-02,1.351103899656959199e-02,7.178494684277906580e-03,3.633941833674907140e-02
2.095148717771713395e-02,2.433108150067070721e-02,3.914206645890426961e-05,5.867641533968383227e-03,4.980633639613740379e-03,3.460983198538843293e-03,4.108058822308648800e-02,6.228901112494737713e-03,7.797296104878740676e-03,8.771099883021192534e-02
3.529301924447934315e-03,1.132073696130158486e-02,4.629434102423856702e-03,8.144813526698302039e-03,7.063132743233198688e-03,2.859968425864462243e-03,4.821992069014346266e-02,2.221482717811818983e-03,5.536310163330749115e-03,1.334834866342557991e-01
5.535567094003359528e-02,6.788371563812465974e-03,1.165429448557880237e-03,1.093263359042591885e-02,6.814201661051830228e-03,1.447708539668035328e-04,4.085173860328693285e-02,8.175626480492520411e-04,2.290029963264902935e-02,1.562318600772280575e-01
1.039299668823423228e-01,2.022081629141554704e-02,9.738403118367388450e-03,1.060357185587557267e-02,3.268860372068618271e-03,6.603734825353726329e-03,3.461370124458427316e-02,8.140619719070353588e-04,3.136886390612450559e-02,1.458747003176027734e-01
9.920894626252621529e-02,1.711415363818629548e-02,2.070723264511126205e-02,6.070647977128589175e-03,6.330340874671296601e-04,1.368006430711548108e-02,3.250096590952399056e-02,6.374405243688406348e-04,2.744696057883791798e-02,1.205550200476062511e-01
5.182322308707115743e-02,1.772409836983726214e-03,2.499065534339232897e-02,7.006236367015537207e-04,1.074552041258767989e-03,1.464402920046522540e-02,1.595384614333202750e-02,1.217789210740694147e-03,1.682078162010602548e-02,1.090649438238941032e-01
2.401926702917025341e-02,9.381615814245139462e-03,2.313246871369176172e-02,2.429652189133682701e-03,2.355289846926128181e-03,6.239093556567674136e-03,2.103692120407923277e-02,4.094741011174247124e-03,5.895072927878255466e-03,1.169972955745532117e-01
3.746783877995562423e-02,8.746314661282358557e-03,1.986837236021507178e-02,3.271558895822455643e-03,6.223833610476961313e-03,5.481925875874451431e-03,5.262724589485412441e-02,5.139624605388512513e-03,1.659483304994481068e-03,1.321818808007073354e-01
4.781133707141821398e-02,3.707887402955948111e-03,1.474993704232429280e-02,1.692357013469870421e-03,7.184140926082936349e-03,1.138619436842177625e-02,5.233080005144482433e-02,3.672060766412317719e-03,2.761423937219406079e-03,1.496249709330939037e-01
2.515208704735914791e-02,2.071444182587007122e-03,2.596977144937402671e-03,3.416118129532127318e-03,5.223488211863153846e-03,9.533300209830525979e-03,2.556155093423134045e-02,3.023542831636889285e-03,4.738732656087426415e-03,1.662548928863035735e-01
8.191373065251014718e-05,2.210865411128867721e-03,1.443619634464901255e-02,9.741294868245249303e-03,2.468108594015278913e-03,4.773755036239639947e-03,3.546289525051231871e-03,5.394429312147177094e-03,1.711319283442927150e-02,1.688818175257771337e-01
3.492542685427860259e-03,1.405227931380763958e-04,2.420574920316406406e-02,1.136886578077134398e-02,1.883054998815569857e-04,7.661693491732752843e-04,2.088753296644944857e-02,8.394933946055832888e-03,2.412815279304517113e-02,1.524407194466315119e-01
1.458056527792560286e-02,3.097059823689820440e-03,1.823137368408531481e-02,5.967637507032832848e-03,1.827400525305962649e-03,2.460326167202771253e-03,2.416075100210826956e-02,9.155000308850287302e-03,1.968069576238998253e-02,1.339205384042815861e-01
4.294925383552781334e-03,4.831610046828969593e-03,1.044331881970930655e-03,2.203565365242208217e-03,3.976767058193515086e-03,4.914756116045699251e-03,1.167815803263366585e-02,8.081013730237318268e-03,1.047747081412218721e-02,1.288583055722188619e-01
5.218077292551275698e-02,4.017093912955247217e-03,1.572555969051520064e-02,8.475540245718792692e-03,6.070476298875813852e-03,5.301573040963610504e-03,1.474530844123237219e-02,6.558323353280222368e-03,6.256788797212016126e-03,1.277944388738380677e-01
9.906521926441268222e-02,1.571928778331785738e-03,2.295704844979603448e-02,1.236601825636523926e-02,7.319589393625117353e-03,3.079257579649581980e-03,4.399587782292072730e-02,4.273087825772395841e-03,6.104633896360362605e-03,1.095474382055580675e-01
1.267500995046609569e-01,1.490915527550205899e-02,1.838937157787734825e-02,1.472481064011240542e-02,6.785961971269581332e-03,3.333781497122236892e-04,6.457636662786769843e-02,2.315020517742293743e-04,5.295060080342393199e-03,6.879671541251290712e-02
1.376873981207210051e-01,3.483326830206139035e-02,5.863237581856782683e-03,1.479007694657496694e-02,4.311014270732164283e-03,3.048240017454573614e-03,7.566031273518283862e-02,5.728969626557518097e-03,8.751020434118517155e-03,2.126086991401293647e-02
1.357930823892508354e-01,5.571418908374999035e-02,9.078946744982396150e-03,1.124754878281460785e-02,3.457177859350541761e-04,5.548555605994287022e-03,8.389669736533965361e-02,1.236985372136237445e-02,2.263975831185745594e-02,1.452773407510668698e-02
1.164104902540122333e-01,7.153370490766131073e-02,2.227430601295722970e-02,3.780170014535838043e-03,5.568774321842909387e-03,1.076128254077117659e-02,9.379451920614174931e-02,1.645516092250294202e-02,3.844790418727346559e-02,3.275383556146906072e-02
7.699338205392292078e-02,7.820687625013361677e-02,2.989968562715502112e-02,5.839502738466782403e-03,1.425655901289338105e-02,1.951311559046401897e-02,1.044350463524958972e-01,1.462189668440397501e-02,4.163498668286919752e-02,4.005468113759313303e-02
3.238599357655569388e-02,7.522465372556977337e-02,2.973508504942569408e-02,1.343157863691723727e-02,2.398907776711746778e-02,2.791418299861743793e-02,1.127256428471606758e-01,7.818646084316878409e-03,3.211146853314679472e-02,5.104500336447961861e-02
8.154973946471005125e-03,6.745627671856564700e-02,2.581684775540922516e-02,1.556714824077365042e-02,3.046776870903421253e-02,3.175611554344291709e-02,1.180476324880971040e-01,1.504295026108472483e-03,2.223863721385034922e-02,8.032603828847506566e-02
1.247396713605275834e-02,6.051483695132742202e-02,2.522700907015012345e-02,1.290376805582226297e-02,3.077318220477285454e-02,3.071541421558976817e-02,1.210791096589617921e-01,5.128845996426642084e-04,1.880224824007740297e-02,1.217001736697168740e-01
2.849687560335989467e-02,5.229349021234202394e-02,2.772712662179127943e-02,8.027719545937984924e-03,2.564288288143487179e-02,2.613443231557466273e-02,1.175494811286446617e-01,1.762363739060315414e-04,1.901835881000896872e-02,1.412126014575950661e-01
3.911281885480321491e-02,3.702633620543989423e-02,2.664605345182086832e-02,2.205317223008704426e-03,1.795210826302626531e-02,1.873562196833772689e-02,1.017538977866806332e-01,1.528785434848569866e-03,2.043942263003390922e-02,1.121686500068584669e-01
4.007618978032287393e-02,2.007027189569908152e-02,2.133982987424454594e-02,3.064869263199287465e-03,1.061545595053318622e-02,1.038270274840229213e-02,7.771733017469509286e-02,5.170923042538056423e-03,2.413369941467414029e-02,5.090224993531401038e-02
2.904710800369126461e-02,1.652874771083268080e-02,1.798541426353728739e-02,4.976152869752357988e-03,5.097794895114382899e-03,3.750730279750382444e-03,5.429659300163357238e-02,8.473417941229757777e-03,2.885946433477631912e-02,1.926485970855139687e-04
1.783157523603753295e-03,2.960266321568951267e-02,1.704871934532442221e-02,3.176431051206168171e-03,5.370824827332309169e-04,1.032213789580788913e-03,3.011298265027913257e-02,1.019537624713752824e-02,2.871074053940449525e-02,1.550719615030879926e-02
4.140466287536260365e-02,4.237472459199929931e-02,1.255523559854112257e-02,1.192074499939687303e-03,4.539713419219116794e-03,5.686001918116542417e-03,3.092532618281396833e-04,1.240649495619624947e-02,1.866920340959576236e-02,1.516089577270985332e-03
8.904989257349599230e-02,3.856414964211565127e-02,5.168538716083548659e-03,1.449931152147224947e-03,9.341204972703113021e-03,9.728397895381594995e-03,2.797010707653995593e-02,1.700842434313093107e-02,1.369265418491764615e-03,3.476111982580238485e-02
1.131338060455720912e-01,2.117602578523553047e-02,3.189084842264710250e-03,2.226270519081400504e-03,1.165856272502159389e-02,1.074890193650147527e-02,3.575538295336153083e-02,2.198206595660166102e-02,1.402895486204278584e-02,6.968827120518295004e-02
9.139187333974735372e-02,2.257970358420917714e-03,8.329181220212891062e-03,1.716249345572356741e-03,1.135175696424516392e-02,8.376648047615641024e-03,2.346612955587618066e-02,2.301012391546673405e-02,2.111913864290274404e-02,1.002716720761441804e-01
4.928812171110240337e-02,1.660862097243358260e-02,1.185719386202106415e-02,1.622854986619797109e-03,1.063661928580146403e-02,5.166982832301342948e-03,1.186879622067102749e-02,1.849818414546524140e-02,2.213055829449387529e-02,1.292901384458900460e-01
4.051233247477471072e-02,4.177173727436461759e-02,7.837975715444131519e-03,3.814164311759919625e-03,1.103039788891894274e-02,4.088652509633267790e-03,2.094608236361930609e-02,1.148822328851340988e-02,2.323315666415954814e-02,1.554104031077624404e-01
6.878613831005649104e-02,6.999320705418689281e-02,1.105973180223148800e-03,5.940686628191949557e-03,1.166376730826983871e-02,6.488375592191611071e-03,5.215321301542856502e-02,6.537700481719553591e-03,2.682522991201236745e-02,1.626386081996712141e-01
8.033524968504882069e-02,8.700105941976610247e-02,1.496082599838728959e-03,3.835662479633010925e-03,1.057146692862536916e-02,1.126382376036121416e-02,9.019619177777141172e-02,5.618983437904791559e-03,2.992879382283002848e-02,1.365347601723631843e-01
5.042230086492250490e-02,8.591990527108610276e-02,1.014145103125867588e-03,2.589000258706002956e-03,7.096531523805167316e-03,1.550979058639296096e-02,1.171208103599675754e-01,7.315847001626166538e-03,2.844779335242377666e-02,9.083160310112187164e-02
2.172225969276651153e-02,7.674353445774008409e-02,3.079557486638085859e-03,8.537006087226699583e-03,3.215495839882326953e-03,1.738619574859774641e-02,1.265651118967592026e-01,9.304181775193138756e-03,2.202493767606865729e-02,6.037937731824014054e-02
3.590114149921141279e-02,7.263784115548181652e-02,8.747268186921841604e-03,9.414522135762900742e-03,2.062284797360286904e-03,1.807595991225766779e-02,1.258460333401898723e-01,1.031723034633952665e-02,1.473858615838462109e-02,5.834371605594080440e-02
7.242306476064960807e-02,7.548400195693467929e-02,1.301314343317181918e-02,5.732930228780819606e-03,4.274454372892410106e-03,1.941924658767243267e-02,1.230555732527141566e-01,9.767478722892693199e-03,1.092353049448666069e-02,5.630623456260198945e-02
8.150979554003062733e-02,8.071998755274054083e-02,1.121685582600070313e-02,2.955955493492919833e-03,6.582262049531764289e-03,2.030558630281004487e-02,1.152154363002187570e-01,7.752660095042929016e-03,1.112932423605773012e-02,2.741497334722368603e-02
5.100342854094137152e-02,8.748685088145199962e-02,4.510943310646134581e-03,5.727136897824443122e-03,5.651474465385754320e-03,1.737196918684012423e-02,9.326730343246984745e-02,5.931328697285287270e-03,1.296928038905187895e-02,3.810375013474889133e-03
1.142390997722781028e-02,9.509823003158154875e-02,1.379730167317047389e-03,1.246640934784296224e-02,2.407360072121611516e-03,9.672602963749743835e-03,5.784658363773245715e-02,5.920346373434724925e-03,1.485360248666352419e-02,9.980707206938587914e-03
1.311917067202267653e-02,9.621643117417393032e-02,2.854924159374345322e-03,1.784254239751472196e-02,2.185155339104705402e-04,1.368076264291146014e-03,2.646003241584471075e-02,6.841707015335622352e-03,1.756546658391359983e-02,6.437302542305407826e-02
2.601677452695349765e-02,8.480212582888507766e-02,2.265918953887760025e-03,1.931312302832546499e-02,2.033288332236823405e-05,1.709029952032517421e-03,2.017407262691653380e-02,6.839191262885571491e-03,2.233863816484893752e-02,9.914364559880098349e-02
2.958254491461276975e-02,6.855650026048476509e-02,2.844899967089697078e-03,1.775928603702565944e-02,2.700880401703212048e-05,1.704344426238799245e-03,3.989961827331315464e-02,5.979936451101869332e-03,2.814322911794997495e-02,7.366762862546381851e-02
7.308207546217795544e-03,6.324866497347209071e-02,3.065100511197709453e-03,1.373472044704844575e-02,1.456341904913635230e-04,7.174540683689186078e-03,6.232471111649118961e-02,5.299565186054073194e-03,3.222153497139530753e-02,6.617688757305481388e-03
4.702746467669377539e-02,7.464225461070223000e-02,4.288954617178576787e-04,7.369703772398407404e-03,9.040413962069337572e-04,1.067826634103391167e-02,6.839207470430715141e-02,4.458682234322971887e-03,3.428385727026977969e-02,6.497597683012545922e-02
9.613250528509242887e-02,9.397995324969259101e-02,3.224764448029853424e-03,4.982170686762126292e-04,4.243409260513791165e-03,1.355488519474776221e-02,6.744218441211258241e-02,2.116218612670172847e-03,3.793465987398858541e-02,1.231353111330483058e-01
8.526349665367621844e-02,1.097126084504969068e-01,5.573572404974429587e-03,4.678123721263077218e-03,9.212149626750173667e-03,1.867888202213023249e-02,7.675119591484452775e-02,2.703769663422341332e-03,4.588960517267100248e-02,1.525072458110859341e-01
1.132204199556580658e-02,1.151252126507362195e-01,8.709106195211166121e-03,8.270997601776771194e-03,1.377680734986387427e-02,2.370973190138178643e-02,8.579307982331341176e-02,9.733372178430396010e-03,5.636499494078893446e-02,1.320557531913570948e-01
6.462990322116211883e-02,1.082685105243584439e-01,1.523555354441648649e-02,1.177242015933959926e-02,1.569020690716444941e-02,2.275249969939092259e-02,6.705062934986344425e-02,1.632755895767524709e-02,6.526698058411511960e-02,7.259666488800639583e-02
8.847128796860173616e-02,9.564943360928036820e-02,2.368883963642135285e-02,1.521654940073726391e-02,1.420428764873214733e-02,1.425471950476953596e-02,2.022398709028096209e-02,1.870213996654947891e-02,6.752632410830286536e-02,2.725495986429245579e-02
6.208970251878590668e-02,9.059525128283275885e-02,3.139659759598908972e-02,1.737631111115427521e-02,1.091853785596694562e-02,2.361929753275575188e-03,2.329304728245129921e-02,1.621503979096466583e-02,5.605162405708018214e-02,2.829112612821339454e-02
1.425165202203006361e-02,9.424579902122805219e-02,3.745732618261089081e-02,1.838039323332821620e-02,8.330229435742525154e-03,9.304797945023542127e-03,4.228062984191827134e-02,1.189953372714430517e-02,2.721002343950136224e-02,4.071517760497149474e-02
3.210663952588390518e-02,8.763787085909567620e-02,4.086138627231591935e-02,1.989534172492372216e-02,7.419814843022770785e-03,1.990199239050528118e-02,4.547217973185892909e-02,7.374881589376242053e-03,1.014795414537330437e-02,1.525890449847880706e-02
5.411160926688066836e-02,6.063145778176035755e-02,4.052133960689689729e-02,2.249837168215048505e-02,7.202845386617620117e-03,2.768236271100205440e-02,4.741993904688389383e-02,1.332864437672326343e-03,3.938314294265598398e-02,3.942744388989606608e-02
3.154416999169218361e-02,3.273379308717792868e-02,3.814120685047450027e-02,2.473690701659238961e-02,6.722975622307730478e-03,2.979357043021121226e-02,4.885429818511188155e-02,5.285148611194260930e-03,5.309193616469314730e-02,7.802035402304198508e-02
3.174462928248022314e-02,2.027088362471395760e-02,3.635602857893815293e-02,2.509567514335079436e-02,6.268400351457766029e-03,2.680139384301444619e-02,4.612938918484309203e-02,7.616194334303940175e-03,5.791774874958111746e-02,8.743970695703449925e-02
1.058373160808208369e-01,4.647086721464978830e-03,3.472130551913336916e-02,2.361057536326696335e-02,6.060843017767357684e-03,2.296005043670124035e-02,4.213433437045747271e-02,3.121325899334376382e-03,6.086428969149314250e-02,9.066003676556091961e-02
1.521966350941841573e-01,3.403734366678138473e-02,3.312487987368676473e-02,2.175154152983806502e-02,5.683609556156267797e-03,2.003774461134985585e-02,3.833343921844986624e-02,4.114299209044118034e-03,5.973081421791721912e-02,9.765620007872696795e-02
1.419478735503970079e-01,7.410585531349633825e-02,3.660711183849593708e-02,2.153821619066353943e-02,5.946168633363235929e-03,1.431059438390420817e-02,2.489328265885931354e-02,7.624121930217621877e-03,5.000159242170252455e-02,9.254859360669875912e-02
7.815598151605504529e-02,7.941584931889107690e-02,4.745306374463450355e-02,2.349915309169149299e-02,8.593403723661116600e-03,2.906979305393206023e-03,7.927652344215638941e-03,5.586938455288795007e-03,3.422144519133452772e-02,6.498242063413807446e-02
2.711450330921932016e-03,5.307615802492386681e-02,5.408801529957289050e-02,2.462634417351754548e-02,1.219377657107022575e-02,9.281337423903846667e-03,4.548517794229271077e-02,3.322494009636197711e-03,1.962613166452891952e-02,2.664103282957303379e-02
4.154915340877128604e-02,3.338749690937286435e-02,4.082585910118734229e-02,2.077385157037162783e-02,1.174104427678675927e-02,1.386752419680749998e-02,5.061698388975548885e-02,8.515848684756861797e-03,8.826846731932343898e-03,5.726885294423756344e-03
5.124532887153257499e-02,4.692427857979430267e-02,1.048358190418214979e-02,1.243814659646141040e-02,5.503646913098706080e-03,9.790903211585898214e-03,7.992734181419956785e-03,2.174298721561550643e-02,1.345018771040671322e-03,2.840833220265838455e-02
4.404875904556011801e-02,8.582097703108973463e-02,1.581716802912772404e-02,4.808869747707295722e-03,1.472159270954344259e-03,4.599021163418270247e-03,4.450784334489555488e-02,3.329226548651986750e-02,1.040363723476786517e-02,4.715923082549682011e-02
2.331625351055621395e-02,1.229343812696559318e-01,2.466336675678269807e-02,1.880568932648221669e-04,4.683842931381965169e-03,3.694525054019717238e-03,5.809790537730073062e-02,3.369711781345308133e-02,1.092705277480440773e-02,6.474700458899951272e-02
6.563238951955346033e-03,1.385594745660806426e-01,2.366232509270968162e-02,5.186007622460783728e-03,6.884428040101904164e-03,3.804412938846593855e-03,3.825665572248672375e-02,2.529826777209018621e-02,6.150585650086812586e-04,7.956616112026886067e-02
1.891865865863732316e-02,1.371612653362627443e-01,2.493702052455951806e-02,1.340804601946373950e-02,1.272749071911178330e-02,2.689104247978707334e-04,3.155223897946971001e-02,1.832233552556847972e-02,1.659803858169791799e-02,9.059222157993301883e-02
4.850566609972870556e-03,1.368987703617914053e-01,2.764728672202381929e-02,1.880024909018325127e-02,2.037796001249795805e-02,7.459284025388778806e-03,5.472884031044160380e-02,1.770054354282076664e-02,2.650429232688843173e-02,9.665670739906263853e-02
4.568851116005290952e-02,1.404790984414637234e-01,2.395042183976303987e-02,1.533859845775711016e-02,2.358482613279114931e-02,1.231588660294344328e-02,7.576288429254003642e-02,1.868418272980736441e-02,2.617464640473754836e-02,9.948361744055428391e-02
6.856143511805379287e-02,1.308582126711869131e-01,1.434588414536184381e-02,7.181392223411438638e-03,2.037893292784392907e-02,1.184742371680231644e-02,6.415398057918011987e-02,1.473182876230681726e-02,1.671085736163428759e-02,1.108819430364600678e-01
5.646439323444230746e-02,1.009185712802726648e-01,8.434471602790434563e-03,4.739394593089845537e-03,1.558481291703196769e-02,8.235138169502963235e-03,2.978773619640705597e-02,6.140918277026945205e-03,1.653258102441549282e-03,1.367305605984881489e-01
1.923943568917767244e-02,6.664687416682166243e-02,1.153093338331977712e-02,1.097507001686808155e-02,1.427763826897659148e-02,5.952858548089573834e-03,6.932042208633518686e-03,7.825915468960980854e-04,1.286185917693156988e-02,1.510743159104358524e-01
1.808321105494586911e-02,4.365430793168274121e-02,1.705331835311639857e-02,1.827873743833055217e-02,1.530584590726832318e-02,6.315133058610405276e-03,1.178120187251322816e-02,1.876693454776325130e-03,2.105769025210042777e-02,1.201792615924484053e-01
3.960253041565827553e-02,3.252584668781562105e-02,1.612488285242166114e-02,1.932252850341151240e-02,1.358849266713968613e-02,5.259221202327484315e-03,2.237503397030929375e-02,9.515158044820335066e-04,2.220727767380582807e-02,5.757973645428152848e-02
5.134690521358033222e-02,3.296453021029752128e-02,1.048696433062494202e-02,1.467559487730573341e-02,7.920768469274183654e-03,1.079448144865078263e-03,7.562081570793728266e-03,4.590087600708709845e-03,2.011064016436743193e-02,1.454564480271613135e-02
5.774646360841385190e-02,4.726697950091750949e-02,8.000537188316930032e-03,8.170912662883951516e-03,2.786146649409745359e-03,9.798744070613266827e-03,2.843129804039186415e-02,8.960967465007088628e-03,1.905114183357570559e-02,1.217400490146145105e-02
3.913108403743845859e-02,6.306219378139060749e-02,8.217133464579799706e-03,9.612825993543865858e-04,1.636893869402913535e-03,1.477588922971599834e-02,5.184862113861764266e-02,1.394725165665687723e-02,2.158221335299431720e-02,2.399334119477841698e-02
1.914562910776838531e-02,5.858650935377508057e-02,4.168145065048405734e-03,6.026170301257087816e-03,2.632270481840091186e-03,1.540710362864664007e-02,4.970788630571808253e-02,1.602337253740143339e-02,2.756730273112451696e-02,2.582748743017934320e-02
8.437883860391616475e-02,3.408915739387004262e-02,2.570083674244630530e-03,8.744680060710000730e-03,2.922121370100849887e-03,1.577939960391439717e-02,4.332583959687644204e-02,1.106048431367432326e-02,3.325506786630292450e-02,2.443184453449093879e-02
1.005868483296629701e-01,1.644056394391529147e-02,1.851481687897928163e-03,4.707645387050109730e-03,2.878036979723580524e-03,1.631129867237377656e-02,4.477669298714624657e-02,8.579749301133377578e-04,3.332260036191449226e-02,3.357187639037876453e-02
6.068265105644540802e-02,2.507119691938654998e-02,9.419406747687465720e-03,2.103100406404624471e-03,3.785083367032282889e-03,1.314024759059034472e-02,3.436415860403006783e-02,1.431348169458052794e-02,2.539742928098995267e-02,4.927035641467974320e-02
1.891607685433153649e-02,4.985054797492306788e-02,2.257832393861253228e-02,5.852080533988639720e-03,5.090391394878636400e-03,5.460937059490563426e-03,2.806435674654191373e-03,2.249214070441728219e-02,1.101155180753495347e-02,5.671385341168691530e-02
1.755655155615142710e-02,6.760070955448041485e-02,2.819417953644208844e-02,5.325889078618409843e-03,5.823191323687607231e-03,2.746573490055451497e-03,4.652950221802944208e-02,2.344134702059794129e-02,6.676805564866428004e-03,5.044213957764091816e-02
3.855355830888879815e-02,6.793298560606679526e-02,2.432660537959436056e-02,2.465136664443841677e-03,5.900243694741916234e-03,8.228304797209476038e-03,6.631082537574707614e-02,2.123732557042038935e-02,2.224838495694524826e-02,4.149614695608038611e-02
4.804642538307678928e-02,5.723024460739807584e-02,1.574414529214772721e-02,9.474412613008142492e-04,5.276637469044245972e-03,1.118572057395885756e-02,5.845223984873692408e-02,1.991505600853607505e-02,2.838566240820391065e-02,4.313510660982059625e-02
5.069613917402199937e-02,4.385493512312563236e-02,1.006975349672181719e-02,2.239996412039013327e-03,3.923086684553099210e-03,1.298615318498417756e-02,4.441340616686215159e-02,1.973336505046903097e-02,2.313275417316458180e-02,5.062877763663349573e-02
7.224685224991347909e-02,2.787774189825557858e-02,1.143514581656326218e-02,9.558802449020043727e-04,2.197459405136426274e-03,1.383362526874375338e-02,4.138024247116182941e-02,2.036778139146344299e-02,1.340613248391640984e-02,4.498344603949377268e-02
1.132336456284243897e-01,8.240326005300441584e-03,1.493427617584831835e-02,5.997218352456198248e-03,3.798257529151732176e-04,1.215589955454580290e-02,4.457436302971119063e-02,2.202496514548648796e-02,6.392861361322064832e-03,1.950526135894921353e-02
1.426371154994120205e-01,7.508712733657029945e-03,1.195568832041824653e-02,7.255248005719137569e-03,4.984050323405601196e-03,6.503647797816794821e-03,3.958101540804445651e-02,2.162573809231221542e-02,2.631887219536332111e-03,1.106782741381016379e-02
1.283487650585925788e-01,1.032433439329201105e-02,2.134169635469362891e-03,3.967183309428951206e-03,1.029029690588922040e-02,4.818282277841951606e-04,2.574069739407514740e-02,1.458204579046227037e-02,7.565909710380826431e-04,2.872787721437218902e-02
6.683055028256847108e-02,3.100920823176480171e-03,6.252289491395730814e-03,6.340614017320809776e-04,1.211074377062522009e-02,2.964604107856676739e-03,1.627366457748199297e-02,3.189285484034438869e-03,1.438184996336923241e-03,2.437615129516234116e-02
1.318734798469604202e-02,1.857411911770747229e-03,8.307098526522446041e-03,6.338851585535240900e-05,8.788720335294358116e-03,4.960017530717326147e-04,1.512521374046450415e-02,2.970904465162784065e-03,2.885509560297697638e-03,4.877162008684867919e-04
7.735887471145617977e-02,2.840271022781036721e-03,7.553308220926673554e-03,1.314355778330209652e-03,3.915289667466338025e-03,4.803070369024252557e-03,8.747889326265710641e-03,1.935285615361587771e-03,7.961783770619621989e-05,2.503737480301737595e-02
1.161456728470257049e-01,1.297480499255771434e-02,7.172816688940259269e-03,3.472209278914184689e-03,8.008104031960625816e-04,6.537223241597276899e-03,1.317845241376171608e-02,1.314271167171482055e-02,8.293670866441485781e-03,1.514699726614660014e-02
1.395955394238442282e-01,1.938559696792262199e-02,3.313151910062400729e-03,6.837266001640616292e-03,2.058908191977516268e-03,8.357307704886901903e-03,3.992618023899937446e-02,2.130280107288555144e-02,1.543540885842374470e-02,3.977233679837677977e-02
1.434941587270867347e-01,1.950191104225498101e-02,8.336905239716535174e-03,1.073219910437053781e-02,6.664002603005882673e-03,1.231715192688489710e-02,5.000177202245211644e-02,2.228865047021478044e-02,1.612801422824901298e-02,1.072306147853711172e-01
1.084291526459656985e-01,2.053012983836258187e-02,2.388915745771724025e-02,1.338367413793688579e-02,1.074527024401920189e-02,1.487381100855022890e-02,3.748480127288204150e-02,1.977845633175406154e-02,1.211226671494797583e-02,1.448490417175800071e-01
4.586802106839010795e-02,2.926778863946396386e-02,3.498528398665148170e-02,1.454128844388049256e-02,1.126886658735376696e-02,1.200211144218755847e-02,2.290446659392990705e-02,1.874142177423454569e-02,8.878494872580713210e-03,1.418986557668658055e-01
7.887476872536332284e-03,4.274548334082129558e-02,3.869733122365109912e-02,1.573201816034538666e-02,9.320161292900761354e-03,5.465466962670560876e-03,2.794455148972860986e-02,1.775966364788640617e-02,1.080013148586179104e-02,1.191047881265943215e-01
2.503810420595318012e-02,5.337777743859385693e-02,3.793456342577914558e-02,1.649241375646958579e-02,7.767397240317648263e-03,1.234685443312212800e-03,4.072878353801125118e-02,1.093159661695235207e-02,1.864493376480346951e-02,9.857267570925182243e-02
7.079517964925638451e-02,5.882832466413317335e-02,3.416730584385078984e-02,1.335435267638626113e-02,6.784055476713884286e-03,2.951197359282376875e-03,2.807062804481602614e-02,2.545203138620407909e-03,2.592361484324497145e-02,8.307970705473810558e-02
1.063534788815471838e-01,6.224140737371509219e-02,2.650395015363435011e-02,5.927977792097190862e-03,4.984363521560329115e-03,8.319268685382645925e-03,1.350658841544416164e-02,1.548734302604192273e-02,2.079853832914599701e-02,6.543070670021233770e-02
1.175162131591427350e-01,6.547776298442671561e-02,1.730922910270736581e-02,1.013254667454702510e-03,2.606517825231459157e-03,1.195786477162769784e-02,4.846168984776470096e-02,2.082909754724049725e-02,2.679956547437299750e-04,5.113281893143895029e-02
9.822287986956819428e-02,6.398049513084809459e-02,1.227852929948439198e-02,5.153661596155329448e-03,5.788259958008827675e-04,1.096644122730638937e-02,5.378848709096915870e-02,1.851530892694701336e-02,2.397041710522321636e-02,5.478909756376933171e-02
4.787208750847022493e-02,4.947422132599135769e-02,1.390819453727103888e-02,1.489970807944129144e-02,1.452676668303445971e-03,6.954422508019846710e-03,4.895907889006492764e-02,1.304211983366071990e-02,3.350222069718108292e-02,7.247232053289756615e-02
7.550909653574929166e-03,2.194369771183777781e-02,1.904828106478523297e-02,2.067713650126846991e-02,3.818085860984702946e-03,3.298124740508354222e-03,6.016957639296837551e-02,7.765360000887846018e-03,2.765307172246738582e-02,8.154620280470273319e-02
3.379127329831808912e-02,4.343803788650295490e-03,2.315301586739542533e-02,1.886568045789809370e-02,5.606087217143151599e-03,1.350696118579165772e-03,8.067659916794124586e-02,3.874638575973940111e-03,1.971306175695712593e-02,7.323513496494879482e-02
2.867089038485792774e-02,1.568115323845601511e-02,2.358503442208316134e-02,1.353966686067132295e-02,6.353639642032148267e-03,6.613874213230133041e-04,8.389771421841228649e-02,2.838661571812480314e-03,2.052642139681954900e-02,6.094203263707440033e-02
1.365896656232943110e-02,1.528723241014332684e-02,1.903092834940529887e-02,7.904636494263483915e-03,7.015551821598315502e-03,4.713018023833739911e-03,6.303086025944122650e-02,6.270448242105163689e-03,2.917050036883414924e-02,5.310456283654477888e-02
4.809163908303227750e-03,1.409793694413626758e-02,9.098889152148249490e-03,1.194767056135666436e-03,8.141912052586441559e-03,9.186652928212708097e-03,4.307733368916466521e-02,1.289800076426567133e-02,3.760066824959362036e-02,4.247347662764701381e-02
3.400718584719769622e-02,1.158624935609610038e-02,4.151450695144806406e-03,6.079869881004360509e-03,8.665797064465593710e-03,9.951353330914042283e-03,5.067468496000070155e-02,1.844354387736442391e-02,3.848769753036187374e-02,2.526718590610948015e-02
6.382557811046296603e-02,1.069873009403154301e-03,1.574187948702036877e-02,9.807059991343403116e-03,7.516510094048215948e-03,5.678886631566738320e-03,7.909832405965694369e-02,1.967717298483897745e-02,3.095347790452840711e-02,1.074844950294221932e-02
7.345174115094978140e-02,2.264143319535003029e-02,2.111349476263780015e-02,7.082346460675377833e-03,5.487757756132422525e-03,1.417128660609204087e-04,9.659106865296827882e-02,1.710291943304197843e-02,2.277086178879020317e-02,8.347701294278184192e-03
7.034857989502316111e-02,3.951684436456138344e-02,2.038828719281310375e-02,5.708798340361743735e-04,4.441417057161236269e-03,3.102267331008351503e-03,8.677300093873813180e-02,1.336244166766476470e-02,2.321171399362765772e-02,1.653280651741823037e-02
8.454583573298878052e-02,4.268828372594854481e-02,1.750544237664445127e-02,4.040710415313685661e-03,4.972097825216951171e-03,1.987912548373055397e-03,6.072908511019198263e-02,1.052471532472097626e-02,3.143666035461758351e-02,2.576774191111861484e-02
1.147398885938128305e-01,3.856380846661418282e-02,1.558176361552488474e-02,4.088380327337036782e-03,5.944604546980988315e-03,1.363094334870961280e-03,3.025473755064845768e-02,9.403084163504622089e-03,3.744610446629020178e-02,2.808996398255992830e-02
1.176645313909089746e-01,3.979473057792377866e-02,1.574170442234152159e-02,1.309942925738742311e-03,6.356526915201479201e-03,4.700616284706117531e-03,5.355437208055917331e-03,9.904123312515450070e-03,3.544258636421355330e-02,2.347278699732183171e-02
6.682756716860667467e-02,4.897885563688860605e-02,1.863559513254463978e-02,2.239059839491203824e-03,6.279230289911439701e-03,6.847050901179662502e-03,4.129712757356238106e-02,1.072069984557093118e-02,2.936858995159158728e-02,1.757998675338530090e-02
7.559714589066455701e-03,5.363475097011190240e-02,2.301677832505209104e-02,6.396973075088302138e-03,5.698764628041086411e-03,7.264847222565661705e-03,5.955823057540396426e-02,9.958126833767438207e-03,2.464217332197306612e-02,1.576395606769407515e-02
5.533488455024537095e-02,3.925154206804164908e-02,2.443210019271679218e-02,1.059085137980815376e-02,4.294739938951880331e-03,5.773179945502297794e-03,5.024852867822446334e-02,7.423171360595068671e-03,2.139118625391152329e-02,2.102076794437855375e-02
6.677863364398189949e-02,8.870137990507214604e-03,1.883030552609181452e-02,1.249871846372346135e-02,2.859553445189947762e-03,3.239808591955077241e-03,2.708261782522791705e-02,5.075016346359984866e-03,1.674296611890980710e-02,3.223038234353529236e-02
7.519994655893799673e-02,1.695274264986839155e-02,6.823968536622242870e-03,1.048402645793054290e-02,2.722997275583246765e-03,1.517147727965505958e-03,1.261729685563772740e-02,4.616865855936418475e-03,8.561662994170330526e-03,4.069840549084137449e-02
9.933363691807658991e-02,2.445594721449180498e-02,6.302934337116468042e-03,6.047371642752020181e-03,3.396183971026172331e-03,2.067387891872499855e-03,1.618240322169199261e-02,5.885831740199133112e-03,2.889351362961058416e-03,3.557296578936025577e-02
1.105396848158228945e-01,2.061301001302498145e-02,1.400146746088471936e-02,2.734103905236161952e-03,3.234605327220568989e-03,4.833449875647715874e-03,3.173419903485957816e-02,7.146550557633624817e-03,1.279825977932501010e-02,1.624562158530422351e-02
7.852846178559494406e-02,1.714502334210761536e-02,1.312707512887369143e-02,2.540351737705925581e-03,2.351086736791842009e-03,8.270726746477463989e-03,4.963634233579468369e-02,6.104914934896058486e-03,1.315728053285722746e-02,8.132347442023096784e-03
2.528560012679033353e-02,1.426916354847077711e-02,6.236016184174792212e-03,4.202233005375977971e-03,2.221009418215304319e-03,1.062483180374101596e-02,6.409522235452072558e-02,2.133281669187545113e-03,1.431337684188883474e-03,3.197163012609693933e-02
1.051092481512054186e-03,7.508543003761939880e-03,1.688503461718506363e-03,5.575621742709797532e-03,2.808496682668349537e-03,1.162960686145401469e-02,7.334358644952150563e-02,2.178482785888494720e-03,1.367378515055021546e-02,5.530730741139579243e-02
2.153848190422264289e-02,1.722960408093740167e-03,8.094444569587607233e-03,6.391227896289757883e-03,2.654026283144333802e-03,1.232192731095249801e-02,7.820046021097920574e-02,3.689512116898403978e-03,2.024538482341959808e-02,7.245774770415298882e-02
5.682222622752507168e-02,9.120973410362876593e-03,1.322089390614698996e-02,7.794977300491915014e-03,1.439753466279123165e-03,1.301103641483140373e-02,8.039925017383975359e-02,2.875007897938890514e-03,1.532243372073228624e-02,7.285276576939878068e-02
7.434619514367425686e-02,1.338949104968594796e-02,1.756828405475837490e-02,1.074424153461477419e-02,3.454749802639690837e-04,1.287816724636904088e-02,8.130021240627111068e-02,3.332083532187030128e-03,4.382105744003749088e-03,5.761434483832694048e-02
7.181718767273384540e-02,1.587714210377991556e-02,2.140284467502629254e-02,1.545842582942504040e-02,2.402798913365251313e-05,1.176394796071779901e-02,8.252342587436378718e-02,7.117180831855090747e-03,7.945885588596605237e-03,4.367621330870744001e-02
6.379833807894737252e-02,1.832916375452137148e-02,2.544747907816202401e-02,2.090435158578655972e-02,1.259957989594292713e-04,1.063000669848080705e-02,8.604053541437411967e-02,1.232776841370142665e-02,2.002553679917058391e-02,4.507334968734526964e-02
5.000828915356131388e-02,2.163012851876596615e-02,2.965556523407505626e-02,2.478959308694662217e-02,5.603706291953902642e-04,9.882970725413149291e-03,9.010678986631451282e-02,1.567739471245977248e-02,2.887693916369660913e-02,5.676400494696923205e-02
1.977188690328055692e-02,2.573606230304634201e-02,3.236598232751567578e-02,2.545556426279362364e-02,7.979493296696016759e-04,8.577022291212446636e-03,8.527979540140412373e-02,1.592172508482610216e-02,3.158562835912814837e-02,6.161596354984266721e-02
1.462691689070866330e-02,3.058164286183637573e-02,3.279601179353465457e-02,2.378904146168662678e-02,4.554509025104037435e-04,5.758230330963294563e-03,6.137291866300137455e-02,1.409208998263297360e-02,3.085095776917002111e-02,4.990190543378455329e-02
2.422783324657520887e-02,3.480723846639009744e-02,3.279974667309495245e-02,2.255567689514432345e-02,3.604966778944984282e-05,1.934539933576913135e-03,2.314636728938089180e-02,1.201738810425345000e-02,3.324333064043432512e-02,2.858692351870157147e-02
7.269283088870584150e-03,3.467647650629725187e-02,3.356439710944874449e-02,2.325048145027326305e-02,1.118419622453365814e-04,1.133212264657206285e-03,8.041945932439452036e-03,1.153081476156022842e-02,4.055730714404801734e-02,1.282750084704184328e-02
1.016970439434566019e-02,2.931814588535610472e-02,3.220740013021500953e-02,2.317649454875014489e-02,5.028074188368847428e-04,1.942835482248589330e-03,1.517189144475385512e-02,1.315716026072662193e-02,4.597284046393607798e-02,1.160125535566685663e-02
1.931293718606152954e-02,2.503945418789391836e-02,2.532712550251036907e-02,1.726705617742074761e-02,7.640243883029068390e-04,5.432768301669205387e-04,1.302741660188032335e-03,1.456470005492691358e-02,4.152529872677142991e-02,2.203872561105049005e-02
3.986451586972179773e-02,2.837999257555013158e-02,1.527741267427128354e-02,4.742658728993541170e-03,8.582759820593608389e-04,1.546706323539937802e-03,2.046175191980451058e-02,1.288571140589508945e-02,2.850745030720455361e-02,3.475494338970778335e-02
8.328321372195468530e-02,3.743263221977140287e-02,8.529478124801858144e-03,8.277352604409669856e-03,9.735440095008273320e-04,2.703166534558396582e-03,4.199034859560439592e-02,9.715847203722391065e-03,1.624506391027994920e-02,4.320160773149298722e-02
1.282345448115901343e-01,4.478940741677284870e-02,7.547014826258503783e-03,1.546120246326815328e-02,1.133293158621574920e-03,2.499489496806119385e-03,5.820642273007414075e-02,1.052283195267322835e-02,1.093861638436224686e-02,4.842649802541623000e-02
1.378357186293810710e-01,4.545004806273242326e-02,8.910093141670466163e-03,1.669913593210672551e-02,1.251043486070284143e-03,1.650718205361811994e-03,6.188446838696445157e-02,1.725109330758983761e-02,1.156297616010293350e-02,5.442288786434818643e-02
9.424323406590416619e-02,3.868692805976830379e-02,9.802836139956905975e-03,1.505260206641021066e-02,1.314900939447733504e-03,9.084826564403327082e-04,5.157923485947138453e-02,2.455446126935616896e-02,1.566591751419931303e-02,6.093258910114646154e-02
1.710387772705446521e-02,2.728930059302930519e-02,1.152059975122651965e-02,1.092413229437497364e-02,1.365564982895673372e-03,3.842512796356538840e-04,3.824519446671922202e-02,2.580079585441882525e-02,2.198147280328913156e-02,6.470664275732661286e-02
4.852189558722479895e-02,1.762337975253418579e-02,1.585648137325209109e-02,3.080330721396630847e-03,1.410580232401819397e-03,1.282172967913403332e-04,3.383762003225178339e-02,2.076466186293314878e-02,2.813815757914893759e-02,6.485466912777808346e-02
6.656721543846368105e-02,1.458002817933023304e-02,2.175200484492640154e-02,6.882007612191225546e-03,1.433514678856882265e-03,6.765153022379552950e-04,3.672903414171896364e-02,1.487467632795171253e-02,3.159549887938652851e-02,6.112289494403905232e-02
3.704490347364335079e-02,1.511438089270093071e-02,2.639094376971512848e-02,1.482974734763228830e-02,1.432169928617185598e-03,1.166633488487092175e-03,3.610609274513293387e-02,1.225050422980926597e-02,3.198964141163016667e-02,5.066292626898457468e-02
1.305181413327120496e-02,1.278810537061656968e-02,2.725487872706933157e-02,1.826421622187655164e-02,1.414641419814124989e-03,1.565514713853728571e-03,2.726863886571685019e-02,1.221609916886564479e-02,2.962831380392778532e-02,3.319308076897019982e-02
5.837874004097603348e-02,6.618928466259560092e-03,2.176503803944794535e-02,1.723885967685715934e-02,1.385644700071289679e-03,1.919523145011715112e-03,1.483372364486172310e-02,1.199060884571917160e-02,2.346353520979027954e-02,1.541866357978564049e-02
8.082971653334482254e-02,1.301094998997490886e-03,7.058385331580236711e-03,1.101619455474555503e-02,1.348409340622566677e-03,2.263280840234927101e-03,3.910490410470354727e-03,1.006345648533757756e-02,1.226242268118247526e-02,4.249017712046544021e-03
6.315876654127662582e-02,1.123709953145479550e-02,1.566520119392532037e-02,2.216757135773332003e-03,1.301845893906365854e-03,2.567941842682282261e-03,3.946155365113308312e-03,6.488902990713692892e-03,2.920345830055376402e-03,6.892169898870190159e-04
8.350315789741507080e-03,2.156632339812201288e-02,3.702076982925321669e-02,2.007564439047554092e-02,1.238749552036501941e-03,2.777296583057088132e-03,8.296338794181361623e-03,1.811783475747160820e-03,1.786006154487975242e-02,3.837184015464648219e-03
4.738061072878686775e-02,2.685500419278991427e-02,4.577606541205830881e-02,3.439684061605650933e-02,1.166670508464542465e-03,2.921690870964663029e-03,1.022301103079781975e-02,2.770526819919539967e-03,2.768480383958718538e-02,7.228345701272883249e-03
7.082773217742634186e-02,2.696967048876061299e-02,4.089100958460609864e-02,3.874304127118673863e-02,1.111195128190224212e-03,3.117563050280489252e-03,1.283802813613659638e-02,5.059968785515767641e-03,3.085713767223137449e-02,1.033610558802191756e-02
6.387671637208237885e-02,2.980305552130209021e-02,3.179130686391246075e-02,3.464196747905936430e-02,1.064285700799631317e-03,3.323845988472647235e-03,1.662964378614932223e-02,4.130709496851026237e-03,2.899683752536337880e-02,1.299755322787611231e-02
3.826299739061270883e-02,3.891559342489720602e-02,2.576218705377586807e-02,2.739327145599521757e-02,9.761473390970604527e-04,3.299172943262806794e-03,1.927056415342313228e-02,2.840484690596595425e-03,2.321430030066333819e-02,1.558414092499360928e-02
8.102968175164169951e-03,4.642002970239763465e-02,2.144531645473973791e-02,1.944791761831579299e-02,8.685168136584169593e-04,3.116687916119949796e-03,2.486959565399295830e-02,4.920197392658507557e-03,1.413668368174239923e-02,1.825390766572659515e-02
6.210253277322119042e-02,4.396143452597251616e-02,1.595734860171132627e-02,1.112635210005649342e-02,8.548671744599143285e-04,3.343433760497968674e-03,4.495163736051130399e-02,9.628638056410900384e-03,4.898983065585062538e-03,2.243999009315302690e-02
7.888327693521388073e-02,3.450275239376009162e-02,1.074688821870888912e-02,3.558842338587745943e-03,8.973427119523961007e-04,4.105065107851022140e-03,8.130569902165474261e-02,1.336901147701959752e-02,7.755101056190591598e-04,3.047442806351575995e-02
2.887577490151919252e-02,2.830164095109808861e-02,7.359617487167716479e-03,2.858980053838731765e-03,7.543012046337938242e-04,4.535121208260516935e-03,1.158372051900090488e-01,1.648640814480884648e-02,3.524268962492678979e-03,4.041143455620743036e-02
6.174492830512577635e-02,3.127731868768209716e-02,4.641835984100150733e-03,8.888542104582092263e-03,4.947854352042351444e-04,3.999424989783170042e-03,1.287445200059477435e-01,2.307815351899752954e-02,6.602912030532649169e-03,4.470941002731587677e-02
1.398227360660557472e-01,4.004288036681880047e-02,3.875751634185659912e-03,1.208154046343912907e-02,6.824817490234405754e-04,3.140085697626646480e-03,1.199134989681835267e-01,3.296861788581754299e-02,9.375742842113898856e-03,3.861881386254434334e-02
1.729396791864042937e-01,4.600122025622707667e-02,9.494023878080520493e-03,7.030895792759497484e-03,1.440716739449233053e-03,2.830310896965326610e-03,1.018147212314324673e-01,3.944977729767677049e-02,7.970963615619386378e-03,2.694521388041938928e-02
1.586666302455122246e-01,4.399929128235196413e-02,2.038256754352415004e-02,6.011268485733706896e-03,1.899680635227075096e-03,2.950420195701202244e-03,8.077920562054732856e-02,3.763452210064881231e-02,2.781126537511030127e-03,1.857026987691064515e-02
1.131730077732536754e-01,3.749959807965645014e-02,2.750112802222987041e-02,1.773078593431026695e-02,1.420771403595687829e-03,2.940589247828431785e-03,5.800463593279885088e-02,3.072672423244915407e-02,5.834791851401761138e-04,1.673339984148260531e-02
6.161578014801247227e-02,3.319083573631665535e-02,2.496574340903135944e-02,1.940539160434419375e-02,6.416725497281018306e-04,2.735666851593516503e-03,3.972626787191080311e-02,2.510827207740865680e-02,6.180424014236617428e-04,1.747327966650006476e-02
2.430251104868650508e-02,3.189268210859493025e-02,1.740613643942772598e-02,1.214242231596460164e-02,4.313305538087755368e-04,2.581136037146296389e-03,3.205483684962893987e-02,2.249629103651526463e-02,2.628824656220809988e-03,1.545733090868835202e-02
8.496530617102981964e-03,2.972169250613720254e-02,1.229302603790412285e-02,3.275826597703246183e-03,6.656010826435030834e-04,2.518476987375822991e-03,3.074347811940453257e-02,1.990080008662058544e-02,1.878974844447527798e-03,9.126624022247328827e-03
