1.351765762629032752e-02,5.577734467608062505e-03,2.707991559235874927e-03,1.727025171586804315e-03,2.719698161505615733e-04,1.127738477763186309e-03,1.196957452588267266e-02,4.900075508829974946e-02,2.675654802115844631e-03,6.558023031383874990e-02
7.315791404559435739e-03,4.747250396382979992e-03,4.751039533659070363e-03,2.610481805133632507e-03,3.069566566582494706e-04,5.484315138942518538e-04,1.418540378513013372e-02,4.847958712673491183e-02,4.830083180417311071e-03,3.701812294548098570e-02
2.479003070329417226e-03,3.939527658506797661e-03,8.055908521382231305e-03,2.903800716529539045e-03,2.754473945449202881e-04,4.704891878948383476e-04,1.482882191614920755e-02,4.007232629663334822e-02,6.421919153215982327e-03,5.651422407623475468e-03
1.330307319114040938e-03,3.144474892496430026e-03,1.113698380595422310e-02,2.730984716547780848e-03,1.833947252137413538e-04,4.907920818671516073e-04,1.217408873895296784e-02,3.398008626701317508e-02,7.576857196711907390e-03,3.559731878662455995e-02
2.794646167899521999e-03,2.347171297442184057e-03,1.327856733007744955e-02,2.653052293118750987e-03,2.710921409110672239e-04,5.121045653284439850e-04,8.448766322371258075e-03,3.837855331693813821e-02,8.863389113020397891e-03,3.576232782877346306e-02
4.906837497597032853e-03,1.531842555033792420e-03,1.521817348495575414e-02,2.732570578057894224e-03,4.947000722711622977e-04,1.095531914890765859e-03,6.430372421846496274e-03,4.864454056345435956e-02,1.035602352547485006e-02,1.083718972855049825e-02
6.102736417987162341e-03,6.830810677505372644e-04,1.763190688750141538e-02,2.729411775773830321e-03,2.885995628710186808e-04,5.010332637529943921e-04,5.549765237626081045e-03,5.185050636649134875e-02,1.181829619583022947e-02,2.250558091477883327e-02
5.409241339709536939e-03,2.217765027341097391e-04,2.035740400756580470e-02,2.616582611635142816e-03,5.006353691700211926e-04,3.702913567768539057e-04,3.957527280563442884e-03,4.341157370803323812e-02,1.322062062179933835e-02,4.957140258962455803e-02
3.943047827092149848e-03,1.214379696128036531e-03,2.314522007887531013e-02,2.502641149597150099e-03,9.945251817376850236e-04,4.973360296628400248e-04,1.812804897384849481e-03,3.379267865952026439e-02,1.468942322243378326e-02,6.435786175349184068e-02
4.166246700150274748e-03,2.317843150359772796e-03,2.617377629133559730e-02,2.385085358746179794e-03,4.998613347771935873e-04,1.544165500185376528e-04,5.065246285753662947e-05,3.312006529069057292e-02,1.625626632053266130e-02,6.938152588551806110e-02
5.956919293099326683e-03,3.541123006569392353e-03,2.963950638988898864e-02,2.224108153899163193e-03,3.258205943634145995e-04,1.674484398584023597e-04,1.346488420203091358e-03,3.463030305516895391e-02,1.787370811835395021e-02,6.862605275288517770e-02
6.650184769104965435e-03,4.914669136007182929e-03,3.341528002741100262e-02,2.064821541555853651e-03,4.994841145393830954e-04,4.843700720476900516e-04,2.057320095037842682e-03,2.443786968521787298e-02,1.954433857592249510e-02,6.165396803343912990e-02
5.984423473954358398e-03,6.501635273232597538e-03,3.742163567242681038e-02,1.914920062348160782e-03,1.831118894525907246e-04,2.893951782424678942e-04,1.469680870597410904e-03,4.763546398033582235e-03,2.132144836311076347e-02,4.826313235992222422e-02
6.864069262388985959e-03,8.320232291553984402e-03,4.199144633551558231e-02,1.670736396153923607e-03,1.830045744597962585e-04,5.552090831144904180e-04,1.131885921955098212e-03,6.111516924837360337e-03,2.322303837324776743e-02,3.447117148402283754e-02
1.021777066968017518e-02,1.031593581228736761e-02,4.731326043084999045e-02,1.363719342335191010e-03,4.991971512990076628e-04,1.062367139497791182e-03,3.810536958698091184e-03,2.709997787274175986e-03,2.521445719503542793e-02,2.813972785519770411e-02
1.302368428184865271e-02,1.252477750096259342e-02,5.275878607842553886e-02,1.238023987086976163e-03,3.260471874823568867e-04,5.849603887682450643e-04,8.924620172599335294e-03,2.143055063647676325e-02,2.730110301424846717e-02,2.945699956005363995e-02
1.249811990957891937e-02,1.513521339846580528e-02,5.773464386014916933e-02,1.234575469586365144e-03,4.985624883586562773e-04,1.844443000380464621e-04,1.192665941195903377e-02,2.891705912709723048e-02,2.957166973301791207e-02,2.761798651145994793e-02
9.410216642129294942e-03,1.813936400561338980e-02,6.303319444509047909e-02,7.949579417282153729e-04,9.941056202432507587e-04,3.717657414944428073e-04,9.896255400719002754e-03,1.143315964152350102e-02,3.204221514828124034e-02,1.178817688759611210e-02
6.531745121165942122e-03,2.119028468658809908e-02,6.993045233105621428e-02,2.031808045272538070e-04,5.029671575009163863e-04,1.259947613760328995e-04,5.516927357775745257e-03,2.232407275618231851e-02,3.455706981078275619e-02,1.172063476464677359e-02
5.446195332741970291e-03,2.434178500368870332e-02,7.810839247798995189e-02,8.873448729316143428e-04,2.874002911623630926e-04,1.320274097463521924e-05,3.539717511220498609e-03,4.626380742801451673e-02,3.709878697801321373e-02,2.385864809324357572e-02
5.013236148747648654e-03,2.837154584628094264e-02,8.626693893845303884e-02,6.147737971606689542e-04,4.984605014804401220e-04,9.004943536712966775e-05,5.200394161194032625e-03,4.659468062163424351e-02,4.000772181708176639e-02,2.011855343056298540e-02
2.588783671143349979e-03,3.320792830496297615e-02,9.418809449641907250e-02,2.137750115058649242e-05,2.710676865276120473e-04,1.127616067033125076e-04,8.612091883345026136e-03,3.926900956288735534e-02,4.333446461413375389e-02,1.905860142152737691e-02
2.213537926258551426e-03,3.719506167285435705e-02,1.006049624866238307e-01,2.328336721137228569e-05,1.705723419452308037e-04,4.809704699938617117e-05,1.288392966274599059e-02,4.484037071872491037e-02,4.635343696939230040e-02,3.599661565824886084e-02
5.435653570405426377e-03,4.044604427590428597e-02,9.927979590791904951e-02,3.558580274050549171e-04,2.677296581816310749e-04,9.150729862263636059e-06,1.834269110900121555e-02,5.778444416808069251e-02,4.892869897038272520e-02,5.978076092313548695e-02
2.834726986000836620e-03,4.658620081439526078e-02,8.453194712478841188e-02,5.920904483318163106e-04,3.235173225449593823e-04,1.346670422678843186e-05,2.362535794975500342e-02,5.713547514549956186e-02,5.258851836562434406e-02,6.304920415361757458e-02
4.433509337133061459e-03,5.546402155679117790e-02,6.259382465700605302e-02,6.181436500674328607e-04,2.744817364545317742e-04,8.769800608878006363e-06,2.635721186489146592e-02,3.630384928820212104e-02,5.763691487898185001e-02,3.295119978355464524e-02
1.078042007006514702e-02,5.713382277343003607e-02,4.764648269498698158e-02,6.825631955253583455e-04,2.197117266493737672e-04,1.344056273649477909e-05,2.643279041884296840e-02,7.127054862387707107e-03,6.077710777924546365e-02,1.148691396426728892e-02
1.221999666236681971e-02,4.285220106455684547e-02,4.676440972301996318e-02,8.229087433019224157e-04,2.393459944194441344e-04,2.849919833948885811e-05,2.533406293878186222e-02,1.616450312273716786e-02,6.124799220926215731e-02,3.849328867995647357e-02
9.368911947843189952e-03,1.950091547895980298e-02,6.196107019983638359e-02,9.171201617611769372e-04,3.125855604976985908e-04,3.194279638997272639e-05,2.293872468780073365e-02,2.537000457390947705e-02,6.624292438070246425e-02,3.917873324548053204e-02
5.221104963289944188e-03,1.820677388349627342e-03,9.565805575595583143e-02,9.523027617104769509e-04,2.973548609222395850e-04,3.519701673042944211e-05,1.832184087175327269e-02,1.851962365604601507e-02,7.751635055656116990e-02,2.988775034724248589e-02
1.861892506066095470e-03,5.470911879556849405e-03,1.279706844713963398e-01,1.007308057216013773e-03,1.461186686427932188e-04,4.044001232489992945e-05,1.301255376940341733e-02,7.805371713268446227e-04,7.492842498147793406e-02,2.160543023406029037e-02
5.049240267543840738e-05,6.299271091550959906e-03,1.094133919205622640e-01,1.084535081838696813e-03,1.483140252050687484e-04,4.232126171693059491e-05,1.052314258752233209e-02,1.722601523673721394e-02,3.539545100004807404e-02,1.181411750125622995e-02
6.321137038357129215e-04,3.395946257306985128e-04,1.867583906735190494e-02,1.110374411701286037e-03,4.656506740827191836e-04,3.995764128090444729e-05,1.254138478757624471e-02,2.558118908879778927e-02,2.880656090359463156e-02,4.853037217997826537e-03
5.816637791710631451e-03,1.678891533078585505e-02,9.180903845380594674e-02,1.103490307377051702e-03,4.581714723021414627e-04,3.626208393671779163e-05,1.725523844385815769e-02,1.986345113788475988e-02,7.613920683368727294e-02,1.033242122847768257e-02
1.474426352118155502e-02,4.312204384157664744e-02,1.503728605500967430e-01,1.190741746877045822e-03,5.519643256074237845e-04,3.186906187644038231e-05,2.223324299439605536e-02,1.401237752288471156e-03,8.405114926755161142e-02,2.086862981674274253e-02
2.197098880631550774e-02,6.556758482065001836e-02,1.412385158946215247e-01,1.337391125292997605e-03,1.803146977181791476e-03,2.537359591217145814e-05,2.773244072567151650e-02,2.343179413989854298e-02,6.467113249452666190e-02,1.771610681677494858e-02
2.314095739970850260e-02,6.665259174555321353e-02,9.083505895684583498e-02,1.298059091658236184e-03,1.795918418337416438e-03,1.711457909444225219e-05,3.493550325422416225e-02,4.239026917422940993e-02,3.427563151136005931e-02,1.645472317421027217e-03
2.231194751127171458e-02,4.095492982795888998e-02,2.315175365084571127e-02,1.145477423285200941e-03,5.603695417812199452e-04,9.107295028207585959e-06,4.212124794352236495e-02,4.193217473517753258e-02,1.882699297533376673e-03,2.250241972103849547e-02
2.450015253194369122e-02,6.270712161726831047e-03,2.917438338738940345e-02,1.449042697717312957e-03,4.089958289530221070e-04,1.238716397865793639e-06,4.635671999761815237e-02,2.075904811350391677e-02,1.196045792365577065e-02,3.716372769316615005e-02
1.885337200163446705e-02,1.048589189937677163e-02,1.951863207948398293e-02,2.328923641855619973e-03,4.292587762327440049e-04,8.833739337986684631e-06,4.783436995479079662e-02,4.741096725082864609e-03,1.473329608552720327e-02,5.027250592474923063e-02
1.413249882934414399e-02,3.209921103853142360e-03,5.672865143011366490e-02,2.913714732976490675e-03,1.613806290396077592e-04,1.960392957930872602e-05,4.829441401331756312e-02,1.745182824911618510e-02,6.858657999853767784e-02,6.091069794817262351e-02
6.992969440291632588e-02,6.428575445712646219e-03,1.401150816560113033e-01,2.578681262974148302e-03,1.002447917277407520e-04,2.534081476587431397e-05,4.772826486846529909e-02,1.879872084808075286e-02,1.071545555726668431e-01,5.962740851157763422e-02
1.141107507582442004e-01,1.131272737093116584e-03,1.761642816726938787e-01,1.968830612721835481e-03,1.205735716921988831e-04,2.814524239059970032e-05,4.816250068379648169e-02,2.272305971693468554e-02,1.077997287149424499e-01,4.711653638178067011e-02
1.212812532656530468e-01,1.855328523515507519e-02,1.654710248558637908e-01,1.927783023572569648e-03,2.354521685765246554e-04,3.910025360820099680e-05,5.524483168842068276e-02,3.474522331208754200e-02,8.294082977658781552e-02,4.040280693552811969e-02
1.017257272093879811e-01,2.996062958320763053e-02,1.263502696842848938e-01,2.319499264434323003e-03,4.296527342325461127e-04,5.302246754839502117e-05,6.591537114096719663e-02,4.789581835064266740e-02,4.919483256740694171e-02,5.340894691825860685e-02
8.017912299093030160e-02,3.711690594318516057e-02,6.300658304016376610e-02,2.635789458491526356e-03,1.598267023740691816e-04,4.537643661764577955e-05,6.141626833576363520e-02,5.726083798028760302e-02,1.364262896788377699e-02,7.765229544246410320e-02
6.645639941560352315e-02,4.618013774501824459e-02,4.549259994066246794e-03,2.834275980185714094e-03,6.901904999902408640e-04,2.593280029076977858e-05,2.947397318052626114e-02,6.587712298677710077e-02,9.670683022401503626e-03,8.809750784047820638e-02
5.594503103959957285e-02,4.905121546404350025e-02,3.293289090712955142e-02,3.035915571237033077e-03,1.069836737668818614e-03,4.677963911830959306e-05,1.104185431021854728e-02,7.440847268457695396e-02,3.222480693733404712e-03,6.911438180746026783e-02
4.450113160897015835e-02,4.222672558385655306e-02,9.916759843754582512e-03,3.214694031386676389e-03,3.946506387658389671e-04,8.804365799473494870e-05,2.827716860488839121e-02,7.563892560707295709e-02,2.732524324743312166e-02,3.161091615652304732e-02
3.276564723752740244e-02,4.081288189040987308e-02,2.435194028671646901e-02,3.508381539808550376e-03,1.631550155262811129e-04,3.768064955864990816e-05,1.899959645265541022e-02,6.337403167008397176e-02,5.409237811376496619e-02,3.340322471260288775e-03
2.199643921740739722e-02,4.967258458985062547e-02,3.297103419626791487e-02,4.032633719743360275e-03,3.956513446369842174e-04,6.504236141053939949e-05,1.083185698579184481e-02,4.115561129720454042e-02,5.729755070256091487e-02,5.598929927844560617e-03
1.234443747369386168e-02,4.454493662153059114e-02,1.855770097050532530e-02,4.292571844103820061e-03,1.091967451921012876e-03,2.287542425682530600e-05,2.198594529205405435e-02,1.924467578770753737e-02,3.788365292260425371e-02,3.557415811391619748e-02
4.261025915294852813e-03,1.015836949226255059e-02,4.519619605132796196e-03,3.957550908311993111e-03,7.215239693001457462e-04,2.334652932638255518e-04,3.990090579520357700e-02,7.296641896826509301e-03,8.836443120630560477e-03,6.687179705467433122e-02
4.869136252929080061e-04,1.923622360282103635e-02,2.498291695754576575e-02,4.213174135883606536e-03,1.520555568291680139e-04,3.817076973308929495e-06,4.310939949765641571e-02,1.298041797964944594e-02,8.638726487620578681e-03,7.760369833284985752e-02
3.490439349830556579e-04,7.016144337269008928e-03,2.165111669157018109e-02,6.378656075616891130e-03,4.148967237463532603e-04,7.888304157138088845e-04,2.596084428738558089e-02,4.001108687130591063e-02,4.237764383737980395e-03,7.855540822246272203e-02
6.597764171976305478e-03,8.364189347234549099e-02,1.481303479028511956e-02,9.042976204776776578e-03,1.478430196437308564e-04,1.274323885330195388e-03,4.915598862084594005e-04,7.915838811666732477e-02,3.995176752482075544e-02,9.565208705365291220e-02
1.360683144687485288e-02,1.450833640667077429e-01,5.570063174231026232e-02,9.281038302497206238e-03,2.666213718535459824e-05,8.139876769330318300e-04,1.121878262747053566e-02,1.078886459730171304e-01,6.707152114119710462e-02,1.297215028046913854e-01
1.507168251464405077e-02,1.406143314011160939e-01,6.740625367648342414e-02,6.982794473174205180e-03,1.408129582028026458e-04,4.568492981622719205e-05,7.138163398925119821e-03,1.078908133819712900e-01,6.478174597735804341e-02,1.553537888368649034e-01
8.915423037637218440e-03,8.690057152550453856e-02,4.934362258639989757e-02,5.022502582888352905e-03,1.950594288835707786e-04,1.612415312463008393e-04,4.301270471484164304e-02,8.051192067877727121e-02,3.821607876166996376e-02,1.535813910136967220e-01
4.815809618586468829e-04,3.939718573676515706e-02,1.739741414590579779e-02,5.071488562077226640e-03,1.395949278192294240e-04,6.968578509433194697e-05,6.123117672030795045e-02,4.355354453671618498e-02,3.088856037023860173e-03,1.289168473809462478e-01
6.727785733533083248e-03,2.930631633539656014e-02,1.677854423631578579e-02,5.947393113635276139e-03,1.108345821800379321e-04,1.748769713065414610e-04,4.924795427519536306e-02,1.582959919547948999e-02,2.295531326805179059e-02,9.721106504403699555e-02
7.543493792553363289e-03,3.836067130777993939e-02,3.832954332958978666e-02,5.958706552340072363e-03,1.339148608257072714e-04,8.572271211029388585e-05,3.763374472027739698e-02,2.701258828983376520e-03,2.258019609543224573e-02,6.681171373977434769e-02
5.558844892988561853e-03,3.350500674661058970e-02,3.306257328883505792e-02,5.053957141787750358e-03,1.454116343411203697e-04,4.461309270450036145e-05,5.672262404504692379e-02,5.029679514620919237e-03,4.527091676573003799e-03,3.431054579508679980e-02
4.421787173559508718e-03,1.014019029603150171e-02,3.552326859072887227e-03,4.795576444643851431e-03,1.327191342562237880e-04,9.036987375035580134e-05,9.133831692697262639e-02,1.626954877195936275e-02,3.422129837104308236e-02,6.371592179413341529e-03
6.119320750405934581e-03,1.507552386123099317e-02,3.379213073413481899e-02,6.470766215720667215e-03,1.251883338325448678e-04,1.107280410339607626e-04,1.003242885027244846e-01,2.663036668976571930e-02,4.116606729426761785e-02,5.529922889276050330e-02
1.085906040402819656e-02,3.547475469615168908e-02,6.099116490313983424e-02,8.882501921625192073e-03,1.292014928050062871e-04,8.556403004337446820e-05,7.057385045354640229e-02,2.503155989734173401e-02,2.225913915892940853e-02,1.024413361642563525e-01
1.746015850451958923e-02,5.299976565792852840e-02,6.864205827718762587e-02,9.219596362267388004e-03,1.315167631372798017e-04,6.658167657261602503e-05,3.364012981501767613e-02,1.096483721892357530e-02,5.688535754910784698e-03,1.316298358991151995e-01
2.458289791278115213e-02,6.479278030492863216e-02,6.828602535353452130e-02,6.811062270322069089e-03,1.287645999715886485e-04,6.359041115081053366e-05,2.863746733007938722e-02,1.258107358833518517e-03,2.130889066606697288e-02,1.369692156373692182e-01
3.294277802501949237e-02,7.718165486761772998e-02,8.235276270979140223e-02,4.037136575758600715e-03,1.262372636473702838e-04,5.276228871009423029e-05,5.657970831588449850e-02,3.479106604982227548e-03,1.445121353144602529e-02,1.330591073967742344e-01
4.528811903624267027e-02,1.122888518287537274e-01,1.066516277900258075e-01,2.779642236672387988e-03,1.260814209701664691e-04,2.910715818159173086e-05,7.959008234148037819e-02,2.685274903631255233e-02,3.895657735522270113e-03,1.380505634249119817e-01
6.170644199029654692e-02,1.704084373652149931e-01,1.034532440933578351e-01,2.369728093318593503e-03,1.277836867749799501e-04,2.823185133386695624e-06,6.891128541574646771e-02,5.694703372193957169e-02,1.092468753894592498e-02,1.500911821959066139e-01
7.555984329472033301e-02,2.026154642968242547e-01,4.813774426796375155e-02,1.852403690671983443e-03,1.293945670576535339e-04,2.345752106167580051e-05,4.103549921279582569e-02,7.883186922222631954e-02,4.551139416940628776e-03,1.526835321715178939e-01
7.948515292879715366e-02,1.594712278196106503e-01,3.347668652583724730e-02,1.746064636703191552e-03,1.270678788865002747e-04,5.227524639451165624e-05,3.126573468521531840e-02,8.580517096887520234e-02,3.127253094627407970e-02,1.411157380060341915e-01
7.661052703220055937e-02,6.281087475555349742e-02,8.538985593235191851e-02,2.368824722892358230e-03,1.236800796234534554e-04,8.461341949560525631e-05,4.212501198355640686e-02,8.227790936135905009e-02,4.720187902732932150e-02,1.321129988534389954e-01
7.648986532604445943e-02,9.645595430352911157e-03,7.363709939809129357e-02,2.469564685735532641e-03,1.299191859637587564e-04,1.231090068064755118e-04,4.165773714430611591e-02,7.503349713137487387e-02,3.944759250061331129e-02,1.440988012686581499e-01
7.566111566150669765e-02,1.451881045542503801e-02,1.837154159902176093e-02,9.132868951521750647e-04,1.406359561489543212e-04,1.668728877669469347e-04,1.251586678145446413e-02,6.443545059476100956e-02,1.587864845591832608e-02,1.685277394110492877e-01
5.622937273506561917e-02,1.655698746824425804e-02,2.551964213171339924e-02,1.536899769076879646e-03,1.318898135996261984e-04,2.050924682446695539e-04,2.046494214401933798e-02,4.918420728098782391e-02,1.229097914140124884e-03,1.651176499772058492e-01
1.362204871832209570e-02,3.004214737576128835e-02,2.074203287204169979e-02,3.275583059011670430e-03,1.138416059518521681e-04,2.371592110247158465e-04,2.237718658932092569e-02,3.420868940291414695e-02,4.481517882219641924e-03,1.028484018892712876e-01
2.894752934059103416e-02,1.164561229215054991e-02,2.415880271243306746e-02,3.957411367740801440e-03,1.384802642009500331e-04,2.867277805645312722e-04,6.765323898964932178e-03,2.466580724763266230e-02,2.775881210161867257e-02,9.141209741604398517e-03
4.605942625113676470e-02,1.590631945563701979e-02,7.199972177216268365e-02,4.628443409994765882e-03,1.857009742373405005e-04,3.548142758303743914e-04,3.431219298677438273e-02,1.836462969816838806e-02,4.595775422885761685e-02,4.967204703699281548e-02
3.679897387166617545e-02,3.302142680256549279e-02,8.852072781791908707e-02,5.991253324178912217e-03,1.436648704340928848e-04,3.885990520144262379e-04,3.409107813397518200e-02,1.272741787030911946e-02,4.033231184379101886e-02,4.669533123808962405e-02
1.583230617962887860e-02,4.313146405032597386e-02,6.568190968815451614e-02,7.260800392640131759e-03,5.210913827775979910e-05,3.828314626945054661e-04,8.060586030743749353e-03,9.852371474226070264e-03,1.470156505082012219e-02,2.473928269630289514e-02
7.580603440155163179e-03,5.616116381169845850e-02,2.814265960762400015e-02,7.265799431262181217e-03,1.535670695096942129e-04,4.491615394622037538e-04,2.330304140900169713e-02,8.081001349618959634e-03,8.154239760866035733e-03,3.650426511477510710e-02
3.114404927409389692e-02,6.500364387801557675e-02,1.263649630878092497e-02,6.389817875188458923e-03,3.787268035234099919e-04,6.004646235616522805e-04,3.704543254228954280e-02,1.241897278317888320e-03,8.033049064011248130e-03,7.784428077442193117e-02
5.284910712399835259e-02,4.939517411937854180e-02,3.765346267340491382e-02,6.262651775286677026e-03,1.650199951792922723e-04,5.968901004796855385e-04,2.270620632083438645e-02,8.713919683211869549e-03,1.567585698094935837e-02,9.729187867928551503e-02
7.219361790560947789e-02,6.818668092586714288e-03,8.995450685745264019e-02,7.550588708667795024e-03,6.082153718355150186e-04,4.027651200937536506e-04,5.502840271953642927e-03,1.127909131777062729e-02,4.343563435431069958e-02,6.095437580732866040e-02
8.687798520320345885e-02,3.160477954969006381e-02,1.281575237183821547e-01,9.533905023914863650e-03,1.072413213589467436e-03,5.330301928753940254e-04,1.869382840674557039e-02,3.430249109121017576e-03,5.050895082263337499e-02,1.136494894269094239e-02
8.221748601037749682e-02,3.402808407032544002e-02,1.101362643274544917e-01,1.143859898306877169e-02,5.945087744328583302e-04,1.096864206931826621e-03,2.863435591873399796e-03,3.540525522745053937e-03,2.997846054921398523e-02,7.107066000397928296e-02
4.000419778163406131e-02,9.873669988614306586e-03,4.181314379052974983e-02,1.242714589201214179e-02,1.896359129303219521e-04,9.219591938165704048e-04,2.700139770197999833e-02,2.678398771475317894e-03,2.229699070539298278e-03,8.004092759775367771e-02
3.178201370868104919e-02,8.371983372979624125e-03,1.495934697865257401e-02,1.156163491750980890e-02,4.213697908670689879e-04,7.965723045447079768e-04,4.382259095812948702e-02,1.772910280741933284e-02,5.638729350181602776e-03,3.066538145934325291e-02
9.359354238749470478e-02,1.741637119670505843e-02,1.027106557216196300e-02,9.735432483723268499e-03,2.188084541927984934e-04,2.476682308508383352e-03,3.506471988603202666e-02,1.992256731311660770e-02,9.454693370254844270e-03,4.592690623026550456e-02
1.118375658501355729e-01,3.787401609608627429e-02,3.248023772373881402e-02,9.658986716313544552e-03,1.211042109836303312e-04,1.996617101317132645e-03,1.187334680149232033e-02,6.556507736981475459e-03,2.288227279917030149e-02,9.734282665111904098e-02
9.098242287924004912e-02,6.300726292991633282e-02,4.883016444425310881e-02,1.230864893264346088e-02,2.062948553174239700e-04,3.027773804329829182e-05,5.736161177621182557e-03,4.743525658620015295e-02,1.228910142418681954e-02,9.680207974640485380e-02
5.862813912841972203e-02,5.988010688211140020e-02,1.678442676632149050e-02,1.567015058197497937e-02,2.829723497623015736e-04,1.259250050575178763e-03,6.561015093464708098e-03,6.840572873963916833e-02,1.407943502161229828e-02,6.065369786058540102e-02
3.129114613559572100e-02,2.323855688147537235e-02,1.926536877589214714e-02,1.759003657482365382e-02,2.921103248911020790e-04,1.063473863762208135e-03,1.102554525533880336e-02,5.522887723350858313e-02,2.739966605898463275e-02,1.254148170883686436e-02
7.280897815090206851e-03,9.958730097441328283e-03,1.365209234131973398e-02,1.752561596844125907e-02,2.351190490740153556e-04,6.741550281081888033e-04,4.235925305128835500e-02,3.112073351857835499e-02,1.519222074673799022e-02,4.025517826509601022e-02
1.658528532731044086e-02,3.613280667943241480e-03,1.373468093751987681e-02,1.594692432452454040e-02,1.709009779340919756e-04,7.853564110136070130e-04,7.082785852912873437e-02,2.474720635436500685e-02,3.411290007092061295e-03,8.826668336648080260e-02
3.688281767494171193e-02,3.779735061205220792e-02,1.249507021015868261e-03,1.400131317034560528e-02,2.869392195854620622e-04,9.809886611206060890e-04,7.443897369927444940e-02,3.658007792541224934e-02,3.711011267455560474e-03,1.108967241604008197e-01
5.140375012685575312e-02,7.013008025802083822e-02,6.445395736124676089e-02,1.275768036514577340e-02,5.051093627702068914e-04,9.481269188764120072e-04,5.233301449041071612e-02,5.075178829178931400e-02,1.252624550935135979e-02,9.752741803580933233e-02
6.419656527711102567e-02,5.263032941307622947e-02,1.156292585687797303e-01,1.173960952250659856e-02,2.931734429799462698e-04,8.862481261856158463e-04,3.291761023455117008e-02,6.378462462823278334e-02,2.034208896663627225e-02,6.175238275921997311e-02
7.831989333666815323e-02,5.719314652039564351e-04,8.840105613902866921e-02,9.480627170030316367e-03,4.669778377925601375e-04,9.336251520943561998e-04,4.197878544213722724e-02,8.318549635193996095e-02,5.171843802069944068e-03,3.107283869759507391e-02
8.950809431361771151e-02,3.197852967145830422e-02,1.691093276205005158e-02,5.896555095262241177e-03,9.312075941201021587e-04,9.680686128708190785e-04,6.910719872526309426e-02,1.075657426097422209e-01,1.687792532430930706e-02,2.372133530923918251e-02
9.445940593229415483e-02,1.831557489417900281e-02,2.259695352440456093e-03,3.029419418703733352e-03,4.642690002974899071e-04,9.451007091183644387e-04,7.827769743088960896e-02,1.254415927739355452e-01,1.943823039048535317e-02,3.124514962151706335e-02
9.994135964606697120e-02,1.827242641583820548e-03,6.686869444773438365e-02,2.892608616595646574e-03,3.312858841779006648e-04,9.891271387019208439e-04,5.323266189915793617e-02,1.302811816642738263e-01,1.102648350401921038e-04,2.959014097550857064e-02
1.080685154923846647e-01,2.062409231651362099e-02,1.578892275338181495e-01,4.857003549521194535e-03,5.887980436254917514e-04,1.079229130413418905e-03,1.968970861668068936e-02,1.228678606789324473e-01,1.961651584283801916e-02,1.065214639243186080e-02
9.608755019655439156e-02,4.835587877379084881e-02,1.857701479845385306e-01,6.518319127435784864e-03,3.636547877045306020e-04,1.011859144309348478e-03,1.040799130901337750e-02,1.015104363390625375e-01,2.073234120482577575e-02,1.011373277993850989e-02
3.768240137953774577e-02,3.913719640987353698e-02,1.298968848173432944e-01,7.582960017405751887e-03,2.122723287142413496e-04,8.856594154731473262e-04,2.006754304929737887e-02,6.574627600625169987e-02,3.413904601642927042e-03,2.078894913441546241e-02
5.150937563825391113e-02,3.030829041366367438e-04,3.133260975372789692e-02,1.001733258765476892e-02,3.454313100739082746e-04,1.123215371971044351e-03,1.790848559543884236e-02,2.880579697747140747e-02,2.235646824735512683e-02,3.121907248687192868e-02
1.194769666801598351e-01,2.718220027191658311e-02,4.906468479239026181e-02,1.339489692708611089e-02,5.462643271786955671e-04,1.477797266558537707e-03,1.632011272998539625e-03,1.021900528579594222e-02,4.275623020042938066e-02,5.533055902871875792e-02
1.358397731957085575e-01,3.167692988567777368e-02,6.847635405415203325e-02,1.489060850491292533e-02,4.333244382378933081e-04,7.357632660562926207e-04,1.089301958618033549e-02,1.456103969102293116e-02,4.567950051490021063e-02,8.695900145012981641e-02
1.172016117086763509e-01,4.391288763497736003e-02,3.732863777654524262e-02,1.510750307666610531e-02,1.902189481960346563e-04,1.495138979185595260e-03,5.757057492713517875e-03,2.762682119247147211e-02,3.470462525027192408e-02,1.061930057378087516e-01
9.254887679496326403e-02,7.877021472512119038e-02,1.383428399692608439e-02,1.700362625575588954e-02,9.552751107465284885e-04,3.462341271785573504e-03,2.670305107941046974e-02,3.222358806888787203e-02,2.744785284960765334e-02,1.033326241240710985e-01
7.100792747725966081e-02,1.130151704244105326e-01,3.858926066852066961e-02,1.760242657838331087e-02,1.144200452272247162e-03,3.326473701008660338e-03,2.483393157057314782e-02,2.194431769365583554e-02,3.083975691289760068e-02,8.275797489927000372e-02
4.692097277824869295e-02,1.195200493833577793e-01,9.095698026400457492e-02,9.688851734737366495e-03,6.102184065468873458e-04,1.839289923914543424e-03,5.890013301357828815e-03,2.767054553372652083e-03,3.282515428925567025e-02,4.991116732394580702e-02
1.565675781034065947e-02,9.774435532254521775e-02,1.237370380429119315e-01,5.874318162097565306e-03,1.488288222439309747e-04,1.081077082010839258e-03,4.324507763851306863e-04,1.667989584374517456e-02,2.437072561426327499e-02,1.076211629995898512e-02
1.838870820794612573e-02,6.691647706704867415e-02,1.142059491860821785e-01,1.826752415236907942e-02,3.800070706228481955e-04,1.215364341989971309e-03,1.987443275875644400e-02,3.829521322792917709e-02,1.287965866884658098e-02,2.243985282868279918e-02
3.851757278787741601e-02,4.604393514930347348e-02,7.427665458936019705e-02,1.966672248619175459e-02,6.978659962032011900e-04,6.836014390979252729e-04,4.775244988835818799e-02,7.224549595821247450e-02,9.211347234691802388e-03,3.937178685487215113e-02
2.600317629315808399e-02,4.287882204350305232e-02,3.467328581434982876e-02,1.353168560079996176e-02,3.022550693170934864e-04,7.861170409987671207e-04,5.413930191821721832e-02,1.173715130276119234e-01,1.348632550897234730e-02,3.944945634644248661e-02
1.458709373723196707e-02,4.804068014068341858e-02,1.981073023351012999e-02,8.042073179098004065e-03,3.780467767325567372e-04,1.679253839439957558e-03,3.414664177344742257e-02,1.523318128374258063e-01,1.583738806806183133e-02,2.952350192486700303e-02
4.839560740710439207e-02,3.786250173100591532e-02,2.927572129688481989e-02,4.839081774622891290e-03,5.577546762605506371e-04,1.379591562479603149e-03,1.347803045144132898e-02,1.511730625149071416e-01,7.953515789985710072e-03,2.682118856314099839e-02
4.599158615978675424e-02,8.868976201219262376e-04,4.909042625709029994e-02,2.319893431195043168e-03,4.786387929894682326e-04,1.240127600525375677e-03,1.733052214712144101e-02,1.068803609483842815e-01,5.074257275391296125e-03,4.809415184669930260e-02
2.411642888831263751e-02,3.637717739275117546e-02,6.822752642181231786e-02,1.496989581711190460e-02,5.838223294895062169e-04,1.963324280681136985e-03,3.668813632569045691e-02,4.619196339595404294e-02,9.911010159723197821e-03,7.196929458846694494e-02
2.970798767554089226e-02,3.669431910562034882e-02,7.238083097245197328e-02,2.029791186317715657e-02,4.192046089171304292e-04,1.548510232030806582e-03,3.772703284678087521e-02,1.710987801898509672e-02,4.807757829116099738e-03,4.701641324074937872e-02
7.716558135802051299e-02,8.397511272868831561e-03,4.731013209176269246e-02,4.953559678602961758e-03,3.032013198548047647e-04,2.077787454130008114e-03,6.581970402110803343e-03,4.177394715933034630e-02,3.403449970575048947e-03,3.045140158089741297e-02
1.256135748640088423e-01,2.442841540862820959e-03,9.802066160314523713e-04,2.299727563184131990e-02,7.363573834632334810e-04,7.044969818549380938e-03,3.030487541694937975e-02,8.459048665734815453e-02,1.573452623745206710e-02,9.336334681811628289e-02
1.315648606977387058e-01,1.846302354582203542e-02,3.943522166758704067e-02,4.050901583009094975e-02,2.786350546131294531e-04,8.793664208038103752e-03,3.788107774473048472e-02,8.978872783415570158e-02,3.589383653659397599e-02,8.906225078745598489e-02
9.871586510777674572e-02,3.764910265733768108e-02,5.167215376023031465e-02,3.819020161244743305e-02,3.648723115026453732e-04,5.702268646363879874e-03,1.295756588663285816e-02,4.582123293066333453e-02,4.911609260381558095e-02,3.985170946959734617e-02
5.876544768059438484e-02,3.583183665735269197e-02,2.371079950035916151e-02,2.680984083755370145e-02,5.810011715327560331e-04,1.062466951441962083e-03,1.563829948564032443e-02,9.023145575872852653e-03,4.361977080535727608e-02,1.882651365939391579e-03
2.711636030504911699e-02,3.577469415106234590e-02,4.554877134779479475e-02,1.552450138662918484e-02,7.096228492700427763e-04,1.363346908400381481e-03,2.169969997718673368e-02,3.997262136497904683e-02,1.840843124460920383e-02,6.457992465946723118e-03
1.209003686078513606e-03,5.545055536329993734e-02,1.262537212843560797e-01,2.971084164394051028e-03,6.553123502179422286e-04,1.589523461073030688e-03,7.680695931080173434e-03,5.261192972338955831e-02,1.325120011944425427e-02,4.482519749190100322e-02
2.650726260725034741e-02,7.799044088303860867e-02,1.558235610099888147e-01,6.551752795398256037e-03,3.180719534561983366e-04,1.716494866529610051e-03,7.752348071559591637e-03,6.602804041325342765e-02,3.002206856154882725e-02,8.127958881397770452e-02
3.948365731712993876e-02,8.145313233290511767e-02,9.185634389394096988e-02,9.680812682037547544e-04,1.613658648783125983e-03,1.798651649037606281e-03,2.062185073599177507e-02,6.208871677955098839e-02,1.953398977755041455e-02,8.716965470451651377e-02
4.223319206496360667e-02,6.669984237537793237e-02,2.988138475584091458e-02,2.707572940198502837e-02,1.492428991237100934e-03,1.999176914776677175e-04,4.378528682796690996e-02,2.606286292334688767e-03,7.901282031827687111e-03,6.690206552941475870e-02
5.125341205762963537e-02,4.946261845955435277e-02,1.152933662459409980e-01,5.098170275602139506e-02,4.278083316197099444e-05,2.507052472902007549e-03,7.821729092837187425e-02,1.210015847035185721e-01,2.541024577381624516e-02,3.345065187288936287e-02
6.630416707758396422e-02,4.508018372668337603e-02,1.010418953461055258e-01,5.336264774883403561e-02,6.152293685193160975e-04,3.389276490598129056e-03,1.014741653729294285e-01,2.157978271067313158e-01,1.382605138048158960e-02,1.952468673492120319e-02
5.930561247732103747e-02,5.796452669610512726e-02,1.516100124931711417e-02,3.843507753976822122e-02,1.493457207794548938e-04,1.447651333974515897e-03,9.185441109427494588e-02,2.268412055841994845e-01,1.692116592475027478e-02,8.554906086773873819e-02
1.601528876215314173e-02,7.317328539065930115e-02,5.298385246407164018e-02,2.284479812780521729e-02,6.216212210002547076e-04,9.628929304818084883e-04,5.516406642520464698e-02,1.807270012011043536e-01,3.388688062354665298e-02,1.191245457477332903e-01
3.404577333312333587e-02,7.127043106896414904e-02,4.342952332443626023e-02,1.227471132111396072e-02,1.623435150086796511e-04,1.721135069499743356e-03,2.356770585596066128e-02,1.394993078610652915e-01,1.721292848184502802e-02,9.218863037447047604e-02
5.291887988518284569e-02,6.099466330549502269e-02,1.190165886320899286e-02,9.585017057201980495e-05,2.554191184878280580e-04,1.304571428973487837e-03,2.535975847311548043e-02,1.142360383544777785e-01,1.354646581098630127e-02,4.885261527114304753e-02
3.787945929470953182e-02,7.298791572690539742e-02,3.359349394747884743e-02,1.495796099867851593e-02,1.265511462793628703e-03,9.962139045340111937e-04,5.354883646474022096e-02,7.420043834351870704e-02,2.481947560694792998e-02,5.296278408403040650e-02
1.147124989429752252e-02,1.092774230658379725e-01,7.764961493170055920e-04,2.217904317361607536e-02,1.511171045862018999e-03,1.046860787066927626e-03,7.369010719506323415e-02,2.312668704521964741e-02,1.570888097723115162e-02,1.013014727706453705e-01
8.346913836125707808e-03,1.295076116454798865e-01,2.825308495113033544e-02,1.405281563181330629e-02,4.041445144744690472e-04,1.199158541272570683e-03,6.629880966898800410e-02,9.238122795817893876e-03,1.576840303363047716e-02,1.313626673543369372e-01
1.151945287226198954e-02,1.019676387462711414e-01,4.638654921676367039e-03,1.081481666890055787e-03,6.239666063196152787e-04,1.289876666051133431e-03,4.646574147193736903e-02,5.011287474558584476e-02,3.935052394240860785e-02,9.899386467396645295e-02
7.799746341703367621e-03,4.076729759393414587e-02,5.387069702099778201e-02,9.322320826275277625e-03,7.623209757785196503e-04,9.833843250336383665e-04,3.701145212283626917e-02,9.899186605326348865e-02,6.785356189840788255e-02,1.672877393888811196e-02
4.034140300929819206e-02,1.601722629291712705e-02,9.691352478793757719e-02,7.651012609784115133e-03,6.032608870996568557e-04,2.034846311068497281e-04,3.857025780740316878e-02,1.076276567030997333e-01,7.666706259054704986e-02,6.778508805979245599e-02
6.214360031392647532e-02,4.033314314409090079e-02,8.611004274252409552e-02,2.214508809188174814e-03,3.563502924216251241e-04,2.855453306400123899e-04,3.321970730531381005e-02,8.071715977237849116e-02,5.998747160573564274e-02,1.078871564124086330e-01
5.835175964912216878e-02,2.665013725558283697e-02,1.964030025654365380e-02,3.289922862121135577e-03,2.617427342849851127e-04,1.322876672680680862e-04,7.398496661058696564e-03,4.792418462062267986e-02,3.144343580885723688e-02,9.333230987273785639e-02
3.665240487657127344e-02,5.142779450020694421e-03,4.769882416293212690e-02,9.056644085706042069e-03,7.272520118297283410e-04,8.688825288457623953e-04,3.257912163604074346e-02,2.001975981291572240e-02,1.159444038698347230e-02,6.846315695295607240e-02
1.300506133766659439e-02,2.160106604873980943e-02,4.499888812771436070e-02,1.370333392346453211e-02,3.374458832121991422e-04,1.064834036417451266e-03,6.176215849534073127e-02,6.961956808172394505e-03,8.844570784649220113e-03,8.738375217722807453e-02
5.304713380583529064e-03,6.784690257627190753e-03,2.186749178920472172e-02,1.418428986693169407e-02,4.271112968798077220e-04,8.185227822524976079e-04,5.655834262870951257e-02,3.201330888878318320e-02,1.021352003051031673e-02,1.368522049081639658e-01
1.994702223678657474e-02,2.458797226573347997e-02,7.314351611630107164e-02,9.288973991853039652e-03,6.706001610282188996e-04,6.899844094740256902e-04,2.167237357364948727e-02,5.078336693939933949e-02,1.401678302041266082e-03,1.473424047509467871e-01
3.279763342583127961e-02,5.101989412346200764e-02,6.995082749501543851e-02,8.315469416067316696e-04,4.509227665387685255e-04,7.621562004425062875e-04,9.274926068413156394e-03,6.338818344216318179e-02,8.856343528454187555e-03,9.995417883661306124e-02
4.127630625147675481e-02,6.713236640084370432e-02,5.423568297650919329e-02,7.212751047026740026e-03,3.387862221610011756e-04,7.896341696783044971e-04,1.007011756460221910e-02,7.267453933412687528e-02,1.196823134978580901e-03,6.648640172287093031e-02
4.218526666636671085e-02,7.809216479731384553e-02,6.243973370147284235e-02,1.117872969274968063e-02,4.140809495340725104e-04,7.190200845687630274e-04,7.931595004671077379e-03,7.815001503075397205e-02,2.274940089153971307e-02,1.104205928757922978e-01
3.743714079322059407e-02,8.508760068904931695e-02,7.387379490376640157e-02,1.084644189331117857e-02,4.386164867946562508e-04,6.716420574715776994e-04,1.309613760161584470e-02,7.311235998593219876e-02,3.988171360795384618e-02,1.967419272929729346e-01
3.265059198918567746e-02,8.106676131571759203e-02,5.916355910783144961e-02,8.825529496035490820e-03,4.086770097763027911e-04,6.890443202596181803e-04,4.685513382843642730e-03,5.232631544259572220e-02,3.456235157657559787e-02,2.374006870893398680e-01
3.145908760560525014e-02,5.609713320943990333e-02,2.588114179851505603e-02,6.236066941004893109e-03,4.188050130955249485e-04,6.967079110730604961e-04,2.295608435472043865e-02,2.470891435496081617e-02,1.325451704745141644e-02,1.942141906486994085e-01
3.366027372400742096e-02,1.353824483699852914e-02,6.271694538566191177e-03,2.253388981259868765e-03,3.844796563214291328e-04,6.406224457583732266e-04,1.711872168357997034e-02,8.637773229126045893e-03,6.551329081717596065e-03,1.065767043694118843e-01
3.682831162313085493e-02,1.624575290308983427e-02,2.736587220198674272e-02,7.313041297061468682e-04,2.919078490960442303e-04,5.917245198471215821e-04,8.968713517532604998e-03,1.063766918409503846e-02,1.031160892194677228e-02,3.645093757352067115e-02
3.873828925735470913e-02,7.513795218282524196e-04,8.777538547349904297e-02,3.390556785542711907e-03,3.710025532230284734e-04,6.474184384799519737e-04,2.670827246936394866e-02,2.094625465477444395e-02,5.674712172108561069e-03,8.723646093586761435e-03
3.985867317182548858e-02,4.673286079752173028e-02,1.504837708834139143e-01,1.597610308980393357e-02,5.781024115491209970e-04,6.973741692224906833e-04,1.441336882606444707e-02,3.364776456584808728e-02,2.965714992534149511e-02,8.000160686505337904e-04
4.175363945643113112e-02,7.449526358890534716e-02,1.730914938818714499e-01,2.904030132243334492e-02,3.553160649437185864e-04,5.382217428805398211e-04,1.743110060363386657e-02,5.348162179892228252e-02,4.134755337143519033e-02,2.162235887655361566e-02
4.256113114987820911e-02,5.585820136053089302e-02,1.481889137928563971e-01,3.335480496831269570e-02,4.313996715933668099e-04,3.823755026905532027e-04,3.671773001067620695e-02,7.562438263494543345e-02,3.068267272680827440e-02,6.674943542245179162e-02
3.848066049531644744e-02,1.155925199268704844e-02,1.000040944620291944e-01,2.780502133989783825e-02,9.123772085726070168e-04,6.778175885675674509e-04,2.606503973683771402e-02,7.975473437721784797e-02,7.578593589994546929e-03,1.148904289412983337e-01
2.941360629613420583e-02,2.741861459737125056e-02,5.460828864792466319e-02,1.787699856466896942e-02,4.449513599971905483e-04,9.678968954568124231e-04,2.584832059275464760e-03,5.727451914358143437e-02,9.309256762668820587e-03,1.409277203769750964e-01
1.872146742890016050e-02,4.173173951776470991e-02,2.843377256832865102e-02,8.360794795064881504e-03,3.274969650562979868e-04,4.334140425787525298e-05,2.723224299646752940e-03,2.822848026614114061e-02,1.090816742362998686e-02,1.315067781551038373e-01
9.613264651721263598e-03,2.250277308056786510e-02,2.255719204513587789e-02,3.505597709288132621e-04,5.346098969327838131e-04,2.289556780605678504e-03,1.725482800013528745e-02,1.929455722499328826e-02,4.253538519983685734e-03,9.261702925019221766e-02
4.613117519170599652e-03,1.598294621475329289e-02,1.520282745241991265e-02,6.491551130670652169e-03,3.130472907006550624e-04,3.550529614542875540e-03,3.691244387084593320e-02,3.544035150800539657e-02,2.627038783552154960e-03,4.670755661345206422e-02
4.331669105791095299e-03,4.174770400793895164e-02,1.498962403396147773e-02,1.123461111242322723e-02,2.234019634969512203e-04,2.344263969197321433e-03,3.152977327224659732e-02,6.019623975420574508e-02,1.167083432560769157e-02,1.540612700435321607e-02
5.465860724013819720e-03,4.727798662324002310e-02,5.786547425887026558e-02,1.222924340752408467e-02,3.034268753053003323e-04,1.534220910508904694e-04,6.951271430394641987e-03,7.594329430423740757e-02,2.783494839693198206e-02,5.684364134034300062e-03
4.120899951409083377e-03,5.684262206924987210e-02,9.145232036450645641e-02,1.025180493051846241e-02,3.168481411389910104e-04,8.023484020105317799e-04,1.743777724262067161e-02,7.696541406389882656e-02,4.589708349470963261e-02,1.372188956164298659e-02
3.456800471437863898e-05,7.643527458080801029e-02,1.142196675429162367e-01,9.250879605532679600e-03,2.901946458157670956e-04,4.579212449342633237e-04,3.949295197023851983e-02,6.569724945099901514e-02,5.939028264804979695e-02,2.997900235011717249e-02
4.866428619881929540e-03,7.661500515124188004e-02,1.240165731169681901e-01,1.217633930010676019e-02,3.222137697274691137e-04,1.085107194982115825e-04,6.514057295593547736e-02,4.693969251612005456e-02,5.877933925005048715e-02,3.881510920962709388e-02
8.179675276259675692e-03,4.022204479331478733e-02,1.012590579139193009e-01,1.749868475251631708e-02,2.915021678974422754e-04,2.083413480693133786e-04,8.058506850992862292e-02,3.088123607128831494e-02,4.218801916916556372e-02,3.231882227952981995e-02
6.848327263530533740e-03,1.263094959228136874e-02,5.386140065686531586e-02,2.202376463194389428e-02,1.706372287248241956e-04,3.108374252037018437e-04,6.317030501820819488e-02,2.860745643684974721e-02,2.397379093078463516e-02,2.721138881988729302e-02
1.127060511473026300e-03,5.483214758864587285e-02,3.232759290030502025e-02,2.516907804035836693e-02,2.544676721665737316e-04,2.088382954706577692e-04,1.929894496216692096e-02,3.341591999963056114e-02,2.017434491316367692e-02,4.475529545257127956e-02
2.796578069039117390e-03,6.893397034124811029e-02,5.843270581925469331e-02,2.736556538748676284e-02,5.311993519497408296e-04,1.030557130096455560e-04,1.380058766578039740e-02,2.207307992697010030e-02,3.008070176238292551e-02,7.239771953398210780e-02
8.425242265879834963e-04,3.953964205328916459e-02,8.995717052395375835e-02,2.669664406911814725e-02,3.108050979231986193e-04,9.270957439307665033e-05,1.255700242222454466e-02,1.126355553536694670e-02,4.209171958246727546e-02,7.431416198316589949e-02
1.634812845878870664e-03,2.565619867318626179e-02,9.031171927872341798e-02,2.164825786228416482e-02,6.135498796333677899e-04,8.592156347889943785e-05,2.632060905884414659e-03,3.995124452040237084e-02,4.921504761431255009e-02,4.442895792089034818e-02
2.508324037147212533e-03,7.655862181009076561e-02,7.487412498392762017e-02,1.547794702671276452e-02,1.092854113089842703e-03,3.582334165614478762e-05,4.995388703340462172e-03,3.854768042643105797e-02,4.824680523605644894e-02,1.749297479622859142e-02
1.164720837350714279e-02,6.733512709847364053e-02,6.117717040261718559e-02,1.310468452529131925e-02,3.100551312163620475e-04,1.448521343955232051e-05,3.874420612844518830e-02,1.481194948298113039e-02,3.467654213738589203e-02,1.822077805019291924e-02
1.933035083584443842e-02,1.423360259905070285e-02,3.668111313556002284e-02,1.443736690148502040e-02,4.669898065519160319e-04,4.189209337770444507e-05,6.505072295440517127e-02,5.608089130865820046e-03,1.129966773987044204e-02,3.139377855402878531e-02
2.418309875287608796e-02,2.781927810202348625e-02,4.260498971235312377e-04,1.480551592491699889e-02,3.177971625206181452e-04,6.568513204344059956e-05,5.887873981861059536e-02,1.284576676573351978e-02,7.149525281748701083e-03,3.800191173573819192e-02
2.872730048760114077e-02,3.327530993292029948e-02,1.751736711970906801e-02,1.178758827309503779e-02,1.796449113126278837e-03,9.635657230609308396e-05,3.061146453602731077e-02,1.735528125773653021e-02,8.269795634248421068e-03,5.043294507961799261e-02
3.170206135530789782e-02,2.277163580258775855e-02,6.160461651119390064e-03,8.252614276590684514e-03,1.901838071750902841e-03,1.244963704933003273e-04,2.591361520728913473e-03,2.817757274509546592e-02,6.447838551253340725e-03,8.692602383249660447e-02
2.901949870359333064e-02,2.768970985944916446e-02,6.391839306672626730e-02,8.055471796545053687e-03,5.630235102144584168e-04,1.446401416271679715e-04,2.015520735491585502e-02,4.174723782189212334e-02,2.738306516994687065e-02,1.315192801885999296e-01
2.097754178595387028e-02,5.789289305630653665e-02,1.264084390513767198e-01,1.105864943589859699e-02,4.798790208562519512e-04,1.607712565255350087e-04,4.309685778703478687e-02,5.179337627317093934e-02,4.343736591389378565e-02,1.475635816640391840e-01
1.159802612400720467e-02,9.004227217678777151e-02,1.555636321531098376e-01,1.358346494552843675e-02,4.359188860124768561e-04,1.752295258453843789e-04,5.883837885045518218e-02,5.617792132726647653e-02,4.332272167592493561e-02,1.235280554054086904e-01
1.713557052829478089e-03,8.578540154925580474e-02,1.269306050286515275e-01,1.286126793709693739e-02,7.940255778902113122e-05,1.860054420538837243e-04,5.027270407621365483e-02,5.417834015140798876e-02,2.341409512623237807e-02,8.373812350713033537e-02
1.011983492365511189e-02,4.020455508663684646e-02,5.633920362017835054e-02,9.925731812185208114e-03,7.157873897539694511e-05,1.919044694368423828e-04,1.892188115329807019e-02,5.068464718933571311e-02,4.161333398898695024e-03,5.894866924720148366e-02
2.097496860048479739e-02,3.905224542949515751e-03,7.667616487922804085e-03,7.691375990406481948e-03,2.377215505671407430e-04,1.938786776166325670e-04,8.673782990848227792e-03,5.644377167353926972e-02,1.988688085714620385e-02,6.144363165668415006e-02
2.584084939842559367e-02,1.182273164173920296e-02,2.818544933256680179e-02,6.807317816140671767e-03,2.660596370189207078e-04,1.926240846617550278e-04,1.281401238114402222e-02,6.830261172388966961e-02,1.485184222318492245e-02,7.780252510038131175e-02
2.569784256115491966e-02,1.876227502682069857e-03,1.378387980925449910e-02,5.096618102464391814e-03,1.418364473521895009e-04,1.879246875135041201e-04,2.486490345088975679e-03,6.342141739876135109e-02,1.898742144016862810e-03,7.547662713690324321e-02
2.549031261838185722e-02,6.761741499781554615e-03,3.948029394602373815e-03,1.577910492875029711e-03,4.116639629848919474e-05,1.797641680482437321e-04,5.603288149385547007e-03,3.179752989798911161e-02,1.293377194739957388e-02,3.496867123662465021e-02
2.550568953601636477e-02,4.095757959708190739e-03,2.310047824305830680e-02,1.283487790052610178e-03,1.632854587648086594e-04,1.686392139631954102e-04,1.199502273648176028e-02,4.629288580653616834e-03,8.127357780699388801e-03,2.206313608354922018e-02
2.275762369197921464e-02,2.120628011558140652e-02,5.922049725539282883e-02,9.878957807028152481e-04,3.755116151544725302e-04,1.550334552742008848e-04,2.434991126420506941e-02,2.360683953896053344e-02,8.842782955678840304e-03,6.142822301559006104e-02
1.872159230161149837e-02,3.089941420092949878e-02,8.386703032705258853e-02,1.471032194338491202e-03,1.343864601325830065e-04,1.392532940449093691e-04,3.898389427870393303e-02,2.850797313481759007e-02,2.586581969217104093e-02,8.102830517085243822e-02
1.710747705281769754e-02,1.607297870377765586e-02,7.175686292630731322e-02,3.490625531574742361e-03,6.526407513623884438e-04,1.216597734903180283e-04,4.976654306456567561e-02,2.486246354282049126e-02,2.974753437399255129e-02,9.327254598180839684e-02
1.647097967960560808e-02,2.293978966718977774e-02,1.067071803729019268e-02,4.239043568129416406e-03,1.124551735628258721e-03,1.027347085410875598e-04,6.158359397568175658e-02,4.236336811400881648e-03,1.465981193731529658e-02,8.665717404879015595e-02
1.373482656674749648e-02,4.973900184755137427e-02,7.119873619993256908e-02,3.964551807051216840e-03,6.573863337652193850e-04,8.295854630170125142e-05,7.506131658126680151e-02,2.358328326943240696e-02,6.881249017744265131e-03,4.865818844442173358e-02
1.202605298706492000e-02,2.737142068890302191e-02,1.020022812925528571e-01,2.052253944260363019e-03,1.145710711279386877e-04,6.276308181104770477e-05,7.039803106606244698e-02,1.917003282419788707e-02,9.790093062010552655e-03,5.395002920967464921e-03
1.595357942627611061e-02,2.814343597721106691e-02,3.879136514379659395e-02,1.357678848587208715e-03,3.283455216974174857e-04,4.257316272043159839e-05,3.147715943968192043e-02,3.179119580838266762e-02,1.431783954945900321e-02,4.636602157683938907e-03
2.161696234807980802e-02,6.073045685034157704e-02,6.886330637333933080e-02,3.607747979540117111e-03,1.052801763701842263e-04,2.281469462369744094e-05,2.195668023533990307e-02,8.484776436493442209e-02,4.354803742597731370e-02,1.686264939887429509e-02
2.018684674722958511e-02,3.854153028199043540e-02,1.318229373619506095e-01,2.560626258714992446e-03,5.371006011096195632e-06,3.881150432927415501e-06,5.217667231760700353e-02,9.136657336011599906e-02,5.247995497018938249e-02,3.372680547935047457e-02
1.029145596693406550e-02,2.193778275033470698e-02,1.189130821030881524e-01,4.250073535493449975e-05,9.758684126248972105e-05,1.388370995058860874e-05,4.817317900361620109e-02,5.732033963883616939e-02,3.912174059275943389e-02,2.285150285758507163e-02
7.671143936675084776e-04,8.631067838053028962e-02,6.242178294130284327e-02,9.203495371906191295e-04,1.405957267432926387e-04,3.018218292614715731e-05,2.883901047258027872e-02,2.019136609315258513e-02,1.617521450257614068e-02,1.003834642424062361e-02
7.712446943644757358e-03,1.281896399921067797e-01,3.812381537532384158e-03,5.103001169577726665e-04,9.488241563036053613e-05,4.476475280320092764e-05,8.581255013946754648e-03,2.771500126431908871e-03,7.013360277913297143e-03,5.323538903257669236e-02
1.218322280701290491e-02,1.339875008571733694e-01,6.360900789982236458e-02,2.382342717049425445e-03,7.176624915943146678e-05,5.744044267131590952e-05,1.328822195292224742e-02,1.619829469449937318e-02,2.308239795637724232e-02,9.794524927930062241e-02
1.635346395374165374e-02,1.054287035568129000e-01,9.585013178148338309e-02,3.860200033814618469e-03,9.116125309613818078e-05,6.808261846497484706e-05,3.100329522492305603e-02,1.957680898764535896e-02,2.368992505133616852e-02,1.232020148636905343e-01
1.843747632653379431e-02,5.851328061430801503e-02,8.031970359901810519e-02,6.204189171655323347e-03,1.012245960545594340e-04,7.662851775306245457e-05,2.896175470737007152e-02,6.464583566017267219e-03,9.867236774233557189e-03,1.046894392123223910e-01
1.694566585953660720e-02,1.734905811061054209e-02,2.727134893946295963e-02,9.734447121353054580e-03,9.202381823087134620e-05,8.307853314226952860e-05,7.248027237752206579e-03,1.719891613439575306e-02,4.618517587941037804e-03,5.331922787551832132e-02
1.418132553553570416e-02,3.323696452370075542e-03,2.330688246531055496e-02,1.198675852151696516e-02,8.758222304952077773e-05,8.749669999927813684e-05,1.263373021311145136e-02,3.538252358219989152e-02,6.996708361287367998e-03,1.581708273832635805e-02
1.264273971594790866e-02,1.437831375870504691e-02,3.628930982439062397e-02,1.125431633417741523e-02,9.257126035786913975e-05,9.000924098508447917e-05,1.647458239062972798e-02,4.365273535971595648e-02,3.790463233987188558e-03,1.688006817061005541e-02
1.212858281800014218e-02,2.305089117872343579e-02,9.216578151790777440e-03,9.492414439061411593e-03,9.582592253636053423e-05,9.079919805534523189e-05,1.096384780194589216e-02,5.234602181982171004e-02,1.972644459500169298e-02,2.979083684189146736e-02
1.284115374201729234e-02,1.653807334173088700e-02,3.223791150884646600e-02,8.647577647990704539e-03,9.534353235842237147e-05,9.009943318206283067e-05,1.896332229675199137e-03,6.443381362271088930e-02,2.967650417488450210e-02,2.592208884312543343e-02
1.651992532530111024e-02,1.780102272806436542e-02,6.030919342117858906e-02,7.512313204959431001e-03,9.599972782770878734e-05,8.818794138281469254e-05,1.585004846000568138e-02,6.734461900495763986e-02,2.549349096631872008e-02,1.666920832549297765e-02
2.128233597951671024e-02,3.982978424887193697e-02,6.117816851088943297e-02,5.466537436699557204e-03,9.780765788633097757e-05,8.538321227954145769e-05,3.555045719490501632e-02,5.345821339320241256e-02,8.672236179310479492e-03,1.611789824652297420e-02
2.046419663367039787e-02,5.202160487513905057e-02,3.029335419670187504e-02,5.047654775860376322e-03,9.886569414056623026e-05,8.203193892278323285e-05,3.262131268767983622e-02,3.144726617573111171e-02,1.142408651062720541e-02,3.143749235141969633e-03
1.073103496769667320e-02,2.546120574858123584e-02,2.654050713242614781e-02,7.544788631148270121e-03,1.009664307194551740e-04,7.849327248019367703e-05,1.050690969184192060e-03,1.027979603858975716e-02,2.655360856281312534e-02,3.855245541632228851e-02
2.839065859254506947e-03,2.309629356252210913e-02,7.886065263692178251e-02,1.020651645936391724e-02,1.039762717494594781e-04,7.513664952544088559e-05,3.834367112339079342e-02,1.068631727495730765e-02,3.178311305372975848e-02,7.882405006179969698e-02
1.290866539509844847e-02,6.226161902183642571e-02,8.436983626104216372e-02,1.031842047146402236e-02,1.028735657955161676e-04,7.234581132389168170e-05,4.962968108472357726e-02,2.994184053680172194e-02,2.363649978831688925e-02,8.137382795517539291e-02
1.690272568652838314e-02,8.581335220320737700e-02,3.640016887383928923e-02,8.406001350883391537e-03,9.954516158684772629e-05,7.049325497275303891e-05,3.664611569046165307e-02,3.942728984369633927e-02,6.634246437020371173e-03,5.786903189227522032e-02
1.579365165665856316e-02,9.707744409544982744e-02,2.169609635590338467e-02,6.114350904264191471e-03,1.051329359229512906e-04,6.990046691209064733e-05,1.967286946266720571e-02,3.691296394976088108e-02,3.462150163240122584e-03,4.647172408686685297e-02
1.106228351871573617e-02,8.655647725515250301e-02,4.880916670780251904e-02,4.259699863211392594e-03,1.149150049865784584e-04,7.086140975649659419e-05,6.484096157216156717e-03,2.834052294983424591e-02,4.248333373245958416e-03,5.665819889224749106e-02
6.222968914168730895e-03,5.107709261234504722e-02,4.665501155118423338e-02,3.566192321910743868e-03,1.046502343040398838e-04,7.369932559699824293e-05,9.709858036885000293e-03,1.554376515843379492e-02,2.117833297850999982e-02,6.867520394707032905e-02
6.976138569868213166e-03,1.651298234643315890e-02,2.595853870559592519e-02,4.452675609659586392e-03,8.414946454332848387e-05,7.869133684334165396e-05,2.731856779093968027e-02,4.662718836476503238e-03,3.251700685656625650e-02,7.814881506251324106e-02
1.494976298022392125e-02,1.547351715088341600e-02,2.568986132602261649e-02,5.706726113735356709e-03,1.055463462580997298e-04,8.592105532442004603e-05,2.855244609810135906e-02,2.705441574091660417e-02,3.675663174534139765e-02,1.020247901094255838e-01
2.381146094239611211e-02,4.395696376326804766e-02,1.015536948743075568e-01,5.531536654150448311e-03,1.490771497903283166e-04,9.541482590498144090e-05,2.642843518813246459e-03,3.749655553271786373e-02,3.866616500070511886e-02,1.344086926497034262e-01
2.635833087495351168e-02,6.345905530329755406e-02,1.452252013686956555e-01,3.999505949171222076e-03,1.027427859499545457e-04,1.074428186578301440e-04,3.399923002086698703e-02,3.182094657951806127e-02,3.421495680532461725e-02,1.410163840100721599e-01
2.304432312611045738e-02,5.254784432679478201e-02,1.147895466608605253e-01,2.750154020377221058e-03,5.713886166483862962e-06,1.222228004227053394e-04,5.430628327149512879e-02,2.472139605886271296e-02,1.954985055443748607e-02,1.159168157668976906e-01
1.898424253603487113e-02,2.986281984075903409e-02,4.715176909323984256e-02,2.509918283287813218e-03,1.008168758699442587e-04,1.392606813671674860e-04,5.057705009092237913e-02,3.227237436386468095e-02,5.799879661656467435e-03,9.929283830255578036e-02
1.623033518749202042e-02,1.743157667641383538e-02,1.364941985955455371e-02,2.538042779887334302e-03,3.199653615579622435e-04,1.579618558574138033e-04,3.538422679368182638e-02,5.237383691274646175e-02,7.328476692565508849e-03,1.160294776107981540e-01
1.429601528740354240e-02,1.629943883471822105e-02,3.222970214711965570e-02,2.218731504562750784e-03,1.001545154338075638e-04,1.790561322508302700e-04,1.963210157704355779e-02,6.857923577432081808e-02,2.035800833963872375e-02,1.381622662312710914e-01
1.424406679939086567e-02,2.883970622681612112e-02,5.962860661315227268e-02,1.759523710529611960e-03,6.817138367729602992e-04,2.033346472736398533e-04,3.391518271162114948e-03,6.815190159516552881e-02,2.763968528427245344e-02,1.303027910463741279e-01
1.623222748701691129e-02,6.265910135896181343e-02,5.561925510930643135e-02,1.442903021664622290e-03,1.156033486236983723e-03,2.285836804992628999e-04,1.464406547925381150e-02,5.129342343368097773e-02,2.048007489354854160e-02,9.476112427027867657e-02
1.605028590558314761e-02,9.933972052103354211e-02,2.089227339502665662e-02,1.188113318108643566e-03,6.843110151496461331e-04,2.522163370113914894e-04,3.040268190877939286e-02,2.600642529925455138e-02,4.800201227439204223e-03,5.163388862651135947e-02
9.981136447053626584e-03,1.024513586404099397e-01,2.013770490715760184e-02,8.704539355861953039e-04,9.575856436306914962e-05,2.779076329342855295e-04,4.046182993122206251e-02,1.773481236414221028e-04,1.068026702549624771e-02,9.009643640251785088e-03
1.489133874817396381e-03,7.016641921853722375e-02,4.272337878517892817e-02,5.329619854022465443e-04,3.141481484304586673e-04,3.101690617138698589e-04,4.915080224101388284e-02,1.911896797852957741e-02,2.268222939330166721e-02,2.581408582200983917e-02
2.193705709040303688e-03,4.171013787940641704e-02,3.165399753183579384e-02,2.407594552549395441e-04,9.285750730617144534e-05,3.400616954968977671e-04,6.156672340865498860e-02,2.379280388976449945e-02,3.114237281476714067e-02,3.636309125824778443e-02
7.717937908660052818e-04,4.269650747931453411e-02,1.039872062493909025e-02,1.910238095774821100e-05,4.291703584529325507e-06,3.564372477799495828e-04,6.907853901558295984e-02,1.049597575262669474e-02,3.344576265609042198e-02,2.147390747841381592e-02
6.381649346620421256e-03,6.082139500487146466e-02,6.734318071903995506e-02,2.709369156035410604e-04,9.336552072395455431e-05,3.767718190208386455e-04,5.402303942814159349e-02,1.237058868001136847e-02,2.268409824642633743e-02,4.213431431177519157e-03
1.227170013297511526e-02,8.043073336301351239e-02,1.261811543801757141e-01,5.048265460569797925e-04,1.418116202655910743e-04,4.239936846748084440e-04,1.543820062979007687e-02,3.086133311357673603e-02,4.168641913472498003e-03,3.015144985075348533e-03
1.876886897914807270e-02,1.014445365602990451e-01,1.754458357981692751e-01,7.072484163714016061e-04,9.664765770668392675e-05,4.600590781175546554e-04,2.314601328920536105e-02,3.805770023052482132e-02,3.618237447638226328e-02,1.489562749984331760e-02
2.328038480828951984e-02,1.167558220894127780e-01,1.951793017226868265e-01,8.785607687472797188e-04,7.239227566387914151e-05,4.337366788040747942e-04,4.025230235111859622e-02,3.582099989468164741e-02,5.496917596031385134e-02,3.874265984088023917e-02
2.132859589479387322e-02,1.070481882304993720e-01,1.730556605580126361e-01,1.019094866430789214e-03,1.001564662784340575e-04,4.237533661748425838e-04,3.703371793101002674e-02,2.896077820454518933e-02,5.306100904422759307e-02,5.568423731823943235e-02
1.317105282347180197e-02,6.907800990237696059e-02,1.236136060268978876e-01,1.130013569652876110e-03,1.228459583617862313e-04,5.405103223358202671e-04,2.473470864214118159e-02,2.246704732803641441e-02,3.845137862783654104e-02,5.310079046152766519e-02
3.409149819528712461e-03,2.613238801034097059e-02,7.221537755825871430e-02,1.219701458604306775e-03,1.063193594879264836e-04,6.175653155757057991e-04,9.953608535824819484e-03,1.926830463415317093e-02,2.202674408609314738e-02,4.641534915033716791e-02
4.740429979716079961e-03,2.087569460774673681e-03,2.943200938326596613e-02,1.283778915056944889e-03,8.471150378333077585e-05,4.130781731129320208e-04,1.473515165972420597e-03,1.767220520407051382e-02,8.308456547177957979e-03,5.286396853250593247e-02
9.872209386475185033e-03,3.041085136155100878e-03,6.497055037847145401e-03,1.301591132333015802e-03,1.148513388303279735e-04,2.793661576270150323e-04,1.224593038757995460e-02,1.437284420654201186e-02,3.115933022239046092e-03,6.538145430191431851e-02
9.792702783786546433e-03,6.557221399947327223e-03,3.501389872820055010e-02,1.287394939215784004e-03,1.656664084278292590e-04,7.662700356837127058e-04,4.213322372478571498e-02,9.566298622314560116e-03,1.364992343714873345e-02,6.489210022336178163e-02
4.024565665221151514e-03,1.973776110072941736e-02,5.365986001465895827e-02,1.294135537315210414e-03,1.231072167402359329e-04,1.083299666698742244e-03,7.311013789221051939e-02,6.237956568622432356e-03,2.320252908798104557e-02,4.471750730613179015e-02
2.772290158750717604e-03,3.900623149960398550e-02,6.557315836000449094e-02,1.299897842966496030e-03,3.126475907556665567e-05,5.685124701031290259e-04,8.961040301986927803e-02,5.209286528915096220e-03,2.956393501378875438e-02,1.349057102037985387e-02
4.474398769078047865e-03,5.720186408534860129e-02,7.721099406917293628e-02,1.198770729453303143e-03,1.329791406791190449e-04,4.020569765096325583e-03,9.176420686563448170e-02,2.573632289648662870e-03,3.097944832903500381e-02,1.840591595229718047e-02
2.515848370130356051e-04,7.302794262219208798e-02,9.085089106721938590e-02,1.044808208660187804e-03,3.581255260948158683e-04,6.251467496428136580e-03,8.688498571330932618e-02,6.898725399998749917e-03,2.883513788243308867e-02,4.723892669091889901e-02
7.971233113861716374e-03,8.695065358557668711e-02,1.035148667448975157e-01,1.079510435630675084e-03,1.453098875495489526e-04,5.040954035847734771e-03,7.984799494520736229e-02,2.301044710613343522e-02,2.612342216916558810e-02,7.327095764880404982e-02
1.520069506653251058e-02,9.570002566466496996e-02,1.117699781229117562e-01,1.214205304493192914e-03,6.286765329982350620e-04,1.862010167647394328e-03,7.192983629004985613e-02,3.917045403642988033e-02,2.419067858987400399e-02,9.620260774269392967e-02
2.090035524937839187e-02,9.578605673997370173e-02,1.149952623807144608e-01,8.994449892077052266e-04,1.099112389509335121e-03,3.396134382493558616e-04,6.125442443718843305e-02,5.072511082056295473e-02,2.252087350528435977e-02,1.150980669816549368e-01
2.528712401282410052e-02,8.935757506515555615e-02,1.140601995537106755e-01,6.788454066825847129e-05,6.259159730926931210e-04,6.893724263422604855e-04,4.541610887935466218e-02,6.063088495057298438e-02,2.065429106144794566e-02,1.297539230000985255e-01
2.794539321149847391e-02,8.262118584160446644e-02,1.084896530755401906e-01,4.272233680494677598e-04,1.637681921511727754e-04,3.597662742613579523e-04,2.604857963360665205e-02,7.271427121679370498e-02,1.883023333179206088e-02,1.400241255084911929e-01
2.775252749549840178e-02,7.848165699291444197e-02,9.647923687796668146e-02,5.664292786131965539e-05,3.954992874915941726e-04,3.039718023717506322e-04,7.608411879977548982e-03,8.420458226663751766e-02,1.726858035406428349e-02,1.461222748092949886e-01
2.467430687184909294e-02,7.325972988198037328e-02,7.756435580679750530e-02,5.831472157877590863e-04,1.679990394162123480e-04,4.236255170588540224e-04,8.037971813051294351e-03,9.106231554383360793e-02,1.586637111046023535e-02,1.500943105726143811e-01
2.033201062520923960e-02,6.275798606388294232e-02,5.449281865195437086e-02,8.673532368121369181e-04,5.396916345584427586e-05,4.150453966609129997e-04,2.165079671355797652e-02,9.413338361415025946e-02,1.452289524924078520e-02,1.508819043133239612e-01
1.536391309828311763e-02,5.014329210075935128e-02,3.342200959261495963e-02,8.525217712906237814e-04,1.738375719389725102e-04,3.296166669278064614e-04,3.242057738510160936e-02,9.135317291477131063e-02,1.328499597966386302e-02,1.373239496024325490e-01
8.050442925258249893e-03,4.349806539818312084e-02,2.190433239875824722e-02,5.397682682713991677e-04,2.654765830093556403e-04,3.046704209070802351e-04,3.824631621762843159e-02,7.266122897256148405e-02,1.219699014146988225e-02,9.802195038358013646e-02
1.800174411468651123e-03,4.518680569044584289e-02,2.247962441470167244e-02,1.252632863691105773e-04,1.773510890463480573e-04,3.176156809062561704e-04,3.971396367794569754e-02,3.473035351552224842e-02,1.123098990288825920e-02,4.236172311961095005e-02
9.709779709555610427e-03,4.878610443630402443e-02,2.721777012860684269e-02,5.156643747120863257e-04,5.953740460126358763e-05,3.045809940847268491e-04,3.988659524873099105e-02,7.187359558823292263e-03,1.035652902621263423e-02,1.971278861422067277e-03
1.082543932523320068e-02,4.801949779724037914e-02,2.427337161829876827e-02,3.291174770161378257e-05,1.753233982560629088e-04,2.758195000784872562e-04,4.011267808350406361e-02,3.287724544590620718e-02,9.574317770159412530e-03,1.838390527687313453e-02
6.068492736683031401e-03,4.363580252591241215e-02,1.227474258323348055e-02,7.956654378939516555e-04,4.068402254382259223e-04,2.616888592595562404e-04,3.918717042331173323e-02,3.622064243276197637e-02,8.884393184878602856e-03,1.600205787648648070e-02
