3.339381951747081960e-04,7.136415044699492057e-04,1.135059061836988983e-03,1.112686437586628925e-04,1.361058307833614778e-03,1.360056967138708467e-02,4.688811083216215536e-02,1.285969173203591331e-01,1.026164685791979827e-03,1.310402280108842639e-02
1.146048231714078252e-03,7.299121902089316001e-04,6.690091188583425792e-04,1.166092567805279603e-04,1.454821435631110634e-03,9.544101084064188917e-03,5.126654248332136732e-02,1.277239413568035109e-01,1.068207128170062291e-03,1.185534372580601507e-02
1.392545151182259010e-03,7.298089069120546534e-04,9.477039224535097528e-05,1.199059772149541368e-04,1.547795820924386659e-03,5.874538240249909705e-03,5.212132828914162880e-02,1.079570032372362820e-01,1.082444717830648769e-03,9.694359244944630166e-03
1.199466327645110422e-03,7.133373744445837151e-04,3.384385841644764904e-04,1.211149781075738634e-04,1.765628798742462568e-03,6.397213238685332468e-03,4.525162051026983961e-02,8.253083933656134297e-02,1.068728652173856711e-03,7.662228853355632779e-03
1.141728591065833704e-03,6.808938921139426293e-04,1.654232002866851776e-04,1.202402319879175514e-04,1.905906336198472887e-03,1.498785947418329080e-02,3.452275514497033654e-02,5.872701286305342938e-02,1.027618617068362227e-03,6.410603326756376258e-03
1.283076681145869924e-03,6.332562717795999201e-04,2.680830935229426738e-05,1.173333048330642097e-04,1.687332243897604741e-03,3.296429993237584566e-02,3.336690991189395633e-02,4.146339841640882262e-02,9.604051212611022922e-04,7.177202112478351000e-03
1.356895763300579316e-03,5.715655839699565997e-04,2.970854476685863159e-05,1.124919772835455294e-04,1.516016260400604096e-03,5.357766109619985229e-02,5.038682773848947999e-02,3.384320796571973350e-02,8.690121022169420032e-04,1.142552445759874476e-02
1.334069123515541338e-03,4.972991380322261488e-04,1.740548800839967114e-04,1.058577290009700362e-04,2.277180232985228075e-03,6.627602044472859222e-02,8.104616161313371592e-02,3.441186122157573885e-02,7.558840438409750824e-04,1.819305511731722502e-02
1.378653163903133987e-03,4.122353286842830237e-04,3.525961880544442465e-04,9.761213950442893688e-05,3.766448921852980601e-03,6.839264400687022905e-02,1.117580688008874140e-01,3.882306286339287649e-02,6.240675665105788585e-04,2.381694978094101370e-02
1.491046937307811439e-03,3.184111779677112580e-04,1.141165471885901504e-04,8.797227814853385904e-05,4.308208330419541557e-03,6.523617275127042980e-02,1.276599667925110704e-01,4.312641995010481344e-02,4.772766751203628283e-04,2.559115651020247087e-02
1.507784886096087424e-03,2.180735787729769432e-04,6.449360230016996454e-04,7.718519451598807469e-05,3.079911507873081111e-03,5.929309331075962447e-02,1.220297203685336979e-01,4.426801426874547168e-02,3.195016573092719289e-04,2.367643334482078324e-02
1.457324025883819686e-03,1.136253995299572786e-04,1.106834458672731640e-03,6.552167080465754682e-05,1.881164993582690572e-03,4.882787441905493686e-02,1.009025663700867381e-01,4.122356328317221263e-02,1.546041209838676443e-04,1.963420398045987239e-02
1.604843622784057943e-03,7.567735597968249970e-06,6.426994505088883805e-04,5.326939320219987263e-05,2.964338953045407305e-03,3.648418230860089179e-02,7.427831978858409623e-02,3.647189745787270121e-02,1.314894136700443193e-05,1.581976962955378152e-02
1.888100472404869758e-03,9.756031173365698936e-05,1.331927585221469161e-04,4.072564923478840117e-05,5.679259003453801351e-03,2.937770709296857324e-02,4.581316163969529481e-02,3.192683378004625844e-02,1.785244475402605478e-04,1.478152206239840075e-02
1.735849461858376226e-03,1.992428852682551058e-04,3.548565636239319420e-04,2.818971624921514768e-05,7.028681293515831596e-03,3.069000489402014600e-02,1.680668949634260209e-02,2.422430564495987176e-02,3.367847594844797210e-04,1.581820274045668204e-02
1.019214189557193350e-03,2.950481796230217633e-04,1.346681733881523115e-04,1.595525664508915838e-05,5.347350994122194133e-03,3.807454671115551720e-02,5.557268190696712518e-03,1.021001659276516739e-02,4.852684081501527436e-04,1.461234613544061187e-02
6.046166606715088062e-04,3.826873426140380420e-04,3.583571037089179433e-05,4.302942812625741989e-06,1.914422576781285752e-03,4.725795483654935542e-02,1.310729663713256637e-02,4.548844035970524106e-03,6.206571681970675380e-04,1.010540554137121134e-02
1.136592947471078878e-03,4.600700487186513781e-04,1.306379761588789790e-04,6.506777403492952408e-06,8.781035072829727678e-04,5.181809298040213063e-02,7.776170511692426061e-03,1.106227682103482109e-02,7.358692660891341230e-04,7.281775656926808837e-03
1.990773504215642697e-03,5.253553997017343033e-04,1.722207114675677496e-04,1.624067618463199267e-05,1.663196170031453792e-03,4.524534108640584917e-02,3.711871929856624258e-04,9.893226837947868835e-03,8.261394520400527821e-04,8.289578860203048252e-03
2.283647779759385727e-03,5.769969166344603682e-04,1.214643784751586445e-04,2.469874739255062258e-05,7.766646004363556271e-04,2.822221564710594710e-02,1.483953074952776285e-03,9.930459085242520495e-03,8.961134143911561861e-04,7.348499602222394872e-03
2.103057220582602721e-03,6.137805266072050760e-04,1.012204796897942031e-04,3.171887282045855798e-05,1.328702783622273589e-04,9.712153975330374903e-03,7.172075114744921875e-04,1.455272203301714168e-02,9.473177177570822139e-04,6.287201993887287649e-04
2.048972892011574880e-03,6.348546131799844526e-04,1.275920387694510767e-04,3.718126688803309891e-05,3.755113276557591633e-04,6.015420057959987125e-04,1.353436334410439840e-03,1.802086909129546263e-02,9.629131335445817799e-04,6.145586817776472165e-03
2.249954833712933082e-03,6.397513881149339979e-04,1.244649159787817759e-04,4.101302444037329071e-05,1.955566105932016359e-03,7.210442229747546575e-04,2.127000592371433140e-03,1.617936448998759033e-02,9.342442156760865637e-04,6.396277289785038539e-03
2.102937834760219751e-03,6.283990487305632843e-04,9.137790195265686559e-05,4.319003341989204856e-05,3.193457363403129443e-03,8.692865485731612191e-03,6.849991370016940417e-03,1.281454306342549171e-02,8.942379067811598000e-04,2.400054658965233064e-03
4.593367150044222816e-04,6.011244053916557639e-04,1.047327063460898669e-04,4.373519498827856898e-05,3.637957458643046108e-03,1.439406914428189611e-02,9.633584958728919762e-03,1.362523931093433636e-02,8.616598602775194394e-04,7.688961891909092822e-04
3.540318062535874680e-03,5.586458919529165576e-04,1.499475154908931282e-04,4.271856165386292425e-05,3.777022391233877431e-03,1.526042889768443322e-02,1.358490267055572666e-02,1.901623852752034466e-02,7.682292936560229397e-04,3.010331937051878570e-03
8.970959005894285632e-03,5.020571029512862571e-04,1.037680654425142548e-04,4.026167676300981536e-05,3.480474309396169603e-03,1.805112452738116477e-02,2.364572607839264193e-02,2.462732098883638546e-02,5.755948184228473069e-04,4.673936327598505677e-03
1.307142113228578970e-02,4.328012294552225281e-04,2.858890613342877666e-06,3.653416325091339063e-05,2.069894649687141833e-03,2.715868743459110349e-02,3.505597834864172813e-02,2.658647910184085833e-02,4.367192362733362003e-04,1.292810107149156658e-03
1.389401400874820842e-02,3.526369852471061524e-04,9.535182586497146433e-05,3.173743650111368088e-05,8.516315689087630540e-05,3.488346445468262780e-02,3.388959181522390590e-02,2.540931094891020134e-02,4.568009212535837174e-04,7.240594857918557746e-03
1.244110359370030443e-02,2.635968211406089609e-04,3.143759407701661262e-04,2.610108752071910588e-05,1.104017295244405419e-03,2.896741503372974452e-02,1.107829518058733864e-02,2.501438451616990258e-02,2.904066781249324525e-04,1.686864589578930540e-02
1.075097294154117242e-02,1.679384127346171714e-04,9.435232003258222950e-05,1.990379125653932998e-05,5.291448869643577014e-04,7.248368795148419155e-03,2.684556787029061461e-02,2.721848769759855832e-02,5.697673765629144172e-04,2.236279277780463259e-02
8.730799693083971316e-03,6.809057122859453004e-05,6.883973857817109274e-04,1.346481750594742467e-05,3.411824538975716421e-03,1.769284700262392304e-02,5.893682619819735208e-02,2.863732596095296123e-02,2.003759165899917857e-03,2.084314692993816456e-02
5.080011876188581486e-03,3.340513593591901820e-05,1.162930357722387472e-03,7.079819943334382762e-06,3.909895885886296649e-03,2.839892103859515196e-02,6.462820990328564663e-02,2.583351389223470171e-02,3.184933896168317107e-03,1.370058866136617502e-02
5.917990806268223335e-04,1.339556612525750492e-04,6.906474423492353285e-04,1.015840021704156164e-06,9.685000948185223512e-04,1.973065919012148561e-02,4.644975662461704735e-02,2.114568954098257000e-02,3.361746860331927753e-03,4.879093878452991917e-03
2.249265355085668626e-03,2.309791833924677146e-04,8.963772434289478299e-05,4.374736658070179654e-06,1.682979593878251509e-03,5.565261798107136101e-03,3.112748749058573752e-02,1.880004126494467034e-02,2.529463330772188309e-03,3.050900047557490984e-03
2.675082212917182650e-03,3.219677384038910806e-04,3.079724176771793539e-04,8.664614151188808089e-06,9.393757935441057489e-04,3.240184557971533680e-03,3.493798070816976631e-02,1.835555210336902582e-02,1.430122843183378838e-03,9.750204356298732000e-03
2.187913754124031981e-03,4.045482684709374470e-04,8.766355859405615988e-05,1.161974871255054727e-05,4.079303248050718689e-04,1.425861482881044320e-02,4.198600468315258349e-02,1.800036466402267499e-02,8.810499642738502894e-04,1.425137322532521456e-02
2.013108020799572132e-03,4.765406147585363552e-04,8.064573338963405423e-06,1.320842865252173142e-05,2.091651900380461955e-03,2.721347220033317610e-02,3.358511141801757277e-02,2.047310290502601243e-02,9.937153757675594792e-04,1.461909748024235907e-02
2.074129450591773172e-03,5.360110503014060271e-04,8.882273476559013868e-05,1.305242434754066036e-05,6.974894032292322174e-03,3.520673149107188954e-02,1.822022029430514847e-02,2.828694150196066001e-02,1.253363585752746614e-03,1.127577634178000138e-02
2.148927050750813837e-03,5.813200522597884810e-04,1.354038322007349504e-04,1.041554264900173353e-05,8.299637857487541376e-03,4.156200374387420543e-02,1.291949701797757283e-02,3.676725270759434450e-02,1.307606212412211737e-03,7.456277873904034077e-03
2.217702228576982643e-03,6.111631477785345974e-04,9.250688547818396569e-05,5.395839603266363755e-06,3.748234017264222197e-03,5.034127373544609874e-02,1.821142213556343689e-02,3.965441808278267338e-02,1.255309383983882910e-03,5.869074338253055939e-03
1.910958838317897450e-03,6.246038309965743374e-04,7.216879179959610844e-05,1.000857480297060325e-06,2.895185655964336441e-03,5.923955221231962109e-02,2.879536027001913454e-02,3.828177875411560571e-02,1.245374389064487705e-03,7.256769452051269401e-03
1.093926191816384447e-03,6.210977366185637056e-04,9.416027611762760232e-05,9.390038636296146285e-06,7.082985917107166227e-03,6.379039948227906154e-02,4.517247730976736708e-02,3.799989976635372718e-02,1.237887212081255567e-03,1.113953542216672248e-02
5.877573078154717376e-04,6.005074634361820237e-04,1.062434517910494425e-04,2.221964424792675054e-05,8.095389000986634095e-03,6.340526326101281196e-02,6.173740341052721958e-02,3.936841266314031196e-02,1.162380081036581709e-03,1.541375505352210636e-02
1.020967554766788942e-03,5.631076643337571417e-04,9.843367708379422126e-05,3.836605254695302025e-05,8.080970051158672604e-03,5.908292660653229750e-02,6.577070521749962817e-02,3.943649855374108115e-02,1.034500619811247728e-03,1.682289134779242634e-02
1.691429574745777599e-03,5.095802523131984750e-04,9.499587919791096136e-05,5.253759764035688954e-05,8.674477000559651166e-03,4.890606878035907296e-02,5.699031406341355938e-02,3.676112380218933551e-02,8.899278787792664703e-04,1.440913057226896055e-02
1.765291929395618187e-03,4.409998093556688806e-04,1.008467032682437735e-04,6.679928070761778993e-05,9.480615948585532568e-03,3.187526429263481953e-02,4.987317335407848856e-02,2.936139524288622002e-02,7.294985464921835113e-04,1.129507082581418867e-02
1.586958937635473679e-03,3.588095208114886348e-04,1.046011499348343339e-04,9.215060402470392857e-05,9.301830640423343344e-03,1.359641528557670523e-02,5.259454257454096449e-02,1.431629971896009219e-02,5.380334482190901428e-04,1.112678595340303896e-02
1.653466128590217604e-03,2.647881868015249996e-04,1.037126627770407276e-04,1.239613170158576714e-04,7.988175438690762672e-03,2.173457248041442587e-03,5.864986517468269434e-02,5.094295606560623330e-03,3.084616848297648366e-04,1.377640486427061939e-02
1.479864059487014495e-03,1.610090783018076270e-04,1.034521944854028782e-04,1.379713545606191434e-04,6.597010986385268110e-03,1.203528203206292654e-03,6.191270470680805549e-02,1.868199186428615155e-02,5.733334625087809563e-05,1.587655049622650402e-02
6.995454650720991973e-04,4.979160393329589492e-05,1.051181495146753450e-04,1.426614457650412615e-04,6.210585083262043331e-03,1.057421208573279883e-02,6.762758418324409104e-02,1.992298710771998188e-02,1.821234298042279250e-04,1.440132674871618355e-02
1.399049824856853043e-04,6.635307083186273418e-05,1.061642491333384118e-04,1.891853456126734074e-04,7.252158948380224048e-03,2.811950547397733952e-02,8.177515900630012713e-02,1.174946178885021356e-02,4.189377393682092122e-04,8.684760711463589133e-03
5.521780659704588704e-04,1.847811616003987442e-04,1.057322284904117955e-04,2.597976686117542660e-04,9.292163321689309724e-03,4.718359947124151771e-02,9.671552521924034473e-02,1.284513057487906944e-03,7.125399885024181470e-04,8.157013227148319102e-04
1.316671550335065874e-03,3.027787515531795738e-04,1.051026298593795349e-04,2.436195469743999227e-04,1.099405176315770664e-02,6.090829925539604367e-02,1.004412412520313963e-01,5.541806114889493567e-03,1.035845963498445172e-03,4.510946537181427865e-03
1.509552886792121448e-03,4.176261333564554247e-04,1.051005563383249026e-04,1.742969618303199793e-04,1.146001613537689541e-02,7.148679107884682582e-02,9.816985727556168384e-02,5.505855404020989011e-03,1.244500793681228325e-03,3.340438327976898072e-03
1.249870259859751052e-03,5.266624644444764828e-04,1.049072924150567718e-04,2.908909891936261281e-04,1.157309468511810019e-02,8.478117653637334827e-02,1.027561316394215579e-01,2.095797787019253091e-04,1.374159007796141134e-03,2.354800560838722460e-03
1.128293885747877869e-03,6.273491817018347037e-04,1.032552438277184323e-04,5.358392012854410911e-04,1.181104301386116072e-02,9.485559596443769725e-02,1.016965826174795612e-01,6.511384292364001333e-03,1.721977001883358022e-03,6.674640133186021153e-03
1.202528034000170535e-03,7.173306470162029488e-04,1.010174184242393608e-04,3.532611783158033170e-04,9.578934650276607621e-03,8.924711800037851694e-02,6.844230783510484029e-02,9.185978184777522301e-03,2.215690270680004213e-03,8.570755519068003203e-03
1.209899382622252632e-03,7.944905574875194909e-04,1.007417891199760860e-04,4.034148827545667613e-04,2.450382364171980847e-03,7.195101164606207411e-02,1.446751459363737266e-02,7.618298928335715502e-03,2.162491863776490331e-03,1.248997484665722441e-02
1.140849435387472155e-03,8.570027518835026618e-04,1.011216324465122172e-04,8.815143769698239717e-04,6.681457153411327066e-03,6.167260931235974547e-02,1.321798318351287763e-02,2.991662874479905990e-03,1.432018981668994537e-03,1.849184968874104801e-02
1.130109513157915050e-03,9.033751759811489137e-04,9.689738635852037621e-05,3.938432858551075460e-04,1.223122334121873496e-02,6.278367002265922148e-02,1.155601450381691167e-03,1.881386532011748974e-03,1.163286095210947120e-03,1.987888329145233793e-02
1.128476295617445889e-03,9.324859306801395499e-04,9.064210866222344241e-05,4.584623784476417980e-04,1.337679578990372264e-02,5.861078261096391850e-02,2.020763928764839762e-02,1.434145850388232222e-03,2.018560108199181358e-03,1.359111566311505849e-02
1.040215066108829065e-03,9.436105144311582619e-04,9.371811730744983207e-05,7.014524293089824392e-04,1.436504108461948530e-02,3.844734178871823255e-02,9.396202276031776629e-03,8.121491037178888220e-03,2.736437417529597686e-03,5.112440208611119911e-03
1.004333692280133007e-03,9.364395811565472127e-04,1.011432680984133330e-04,3.753455800357250903e-04,1.743538412031956850e-02,1.288877503360260496e-02,2.044624029719726427e-02,2.255812517240475545e-02,2.121460920302080128e-03,5.422481684553724299e-06
1.147569999851988289e-03,9.110867614757335673e-04,8.868131817958126108e-05,2.654404337744339947e-04,1.975663164604332667e-02,1.909965022638166962e-03,3.640681740095655372e-02,3.231468309431279051e-02,1.289815360140746147e-03,2.692196431215942293e-03
1.125430417350542760e-03,8.680863332811818503e-04,6.643032061209070847e-05,6.339606226919025254e-04,1.821443194454029288e-02,2.826704651954647582e-03,2.586875109633986897e-02,3.186882963650259498e-02,1.893683487997479403e-03,5.917195517650002817e-03
4.141181709851380439e-04,8.083807718429400751e-04,8.653396494101089030e-05,7.375710905039418140e-04,1.423519485681228047e-02,3.434932314936240197e-04,3.330710200114054415e-03,2.422104782674249987e-02,3.094991443142691440e-03,9.601884156592495681e-03
8.738980519343718563e-04,7.332984537908681212e-04,1.289328307226067028e-04,1.780205324779339038e-04,1.211213123339918013e-02,5.961028982109566575e-03,1.639240754109295983e-02,1.648953534024451967e-02,2.497369427739280778e-03,1.236023412641625366e-02
1.911468293713319009e-03,6.445220276524818871e-04,8.173258058951491018e-05,1.574164457544187292e-03,1.317745151680443060e-02,1.889772966353495814e-02,3.327749501484261740e-02,1.278887975010085075e-02,1.773452780020703153e-04,1.401198428773414023e-02
1.950678402282976639e-03,5.440481903509399725e-04,1.533124686071083768e-05,2.113974758095897924e-03,1.380269211888715368e-02,2.671336967996393308e-02,4.351400674367968124e-02,1.222060488738196254e-02,2.294268142527371764e-03,1.468530026319066900e-02
9.940812681776399918e-04,4.341398186917495914e-04,8.031295015790129168e-05,1.542769076553553035e-03,1.081033479702080830e-02,2.377272073029066887e-02,2.929970725479624782e-02,1.296490301642368864e-02,1.722039555070548197e-03,1.432096116918053254e-02
2.110803057580993864e-04,3.172715922810196310e-04,2.993553052616680578e-04,8.630515004023029150e-04,6.399671826647021673e-03,2.279242027839009990e-02,1.336629408781770875e-02,1.556719947494483898e-02,4.419207591865405077e-04,1.374392745608752665e-02
8.443753288601622657e-04,1.960704049325634035e-04,7.922392556345177878e-05,5.653497296253871644e-04,4.437051637896819584e-03,3.661897823641680622e-02,5.838478171702481817e-02,2.059680558902049485e-02,1.554052006160385347e-03,1.394101123618919809e-02
7.910710297922977138e-04,7.325199147542351124e-05,7.007072841093665242e-04,1.896538558379436677e-04,4.457444656111047079e-03,5.623023024081508225e-02,8.191391072816679719e-02,2.523889181023213080e-02,7.835929060026792939e-04,1.398020795434497601e-02
5.626163975400987624e-04,4.844470726587293531e-05,1.171863660945406680e-03,3.690732194106190493e-04,3.372569458965136904e-03,6.330962717347042579e-02,9.042829306154612223e-02,2.512862826303711994e-02,3.079104095784140427e-04,1.151473294574896500e-02
5.086376133295440966e-04,1.663238591046774933e-04,7.012406853564635313e-04,6.274445438275225162e-04,6.835033355721884364e-04,5.602858611807824685e-02,9.746028347439217310e-02,1.930379890189434094e-02,9.533498190168145558e-05,5.600225892839406916e-03
5.280933237097675285e-04,2.777981310607101893e-04,7.531490579385321680e-05,5.005431549955686749e-04,1.965093814068550639e-03,4.407114832112751790e-02,9.320617438404125987e-02,1.104704237144013904e-02,1.134461276131847225e-03,1.996649950749544277e-03
4.715668646095610614e-04,3.804515693446234421e-04,2.993099325573170028e-04,3.830382217269039146e-04,4.191560403710943572e-03,2.975986718036887496e-02,6.298890919879679418e-02,3.550644514526858555e-03,1.919779802010741603e-03,7.579174741998477571e-03
3.802357818726588286e-04,4.720984377428932626e-04,8.885345759802789484e-05,4.330691430146518892e-04,6.287245089705342446e-03,1.388107011240327128e-02,2.705763024375957074e-02,2.725516036085130420e-03,1.794786768730349379e-03,7.301618566648820918e-03
3.244346474437702723e-04,5.508365760292506345e-04,1.721141620342320867e-05,4.872290886491378826e-04,7.166347588110251465e-03,7.489445494372977408e-03,3.091309370875161902e-02,7.717250090494546036e-03,1.635855910682988950e-03,5.802003734179644184e-04
2.866713147391865431e-04,6.150939677051716790e-04,5.919465287649927155e-05,4.666075771410559884e-04,5.977772663468425285e-03,1.869798685634206648e-02,8.416522200940879106e-02,1.059907764764443129e-02,1.889810118953744872e-03,7.724569428762678713e-03
2.349337614373460316e-04,6.636673661265742085e-04,1.273631308192624799e-04,4.457257215827560093e-04,4.241386980852526571e-03,3.813929934802642169e-02,1.356852949210328174e-01,1.284026160086451998e-02,1.852196794519667903e-03,1.111208691292087970e-02
1.783658382686884492e-04,6.957520161671808777e-04,1.282376786340585475e-04,4.606682870802913032e-04,4.055105827434807991e-03,5.099346672023683663e-02,1.341781634667233991e-01,1.775532202474989010e-02,1.179192869543865861e-03,7.730408161547380752e-03
1.326864190399470252e-04,7.109617205649530541e-04,6.177980384854646215e-05,4.773277452444307746e-04,5.591941318573824884e-03,5.325391551723056976e-02,9.120311564619122680e-02,2.398809932288746560e-02,7.804437091124402301e-04,1.698328003847376878e-03
9.374309206346104857e-05,7.093387309683916141e-04,1.303019576300255144e-05,4.827251528268648620e-04,7.815010773034956199e-03,4.838714384891604214e-02,5.651916379111902172e-02,2.436558691808700383e-02,1.385056173309544411e-03,1.112229132469183578e-03
5.544688285738573979e-05,6.913531879429799919e-04,9.444292012171169365e-05,4.921988073178173127e-04,9.784296813009199512e-03,4.004631805770890451e-02,5.480065394844550741e-02,1.529898586154230036e-02,2.374141563364347545e-03,8.740947936597275210e-04
2.226947218318086735e-05,6.578920859708643071e-04,3.060509327990365114e-04,5.025232485189169793e-04,1.033085767006915873e-02,3.458108079207863894e-02,7.556744465166370661e-02,3.075012593939443432e-03,2.856748581587213384e-03,2.369803070368323335e-03
3.478313321369672865e-06,6.102379927324235202e-04,8.288793198074032465e-05,5.067754323011886605e-04,8.692812465810457329e-03,3.913077560247261999e-02,1.007196508505581178e-01,3.597071462285363064e-03,2.859453021640379674e-03,2.495322500177491343e-03
2.759609265307813992e-05,5.500380005921399248e-04,6.932102575945251225e-04,5.259621502836653306e-04,6.051849047477858221e-03,5.094882845556089612e-02,1.130759414786464967e-01,3.673131076130850808e-03,2.893893982890036101e-03,1.162316363457300064e-02
4.859078260628722345e-05,4.792636262075953895e-04,1.163796605080577584e-03,5.625424972002216091e-04,4.508682974029939138e-03,5.784488310943024236e-02,9.818920674028984441e-02,2.013726075916670490e-03,3.243451952427151529e-03,1.789137096155240386e-02
5.461109086237993297e-05,4.001625957582440290e-04,6.930607492074039155e-04,5.637543478447621867e-04,4.832191255502259544e-03,5.223980789454622797e-02,5.932413169895035809e-02,1.311024962291544452e-03,3.819699958062364002e-03,1.930036155902697254e-02
5.097392938961352858e-05,3.152036530431088037e-04,8.596711514351158606e-05,5.276245592543246828e-04,6.818586813252684557e-03,3.508450009739715741e-02,1.407111302931440475e-02,9.428625121174848524e-04,4.082171738236173471e-03,1.945500589823842552e-02
6.267745274767803530e-05,2.270157007232366042e-04,3.046985414815988735e-04,5.691690304192915549e-04,1.070946016455884969e-02,6.924868531566314225e-03,3.244239399000627133e-02,3.862213487950221760e-04,3.451284913441978949e-03,1.973199287914210662e-02
7.810295978595323404e-05,1.383227270114923432e-04,8.375790494448453246e-05,6.918309025051895544e-04,1.642225434343246027e-02,3.051810575612014242e-02,8.959106762136338775e-02,1.297729646972210901e-03,2.110757794364444447e-03,1.811591535079683929e-02
4.442253137263719851e-05,5.187607759674664433e-05,1.427380508046992481e-05,6.466893765882251099e-04,2.206203879299011364e-02,6.412360208854300803e-02,1.522880348684380047e-01,5.687507119266323879e-03,6.048530745840285461e-04,1.478484397140472986e-02
1.340445224835683015e-05,2.961429719071008860e-05,7.993322066694770879e-05,4.212600901982192976e-04,2.485789322650182667e-02,7.792448295335116515e-02,1.961692853624286137e-01,1.109521925842057999e-02,1.067119722242397236e-03,1.298678391517608770e-02
1.932301016357495583e-05,1.035479588443553173e-04,1.238403915397921318e-04,5.619421095790992204e-04,2.391324851990717440e-02,7.458127248330137515e-02,2.102348513924940099e-01,1.288853758133972835e-02,2.667320614012323125e-03,1.432223995368473932e-02
9.371538970042349456e-05,1.674998085233851144e-04,7.775694241029002950e-05,1.099198774301355036e-03,2.040962847991378143e-02,6.969689839578885326e-02,2.065884516399004445e-01,8.324025424319611219e-03,3.177858947093530756e-03,1.627739870719521059e-02
3.728089559321775984e-05,2.192820228230015780e-04,5.362684169354087877e-05,5.169443745381420126e-04,1.395502575594102443e-02,6.037822937276121626e-02,1.847524235188883202e-01,3.999845689587036048e-03,2.927581966492611917e-03,1.474913890394749516e-02
2.829262454326129483e-04,2.570005817329525663e-04,7.156370786339622762e-05,2.480276982572302610e-03,2.044454364855318503e-03,2.561150327205436936e-02,1.235163487301609853e-01,2.473257754302993910e-02,4.482189521270698619e-03,8.290873973631996893e-03
6.856674770298097166e-05,2.791049976850029884e-04,7.949375288900125780e-05,6.147956443580070672e-03,1.351339596849192651e-02,2.957409064719972863e-02,3.529718762647306163e-02,4.636511675264080173e-02,9.057316577172859137e-03,9.223440411677637143e-04
6.829320990756101561e-04,2.844300132933047292e-04,6.740122441450951832e-05,6.901781566608720941e-03,2.424747483497100356e-02,6.219343064384529746e-02,1.492817762537816846e-02,5.371601841836742136e-02,1.374795864741188735e-02,1.071455472569731587e-02
1.078100176436499113e-03,2.722282244535810026e-04,5.958846970534120366e-05,3.906772640502813310e-03,2.459012521995335848e-02,4.692753843352307636e-02,1.120252866530087321e-02,4.125014357508569735e-02,1.456143820159088234e-02,2.050106302693667157e-02
5.783332815854222908e-04,2.421928004378359279e-04,6.108873076080041805e-05,2.527172988008866616e-04,1.934094145993775840e-02,1.399075977552391957e-02,6.502732440022954141e-02,2.156784480565338002e-02,1.093896982107209724e-02,2.810113833932128755e-02
1.225519936835871683e-04,1.944697084103761341e-04,6.063149034052430381e-05,1.162325457801212381e-03,1.606777145997771716e-02,3.830770908586835811e-03,7.492219709131382743e-02,9.061316112072283560e-03,5.619352941482611691e-03,3.054522847211636055e-02
3.664272525288686999e-04,1.296591007832296485e-04,5.576957814979729083e-05,7.332166982119471023e-04,1.477269787887726046e-02,1.141665508261861632e-02,3.387976080647331356e-02,3.862555202042050346e-03,1.367639903345277842e-03,2.942038755751318416e-02
4.099898440321588693e-04,4.880578401678686054e-05,5.179785081154370072e-05,3.273750300105033890e-04,1.104001312177017337e-02,7.781455298032068264e-03,2.174143863449840355e-02,1.227751454674468447e-03,4.096173436939089772e-04,2.874173004951302568e-02
3.347548341285057827e-04,4.662104939369897627e-05,4.997320873317338233e-05,4.926916068352480294e-04,5.839954177869817464e-03,4.654271171785767658e-03,8.208935853477120070e-02,6.196849237252860521e-03,6.694360778807566725e-04,2.825199317175656338e-02
3.759222937496046611e-04,1.547583842584911130e-04,4.787401275906019569e-05,6.403738847076977971e-04,5.277948646483331466e-03,3.010573286564268303e-03,1.575340152702253971e-01,5.217666794614475058e-03,3.228231969509608255e-03,2.619753376714231002e-02
1.567768526381939755e-03,2.733895498028758283e-04,4.492012050247228233e-05,5.303736306342533673e-04,1.078911905527084499e-02,3.341325266860325355e-02,2.249314673841686929e-01,1.058633376450258999e-03,4.390330699025103006e-03,2.499842920743225103e-02
2.283643916462885746e-03,3.999930646909120955e-04,4.227604181744580038e-05,4.245428485773337013e-04,1.595243610230756559e-02,5.366585773570094198e-02,2.358753522703495586e-01,4.188737191712098989e-03,3.234711513332187444e-03,2.585108866207654066e-02
2.296204074687210449e-03,5.317990213042365953e-04,4.026369776521328188e-05,4.372835190574045957e-04,1.550358236038546986e-02,4.583161185772285234e-02,1.822937609931288838e-01,6.213668621265481433e-04,2.269511315119133142e-03,2.297945555831363770e-02
2.271850315354467537e-03,6.658516844878851733e-04,3.836584669691120111e-05,4.483557924561502330e-04,1.215182311572869309e-02,3.365110303608741249e-02,1.144360539530817344e-01,2.441620472085099559e-03,3.198352861521553975e-03,1.203437482715801095e-02
2.262648953182419629e-03,7.990768251230603901e-04,3.643877370485106091e-05,4.033891110639967951e-04,1.090339084102523275e-02,4.250181780484462574e-02,7.617387330530450695e-02,1.172926796451857507e-03,3.822458388879401703e-03,6.479214135219560225e-04
1.592080776787179993e-03,9.283521892618514350e-04,3.474655211031782757e-05,3.585700020150882415e-04,1.104727034952133861e-02,5.948618223747307449e-02,5.079047390928889683e-02,5.678416451217201989e-03,1.711736550513899818e-03,5.450650064856454001e-03
3.509259751288772546e-04,1.050579422186294007e-03,3.339102893622289002e-05,3.405865488591566185e-04,7.950505708500416394e-03,5.686529734489079169e-02,3.743884367263940020e-03,1.382811698289466030e-03,1.729760804612692987e-03,2.495626590454034545e-03
4.696150196888375242e-04,1.162755725559347971e-03,3.224354802760773974e-05,3.239777666304675821e-04,5.749177180135388006e-04,3.724069358543458802e-02,3.827537121330570891e-02,1.071154100005029287e-02,3.393829525442573249e-03,1.743289438778713313e-04
4.612478952925241145e-04,1.262043525966342330e-03,3.121549767142106017e-05,2.964197915887057939e-04,6.423323235872868860e-03,2.809942913691750727e-02,7.075581890629739287e-03,2.028064689308433158e-02,2.583806132171399383e-03,3.404378610985171749e-03
2.064550392663624609e-04,1.345836475160282208e-03,3.039083766399535306e-05,2.701186270807592990e-04,8.132677930805486122e-03,3.933349105016601538e-02,9.895779289898040676e-02,2.184964581116700597e-02,1.118898076712081030e-03,9.166546277297403164e-03
1.922308649847158737e-04,1.411820185384276768e-03,2.989478860500123552e-05,2.513700391186015877e-04,4.726528427797841228e-03,5.306648601849758146e-02,1.908029400079888083e-01,2.013969383177278277e-02,6.884058889462514683e-04,1.153474877391797750e-02
2.861795929199564175e-04,1.458026224540554623e-03,2.962337056109560994e-05,2.348450168239384474e-04,5.661939498491830227e-04,5.373684568390740823e-02,2.026124477668322099e-01,2.140426863387527925e-02,1.300928322545962185e-03,7.145140683343846263e-03
2.741573427365505368e-04,1.482878052864396428e-03,2.931082581457292256e-05,2.177670779791585076e-04,7.224651680923685178e-04,4.282538092866530754e-02,1.668290131572118251e-01,2.621489265761038981e-02,1.899247924481455322e-03,1.674991218782072994e-03
2.110367522437344562e-04,1.485227773316990943e-03,2.910047443238918019e-05,2.027567772180161368e-04,6.508934782806102565e-04,2.448827114383346840e-02,1.423465442536766823e-01,3.117018361125986278e-02,1.921069859010381782e-03,7.132237703513573390e-03
1.974926175941410424e-04,1.464382787820921964e-03,2.951360367519574560e-05,1.912253720238725908e-04,2.005418945267896207e-03,1.928001186116289848e-03,1.339797122454637335e-01,3.172791281969337268e-02,1.817495901355589910e-03,2.773037840156436507e-03
2.099031210963350530e-04,1.420121691610828170e-03,3.023646240479711019e-05,1.819615755886920669e-04,1.526172962827092696e-03,1.174962922410554590e-02,1.213145231103436722e-01,2.380435438615340071e-02,1.938885602406566254e-03,9.533806272506408636e-03
2.015803781994327947e-04,1.352698992168734375e-03,3.011107407318287343e-05,1.742091159266238355e-04,9.560074953939094169e-04,2.170827334423387593e-03,1.066191100994157148e-01,8.271300696162778993e-03,1.619955443707623340e-03,2.259565765407018853e-02
1.836903615838637871e-04,1.262838509694606684e-03,2.972357069332193837e-05,1.683694028017396086e-04,5.502820076310525020e-03,2.562800075410459968e-02,9.510343623441878946e-02,6.931562743026846267e-03,8.172197091665307799e-05,3.155413221724458206e-02
1.786744799654015471e-04,1.151715597539534116e-03,3.151372321451532813e-05,1.645741414199060728e-04,1.155902914468496905e-02,5.185230216836699685e-02,7.421461269469339928e-02,1.395760438809982504e-02,2.951384158035439374e-03,3.493103875988717855e-02
1.818097248413651592e-04,1.020928588963017618e-03,3.425300458680927054e-05,1.623458077568705243e-04,1.655259435768431653e-02,6.503436510844103069e-02,4.114712554355768465e-02,1.365990174023724336e-02,5.208137643178898865e-03,3.226389487373856196e-02
1.829977680811880171e-04,8.724601214087729329e-04,3.265777031810476380e-05,1.612705323338865316e-04,1.811588584536427335e-02,6.704074023264997018e-02,1.286875973017981289e-02,1.338021546550892046e-02,4.842551538600677573e-03,2.563865313000489657e-02
1.849688299451793759e-04,7.086292430686724026e-04,2.917197150127168436e-05,1.611750053915402426e-04,1.680841626683521328e-02,5.996328826856958671e-02,7.809924038277558413e-03,1.660929264606312780e-02,1.735172150089379179e-03,2.010862082495602082e-02
1.923109324456103147e-04,5.320354701447586659e-04,3.510616228200843435e-05,1.618239272873748819e-04,1.441579659956152004e-02,4.203528012377621276e-02,3.855379225051661085e-02,1.894235249827166609e-02,1.904188062623000770e-03,1.812691742928565497e-02
2.029004691255866834e-04,3.454961499064770837e-04,4.550489023810833198e-05,1.628452292760311612e-04,1.152982359821433031e-02,1.564741931780945852e-02,7.821993383397829458e-02,1.593410873839238781e-02,3.697922629394027969e-03,1.617780494791436902e-02
2.150436333603887335e-04,1.519785715710168762e-04,3.605656517584039482e-05,1.638839742922804283e-04,8.356533429193074500e-03,1.052547757755931471e-02,9.910040196360918319e-02,1.058067149517722544e-02,3.113548997060920209e-03,1.007962225901316670e-02
2.314418627586848427e-04,4.547157648226964126e-05,1.668749556059475169e-05,1.646513585003754154e-04,5.403658150899159039e-03,2.937211367830092068e-02,9.064501750484953158e-02,8.215306080366109945e-03,1.006777355865761487e-03,1.384560758591313855e-03
2.513963002697645411e-04,2.438035392675651019e-04,3.956666675984142427e-05,1.648633085195932925e-04,2.333704276987157416e-03,4.139063442867382814e-02,7.670954214101990964e-02,6.967995990951415808e-03,1.584905427840900462e-03,3.592390907052430554e-03
2.690410717361833197e-04,4.400347511486702909e-04,8.485067696565839188e-05,1.642290296049989562e-04,1.713953559513024718e-03,5.212921739422434614e-02,7.845678286248519706e-02,3.337437038786063943e-04,3.472721106558146649e-03,7.735742628217938052e-05
2.866103175052783303e-04,6.313225114670678335e-04,4.047293571104830512e-05,1.624953501924822667e-04,6.429594442842908458e-03,6.511992329635037102e-02,9.119491831678008809e-02,1.545808391413227949e-02,3.395343201419782648e-03,9.944007951859401562e-03
3.153132064971984720e-04,8.150325179415362706e-04,5.438752400492298219e-05,1.594619410053705591e-04,1.055731215073855978e-02,7.755428718843451752e-02,1.060863703113982121e-01,3.061006715788051197e-02,1.156683035391974871e-03,1.861111552341054506e-02
3.485813185002228204e-04,9.888019804786896474e-04,4.311793734142467348e-05,1.549597124352603678e-04,1.324464672209215571e-02,8.296110787451793644e-02,1.248958419029793099e-01,3.527576792705322539e-02,1.830466993696966069e-03,1.985346331060600100e-02
3.610808094738712391e-04,1.150595336644740863e-03,2.648131585969323268e-04,1.488523185864856335e-04,1.423149737087072569e-02,7.884066931375206810e-02,1.443043230817441513e-01,2.607600692305579032e-02,3.821668814516246838e-03,1.550690950125809334e-02
3.651557268931663008e-04,1.298752447229029224e-03,4.752732018424498327e-05,1.410732997971887791e-04,1.394966573028333379e-02,7.065803493326426599e-02,1.496607508448207224e-01,1.031416776022519265e-02,4.333644324618269109e-03,1.103121055874001742e-02
4.137165885554192524e-04,1.432029003623172319e-03,7.318127662233308564e-04,1.316273053535989789e-04,1.364959824590727434e-02,6.545806024804776135e-02,1.337924029163825856e-01,1.044441076229683926e-03,4.133416318237014865e-03,6.843417329565485221e-03
4.801192493382460021e-04,1.549625462112287893e-03,1.203405555045520886e-03,1.205295336577317177e-04,1.391366750424048726e-02,6.244797988816887246e-02,1.083608183051164298e-01,3.818277158368777423e-03,3.996005824002306882e-03,1.144268646810768725e-03
4.491100155821849712e-04,1.651201695704580894e-03,7.289559079986131359e-04,1.078089575961808531e-04,1.389578050296173643e-02,5.582661011353819147e-02,9.079625239826061289e-02,1.967488553344217544e-03,4.005081838540367097e-03,1.251380774195457422e-02
3.730027316244574056e-04,1.736882607517670858e-03,5.326174821638657048e-05,9.363202109378558667e-05,1.343552102271115475e-02,4.670587149737089050e-02,8.608600916763864408e-02,6.499724644672413235e-04,3.943958228579253628e-03,1.979197828536664525e-02
5.004770738253317384e-04,1.807259089056791751e-03,2.734670617943591288e-04,7.829248682216375971e-05,1.367341881186740112e-02,4.298375320515760573e-02,8.507812714801671339e-02,1.994682759837271453e-03,3.783588157917080076e-03,1.779371081029998761e-02
7.342228334696339993e-04,1.863372330161034221e-03,5.475172226734214458e-05,6.194083442533714176e-05,1.428178121455555942e-02,4.659196725136657835e-02,8.061577971480544946e-02,5.576511780774079212e-03,3.623926578328673549e-03,1.089515219446286765e-02
4.968091498991948022e-04,1.906671768753504187e-03,3.969823537693401992e-05,4.458749627109848720e-05,1.336618750352614772e-02,5.101273230065600517e-02,7.882390675277971270e-02,9.305726677845873457e-03,3.484706496137389593e-03,7.115157039125389118e-03
2.738486898405967937e-04,1.938972877487383497e-03,5.831070272994859539e-05,2.666403655711993854e-05,1.102453260838837622e-02,5.148501215522052060e-02,8.452502527535586674e-02,1.122744663311186011e-02,3.326801901468700792e-03,8.857744514967487784e-03
6.765938459915829583e-04,1.962437907850735162e-03,1.059482786371353198e-04,9.011744007618577697e-06,9.249746565326295855e-03,4.893497280633627572e-02,8.479660533487670682e-02,1.171178027297005257e-02,3.148821371425311079e-03,1.310991525756421278e-02
2.031962669720325317e-04,1.979526764974128862e-03,6.404174800647516547e-05,8.337852964872122366e-06,8.126792126501927727e-03,4.618454094832979279e-02,6.790208949425333151e-02,1.273349213495557353e-02,2.976296655561666386e-03,1.690015532178023791e-02
4.370171240249534953e-04,1.992870538418835442e-03,4.465316690043265031e-05,2.619346350170499195e-05,5.953923519746799273e-03,4.645470011686581024e-02,5.014908486586750619e-02,1.562130102691562834e-02,2.816780466142295835e-03,1.910997361238435041e-02
6.523234119369294547e-04,2.005183236040143820e-03,6.763765361815405632e-05,4.362534500351425871e-05,2.653084758953106088e-03,5.112533603364898677e-02,5.826422888645414050e-02,1.984027458077506495e-02,2.668289311958163199e-03,1.966798093087083685e-02
7.365850861698890369e-04,2.019320685507160380e-03,8.085111578354837352e-05,5.785846427914643315e-05,2.177664382527748788e-04,5.646264584245869883e-02,9.054274871447524908e-02,2.257926278687227145e-02,2.539048026174705545e-03,1.941524991089621163e-02
6.303366646011520020e-04,2.038247727868115148e-03,7.434675147498968027e-05,6.980230988100301261e-05,1.811879726994894369e-03,5.824695683824195752e-02,1.184737434284586360e-01,2.052678850882559691e-02,2.434698425672966390e-03,1.943278458232048853e-02
2.754022702506660333e-04,2.064680173670611473e-03,7.237501611035047780e-05,8.444841740711068133e-05,2.142258299301354717e-03,5.780986902056322457e-02,1.236693018212446926e-01,1.345789147012198088e-02,2.350964123118606981e-03,1.986798692628680488e-02
1.494379182019305117e-03,2.100911223236255013e-03,7.991464258581019921e-05,9.909518523836894082e-05,1.473299017661242874e-03,5.728406799320914788e-02,1.149065954936685785e-01,4.274596279439464054e-03,2.298364967633775846e-03,2.046693581885690449e-02
1.576654339263304765e-03,2.149340127513929988e-03,8.575594712887894139e-05,1.022139764873178635e-04,7.080611081507093719e-04,5.492361600443286529e-02,1.097309911268525839e-01,4.963468600667823166e-03,2.301435313526438431e-03,2.163301926217763016e-02
3.719651759712079629e-04,2.212633771697094555e-03,8.736651642792740268e-05,9.858700736193069586e-05,4.291520755470472695e-04,5.162424793274479617e-02,1.139701261973032898e-01,1.448845277137673394e-02,2.346293871677885851e-03,2.325907992599274970e-02
6.741392681882554892e-04,2.292393026131578013e-03,8.976041116735006676e-05,1.124023938386491242e-04,6.927884161664749334e-04,5.274755672946958990e-02,1.204152255157339563e-01,2.410869459517196722e-02,2.388465674183154822e-03,2.340565205328491369e-02
6.834710208623627839e-04,2.388583299601771889e-03,9.428652309343775841e-05,1.336632556273236816e-04,4.292118798785401687e-03,5.718046796373974644e-02,1.172541252120290201e-01,3.130790849075786031e-02,2.464574151313111538e-03,2.105030719176842480e-02
2.400534768128080956e-04,2.502202336786586278e-03,9.901376576227118845e-05,1.101844025742878982e-04,9.228808909377998054e-03,5.594814839590026012e-02,9.874107526961678483e-02,3.260115600115164741e-02,2.674704058710466580e-03,1.976696466428913904e-02
1.699452801673230029e-04,2.636428685113993871e-03,1.030345810018956182e-04,6.184780912020786548e-05,1.227495664796077884e-02,4.631228727401794087e-02,7.298604307893016840e-02,2.659323291621473739e-02,2.943096482206030394e-03,2.422166582886736350e-02
5.177152564007695117e-04,2.790848758123300535e-03,1.063284709818370158e-04,1.008127013464938439e-04,1.187171660895054541e-02,3.498502824278799939e-02,5.298916090391622702e-02,1.656078537760570513e-02,3.050689329618628924e-03,3.233498236500827183e-02
6.018900128302438106e-04,2.958782587975430142e-03,1.097765852450005878e-04,1.880445285200982959e-04,9.618438720812210255e-03,2.684740468334428920e-02,4.239216586543205489e-02,9.102333809247431864e-03,3.152039353326206109e-03,3.637616285737205191e-02
2.612303033191444232e-04,3.139508506571415513e-03,1.152979700985166174e-04,8.088733029781817606e-05,7.887609324966163640e-03,2.353765175180914590e-02,4.363595078414401335e-02,7.539219365668268016e-03,3.736925970406632536e-03,3.316089472067820093e-02
1.750588301235129042e-03,3.344296534307960797e-03,1.215087101305876776e-04,1.522464579413194193e-04,7.079624407426972875e-03,2.864803002560224396e-02,6.659114086391347553e-02,7.480823392998397006e-03,4.439629450285575811e-03,2.734656341761865228e-02
2.511909529369481513e-03,3.570499104713012115e-03,1.233384865925520220e-04,5.208845817857990837e-05,5.816341877434742964e-03,4.037238210185247617e-02,1.044434120357549262e-01,2.543477445206541055e-03,3.581496252525851777e-03,2.323313810215317521e-02
1.739784335149197102e-03,3.788067546531196598e-03,1.233116134654085438e-04,8.172712864040769434e-04,3.346244039181493074e-03,4.655108396195405812e-02,1.206405647707825129e-01,6.685276600950746176e-03,8.758607254999530619e-05,1.894588147016011345e-02
2.903251370424624164e-04,3.994652845831878074e-03,1.326758991884648294e-04,1.273830167823783617e-03,8.257726873507544463e-04,3.905882632019753303e-02,9.160646759722697319e-02,1.387365512012418527e-02,4.511486852885793555e-03,1.037616158508554952e-02
4.820621735943726618e-04,4.246002003371206548e-03,1.463946801642949708e-04,7.838156015968538110e-04,2.811740373849043375e-04,2.251243032481896680e-02,4.031164868027031778e-02,1.565388900113614742e-02,7.152544427466282252e-03,3.182259851742963268e-03
3.883619860567366329e-04,4.539126676711399688e-03,1.400649940675773508e-04,1.414345162416177741e-05,6.258789525688117665e-04,3.263661702096434976e-04,4.234898188713278472e-03,1.399399608611643503e-02,6.277468896663402839e-03,1.841025077017198475e-02
1.685023649019381543e-04,4.744017915319945385e-03,1.236885291076076612e-04,2.499119048179474140e-04,2.578395908205626842e-03,3.107704503975522101e-02,5.019159750405830650e-02,1.098912700282822855e-02,3.067993312909985011e-03,3.042038016088318905e-02
2.123980484546081457e-04,4.853673414288010336e-03,1.496765742197243225e-04,4.623736443723951226e-05,6.899956357353756453e-03,6.500581856101093903e-02,1.094803266897089039e-01,6.183142055051931742e-03,3.499537186001858819e-04,3.565424406053750023e-02
3.131688689426304767e-04,5.150735277134610435e-03,1.980102189285599696e-04,3.402006776816156872e-05,1.118750752368789791e-02,8.178965502711718627e-02,1.560649461096784707e-01,6.435689232110123736e-04,3.005609597375200320e-03,3.440311859326157518e-02
3.020503745204120754e-04,5.650502732986133550e-03,1.560056655242510464e-04,7.702760040782209922e-05,1.293619978079106787e-02,7.523474003600871818e-02,1.580833301188419027e-01,7.378611649077448237e-03,4.636079849960552876e-03,3.060943958971318324e-02
2.676477740759316973e-04,5.389062892268571547e-03,6.312866007168689347e-05,1.362731282205301554e-04,1.283459683525408658e-02,6.297538029092614176e-02,1.228940229869092682e-01,1.178716750537034744e-02,4.204764432761090576e-03,2.812445343895237163e-02
2.844523826508383495e-04,2.822688675026154177e-03,1.635105070260952742e-04,1.043130432142218354e-04,1.304635510066600411e-02,6.024162609782528210e-02,7.997452448534334013e-02,1.392562596284597012e-02,7.594978549691931355e-04,2.794854072929963892e-02
3.127624195386600092e-04,2.741595794570971835e-03,3.883377641236568649e-04,9.302808862885093974e-05,1.331553623431777286e-02,6.289448049681990727e-02,4.817868884394881784e-02,1.451936241598689344e-02,4.544640431239005407e-03,2.948985844471548046e-02
3.259259742160861332e-04,9.945188325548285149e-03,1.716075872279620019e-04,1.221210310516561382e-04,1.137771819148354450e-02,6.464130930638206651e-02,4.006412415552725731e-02,1.295996294293446684e-02,9.068854647841149974e-03,3.183238360086044355e-02
3.395276070302906206e-04,1.565877500274227840e-02,6.085377772287356131e-04,1.393312331064326464e-04,6.878157339402212259e-03,6.914239460793607239e-02,6.855405760677257820e-02,8.899696830984727552e-03,1.134648986398706719e-02,3.270418321688894903e-02
3.461224221650293655e-04,1.745612612963098539e-02,1.076281493172010070e-03,1.346856476487169390e-04,2.464388571519472021e-03,7.703235752189815932e-02,1.300273624355723356e-01,3.439109691026812250e-03,1.183521378061453203e-02,2.954943401741503065e-02
3.418700629540325354e-04,1.617656515439097262e-02,5.958335875064505382e-04,1.324924812085195424e-04,6.181663545066471994e-04,8.106566003368571860e-02,1.956809474771212531e-01,2.481984205302288637e-03,1.116941255462013116e-02,2.330327092937133429e-02
3.715725334752457759e-04,1.465327280356802132e-02,1.815513899576146040e-04,1.377586808558230332e-04,8.844397033053264055e-04,7.899257951258392696e-02,2.304563639986832724e-01,8.241837227189701201e-03,9.161551263584354413e-03,1.851065562329462511e-02
4.293860594528838307e-04,1.406838701147757921e-02,3.910404927575635904e-04,1.392828081791602443e-04,1.016401998399904093e-03,7.532189466063329841e-02,2.205661286599912840e-01,1.204428926339958308e-02,5.974111066370514818e-03,1.845773753404358550e-02
4.039186855997259351e-04,1.359504527493237899e-02,1.835225203074530289e-04,1.347586147933594908e-04,1.764364845909796239e-04,7.158144484162387577e-02,1.820654917812562779e-01,1.191791025498514615e-02,2.902474085717753581e-03,2.190692020387455599e-02
3.098097411505236314e-04,1.275849605482767303e-02,1.122938150374442500e-04,1.296214385255903365e-04,4.962093146484944936e-04,6.767607226385886909e-02,1.403379925012069041e-01,8.353948756815136531e-03,1.047440106655573439e-03,2.512727891726345905e-02
3.936195310939489839e-04,1.164961521249909503e-02,1.857524717372338770e-04,1.253158201762002326e-04,4.166953355963183342e-04,6.796308368334505468e-02,1.076089530969319419e-01,4.940255417655967270e-03,1.707279164754180916e-04,2.560862906104849346e-02
6.358886598042758119e-04,9.782562546349215724e-03,1.803164305675396023e-04,1.197005025606283758e-04,2.172560506195607161e-04,7.631994365916675016e-02,8.985252127207056516e-02,6.104865746458165363e-03,2.930528348892280362e-04,2.327782211622211883e-02
4.628342412168063701e-04,6.790565265711586557e-03,1.873400638578878957e-04,1.124464353809134239e-04,5.408745950674093009e-04,8.958382820924268297e-02,1.011537154558475177e-01,1.310336665074982379e-02,8.997239096238856051e-05,1.941821552940558790e-02
3.523522390915615485e-04,3.661414141774530472e-03,2.900318945684917131e-04,1.048660852533186684e-04,3.400711909529229547e-03,1.003640604233175387e-01,1.480740116346674629e-01,2.197299319595872116e-02,1.014058478597291545e-03,1.515083221830323089e-02
9.191311931206348328e-04,2.171323367107143038e-03,1.884356368765488206e-04,9.756737429684419311e-05,8.222389306877596338e-03,1.030753459138505496e-01,2.073025636885214018e-01,2.747020537934933421e-02,2.250482108138060836e-03,1.026981693714194323e-02
3.755408056843219378e-04,2.920388924233421023e-03,3.611722766111636522e-04,9.057782300369134412e-05,1.304079734115459049e-02,9.701537508234142626e-02,2.423622074668602411e-01,2.894623462956768742e-02,2.992292677314226101e-03,3.522962507155277551e-03
6.099946775537035603e-04,4.113221583976397859e-03,1.063242075738208723e-03,8.402055410628357396e-05,1.656027323991622613e-02,8.597047227424597926e-02,2.413513238863035926e-01,2.934207964255862097e-02,3.949337629178638689e-03,5.371258822056971388e-03
6.467859293713880972e-04,3.147252520137574627e-03,1.377657322648470455e-03,7.786323803072982080e-05,1.835874315223673739e-02,7.325800095228769682e-02,2.202279743581465332e-01,2.895476308528849990e-02,5.580184863718804129e-03,1.465405535286873340e-02
3.448542724513719172e-04,2.234701190322026330e-04,1.065500089343647538e-03,7.246456855764066784e-05,1.754462764753080342e-02,5.670974115292105877e-02,1.905364412719022238e-01,2.432794726939038754e-02,6.183122984234221131e-03,2.200858474153788782e-02
1.024461061157609307e-03,3.490366642397769049e-03,3.707988515697202125e-04,6.911750984173244019e-05,1.354879538505916921e-02,3.190236404190396891e-02,1.439535630188146509e-01,1.326934867011062696e-02,3.671864602296251879e-03,2.603715987559411874e-02
5.153323424898205397e-04,4.591226423367816833e-03,1.835308607586615039e-04,6.792998075020852339e-05,7.275780876066289746e-03,1.919732445071140048e-04,7.328915059723505043e-02,2.309669298956969295e-03,1.126388205498014090e-03,2.622104034899899044e-02
5.154979842486328602e-04,4.082528927955669101e-03,2.986145323138618781e-04,6.657218747410626565e-05,2.184752510384246242e-04,2.989664523734186785e-02,6.360039271070472983e-03,1.768178525992955552e-02,5.011879118518208602e-03,2.317503950982330654e-02
7.708266237452096256e-04,3.583066511026504301e-03,1.782647744777739857e-04,6.519667129632687979e-05,6.138960776546997442e-03,4.894310804327182962e-02,6.537463135842448703e-02,2.702768262421023984e-02,6.225446916888788783e-03,1.859534202390390398e-02
2.683068244334392170e-04,3.573156722594226283e-03,1.354303184340395494e-04,6.924311026628893911e-05,1.006204053703343634e-02,5.310321527237141237e-02,8.632400749685316399e-02,2.659253953476557047e-02,5.855649769385140764e-03,1.315047146146008927e-02
1.834998975734153858e-03,3.576067393740052329e-03,1.742282804721268191e-04,7.878739616013575925e-05,1.103736249314571545e-02,4.691133258614205853e-02,8.151066608048254669e-02,1.943169617185824122e-02,5.453920034260865968e-03,6.160846193940557394e-03
2.527899097537069685e-03,3.385556134458261868e-03,1.749683444232746053e-04,8.225843924634602597e-05,1.099375094459279119e-02,4.007205548393732997e-02,7.716199330458715921e-02,1.399336599153290159e-02,5.164705055886249091e-03,9.418764888800138565e-04
1.729647750776890916e-03,3.212350845055518284e-03,1.707959847534415041e-04,7.911503549779554361e-05,1.170185073651626613e-02,3.835524103173678506e-02,7.859201876376713247e-02,1.440500443766446793e-02,4.379382287625604130e-03,4.728489193960409148e-03
3.245686655424298833e-04,3.154353286069817072e-03,2.012461173469404913e-04,9.386293305558439154e-05,1.217615251601101081e-02,3.901636844624929712e-02,6.912695297523517579e-02,1.570209940890025802e-02,2.786001212460698095e-03,5.233109820835290041e-03
4.196811705478198807e-04,3.114173336868518785e-03,1.640296528614753279e-04,1.279508935392944418e-04,1.079525316980796575e-02,3.750136820852018049e-02,4.606930936348641731e-02,1.222276205570139995e-02,7.756938334628457653e-04,6.045883362348470833e-03
3.283899580710052373e-04,3.043808706822141892e-03,7.071246987207520482e-05,1.285852163294181813e-04,7.982248988022216940e-03,3.350681454705315560e-02,2.811397823587238540e-02,6.089064802206368976e-03,6.484797864001358566e-04,7.693149897399685633e-03
1.016411313216997962e-04,2.986487200131792991e-03,1.592334400878513048e-04,9.068218409797676872e-05,5.042646313643398166e-03,2.875027182483005581e-02,2.520940371271279332e-02,3.600129504777923109e-03,1.006251112365936541e-03,7.377171955203216079e-03
1.235236062297121579e-04,2.962785887155179945e-03,3.742868911571655723e-04,1.261573853382804409e-04,2.953578805593068922e-03,2.640999736422430799e-02,3.533886521629775457e-02,7.855406568783808788e-03,1.096756139114358000e-03,5.651247067075313053e-03
2.059101474878631348e-04,2.949717691826700232e-03,1.551568306495210527e-04,2.480004229734059855e-04,2.946580667186684231e-03,3.077105232095373247e-02,6.142967433571337732e-02,1.716072531156377992e-02,1.493036305732164080e-03,6.221546078703716828e-03
1.814889171991883928e-04,2.933881249920568778e-03,6.272322580290928037e-04,2.164139485723075784e-04,5.045040378058640584e-03,3.783296669199082141e-02,9.009622377204237753e-02,2.610802683435888699e-02,1.462885689952649840e-03,1.000850716008091709e-02
1.311750643913103483e-04,2.922001471226409915e-03,1.104311189633470566e-03,4.191989654433872094e-06,6.837466499232842942e-03,3.438571923205363534e-02,7.840816305641751249e-02,2.863218807215624565e-02,8.473154479654223126e-04,1.602346082622629897e-02
1.334440467860138974e-04,2.916279598921478738e-03,6.350022382133523264e-04,1.010281004471826446e-04,6.902405394818575748e-03,1.750801899430772315e-02,1.234707035742715203e-02,2.417237041509874909e-02,9.696727379214608970e-04,2.428359586983266580e-02
1.516004256496499925e-04,2.909271517596847927e-03,1.430144542549585283e-04,6.409868646237978701e-04,6.394055829450191741e-03,1.704902458870881073e-03,5.374550193694942885e-02,1.727767834475186712e-02,1.947094923977181783e-03,3.095862616439560774e-02
1.484807287294779264e-04,2.895486353296289426e-03,3.586430788849930625e-04,4.433960574265967164e-04,4.502967807810506068e-03,2.895376075765932009e-03,6.367490279258440633e-02,8.761197127624869088e-03,1.550929028597159299e-03,2.733899290969837859e-02
1.407139016558384722e-04,2.874046250326799546e-03,1.346609991882082079e-04,1.296415404950159757e-03,1.839349277980404426e-03,2.794015129442961945e-03,2.672522653773325846e-02,4.516518630154226291e-03,1.543508608618300798e-03,1.184891689916748800e-02
1.457392409546610988e-04,2.843405627748575581e-03,3.484643411320734793e-05,2.996957866242210954e-03,1.112036264744134702e-02,6.406301898963445013e-03,1.708301004110482357e-02,1.980027658861809037e-02,5.571244612152625834e-03,3.789582346643277991e-03
1.557550870555816718e-04,2.800153963863902425e-03,1.275234867014982685e-04,2.537584210650751463e-03,1.718250308739519006e-02,1.393489980348327009e-02,5.372350807371006204e-02,3.031419322498021471e-02,7.855430455137311571e-03,8.095811058102059254e-03
1.622172738377549708e-04,2.741578757717962316e-03,1.695600253767594735e-04,5.311921741008392064e-04,1.746188318802630035e-02,2.096204014641741761e-02,8.968332666591743996e-02,3.707119917551571914e-02,7.442465453209025535e-03,3.302980477052757172e-03
1.683478333980075934e-04,2.666351882776256572e-03,1.217006344939709306e-04,6.790407240211032746e-04,1.433781629014245669e-02,1.872545380421492683e-02,1.274401730368185381e-01,4.531738270869242746e-02,5.172372617635609925e-03,5.295974614943653241e-04
1.778144089601522439e-04,2.573419517452960222e-03,9.613747234251318391e-05,4.645105786571028213e-04,9.282833118162541267e-03,7.485771070300187985e-05,1.608068393825933251e-01,5.134988429382374847e-02,2.492813081535245109e-03,1.475858792292206482e-03
1.887352202574596113e-04,2.461734006443561107e-03,1.127426946541619095e-04,5.212457345761813371e-05,2.805044696682873744e-03,2.540331244479862582e-02,1.730506788237188009e-01,4.691283734926035565e-02,4.455545690646087187e-04,6.833912644768730740e-03
1.989384224035547729e-04,2.330820681668164997e-03,1.192784681700601794e-04,1.387415994396401834e-04,2.095562994707088431e-03,3.551525852887575663e-02,1.480685402900038250e-01,3.310528885501351493e-02,8.765657345557917833e-04,1.128218919895167434e-02
2.088625799046302364e-04,2.180942906938302187e-03,1.057922941718137186e-04,3.166596708369610186e-04,3.048446085289354367e-03,2.678059160130292354e-02,9.909759162035114421e-02,1.735749667486488623e-02,2.029985820859605324e-03,1.300011729720126387e-02
2.190928783408420844e-04,2.012852690611021365e-03,9.661455417521647897e-05,2.663843867274255715e-04,2.621556027249277634e-03,1.896435948189515927e-02,6.318959016903742676e-02,1.632375919288410731e-03,3.255667888645075777e-03,1.405508534021633268e-02
2.289411644205643784e-04,1.827705460488852993e-03,9.669939726973513785e-05,1.685682029255021561e-04,4.384019099871920913e-03,2.417878994018923811e-02,5.566053466323366700e-02,1.508388412580797047e-02,4.029637847132323467e-03,1.764026383392651789e-02
2.376907879785450806e-04,1.627152116677733212e-03,9.471400588468798854e-05,1.743827193249994118e-04,7.011714917838563453e-03,3.038953934147877595e-02,5.820472664193954149e-02,2.796751023232753319e-02,3.943654617693508752e-03,2.243428553963565733e-02
2.453778785514645075e-04,1.413338183480012094e-03,8.820211927478569316e-05,2.016579920504055798e-04,6.685302084534004534e-03,2.260163773083852592e-02,5.598564795539406891e-02,3.109819651018051051e-02,3.774999234983722387e-03,2.323868682590747928e-02
2.520180827541912069e-04,1.188801653878567574e-03,8.244539060572783065e-05,1.790273586955399914e-04,3.212970456562387177e-03,4.025437831176710557e-03,5.566113320220755084e-02,2.715835127401745874e-02,4.864012591367714369e-03,1.877543044501210276e-02
2.570372117046970661e-04,9.563973947450223664e-04,7.866703108311756329e-05,1.444860091237669397e-04,4.054969001263079983e-04,1.110540120424484758e-02,6.446892531277441385e-02,2.239600336712128936e-02,7.376319660753766910e-03,1.433603231704814671e-02
2.600728664709660212e-04,7.192554598238886255e-04,7.442103698436986945e-05,1.323349531338908884e-04,2.628097431389221899e-03,1.556545694363677124e-02,7.722237972081955060e-02,1.550261644905370426e-02,9.752534411734885972e-03,1.512092572569806968e-02
2.616984726428507341e-04,4.807157168523656021e-04,6.912066075865664087e-05,1.256380398348961160e-04,3.529443399658776289e-03,1.232663657590026343e-02,8.867018231790371741e-02,2.221872447216036509e-03,9.942577940738890618e-03,2.047112948197555432e-02
2.621328668750873281e-04,2.442371229145582647e-04,6.392372816834132946e-05,1.085655164763572075e-04,2.127936990834997794e-03,3.922184959506334195e-03,1.032246209693892941e-01,1.176647703525643927e-02,7.312533046521023546e-03,2.564330409236713001e-02
2.599194984029534598e-04,1.331129993888336338e-05,5.914247780382813653e-05,8.928492055481314425e-05,2.376608798626029129e-03,1.117035876538262015e-02,1.238815755935345347e-01,1.484412843308688217e-02,3.517289894087281907e-03,2.680593586577284873e-02
2.544723868422655222e-04,2.086155837882948264e-04,5.426544565199330477e-05,7.572106749130584060e-05,7.689695728705825579e-03,2.830144826498684485e-02,1.358462116694507116e-01,6.387167376393656712e-03,7.880048253297670122e-04,2.348590240608649377e-02
2.488454681148086147e-04,4.182235095218705067e-04,4.917030173470944825e-05,6.453164837903338838e-05,9.767643333546060028e-03,3.401650078569455615e-02,1.150298931530071428e-01,1.717587518519195049e-03,6.967978762561912809e-04,1.767024016356855826e-02
2.444496499272764837e-04,6.124009224429335929e-04,4.412806258340570392e-05,5.231388853075808978e-05,6.785442673267800054e-03,2.315942107637096112e-02,6.215684178981911029e-02,2.029081274047449517e-03,2.203907468999146985e-03,1.187132959906916745e-02
2.350538326118827470e-04,7.883206466534923781e-04,3.923478771633486591e-05,4.089560721930628401e-05,5.153632787630827317e-04,9.729509968675017703e-03,1.350802902516656107e-02,7.544842064373057620e-04,3.328173814017944005e-03,8.020220552947742929e-03
2.178658292901556454e-04,9.435069711432759196e-04,3.440213300760136593e-05,3.214550806935542466e-05,5.547935213945767718e-03,9.488709261632163536e-03,1.910408783143987752e-03,1.108618154351465653e-03,2.256441508685864787e-03,7.040719277349050814e-03
2.065965027388280782e-04,1.075895048525335766e-03,2.962273846041892504e-05,2.542666130376315374e-05,8.672704175320596412e-03,1.928052573272253170e-02,1.062544457609036069e-03,2.458879034083925538e-04,3.928934950719105033e-04,8.510391094837014073e-03
2.081417047895334411e-04,1.183881436678060591e-03,2.497723034315758113e-05,1.999128598750826426e-05,8.179061236612121880e-03,2.607165817300925378e-02,1.605983134104883858e-02,6.961032423496004568e-04,1.351849973931719146e-03,1.102185913343681385e-02
1.940725707167296750e-04,1.266363231310492412e-03,2.050932894793378221e-05,1.619975548463489882e-05,5.245086877498450137e-03,2.983813114334588068e-02,3.903057310542679820e-02,3.451437568355064742e-03,6.783070655603171129e-04,1.331723469482375480e-02
1.496670974947080825e-04,1.322764670609241026e-03,1.622030135609376972e-05,1.441306187739075134e-05,1.903433354067118454e-03,4.050861362733561288e-02,3.300638818270437008e-02,5.108930318947570853e-03,3.321388121096532746e-03,1.465972101618228350e-02
1.360589213021784179e-04,1.353051165481772679e-03,1.212661654712048881e-05,1.440899801860390467e-05,1.694520094352961891e-04,5.346561626800817868e-02,6.189376985188479313e-03,1.149030636576318237e-03,4.296170625278249514e-03,1.412755578922426231e-02
1.871300472404658309e-04,1.357730488618771230e-03,8.262492578110817380e-06,1.589570332097845889e-05,1.353539415019732947e-03,4.863459507491468131e-02,3.486975587067913523e-02,1.440562380763861679e-02,4.068229412381207770e-03,1.090671717965743109e-02
1.739372374104062875e-04,1.337840807641397199e-03,4.652197154298141787e-06,1.879489925082001754e-05,5.147065135954916743e-03,2.151056803904493470e-02,1.850529848821474282e-02,2.436487538216302803e-02,4.053611596842840274e-03,6.026499512763552370e-03
2.120925787754675970e-05,1.294925814951945059e-03,1.307822130741923800e-06,2.300988904856280574e-05,9.289535155149840698e-03,3.705425726567544015e-03,2.326141931171108596e-02,2.321694661848634073e-02,4.528015392588498854e-03,2.250264879804983291e-03
5.409561365792948394e-06,1.230997697554410885e-03,1.758410455786689781e-06,2.829638928536699801e-05,1.097895904986935338e-02,4.385399604397029714e-03,4.501155047474344334e-02,1.183470408594213333e-02,5.023780370667110980e-03,9.074651518820309182e-04
3.069444638559515001e-04,1.148488876821705329e-03,4.533518317732013645e-06,3.437699948995766037e-05,9.116936278223599505e-03,1.269240244438834403e-02,2.918780996458050087e-02,5.161801764444307918e-03,5.289405482977300142e-03,3.670674885956316195e-04
3.072275553116984035e-04,1.050193641234443412e-03,7.009985331165982092e-06,4.101143449169258827e-05,5.112586750812117900e-03,2.596763353287451920e-02,4.113608265954599857e-03,2.315341872648896820e-02,5.415909945147270345e-03,1.036952723825193632e-03
6.912447442350788760e-04,9.392010943588880757e-04,9.186499626591021651e-06,4.795286031827735655e-05,1.600350410194315530e-03,2.616418248139831815e-02,2.470934729179307537e-02,3.693549370885471084e-02,5.764191309386753302e-03,2.614133876412807166e-03
1.968724970836953185e-03,8.188210922666695236e-04,1.106529710959682636e-05,5.492405257381181128e-05,5.845457577510295745e-04,1.595843810852125982e-02,1.792052547760870571e-02,4.239472626481771700e-02,6.550460702043370623e-03,3.421497919210638068e-03
1.993307181352638353e-03,6.925049922874049494e-04,1.265190701300506851e-05,6.164739094285030493e-05,2.382103344219440710e-03,2.490546359661429711e-03,7.102694437257097392e-03,3.909143359808110035e-02,7.019171811216324414e-03,4.347551480918141961e-03
7.063612349511695990e-04,5.637631426365698759e-04,1.395638307755952988e-05,6.786624880608458494e-05,5.517208579013458715e-03,2.438379155061200926e-02,2.982432537232804215e-02,2.901385541660924522e-02,5.904498482884461795e-03,6.101571352644464055e-03
3.349933750510694207e-04,4.360811320535696320e-04,1.499329062586633287e-05,7.334084576121965718e-05,7.493816637746007411e-03,3.687380430307708734e-02,4.019261905287029035e-02,1.515151832207608726e-02,3.218732344081704725e-03,7.548827328011820104e-03
2.576234123776452792e-04,3.128368564922815419e-04,1.578084471633867740e-05,7.784735805091818066e-05,6.353895971600779895e-03,3.147671471564934126e-02,4.334497428751380582e-02,2.832384315167943249e-03,3.098833471604435681e-04,7.933501076075908515e-03
1.509595393475956539e-04,1.972204333275211490e-04,1.634048629629674521e-05,8.118834361716389329e-05,2.174880481794117752e-03,1.738277148528252075e-02,4.756330467665738360e-02,2.115647715320744058e-03,2.129619875609889412e-03,8.161590100048301058e-03
1.570762176491143194e-05,9.215891774778248104e-05,1.669673326676852646e-05,8.320089128763914158e-05,2.916563118054976873e-03,1.221846414898628344e-02,5.772377806042872095e-02,7.350661063130385989e-06,4.373483414172444662e-03,8.842124926138606594e-03
3.827857568900848028e-04,2.476586481532292144e-07,1.687670899189857557e-05,8.375837248983093817e-05,6.619556957300277641e-03,2.171956940536765371e-02,7.359187047227860878e-02,1.521960046955901560e-03,5.957648801561334084e-03,1.013905200309516558e-02
3.208528133815629870e-05,7.631003141931312107e-05,1.690942975188212497e-05,8.277195295565543769e-05,8.314383743502639507e-03,3.520739401887782588e-02,8.664483265239607268e-02,3.194214276671600468e-03,5.814305266248250524e-03,1.320735805697290099e-02
8.047329456450090816e-04,1.357534245761873989e-04,1.682515249068927782e-05,8.019374453813261287e-05,8.875856455915051915e-03,3.939437574515045754e-02,8.735250095425410588e-02,1.037827280463740620e-02,4.270272771526436792e-03,1.778939631118484077e-02
9.515340285670738103e-04,1.768039193515751008e-04,1.665476714268085504e-05,7.601864563467507956e-05,9.429624319885353614e-03,3.075996228287532566e-02,7.785272665272416348e-02,1.249099393435534541e-02,3.053053660544091663e-03,1.962422427249819676e-02
4.338837733824719208e-04,1.986926222758279403e-04,1.642910196739405667e-05,7.028389839157786402e-05,1.081560106139956186e-02,1.458612960254778053e-02,6.855052089602657606e-02,8.282851414745837429e-03,3.134868996116835140e-03,1.503691508948619242e-02
6.385271233797324905e-04,2.011753104254735455e-04,1.617816838166498178e-05,6.306771451110243585e-05,1.323482824168739982e-02,2.762254444450654243e-03,6.719371762504680601e-02,2.263956093089397430e-03,3.712558945748611720e-03,7.235442683124802300e-03
1.674464054322309095e-03,1.845344273226189188e-04,1.593045356599994886e-05,5.448746024856389216e-05,1.586470710009629803e-02,1.768961214861974190e-02,7.824155398041028608e-02,3.689619386138144781e-03,3.207785062139684347e-03,3.558352428091497016e-03
1.881756499379387071e-03,1.495680842360103536e-04,1.571227779026113900e-05,4.469682934887545060e-05,1.751291031418624952e-02,2.774419938826552454e-02,1.007009566821602808e-01,1.165225971621194727e-02,6.937369667841467979e-04,6.639471323127595082e-03
7.036821580304881800e-04,9.756635872282991761e-05,1.554714169765588952e-05,3.388185816614794197e-05,1.744387829538965665e-02,3.048691538678238028e-02,1.215647144410434699e-01,1.935410306223545041e-02,3.280897504568200222e-03,1.176081928119060774e-02
4.063971123024120720e-04,3.027549462739407378e-05,1.545506930135655087e-05,2.225617242598017622e-05,1.528725506716134899e-02,2.626390664582231582e-02,1.262093674599515103e-01,1.749462794195951604e-02,6.870540614398647911e-03,1.349221967199146048e-02
4.612363445131588456e-04,5.014909482187678794e-05,1.545210834062907783e-05,1.005569203141164332e-05,1.129428859485421405e-02,1.999541367649218526e-02,1.168911846674399319e-01,1.128747943762876049e-03,8.352943675487441849e-03,1.262499271202218061e-02
1.130649278518404042e-04,1.411998441594662342e-04,1.555003117028940106e-05,2.467206543773443130e-06,6.746052749529399262e-03,1.630810055965235122e-02,1.090768725771489173e-01,2.080598214636047300e-02,7.833959000806965320e-03,1.432917621033304861e-02
1.044907206255500339e-04,2.400826506375937114e-04,1.575595920810538429e-05,1.504997590724090619e-05,2.864728357844511381e-03,1.294687514099483044e-02,1.134290293782025810e-01,3.428344802936765523e-02,7.126857088939629430e-03,1.969297289604143159e-02
2.799390577404211591e-04,3.437894539802439659e-04,1.607184948394081394e-05,2.742641345732778365e-05,6.161160054390447168e-05,3.874647621748984055e-03,1.280634102314493483e-01,3.524664105862783392e-02,7.487640746922836349e-03,2.336144433616722804e-02
3.044161660642177771e-04,4.491759776913406012e-04,1.649445553330805716e-05,3.933322119622318725e-05,1.567089907121056464e-03,9.693084141264358966e-03,1.396694586809201222e-01,2.992488932665041818e-02,8.253602334588926517e-03,2.199564702455842832e-02
2.369451255660996616e-04,5.530427029710596265e-04,1.701593628810087181e-05,5.051647674160393971e-05,6.313755364931894921e-04,1.754983318959147873e-02,1.311175921934566446e-01,2.428015101956781593e-02,8.346779533441844867e-03,1.952362062022532790e-02
2.358873358209077301e-04,6.522170682156287497e-04,1.762383312702876114e-05,6.073786877980084459e-05,2.522447591582023529e-03,1.148422948796070688e-02,9.878258756258377626e-02,1.940588837329032881e-02,7.998425076475825651e-03,2.009644622126544392e-02
2.844658881143084621e-04,7.436348585020701764e-04,1.830002031561379927e-05,6.978053138927729304e-05,5.987053409768450934e-03,9.354753440228985584e-03,5.850470491678006618e-02,1.402778619914192039e-02,8.020077432253271826e-03,2.195594783884574283e-02
3.044064146390979713e-04,8.244187710594681664e-04,1.902135014144014710e-05,7.745432963087966051e-05,8.361769022749114891e-03,4.134559155149022946e-02,2.575501524896153457e-02,6.249051029740372749e-03,8.234412348853741015e-03,2.216058686365605587e-02
2.836665641199016884e-04,8.919522139507259518e-04,1.976289846145063884e-05,8.360047474919248575e-05,9.428627047320415136e-03,7.101409803220719297e-02,5.035706144998486344e-05,4.458362364408759680e-03,7.690733460472279175e-03,2.119406628438999518e-02
2.667143391286503273e-04,9.439465142576905542e-04,2.049800619147811896e-05,8.809536092187995058e-05,8.270495327123116025e-03,7.369969217255505078e-02,2.421760570781420971e-02,1.367298202567763903e-02,6.211506995539044750e-03,1.908180875465808474e-02
3.005021305010157728e-04,9.784998760184874297e-04,2.119300462953168762e-05,9.085352941722156137e-05,3.950542601866719253e-03,4.107428091471138076e-02,4.385387547949652631e-02,1.459610201773902521e-02,4.874164782141906203e-03,1.216470771462154626e-02
3.490954660682042709e-04,9.941466329470333325e-04,2.180893041018749803e-05,9.182968929839878662e-05,9.705331380045884287e-04,3.189983539569506664e-03,5.457998004423515043e-02,7.293493498273510844e-03,4.645405483128142547e-03,1.526678472284408259e-03
3.028594238326132062e-04,9.898955815090724163e-04,2.231501942355862633e-05,9.101974987909381451e-05,1.723173549888397989e-03,6.311489289560050404e-03,5.861842884204312293e-02,3.249255982325442282e-04,5.243767883425161890e-03,1.621690620929181967e-02
2.087593723625706394e-04,9.652564502959999800e-04,2.268777509614073129e-05,8.846084387922125238e-05,1.985986484883270602e-03,1.098394499510543321e-03,5.976633560236440518e-02,6.015824988974533254e-05,6.005924218996937063e-03,2.302070220491764241e-02
3.088505028886114490e-04,9.202538551533280325e-04,2.288464411327524215e-05,8.423034381503928959e-05,4.371315445375893900e-03,1.131166303982557991e-02,5.795458114010838130e-02,3.536257116204172702e-03,6.869789955298868933e-03,2.058081832412886336e-02
5.315712166637809885e-04,8.554283989439744095e-04,2.284791718844276224e-05,7.844389912835279322e-05,6.107166702363536932e-04,4.582235950627580601e-02,5.241610787693477130e-02,4.715300873139453494e-03,7.589689454802133611e-03,1.557933134463929635e-02
3.143736068516845249e-04,7.718248925286271250e-04,2.256366497762231761e-05,7.125254604244192253e-05,7.358205865272326486e-03,6.734141494355321000e-02,4.588426309814678389e-02,2.963434367101626908e-03,7.906974423378419770e-03,1.214493390749135822e-02
4.639077483659997600e-04,6.709679916961209080e-04,2.205751416809379183e-05,6.283896452113307103e-05,1.342758582958729179e-02,5.616493956660436465e-02,4.339616385784408892e-02,2.330592561920682114e-03,9.291055940502026406e-03,7.932167595057694476e-03
9.334264252757759703e-04,5.548258555373847527e-04,2.127113053767814692e-05,5.341297703736530209e-05,1.381756170223676604e-02,3.200247257765377606e-02,4.788512611821580528e-02,5.519164234463570101e-03,1.222310636346364034e-02,2.183931602882134039e-03
4.564881322541933933e-04,4.257627274730814426e-04,2.007030221928856172e-05,4.320640211834641240e-05,1.004734244913855698e-02,2.540914189530872266e-02,5.738208187713912667e-02,1.073204666687861859e-02,1.061346849119525031e-02,7.249590073736417997e-04
3.289048462261981443e-04,2.864816135366198891e-04,1.851099029681363851e-05,3.246739112353082653e-05,6.127005790528109591e-03,4.547982506754080778e-02,6.672025104934474482e-02,1.286556596885210860e-02,3.528945131632465256e-03,1.202793842972235379e-03
5.535877581084862765e-04,1.399584768517821588e-04,1.683077539026400635e-05,2.145438883346221528e-05,3.951517965724194066e-03,7.440506773996843903e-02,7.283103318880017329e-02,7.716996886075463274e-03,2.692053010610237149e-02,3.653603539540555521e-03
3.408096162118675254e-04,1.063042348391873392e-05,1.488188220794945969e-05,1.042986701951715997e-05,2.770440057582939167e-03,8.419259916088042695e-02,7.814463197769601355e-02,2.474028218968065979e-03,4.503661598797462778e-02,2.478421015935755936e-03
2.536245204227760368e-04,1.619862518394465445e-04,1.213570899873474724e-05,3.460148611037989813e-07,2.294523014763644002e-03,6.369404738976559843e-02,8.690571859886675465e-02,8.622113081595522699e-03,4.866883680169375309e-02,1.076944316763968172e-03
3.603407687755297902e-04,3.107684518510506113e-04,8.894443044835342828e-06,1.062166650626252996e-05,3.198514347813968990e-03,3.077818710985079712e-02,9.903992968310458556e-02,3.777854606351141366e-03,4.235764014669723965e-02,3.511100395469121931e-03
4.185507560478058590e-04,4.536767393573445787e-04,6.313222170874795006e-06,2.016008845697726760e-05,4.489096003566754242e-03,9.452297697668862048e-03,1.109428995648071847e-01,8.421614380320898915e-03,3.440065518003791734e-02,3.461706612529457869e-03
3.892106750799518146e-04,5.875322053008348025e-04,3.812931494006061001e-06,2.874451233301625666e-05,4.062691424228169305e-03,1.593091335723183233e-03,1.194320072329168037e-01,1.778742570128368991e-02,2.714453076820259186e-02,1.118801081655904691e-03
3.838727240258046425e-04,7.093555234865623130e-04,1.035301749000014351e-06,3.618352324775477182e-05,2.572774708915643097e-03,3.360212272462485307e-03,1.191153892807398779e-01,1.853848080591003616e-02,1.984185013802321207e-02,3.612736036162982837e-03
4.222512035438461724e-04,8.164403295937654572e-04,6.988922537722639411e-06,4.231554126164881332e-05,3.157711260831156698e-03,2.186373391372392963e-03,1.014028969881130976e-01,1.359208834322176915e-02,1.369237989999319213e-02,9.516731883178516926e-03
4.532739827356449449e-04,9.064199570177882553e-04,8.744718071769169774e-06,4.701255493129825002e-05,6.688946705191490573e-03,1.479279459951740247e-02,6.641402570159270213e-02,9.634813202508401425e-03,9.961484480219530424e-03,1.307606585901759447e-02
4.672685999475056961e-04,9.773258790325082667e-04,8.721751261153513066e-06,5.018301876445640966e-05,1.080723631472385246e-02,3.894279276437276338e-02,3.048829290647801782e-02,9.596062973343288602e-03,7.267509490650086654e-03,1.270793180416367532e-02
4.860681493848151009e-04,1.027636411362996141e-03,1.820231456420580538e-05,5.177384722511774629e-05,1.365761375096985301e-02,4.974725064480267633e-02,9.937924942073050535e-03,9.803180845942498223e-03,3.978800757775241212e-03,1.164027814838570866e-02
5.137293082537320969e-04,1.056314469497331892e-03,3.220023660950032686e-05,5.177146033045771506e-05,1.479198852669881548e-02,3.968371509938741631e-02,2.661130920355489135e-03,5.331519449280037494e-03,8.277746125653110635e-04,1.318581496448282403e-02
5.437906067585108897e-04,1.062833445021916894e-03,2.637098645672568490e-05,5.020185929040632924e-05,1.314568854188367421e-02,1.560018203297281955e-02,3.361304277846262345e-03,3.027570957311571855e-03,8.838675992661408198e-04,1.619981705797337093e-02
5.753380245601175027e-04,1.047190558281632872e-03,1.060654847666270089e-05,4.712973448233371990e-05,8.303395030457622408e-03,1.425638021606308835e-02,1.023633261258404155e-02,1.053867557730968872e-02,1.592902769236586528e-03,1.792971139940591901e-02
6.027280723321977061e-04,1.009907353523003832e-03,3.704148680798448719e-05,4.265663174068427338e-05,2.919529472023806894e-03,3.925632288818784593e-02,9.490081330136158899e-03,1.569177311762910351e-02,2.555920692232079971e-03,1.786290444315442177e-02
6.229276648055493771e-04,9.520173197638497195e-04,8.579892918433702450e-05,3.691822589529368965e-05,2.730120204816392738e-04,4.488765805708518075e-02,3.335630874768973422e-03,2.068081579855847105e-02,4.217832096234667288e-03,1.662148260251128037e-02
6.559307645564851691e-04,8.750409381335089165e-04,4.478053713647492135e-05,3.008077215386371626e-05,3.466429967992382902e-04,2.820480677047715323e-02,2.146522185606166561e-02,2.509325095209992071e-02,6.218161157387842169e-03,1.389085642379256705e-02
7.099842136743266972e-04,7.809487665204694435e-04,4.686381270275738112e-05,2.233682576809334011e-05,8.926627704850329924e-04,5.425453493535068068e-03,3.403242146457298445e-02,2.367349434649951637e-02,7.888733553459339326e-03,9.105317695587186733e-03
7.376638248628516895e-04,6.721134674088570689e-04,5.368903857905990969e-05,1.390033797033505152e-05,1.075711034807478759e-03,7.080954950452116731e-03,3.674456183309676716e-02,1.317163840419272210e-02,8.677161886958731363e-03,3.077529494803954609e-03
7.182147313446433793e-04,5.512519575121535478e-04,2.782420161217661367e-04,5.001250998003389184e-06,1.801068790841858867e-03,9.822911611846141602e-03,3.274958855607205260e-02,2.742964660371958584e-04,8.592018914096591700e-03,1.914072578313430082e-03
7.533781514586166675e-04,4.213591015019116414e-04,6.360826284046981229e-05,4.120273215755206209e-06,3.385988795220603708e-03,1.129059968608897915e-02,2.482625522801042151e-02,2.488933326690843679e-03,7.829140337373604805e-03,4.130430331680333411e-03
8.897451634210752289e-04,2.856345807762783028e-04,7.132962774037596675e-04,1.321984769005243815e-05,4.825040062909193538e-03,1.304513924516622486e-02,1.298948451115284133e-02,8.270775089234341446e-03,6.358653077865922612e-03,4.223286182426005432e-03
9.092375179581816845e-04,1.474047366758611413e-04,1.182674679525479167e-03,2.205493050858545613e-05,5.127148440267466356e-03,1.043104541524726703e-02,9.901501517287601695e-05,2.125384732482115541e-02,4.726017322467806689e-03,3.922446885675723305e-03
7.047801305643094840e-04,1.004131168029197556e-05,7.062294549800917460e-04,3.039082128517765804e-05,4.340913546033881368e-03,6.532311547021198150e-04,8.728477677081803929e-03,2.448464843900019505e-02,4.198068308661598129e-03,3.680573150021971759e-03
7.431359979613162518e-04,1.231209111531981928e-04,7.777287183625776934e-05,3.800643729252300155e-05,3.165173666185574011e-03,1.406746030513698204e-02,1.090719889526262608e-02,1.933871224363918270e-02,5.054495607583464438e-03,3.456824001024762574e-03
1.286949160708085634e-03,2.488655428117529265e-04,2.995641494808587825e-04,4.469972856901506167e-05,1.799169178800363172e-03,2.688917654753002207e-02,1.064343549426910625e-02,1.520418340281059870e-02,5.856738190131911305e-03,3.922183128464241941e-03
1.281579934753843478e-03,3.641730918479746718e-04,8.225534387163262987e-05,5.029260074561282736e-05,2.736239443120265426e-04,2.962998206157474099e-02,1.263296714165123777e-02,1.562621604080636009e-02,5.286557167123433036e-03,4.181361979185566589e-03
4.324451237557608448e-04,4.662946035965937321e-04,1.093915024658889749e-05,5.463522693917410546e-05,2.875491543791926837e-03,2.037474590691504620e-02,1.757536244707534265e-02,1.630176742132422377e-02,3.848429635444368998e-03,8.853839736238195909e-04
2.809066930719636597e-03,5.528186214957489129e-04,8.820449053159892621e-05,5.760964551897533977e-05,4.519339361594096501e-03,6.810439199894028142e-03,2.235506466527378833e-02,1.276369878346012531e-02,3.051251285349726103e-03,7.242632269660381414e-03
3.585672148485825016e-03,6.217298212481594394e-04,1.368820500255167507e-04,5.913255847900555668e-05,4.074392375705180105e-03,1.393076497688932203e-03,2.270593507984242782e-02,3.667410262943801569e-03,3.389488519765928177e-03,1.628751218028605743e-02
2.504649783567377934e-03,6.714578735550339513e-04,9.595543852782260116e-05,5.915726509104214491e-05,1.998738854628325911e-03,1.029078773796241603e-03,1.662499077926052338e-02,9.899505006474875607e-03,3.941506143043446014e-03,2.055780304891494450e-02
1.295162652425377271e-03,7.009153317799859517e-04,7.754101600043053553e-05,5.767468697587719591e-05,2.989751497584545417e-04,4.910239730303751771e-03,7.416787661110721928e-03,2.216659718412572130e-02,3.896485597315085293e-03,1.712991566172895885e-02
9.876130123297015284e-04,7.095236112289808302e-04,1.015377366030213090e-04,5.471346318052969329e-05,1.144358939602600853e-03,1.111580321942063146e-02,2.519712261106602826e-03,2.368845486098274111e-02,3.509045990245052756e-03,7.320422570119364085e-03
1.427373107608249578e-03,6.972264201105029266e-04,1.158073786104303312e-04,5.033911673396288943e-05,5.082848203490318833e-04,1.282221719921304397e-02,6.716067291750737328e-03,1.128042742631775626e-02,3.314423572902461951e-03,3.414951526480212562e-03
2.384865746262438465e-03,6.644903114440084977e-04,1.104313453889328137e-04,4.465231691042928047e-05,3.487903262206324025e-03,9.698290275200379881e-03,1.750950133241498119e-02,6.138820536110096114e-03,3.315576430155384169e-03,8.392209253650374443e-03
3.310837707789945211e-03,6.122923425995346371e-04,1.097675575909614211e-04,3.778628350117690747e-05,5.206843192106828770e-03,7.616759862262055883e-03,2.965208918692522483e-02,1.689273797461061932e-02,3.277429691955303058e-03,5.830717863586376906e-03
3.310329982559635092e-03,5.420951469586090523e-04,1.188508311571718308e-04,2.990340024396652134e-05,5.091919394721125015e-03,1.189795345551787273e-02,4.065335915229637692e-02,1.806003936251059094e-02,3.185899892343010097e-03,5.902197828508300680e-04
2.414716632270840629e-03,4.558100325565309454e-04,1.263479675504573037e-04,2.119112367986664884e-05,5.107279474369018184e-03,1.776167177988500698e-02,4.758429633818961335e-02,1.360699530425034907e-02,3.143407062855718432e-03,2.331316775632612335e-03
1.463101315963925668e-03,3.557490178502387417e-04,1.296960667568001200e-04,1.185729063665922148e-05,6.083919557531418734e-03,1.408971581620869010e-02,4.426206746114198093e-02,6.185201211414127070e-03,3.151008421022395613e-03,2.788136294715098766e-03
6.513409386219556939e-04,2.445669876755783567e-04,1.342499236036552210e-04,2.124941871919174881e-06,6.165786558099649317e-03,2.310405874940454473e-04,2.890667408834958138e-02,3.804980574161612693e-03,3.153288090121362814e-03,1.971497155285639388e-03
2.913314193471502455e-04,1.251953962829931925e-04,1.414930428020537802e-04,7.773209194363075235e-06,4.196001990356389329e-03,1.262509062348053830e-02,1.036822337370321701e-02,1.414022785370016438e-02,3.141124660168970618e-03,9.654691325174458508e-04
1.044351887802319944e-03,7.691530563107028520e-07,1.488117111276837255e-04,1.760052553538203162e-05,2.226932320267605448e-03,1.380852540476459542e-02,2.200780770896032176e-04,2.112316983495921702e-02,3.132630827828340563e-03,5.477067301169973902e-03
1.172481329258476127e-03,1.254515050267994620e-04,1.550141007000738257e-04,2.712227143916437751e-05,2.658428658157417027e-03,7.200411941023793921e-03,1.534128700829202885e-03,2.406111324714525768e-02,3.125025491353331311e-03,7.867775651803325318e-03
9.575736296446965990e-04,2.501622261041819349e-04,1.615297359149894471e-04,3.611137007073954915e-05,4.676769313541865973e-03,2.552547947847496734e-03,3.943965211648994135e-04,2.617969435649412924e-02,3.102242314277203934e-03,6.252678363697868925e-03
8.860081385887258682e-04,3.700968366833376727e-04,1.698625416259063779e-04,4.435395266069420771e-05,5.795989159689109681e-03,1.633660452349706624e-02,3.243278945256741416e-04,2.993164455506240954e-02,3.057692371308643429e-03,2.714591533188237191e-03
9.674756788709895639e-04,4.821086836730586762e-04,1.788074402810076538e-04,5.165456396408216411e-05,5.471941971057885275e-03,3.093938102984311600e-02,1.250314793891602397e-03,3.334823263230333318e-02,2.993135658372596524e-03,1.093997394179259744e-03
9.982734782619682654e-04,5.832490163622704648e-04,1.855046279916525674e-04,5.784089758636076230e-05,4.997476524095751868e-03,3.645527194649206965e-02,4.949534729772372098e-03,3.238357073166975297e-02,2.908341427359233556e-03,5.067427308020118308e-03
9.607608386958842910e-04,6.708404719840143932e-04,1.914335954178360429e-04,6.276794678810519550e-05,5.031004618262217842e-03,2.907462203878649273e-02,7.756402796981761751e-03,2.599930663144292900e-02,2.797404476799205883e-03,7.059742710010413237e-03
9.304753749048706550e-04,7.425438487338492828e-04,2.023405137700317984e-04,6.632147115143293575e-05,5.124049445621677891e-03,1.673338278125125964e-02,1.140624746808328871e-02,1.799834052001945961e-02,2.653169016456562168e-03,4.642916676299792614e-03
9.283553342444239792e-04,7.964165151614112370e-04,2.154533231130077026e-04,6.842069664578000210e-05,4.960585835561545295e-03,8.878912822586203235e-03,2.236088636425781484e-02,1.331205407364242747e-02,2.478091794452162017e-03,3.785299354931620551e-04
9.598070967318383809e-04,8.309610106715133301e-04,2.183605289860653088e-04,6.902018573943170170e-05,4.747808476250971882e-03,7.417387650570357246e-03,3.937338620105866605e-02,1.275702934870221773e-02,2.283619555571226364e-03,9.584573699450062850e-04
9.914685305157187184e-04,8.451626334014126964e-04,2.162713286312496579e-04,6.811083479038487266e-05,4.654650660066865508e-03,8.373057545820711267e-03,5.089410217887710419e-02,1.345281936167889124e-02,2.065920515811634026e-03,2.293307378394605651e-04
9.329414218262876155e-04,8.385150830465354322e-04,2.355733531288918667e-04,6.571997750572335019e-05,4.561734445155446807e-03,7.756537069745795057e-03,4.988628674780226646e-02,1.440576877072133333e-02,1.802663932911929704e-03,3.824364065605660246e-04
8.485954254404557079e-04,8.110335206149977931e-04,2.657195749469736922e-04,6.191059525101106102e-05,4.339292687917845753e-03,5.486868538814548314e-03,4.243126535120375631e-02,1.791028890979715071e-02,1.505208526762573515e-03,3.403424640866113161e-03
9.801144706455219326e-04,7.632547173567772727e-04,2.497829013478371761e-04,5.677965687990904115e-05,4.089889614880090618e-03,4.649153122946319411e-03,3.676801510483503066e-02,2.435322437872068993e-02,1.228587752271398555e-03,5.078997073448043680e-03
1.170498254898779669e-03,6.962242835976250460e-04,2.082954510021656235e-04,5.045563200360393485e-05,3.992163216356532478e-03,6.639224816069433377e-03,3.167005571678897097e-02,2.949825644049331244e-02,9.599280584789550517e-04,4.178563471514267456e-03
6.032003305852696876e-04,6.114712870660778728e-04,2.655272298134147657e-04,4.309524171172705637e-05,3.882209103595607100e-03,8.571672288508259616e-03,2.069304275456728889e-02,2.840574176062796857e-02,5.929761548146500819e-04,4.559053134566418315e-03
1.077779291087312737e-03,5.109708816765620764e-04,3.895933402266610617e-04,3.487952920360950512e-05,3.126819836293145277e-03,6.615671289072103112e-03,2.841376024784297502e-03,1.926878771291976045e-02,1.655206915167855121e-04,9.188118658329247346e-03
2.605533270447620182e-03,3.970958639453891657e-04,2.738364976290209559e-04,2.600934914548161110e-05,1.110276410474118555e-03,4.625119563125032300e-04,1.477827731640940848e-02,3.598397609015014775e-03,7.702833326138792264e-05,1.491875479517292338e-02
2.277472409519081843e-03,2.725583479617865561e-04,2.666395914520642381e-04,1.670038844300316867e-05,2.005324908268170912e-03,6.177359568881176863e-03,2.343654356299315622e-02,1.366200828972308906e-02,1.835332572868975088e-04,1.653095301478793924e-02
3.553048731092673111e-04,1.403429943549403794e-04,9.543713386589901477e-04,7.177842179030505812e-06,4.797999466307200159e-03,8.689990955468192280e-03,2.139359904032201928e-02,2.482031474575180363e-02,7.051777665028513987e-04,1.444254430299840748e-02
1.166535555779333591e-03,3.633437948602571434e-06,1.288589152236978156e-03,2.329123546343954602e-06,5.118214398356565886e-03,4.770085508643779303e-03,1.590024824174307225e-02,2.451610698166181712e-02,1.788743000092385491e-03,1.360857186374171170e-02
1.280518554378848404e-03,1.342662723992452416e-04,9.759510351734579717e-04,1.159298540659958541e-05,2.187025806120395689e-03,5.120993269649445900e-03,1.447062305327131981e-02,1.446847099484016921e-02,2.573480934696852421e-03,1.471931689661211060e-02
8.519477797230743353e-04,2.700132840959541098e-04,2.155375515725869138e-04,2.039341543445008465e-05,1.507836034638669349e-03,1.854969910954309617e-02,1.527470516088736373e-02,1.767347419781305478e-03,2.354018915099760113e-03,1.260601602632574134e-02
7.847993810684824115e-04,4.003085871130033862e-04,3.461174480570809188e-04,2.852263657875419624e-05,1.910574641425037603e-03,2.998792911780408937e-02,1.142363197823074300e-02,5.717643324074025979e-03,1.731799924027139755e-03,5.375036917187496661e-03
9.448613128872980667e-04,5.219786553064943799e-04,3.293526388540765062e-04,3.579045074085790824e-05,2.075282830931437714e-03,3.103702129068687532e-02,4.165517445192085111e-03,2.975090029772488841e-03,1.704611990591332676e-03,7.999919883718097481e-04
9.830547245147389177e-04,6.320540652625479192e-04,2.062726224475437231e-04,4.202881730662971451e-05,7.178448019207537070e-03,1.748320948653490567e-02,3.573856707112913183e-03,8.087546827515454742e-03,2.219019413864380726e-03,7.015454511072971664e-04
9.251437461961628181e-04,7.278431484223806588e-04,4.722620993621628517e-04,4.709587165449103334e-05,9.729773232946895001e-03,3.358563210194112723e-03,1.419560079058860246e-02,1.860147887801248678e-02,2.427292877183017793e-03,9.015743649325072551e-03
8.413175065134493018e-04,8.069988534904771462e-04,5.276048408197361959e-04,5.087928724788678427e-05,9.202409870117880461e-03,1.779070724527875499e-02,2.822677366964643914e-02,2.101727282707160568e-02,2.084899730345325750e-03,1.861880677106336063e-02
7.694494865803808712e-04,8.675771624177936424e-04,4.453692240607954548e-04,5.329890135691169967e-05,6.937116937518268862e-03,1.900471143942500038e-02,3.600066774713282791e-02,1.565864976656119664e-02,2.065317207822508008e-03,2.603851389420935858e-02
8.866095327396780095e-04,9.080856105117732875e-04,1.724791885895090833e-03,5.430854278708245408e-05,3.819777988564944209e-03,1.047269850744023990e-02,3.630415345549714567e-02,7.143732377325958532e-03,3.094094657008104529e-03,3.005549943757756040e-02
1.058577022319303305e-03,9.275207043756160310e-04,1.741327942870500621e-03,5.389701976751511484e-05,7.446138523435395871e-04,2.023008925551771260e-03,3.329606922418715254e-02,3.488969378617645558e-04,4.313240153470189117e-03,2.864785057782470376e-02
4.421116319131765393e-04,9.253933044526429412e-04,4.731069175892957173e-04,5.208824687646299142e-05,6.724610336786682099e-04,1.400258509894115357e-02,2.869641003882472674e-02,2.360695945213364937e-03,4.196573122378546850e-03,2.053594533720413950e-02
1.575590686174017973e-03,9.017413352383720675e-04,5.414922775985389625e-04,4.894051104827420355e-05,3.500170559064178346e-04,1.921875833906045231e-02,1.997052402201015403e-02,4.753093155929306694e-03,2.799282084989303948e-03,8.834602471165553181e-03
4.015592023481625618e-03,8.571294984371822471e-04,5.253303743623093406e-04,4.454489779246395364e-05,2.353369714639118836e-03,1.214200656686483491e-02,3.390476888392535224e-03,1.949852402608035634e-02,1.642972475419638475e-03,2.070220309748916623e-04
4.799757618520871655e-03,7.926359847986014749e-04,1.823384110808854385e-04,3.902291924678166074e-05,3.026636608315981872e-03,5.103124236060376656e-03,2.173918462777128802e-02,3.593711680289242427e-02,1.453350450485695142e-03,2.823109312207503635e-03
3.083982138303375566e-03,7.098265011780168290e-04,2.009774713827569353e-04,3.252340508240568196e-05,1.886883282896303395e-03,2.357453499593071405e-02,4.939905709391741173e-02,4.855694369859391707e-02,1.543455610897846199e-03,1.186369462885090119e-03
4.502199306349221729e-04,6.107162426210547288e-04,3.920810506928155753e-04,2.521873510990017562e-05,6.618799695072557100e-04,3.462105871500175541e-02,6.831344093346332358e-02,5.381546180393433076e-02,1.300067437576277966e-03,3.148024333404935739e-04
9.466846273405060859e-04,4.977207372431375221e-04,3.555169204979378582e-04,1.730050826859191819e-05,6.869484565596190462e-04,3.386794859748885889e-02,7.053403178261558049e-02,4.975417521530229453e-02,9.067636548727032574e-04,1.577621301351260323e-03
8.154775115253860666e-04,3.735967670093791521e-04,1.818060704621142119e-04,8.974756139313525282e-06,1.156269669534663739e-03,2.324095149057870194e-02,5.858394734721934088e-02,3.764114181861664965e-02,6.424865911869755142e-04,1.884804265703787004e-03
3.932064328924089877e-04,2.413748134104275384e-04,2.559975757321141052e-04,4.568198803241681101e-07,8.471922059538098630e-04,1.203597880198228887e-02,4.186327409239248842e-02,2.207349644526734531e-02,4.368270391074060449e-04,2.891334854573531475e-04
4.030124986819932789e-04,1.042846873923313216e-04,5.285904896840941695e-04,8.033982704826431002e-06,4.034710421384549162e-05,9.726000666157866986e-03,2.663603238082369595e-02,7.359260847524792815e-03,1.736211328612721652e-04,5.127710816220829807e-04
5.396743074296024697e-04,3.432382748157028777e-05,3.547022607284279765e-04,1.627976858096964808e-05,4.452227265067208316e-04,1.518810288472638263e-02,1.226777783713272826e-02,4.752870489916852931e-03,1.038437621387795513e-04,4.217990180098131307e-03
4.890532967411684567e-04,1.710633649966177808e-04,4.861618547249542074e-04,2.406944654641493642e-05,5.226870183027308367e-04,1.924246426785043360e-02,2.965154086174169156e-03,1.296552714306842616e-02,3.452061740938839772e-04,7.238301700700903486e-03
3.761908394830730507e-04,3.025923691475339034e-04,1.056852926926256722e-03,3.120388893343660475e-05,2.699457207530023164e-04,1.796203462445690804e-02,1.615845996292127745e-02,1.424891935464477413e-02,5.708072365769786003e-04,5.605244146666682817e-03
3.501467428040935348e-04,4.256974330666495987e-04,4.822994886949354826e-04,3.750079194358587432e-05,3.066026490841773059e-04,1.576181769626944576e-02,2.155513907992599731e-02,6.290048022875441465e-03,7.713236279930432834e-04,4.881198636726283898e-04
3.637386327859450140e-04,5.373725512970916815e-04,5.197104445802878904e-04,4.279910669958375368e-05,6.205177789522192504e-04,1.617750751926567629e-02,1.593468312680881155e-02,7.999327352595533153e-03,9.131014373757093648e-04,4.323125333815437676e-03
3.430780344641507417e-04,6.348933269432104412e-04,5.178254300652292749e-04,4.696293403549300162e-05,1.066014243967567017e-04,1.824920467554955184e-02,1.686188587590502219e-03,2.102258822647052466e-02,1.050978199036510952e-03,5.202752717665105019e-03
2.906579672301166299e-04,7.158842978510632227e-04,4.869994373665621334e-04,4.988478956631831090e-05,7.230203949426196233e-04,2.142862607456655008e-02,1.392137861497342276e-02,2.679569721927119869e-02,1.237523514898742922e-03,7.169324807733990510e-04
2.492104947824738161e-04,7.783777139803876345e-04,1.060545497177034328e-03,5.148816133717257714e-05,1.030399421989015765e-03,2.606283674076858084e-02,2.348503204635917288e-02,2.522005512481681130e-02,1.326419300787748563e-03,1.294782465465928178e-02
2.588954477699425779e-04,8.208623074276648161e-04,4.876140504491380690e-04,5.172929995654564403e-05,8.764513860035762043e-04,2.931055491629093804e-02,2.502344795440393857e-02,1.985421665739066366e-02,1.200266794587397361e-03,2.588028042713036436e-02
2.844358403360203701e-04,8.423208420280097353e-04,3.459457597794874891e-04,5.059820012959934045e-05,8.057445823963617706e-04,2.685357150059322975e-02,2.187221598701732939e-02,1.358500617487044468e-02,1.180547128543698579e-03,3.292356205944128866e-02
2.192064565719294080e-04,8.422555050861859618e-04,5.071155966977437726e-04,4.811875245577238222e-05,9.130771904529628481e-04,1.857081761539550527e-02,1.745675708203177010e-02,7.163990132788042135e-03,1.546388610309294091e-03,3.284771172395493932e-02
1.096201719261841564e-04,8.207005027998153998e-04,2.412803255448364432e-04,4.434806475031473209e-05,9.630648892913593224e-04,8.639662718327910385e-03,1.238666801988229371e-02,6.008516920813892787e-04,1.554643325270623887e-03,3.088545372094925190e-02
1.959438123689942490e-04,7.782215359937093247e-04,1.853674866115993520e-04,3.937497248990057855e-05,9.032900373984748942e-04,6.286957573329626965e-04,6.238596138142662138e-03,5.006792433523404168e-03,3.428462069040042956e-05,3.263474531734977813e-02
4.064013378847548168e-04,7.159021561335507811e-04,3.344074139531805971e-04,3.331777776683914597e-05,8.421076372958769115e-04,4.965568620608525573e-03,2.352178502891298173e-04,7.606792771060000811e-03,2.664915469293490692e-03,3.695887845062991589e-02
1.787517814887478699e-04,6.353173252681325670e-04,3.185811473164769608e-04,2.632127488420320303e-05,8.062803814592970231e-04,9.217668785754015714e-03,5.761124285249568169e-03,6.816288096165579180e-03,4.510794254518607840e-03,3.741973539639598112e-02
6.086632157134928139e-04,5.384948195839246374e-04,1.645846527661497629e-04,1.855313798808270136e-05,7.468351248004177767e-04,1.320319277892116963e-02,1.108547706665384026e-02,5.727132613122888627e-03,4.077005897381534398e-03,3.165681290009780824e-02
1.086780229403078862e-03,4.278654168459813272e-04,2.434390845043687783e-04,1.019976149208127347e-05,6.525448114895477780e-04,1.762957195434613003e-02,1.922325366716585646e-02,8.046902501863698043e-03,2.168488607854642588e-03,2.467270154266483842e-02
6.183252442382771450e-04,3.062030857194999751e-04,4.905597735023435602e-04,1.461657117106827052e-06,5.489795104598640518e-04,2.199455605038203379e-02,3.094385260046099081e-02,1.305273081037897076e-02,9.159864799115803461e-04,2.026205831730969187e-02
1.583872809669544955e-04,1.765566429466765524e-04,2.639193273117588514e-04,7.451478157567927970e-06,4.453805743082351319e-04,2.411094029183731904e-02,4.098697019633355809e-02,1.574428439438893199e-02,1.546643023010337015e-03,1.547565110623336064e-02
3.736682016924406497e-04,4.217455644917571792e-05,5.542803207441849948e-04,1.632590126899572427e-05,3.335078887810722075e-04,2.246432835671644673e-02,4.290220025521214453e-02,1.342969470635382162e-02,3.066144452850731988e-03,7.849272539908021956e-03
1.502459994252638704e-04,9.357525662974098797e-05,1.016557713255747831e-03,2.494904274006404579e-05,2.121796059022154201e-04,1.917099910082713243e-02,3.791926156372600609e-02,1.009191862135802066e-02,3.456936749309684042e-03,1.597844244945954319e-03
5.088843601547691554e-05,2.272886623968045584e-04,5.019311543011496053e-04,3.311467872533091093e-05,8.983013660828478234e-05,1.830156011060115467e-02,3.405356336869978795e-02,1.181176325795219549e-02,2.189967267201803781e-03,1.671815319154498075e-03
1.435897761905269288e-04,3.556095216711088205e-04,2.273933397846339649e-04,4.062792900175481213e-05,2.653915972039973216e-05,2.077012094926160291e-02,3.517290165284546466e-02,1.886163783243722733e-02,6.674310042364499634e-04,6.697527246475520543e-03
1.853672023316912530e-04,4.753128024466471944e-04,3.395430880123395884e-04,4.730995911529035973e-05,1.366956727072745606e-04,2.319724109009200369e-02,3.611464756224742195e-02,2.529929047381902427e-02,1.455150398192163160e-04,1.139013059512265433e-02
1.368511736579927521e-04,5.833845401155252726e-04,2.060671693749455916e-04,5.300227242973349468e-05,2.434043169467918532e-04,2.275073588467596900e-02,3.099496398853859164e-02,2.681332819481109866e-02,3.894960782189909893e-04,1.248220670879475122e-02
1.099457884727755874e-04,6.770966676313504556e-04,3.227161657788510602e-04,5.757048841579261834e-05,3.417306047700926705e-04,2.107318042876341058e-02,2.155602518661479255e-02,2.565852528047083206e-02,5.860753251230987199e-04,1.028320538743387157e-02
1.243704506645856227e-04,7.540748620792452062e-04,1.919747261670026977e-04,6.090751677371000398e-05,4.179635260467577315e-04,2.145097891463258744e-02,1.322789720018940560e-02,2.563312655619031169e-02,5.202323636914783301e-04,6.311293869694593189e-03
1.278405538406884488e-04,8.123577242677768170e-04,5.523565000559750842e-04,6.293605180080253411e-05,4.722938873921016267e-04,2.268791307172265959e-02,6.652888204340146397e-03,2.537439209605309165e-02,4.383045673602987535e-04,1.223176532231347400e-03
1.104178486184087359e-04,8.504458198292528994e-04,1.078370578223825744e-03,6.361032766939032814e-05,5.261704618261367527e-04,1.884204489518047018e-02,1.334947760560113977e-03,2.058160753539675647e-02,4.291634803124077776e-04,3.967175433656169870e-03
9.651669355565822589e-05,8.673393587357761765e-04,6.354569024462957067e-04,6.291709421284787150e-05,5.744685329457060834e-04,7.018688501800943169e-03,1.074658301323095852e-02,1.110656934034857588e-02,3.811420350835426291e-04,6.663567547884113526e-03
9.105965488221218977e-05,8.625635690298388749e-04,1.574513280349825535e-04,6.087579348236183622e-05,5.666940206305543046e-04,7.267127370940185647e-03,1.806945336649548248e-02,2.145171176681643678e-03,2.535081319078641882e-04,6.609733148981818650e-03
8.256807971841922977e-05,8.361811230924952581e-04,3.783741584622459355e-04,5.753793569723739235e-05,5.086457186076161815e-04,1.561531380273671957e-02,2.103442159883681106e-02,1.051848178100183665e-03,1.056598507755717500e-04,8.418768861958872418e-03
6.885268282259991907e-05,7.887912935009434422e-04,1.407990179915968106e-04,5.298568974378265302e-05,5.063613668954794781e-04,1.526626758366885807e-02,1.947651476564579709e-02,2.226602010427121241e-03,3.957302579665426389e-05,1.449884821342735733e-02
5.587084794182270594e-05,7.215158426237751636e-04,3.231198530689076084e-05,4.732972523643132087e-05,5.502846227172189953e-04,9.152829959659658510e-03,1.366961370671515227e-02,8.284813023687697883e-03,2.171928042946351823e-04,1.965530627234270480e-02
4.473373300997575630e-05,6.359719775132037772e-04,1.259607479295329977e-04,4.070636802307504051e-05,4.124495573037040611e-04,8.547429439709119860e-04,5.290344840862177406e-03,1.284895638847118049e-02,4.328629574817746965e-04,1.929286615488770562e-02
3.206607509108184528e-05,5.342330213081961533e-04,1.676098036942275571e-04,3.327414209938975032e-05,1.007676911106296141e-04,5.806502118211798701e-03,1.616471504872683557e-03,1.450169202791467930e-02,6.390901999321038944e-04,1.706529565357688821e-02
1.810574239582249427e-05,4.187777563702411304e-04,1.157438359015021840e-04,2.520977131429126111e-05,1.491776299575382401e-04,5.106671474815207244e-03,3.627511984240294231e-03,1.396439447640179451e-02,8.259433640699436700e-04,1.758889460663454890e-02
6.702636143812188899e-06,2.924296752193765881e-04,8.771875636585431011e-05,1.670373866040742952e-05,8.143900881369896911e-04,5.606510980572352795e-03,2.113794790058460930e-03,1.123826657929374515e-02,1.062395509664701117e-03,1.866165105234351279e-02
2.789737865568989488e-06,1.582876260677297607e-04,1.045229526764355148e-04,7.955542431848025429e-06,1.299702558792272672e-03,1.977968562719928727e-02,2.676800874061211009e-03,6.051751424008330361e-03,1.348394936652911203e-03,1.753090072034196173e-02
1.589626826096538062e-05,1.964955413970687320e-05,1.115613074331782509e-04,8.312281046131968665e-07,6.889189244028617182e-04,2.709861731692746536e-02,9.113012679543064376e-03,6.420007871568507614e-04,1.529212683302187247e-03,1.737013863144522274e-02
3.004513823850080031e-05,1.200687873123896295e-04,9.842183889778818883e-05,9.453937645573515312e-06,5.460041939076889497e-04,2.489680453354162562e-02,1.880116841888064202e-02,1.878736520393413031e-03,1.588671298380486385e-03,2.073086467276822470e-02
3.341329682251892248e-05,2.574181556560216355e-04,9.046282686287168587e-05,1.771595911298257282e-05,9.031580913983470495e-04,1.887678214822969755e-02,2.560929750879797906e-02,2.698442731789953402e-03,1.839813832725409283e-03,2.368181127062631702e-02
3.060655940423797039e-05,3.890010889903178660e-04,9.264269725802558027e-05,2.543148222117119143e-05,1.725889764450230584e-04,1.443323750603225063e-02,2.686499400520785813e-02,6.381838414647133390e-03,2.320348838128190837e-03,2.274529494832932403e-02
4.579957036266982695e-05,5.115560231205596451e-04,9.321439545303920340e-05,3.242992833322794113e-05,1.379426065974170791e-03,1.232866662554073234e-02,2.552858868667362904e-02,1.326773438889188896e-02,2.316819365216164078e-03,2.118674234802363915e-02
6.893806885202469095e-05,6.220381762686664345e-04,9.006610328403764161e-05,3.856014361534684543e-05,1.168328176352969932e-03,1.067365800845792093e-02,2.484232848194799226e-02,1.759205925508089755e-02,1.424138016870243406e-03,2.270820748316366641e-02
4.765983660563279833e-05,7.176951991911481327e-04,8.836917188184758860e-05,4.369434157846655345e-05,2.248653003292322775e-04,7.113259239069719998e-03,2.309040397606029402e-02,1.515316415523972234e-02,5.719112266182627092e-04,2.420211804975426484e-02
1.556432425107695187e-06,7.961357146768351881e-04,8.820797830826343771e-05,4.773110514862950970e-05,1.302259902241351130e-03,6.454763131470363756e-04,1.635083019297506671e-02,8.273428563077209197e-03,6.298096295383192071e-04,2.001977974401976043e-02
4.254193740956009601e-05,8.553890431577247004e-04,8.755228678710864627e-05,5.059720578363022486e-05,1.407316881533806924e-03,6.652343468989911808e-03,4.816050829589770682e-03,1.301514194619685962e-03,8.876777530026771579e-04,1.025919760440490054e-02
1.315923533654617388e-04,8.939546261955995778e-04,8.816124600097848365e-05,5.224946279053139543e-05,1.132757260391123889e-03,1.143631359914089318e-02,7.041396147879001692e-03,4.789714519512202826e-03,5.945721793246719995e-04,8.050811484879934112e-04
2.600784850306157137e-05,9.108399116651591477e-04,8.995425927217062714e-05,5.267699706963204675e-05,1.095169699693800732e-03,1.352270568878818045e-02,1.504396235942815664e-02,1.140381882844716116e-02,5.611911916861783787e-04,3.226616642280315164e-03
2.064366331809309183e-04,9.055857473814971689e-04,8.791161733260625044e-05,5.190113366905105768e-05,1.350725768255826029e-03,1.560200977903842580e-02,1.706209093253056169e-02,1.827423924616124185e-02,1.453366430366174545e-03,1.313588265601258517e-03
2.868351451350335899e-06,8.782786367863293104e-04,8.387643677887463250e-05,4.997203856208430031e-05,1.573830681325293296e-03,1.716372989850567521e-02,1.274414932274234649e-02,2.218785052708039524e-02,2.291507252664219327e-03,3.811735272509458698e-03
7.608143604092034145e-04,8.295495335835722465e-04,8.896591679190957299e-05,4.696790108233706831e-05,1.281641012459274311e-03,1.309508047821322969e-02,4.892882067870136034e-03,1.993775755486466503e-02,2.200363463999208732e-03,8.485441417985449888e-03
1.215801894927505226e-03,7.605591839551197530e-04,9.844665910725157779e-05,4.299879721156391814e-05,4.706575551511191701e-04,1.715542205763299867e-03,8.479769094094284729e-04,1.194006705844970033e-02,1.815146577770247998e-03,9.594938027915325338e-03
7.220787742549618143e-04,6.729703570256946555e-04,8.805065252834816717e-05,3.820296642849336849e-05,2.836266096137280598e-05,1.016740987821665790e-02,8.430650206257580929e-04,1.870305039354581934e-03,1.766402625816559198e-03,6.102464497086711355e-03
8.368276439375092204e-05,5.689076283953732865e-04,6.756069508403640005e-05,3.273076546258792087e-05,3.706801926952210755e-04,1.466074988876300486e-02,2.506009420955146189e-03,6.510888735484824351e-03,1.484864802536180542e-03,3.421254702005594589e-04
3.273999946313156510e-04,4.509056898153659954e-04,8.909416862908088434e-05,2.674256881812824561e-05,1.058325332757164856e-03,1.159835205341861256e-02,3.524867361763757943e-03,1.085801615925058479e-02,5.588120614775980797e-04,6.660795411166863314e-03
1.278645371419014271e-04,3.218474428216712012e-04,1.328543721088432355e-04,2.043165912438686359e-05,1.187362934052597820e-03,6.123995227286728633e-03,3.873378031441948892e-04,1.025433927295522733e-02,1.948032813828553145e-04,1.009014223381008227e-02
5.649713186242330857e-05,1.848933883046389786e-04,8.679007395033004548e-05,1.401657536310010264e-05,8.520726177048328640e-04,1.339301895218695821e-03,7.205826521194402118e-03,5.412425964008713355e-03,3.340476640136067626e-05,9.510423871190821360e-03
1.899911417363780368e-04,4.340404126492388467e-05,9.935823223282208382e-06,7.678202248386102315e-06,6.190080945332852727e-04,2.595707814621425052e-03,1.396207981109267790e-02,2.141722840870414080e-03,5.539869168054401775e-04,6.462919311910534856e-03
2.672130825053779953e-04,9.914272502854438388e-05,8.553773488796252689e-05,1.559893257124621082e-06,6.149094490847505784e-04,5.219955161668040147e-03,1.832704754957346915e-02,1.103938006136324229e-02,7.495637357092335175e-04,4.463596048146795808e-03
2.294009531465390100e-04,2.392373729875274199e-04,3.050669834266370498e-04,4.113141040392484003e-06,5.790436542091914910e-04,5.881381698325921156e-03,1.757556520217742196e-02,1.905180187429766914e-02,3.386954948365191679e-04,5.629234212502510701e-03
2.262423683022052551e-04,3.734253219225745182e-04,8.550550361836619609e-05,9.045972926963847814e-06,3.608202549477059905e-04,5.457562377715846451e-03,1.049398534763566239e-02,2.252937400194160097e-02,6.199192094663634424e-04,7.740622442800237403e-03
3.194838078001590296e-04,4.983923592881084417e-04,6.961818082521330090e-04,1.314389249476806464e-05,1.290657481936989298e-04,4.908825877860569301e-03,4.982391244647817272e-04,1.874983162627043981e-02,1.953145202308346172e-03,6.574657585911652773e-03
3.767045836029946017e-04,6.110467309874754831e-04,1.170131314684703461e-03,1.650747324084067622e-05,1.613466598617661223e-04,3.427688741594824961e-03,1.232841142923627245e-02,8.084405563534702646e-03,3.031621215117670607e-03,1.955714659263162181e-03
2.951613863194743506e-04,7.085958781654908608e-04,6.980142810916136918e-04,1.886887111467099401e-05,2.667224080270474778e-04,1.897261568403402275e-05,2.383022264802933318e-02,6.828470557444161690e-03,3.113104875345621293e-03,1.311352494260909114e-03
2.694470736533272764e-04,7.886159165846102917e-04,8.189511406837583979e-05,1.959920844752993785e-05,3.879872560151540199e-04,4.614665506878937694e-03,3.277270618261962642e-02,2.264579566867757840e-02,2.208459331761462342e-03,1.025895637593421232e-05
5.178580245506684112e-04,8.491121305359971162e-04,2.998932062520050820e-04,1.892254432707920526e-05,2.161109844656675799e-03,8.887522381607877373e-03,3.467064831321441110e-02,3.531488735107943255e-02,1.115911629301440415e-03,3.264716732535641493e-03
6.392654298315656033e-04,8.885689720228161399e-04,7.922328675052708793e-05,1.793983509034604830e-05,3.767906812432094375e-03,1.126250741355323305e-02,2.824298639345935308e-02,4.045938692598857050e-02,4.302024077890471846e-04,3.833845883932960035e-03
1.226689421021045113e-04,9.059883123491321681e-04,1.694217252430531561e-05,1.604296333224176262e-05,3.455328814604664671e-03,1.017165287710661975e-02,1.863094835433241891e-02,3.631668684685473297e-02,1.025937778372689043e-04,5.210291573744564044e-05
1.576698056678247457e-03,9.009149809968361195e-04,7.940879060624206364e-05,1.079987914004103860e-05,1.504257571747125936e-03,5.308500635722180477e-03,1.174725078512705960e-02,2.599264523371876481e-02,2.281598528577022075e-04,6.392143546091741575e-03
2.337945518219521242e-03,8.734489387345308400e-04,1.256049428435304074e-04,3.475773125143440008e-06,3.145291134501170005e-05,1.019305561823555424e-03,7.583009764674339404e-03,1.404462105446797372e-02,1.140125477168805199e-03,1.135255470485547515e-02
1.544401290789735540e-03,8.242437606242686505e-04,8.298575893538529989e-05,5.783768729069975897e-07,1.044960040295229146e-05,5.960562837901180709e-03,1.559990348718646438e-03,9.677505618733127108e-04,2.207839650690161977e-03,1.185566104899381246e-02
6.369266546348001509e-05,7.544914418983684123e-04,6.338854918545587026e-05,3.709941644617873816e-06,3.020493223284503696e-04,8.753152436643329287e-03,8.280613234615439092e-03,1.440329592017131066e-02,2.079893526752042351e-03,7.410169029756738177e-03
7.319598058419399603e-04,6.658938772673352480e-04,8.564870215820156757e-05,1.710724563399115150e-05,5.623519246969281831e-05,9.255189579762622062e-03,1.717769055660664859e-02,2.683962603878597628e-02,7.142504308908616609e-04,1.331783240429032598e-04
6.540201167987764368e-04,5.606216937674664063e-04,9.813106962292043834e-05,3.567020941356386434e-05,4.238300270564568871e-05,6.366295354683162294e-03,1.859502930076291707e-02,2.734374188541361522e-02,4.500241077365718743e-04,6.403696781042749961e-03
4.318248242446248416e-04,4.412614306225990236e-04,9.310800764084672639e-05,3.492350246530496344e-05,7.701184903196657029e-04,1.107409171421798585e-03,1.238647900777437375e-02,1.686848007629069071e-02,6.423380879898205097e-04,9.434714943633655884e-03
4.649260584325233601e-04,3.107523490223311870e-04,9.379974979207014805e-05,2.461450933812512473e-05,1.191762261343151620e-03,2.104469530006994327e-03,3.255009850256084403e-03,7.361293397525957120e-03,5.064649732007694104e-04,9.795224070935597618e-03
5.931023945617505417e-04,1.723144130284629027e-04,1.003875240484119373e-04,5.672224946502330846e-05,5.109211223888691228e-04,1.269957680378932391e-03,7.668777739785344848e-03,4.180638728447138956e-03,6.756792767152651697e-04,1.097394197318199774e-02
6.246480058610774655e-04,2.936920358570728240e-05,1.036750233612749634e-04,1.112071730983425522e-04,2.993889064330692153e-04,3.453310680281790552e-04,2.140477134428400360e-02,1.284152729803151281e-03,9.955139938093598463e-04,1.392785840473199227e-02
5.382077277302259799e-04,1.145442946812085997e-04,1.113366991652153532e-04,7.580627232279895343e-05,8.245082572852681238e-05,2.896788088346849335e-03,3.285242396038724755e-02,1.530199733362056988e-02,1.180715239097634636e-03,1.594373108922985185e-02
4.575764242368289460e-04,2.558569640162140757e-04,1.242334361013840778e-04,1.049357709800096428e-05,7.496547204442855980e-04,5.759057511076547120e-03,3.454279730355098305e-02,2.967050811323614784e-02,1.272715532868774497e-03,1.610361730479971734e-02
5.883349907219505856e-04,3.910577321923599040e-04,1.216617738079234175e-04,9.497048186383048765e-05,1.070379618740124016e-03,3.410336563770706257e-03,2.736520568316947594e-02,3.295301120314937660e-02,1.388693571373365377e-03,1.723066762103980451e-02
8.148858218254384327e-04,5.167804835564204866e-04,1.098163712226689852e-04,3.238478546642644274e-04,5.348170915503556609e-04,3.801127663196585821e-03,1.798964144970792781e-02,2.419028807752665600e-02,1.537560546918325831e-03,2.062272380278184700e-02
5.832404008483012270e-04,6.298875538623632895e-04,1.349156904428076007e-04,1.128144038981463543e-04,3.406994891936767494e-04,1.002649370872780651e-02,8.746369988274133034e-03,9.978579948840764213e-03,1.680870320311373886e-03,2.355431505073768417e-02
1.907880544534125400e-04,7.275477404901798534e-04,1.806176247370689574e-04,6.613324854187910360e-04,8.887986338147538246e-04,1.142996351218184860e-02,9.565836198254244922e-04,3.237750105509374417e-03,1.740883585208037555e-03,2.333773188380539737e-02
6.234952168519600603e-04,8.073068910221768701e-04,1.463910575252104810e-04,1.128905754369393050e-03,9.608963341059495412e-04,9.831634727119984568e-03,7.382577603235212192e-03,1.004002213390846679e-02,1.683564033492763274e-03,2.010357059600003174e-02
1.289002081252471144e-04,8.671493125675641721e-04,6.587324620421742497e-05,6.517056333342747089e-04,1.008319796529441722e-03,8.885585578640910892e-03,5.579022809724676520e-03,7.606580598987125463e-03,1.690288167121085493e-03,1.526788642524215707e-02
6.090705116045390822e-04,9.055484673571109625e-04,1.573581049635612193e-04,1.319450140789480341e-04,1.225209683306519113e-03,9.178093135359416399e-03,2.602183367281611474e-03,5.576604396529882476e-04,1.894654299999582207e-03,1.008372150328045759e-02
8.191752245454245749e-04,9.215056815559811206e-04,3.627072662198449243e-04,3.522627203674814824e-04,1.066565081115764283e-03,8.037285499804758260e-03,9.978191873908231341e-03,8.531884573883539644e-03,1.869842708229901623e-03,5.908031351729005516e-03
7.423469877821306778e-04,9.145758875932914452e-04,1.709452527716777859e-04,1.323263744814028573e-04,3.041279137615585625e-04,3.435700663140789542e-03,1.244239449838023537e-02,1.504285846525205833e-02,1.010599062493416737e-03,4.303326220978100948e-03
7.120208696776290144e-04,8.848797384107072363e-04,5.609179758872006628e-04,3.530374074499309875e-05,2.070254462043719578e-04,2.878590356313912718e-03,1.190280410846607934e-02,2.114679341809248131e-02,3.963343701726211566e-04,5.797755609908859450e-03
2.589705362199235753e-04,8.331017670943852366e-04,1.075321265316013476e-03,1.294821179498573918e-04,2.192718429061878225e-04,6.925869953060794643e-03,1.112360857054024710e-02,2.461005843815976951e-02,1.297832115083328349e-03,8.567254234528682774e-03
1.042343035181591193e-03,7.604746091461494530e-04,6.950461573580718304e-04,1.722288351814598708e-04,9.529368453345131483e-04,6.694603676407441702e-03,8.502122776556108458e-03,2.240472138590769713e-02,1.333427725087080098e-03,9.732514953130346619e-03
2.595552655892167070e-03,6.687496487105442158e-04,1.845932077945256042e-04,1.244168226276420809e-04,1.103184311189891673e-03,3.615340340917153755e-03,2.057823788382826327e-04,1.495139822651711352e-02,1.291388984261980814e-03,8.138516628846032691e-03
3.268460740804369612e-03,5.601547859202958470e-04,6.261103868767560346e-04,9.800628596090015161e-05,7.909024708783441403e-04,4.448715877891140430e-04,1.435636355738866346e-02,4.918506397766116492e-03,1.729578812641717868e-03,4.412816240996042527e-03
2.552815393497265533e-03,4.373403418548676936e-04,1.890919138706108143e-04,1.131407465475759599e-04,5.915646184768902967e-04,9.907794732508783814e-04,2.412041209232525935e-02,3.423731792058336623e-03,1.998235128561222113e-03,7.274186901733653652e-04
9.952528072751285447e-04,3.033144125164776318e-04,6.875054638505708393e-04,1.183493236641543580e-04,5.775514328166677465e-04,5.562107518880955292e-04,1.849653307302734362e-02,4.249306850930671849e-03,1.339353559289494216e-03,6.107285195422900576e-03
3.779031916946559342e-04,1.613692463921449880e-04,1.065082701814508166e-03,1.035830955983529109e-04,5.037864174425014550e-04,5.217288101751255038e-04,4.428041964355303693e-04,3.465040937145776739e-03,2.834999999548995270e-04,9.735934053601943972e-03
9.653219022640542645e-04,1.500044503340228620e-05,5.456997844244678396e-04,9.218381905250161120e-05,3.329387821633695167e-04,1.029534232565461815e-03,1.719687048102098992e-02,1.183131625960427875e-02,1.353964325417482710e-04,1.141845325964373215e-02
9.491218865578786865e-04,1.321790329779256299e-04,1.919863596505858440e-04,8.987837941733631709e-05,1.822499557801435027e-04,1.245302586533870298e-03,2.013753327599566295e-02,1.373051721512288589e-02,1.973901959860349019e-05,1.387776391381545342e-02
8.336635609152333185e-04,2.765279518531661013e-04,3.849767119456854922e-04,8.797929090077963982e-05,7.503309062171386636e-05,2.493635441406787112e-03,1.275360204195055691e-02,1.282153068363839181e-02,1.459422161236993741e-05,1.864904484279686359e-02
8.546362601876268499e-04,4.144667687776241874e-04,1.787413817387124740e-04,8.297856611139447418e-05,3.892834530645140532e-05,5.181791672252799262e-03,4.710798972402613707e-03,1.661980918060445428e-02,3.367957866563822634e-04,2.279276101833401999e-02
9.446141534244943336e-04,5.425662743567347818e-04,9.578311685939865073e-05,7.501542587273991793e-05,1.668758042182873192e-04,8.403523555314797167e-03,3.101383020253451134e-04,2.423797616596740784e-02,1.804558968578632606e-03,2.214458555977978291e-02
9.893595467037733827e-04,6.576327112946232529e-04,1.894026334723153480e-04,6.789976620450723869e-05,2.812575652858754897e-04,1.145336211016687554e-02,3.776193330863938848e-03,2.802251245416829961e-02,3.623126045688388787e-03,1.654646154429731050e-02
