9.378643586296022024e-04,2.705043118803457033e-02,4.769034713912213841e-02,4.107603681639261650e-02,3.321515689937615950e-02,1.459022624480429964e-03,9.876310798485296583e-02,3.997386732945288138e-03,7.949197344809465215e-02,3.720732799189511997e-02
2.189407097240850340e-03,2.838526346545746509e-02,4.677987558936499285e-02,4.061726677992136270e-02,3.398253987292673695e-02,4.705005271071340672e-03,1.060886165573706602e-01,1.153550588664556051e-02,8.157007911150439272e-02,4.000006918265453654e-02
3.156878962395283806e-03,2.739964861984294300e-02,4.234255505443375311e-02,3.864757439510733972e-02,3.585957183331515974e-02,9.415740530613609174e-03,1.072196918611866140e-01,2.654253585263591925e-02,8.580686498585363142e-02,4.401987221456869770e-02
3.257418777697164251e-03,2.728663916010767160e-02,4.022251846067562836e-02,3.906558160437204053e-02,3.831180307806866803e-02,1.367808160287430248e-02,1.001269954591070127e-01,3.797486041133346646e-02,9.431361117085312884e-02,4.731129772736945155e-02
1.323542724262371899e-03,3.085895157288306642e-02,4.359136862405453561e-02,4.367066268415542574e-02,4.093961106572754222e-02,1.551663555881198364e-02,9.268076294756069644e-02,4.290840851226412206e-02,1.061229621433030373e-01,4.694961733396238457e-02
1.775764683729344831e-03,3.720701178049991287e-02,5.052652599431220470e-02,5.080125040750337051e-02,4.456473715580027556e-02,1.065275771217642775e-02,7.599085480407642701e-02,4.117725817346461203e-02,1.182330691838874293e-01,3.895966260284431520e-02
3.561400777716477745e-03,4.382578121149011824e-02,5.798453191665663142e-02,5.789024116881821141e-02,4.976395194109691639e-02,2.136664542934388344e-03,3.314533993789566674e-02,3.406780380864872504e-02,1.284556106773578621e-01,1.671094013096475345e-02
3.406763198888378141e-03,4.946457336117065368e-02,6.445581631295498048e-02,6.331021728912236690e-02,5.499973161398382521e-02,1.832947880786016739e-02,3.103102539797950032e-02,2.181546175929145390e-02,1.359681137173917587e-01,2.095157887261482263e-02
2.899274241751148475e-03,5.320878298520054228e-02,6.932772479666453325e-02,6.665304989494429122e-02,5.760404785235910541e-02,3.159534803049164620e-02,9.154233897240837692e-02,7.419406422430959054e-03,1.411946044546699419e-01,5.829709251738033476e-02
2.996314019068250373e-03,5.386050003336335934e-02,7.264360223685085993e-02,6.861280078624557022e-02,5.645494586750168103e-02,3.885055468108740417e-02,1.285635557001372775e-01,3.192911789698478151e-04,1.470512537053617619e-01,7.692076903637250218e-02
3.165930890612579738e-03,5.274655210675806283e-02,7.516951011782449510e-02,6.979187515086474058e-02,5.272000596559639485e-02,4.122717715198359612e-02,1.377945648844536297e-01,3.941649691973221972e-03,1.566829067440248802e-01,8.283994662442888124e-02
3.058903649136152786e-03,5.442473689266594250e-02,7.742119976146102922e-02,6.985816576844879056e-02,4.867866987928588102e-02,4.275078124395573914e-02,1.255723858493704714e-01,1.154638699943496410e-02,1.669886357620657125e-01,9.554362721075741749e-02
3.089876226933614776e-03,6.089251609690661537e-02,7.900125873086985551e-02,6.879648896925009971e-02,4.647714594223919388e-02,4.801356795059394389e-02,1.032331640001169781e-01,8.214187748277064841e-03,1.689909328130484722e-01,1.100686671070909700e-01
3.267621494126695791e-03,6.641212266116240659e-02,7.844932097313925268e-02,6.722174543047611250e-02,4.633498502561850252e-02,5.759662047769410764e-02,7.990362345783989795e-02,6.257115820313157405e-03,1.590800217725335530e-01,1.018964415418169844e-01
2.966649263074831039e-03,6.234977043738419017e-02,7.282793625513372948e-02,6.414661924638456747e-02,4.534749232889554588e-02,6.561911224430427847e-02,5.836792074357625981e-02,1.540284275088507453e-02,1.456056193890071238e-01,7.303516598830621376e-02
2.256461654900746450e-03,4.721300848310036602e-02,5.877793476214941693e-02,5.628606184207640001e-02,3.998868463442119270e-02,6.550556427179979324e-02,3.982192112911472209e-02,6.887601185764837680e-03,1.386815632475854043e-01,5.860250734381763221e-02
2.019429493690700402e-03,2.804669671087429983e-02,3.619331614407658715e-02,4.105154300132288214e-02,2.983510851028967070e-02,5.830796446065366484e-02,2.612912580748362468e-02,1.027127087604128887e-02,1.368180952649178939e-01,7.797503824655491189e-02
2.273879844401082394e-03,1.236443349633712524e-02,1.141923637638382963e-02,2.066333084293546854e-02,1.767328730039736256e-02,5.158315176458799778e-02,1.463912380802217562e-02,1.586365039390036369e-02,1.304996305263037282e-01,1.079365812313350659e-01
2.147124446464170576e-03,3.715780027487232667e-03,5.136235712478767236e-03,3.603529377972002068e-03,7.504440986922888274e-03,5.036140679264666103e-02,1.480719863378574495e-03,3.049459960807303534e-03,1.164834201278588111e-01,1.154640425908742274e-01
1.839966482457734958e-03,4.167783698775139739e-03,7.619701630660314327e-03,7.143566724300302526e-04,2.980595268440284704e-03,5.349468447596736342e-02,2.604538294156489436e-02,1.635488708984556699e-02,1.006904498209250931e-01,9.568637926750894751e-02
2.343359513906842148e-03,1.313919254194296019e-02,3.997663841139144705e-04,7.797657493844570645e-03,4.854342599324771440e-03,5.817163903229178451e-02,5.555169134210859172e-02,3.020512603948500782e-02,8.920473120722796634e-02,6.732451018863945535e-02
3.101692869883297850e-03,2.241778838435066340e-02,7.791680668377541294e-03,1.738978713569967055e-02,9.330422700890631665e-03,6.304724582781152942e-02,7.685406784927137358e-02,3.651240260132836146e-02,8.372623566004731843e-02,4.771929253209749450e-02
2.512192590075259819e-03,2.067735034045607018e-02,1.287112712888855044e-02,1.699491500068457672e-02,1.169066091245448899e-02,6.754353918563418824e-02,7.125166730257148640e-02,3.457376812034463481e-02,8.215406913226133701e-02,4.269565161747220644e-02
6.135856280438011434e-04,6.484484689238113192e-03,1.483929646346332509e-02,9.305832599804268745e-03,1.156808271473911895e-02,7.235308248780152052e-02,3.536922556499632470e-02,2.241006271885508105e-02,7.827802097913995338e-02,4.841396039190255796e-02
1.261174105430062356e-03,9.313140388177008899e-03,1.305324495990138091e-02,5.790181566984109116e-03,1.194568090789631734e-02,7.925004702026804126e-02,4.214837416132247508e-03,7.600870470785700377e-03,6.829845471018394787e-02,5.284449654382503136e-02
3.148563581887195602e-03,1.676201768567135361e-02,7.402436059485919748e-03,9.979196176802736587e-03,1.354030692606901162e-02,8.738610296680805745e-02,1.733881743952667143e-02,6.357098518271229147e-03,6.152973298126871576e-02,4.255990081679443537e-02
6.175278628584917814e-03,1.672491019058796810e-02,1.234372576197456900e-04,1.261802002268380511e-02,1.337313844995698456e-02,9.267193973460639833e-02,1.030512899797306550e-02,2.748068545660876938e-02,7.208135433725607055e-02,1.586057561257281021e-02
9.746329187094289470e-03,1.591140657181544862e-02,9.022026241819670889e-03,4.862872429655474248e-03,8.758468795415414246e-03,9.325580952706809257e-02,1.697919026012982557e-02,6.406424249669764870e-02,9.432396946468385446e-02,1.325434534552857348e-02
1.134809611968688389e-02,1.816776882855367786e-02,2.089535327287375677e-02,9.611579733264569159e-03,3.064030303472510390e-04,9.201751588360630729e-02,5.126563760466656267e-02,9.664201601747776649e-02,1.014465170565877900e-01,2.700853597329253009e-02
9.456811791933640923e-03,2.313100849930734351e-02,3.425129864485667447e-02,1.921608534157640685e-02,8.651442728480035482e-03,9.186716685194391829e-02,9.249466067612188702e-02,1.003010712080147776e-01,7.662481810563134821e-02,2.010355927305560939e-02
5.160323356054589972e-03,2.830305836181573956e-02,4.439591974443145989e-02,1.819955101232996822e-02,1.446751952173556087e-02,9.212618758746164704e-02,1.159929943132913671e-01,6.270974072840174163e-02,3.402195174983108777e-02,6.075227178884196402e-03
8.178126637574222989e-04,3.069046170044396893e-02,5.131339594511547669e-02,1.357882483659740049e-02,1.703117801583579199e-02,8.939937719129804894e-02,1.156626478341886699e-01,3.225142727775791741e-03,7.178129698669269681e-04,4.611117852319631186e-03
1.935726952118504074e-03,3.195359350959492417e-02,6.324338070627752439e-02,2.072794200828003211e-02,2.322004639736880219e-02,7.767142690509162839e-02,9.852241293919943022e-02,4.071881102380295325e-02,1.777859477330105686e-02,1.781682439912277496e-02
3.016373751239083238e-03,4.211594062509749908e-02,8.878991880618335164e-02,5.218139237341434811e-02,4.362122972683204342e-02,5.092786632142057290e-02,7.491697966372319606e-02,5.325675243220136246e-02,4.661502089855798503e-02,2.653816266823748327e-02
3.263386251725990811e-03,6.860103513423762567e-02,1.251956647357376218e-01,1.050901356809941928e-01,8.041604856677092572e-02,1.292960690553383168e-02,5.560254558791361684e-02,5.116443452069570352e-02,1.074030941128992916e-01,1.629146015629674010e-02
3.040427006321525828e-03,1.004038766502210883e-01,1.558852904554000329e-01,1.576262049646828256e-01,1.188824686659200741e-01,2.113178562968990801e-02,4.919591514059033777e-02,5.186925366371018115e-02,1.773297141456216808e-01,5.338949526445892040e-03
2.086024911155319288e-03,1.160241995538832671e-01,1.638026313418531055e-01,1.845102553553094882e-01,1.380628335907414517e-01,4.141008504745936208e-02,5.608185652189175835e-02,5.052931930357419665e-02,2.056476250569320707e-01,2.219079341457222410e-02
9.299891490079997217e-04,1.094133797253162704e-01,1.491211797013370643e-01,1.796383576335009724e-01,1.319666235522783115e-01,5.422938980629690708e-02,6.561676049700986002e-02,3.868304745091392938e-02,1.824567773059405373e-01,2.675031257231020101e-02
8.943604806315677168e-04,9.469111042298632153e-02,1.293311754337184982e-01,1.578000098784120009e-01,1.137376779388043907e-01,6.944808300375887589e-02,6.788312315152898735e-02,2.681936889109216848e-02,1.652129240750882799e-01,2.283844620797256461e-02
2.111270130251912715e-03,8.473069608153327437e-02,1.197564294803902529e-01,1.344485677843527960e-01,9.814638853456499057e-02,8.863712215216938695e-02,6.684751061091474822e-02,2.888733202967256469e-02,2.110983401822142391e-01,2.103733859807822154e-02
3.172072612828135633e-03,7.946652078842386668e-02,1.194411976589001279e-01,1.147045679343770552e-01,8.876986791608448835e-02,1.103661981343851545e-01,6.824793138832715989e-02,3.648242616039357178e-02,3.006053094875695275e-01,2.659153890195466857e-02
3.174077493651678537e-03,7.545272070838167366e-02,1.184578091627572077e-01,1.022976197721394420e-01,8.398930584846767133e-02,1.329549468027293457e-01,6.028726368498715793e-02,3.534820605360693840e-02,3.592460492562166152e-01,2.997240460983512794e-02
2.723376864405263522e-03,7.256429833618165126e-02,1.112332765681371960e-01,1.023297730908566544e-01,8.449519029846069840e-02,1.494825783839853206e-01,2.803232876178614330e-02,3.912719991669987712e-02,3.455467641336774642e-01,2.107091524565296234e-02
2.726524964096558798e-03,6.892914728252295953e-02,9.763372565067698905e-02,1.094712350541967583e-01,8.888856345348637722e-02,1.559001728505865214e-01,1.644388525247749908e-02,7.123928558732876837e-02,2.893083408949049806e-01,6.781468696728786341e-03
3.131487128795194634e-03,6.038110660749863162e-02,7.889698483496528081e-02,1.088214274374318391e-01,9.015640960312268359e-02,1.657719325241726605e-01,3.957759371069195786e-02,1.178394010598226987e-01,2.473003099073283473e-01,1.424146503911665265e-03
3.063729214763423903e-03,4.707934667839022008e-02,5.859570283818055225e-02,9.432478377129209501e-02,8.292644730241785500e-02,1.976806913296039470e-01,2.350692855571024503e-02,1.380102632454763001e-01,2.433318742954329039e-01,5.518946865300832991e-03
2.064316998554539036e-03,3.234738311100187474e-02,4.096524792655211605e-02,7.369809889574327477e-02,6.891777939401373676e-02,2.423421428816669165e-01,1.397852258652017288e-02,1.192735375563991618e-01,2.573941990361486298e-01,9.729624303864609774e-03
9.012325512897925370e-04,1.562030034336847964e-02,2.514511026639911981e-02,5.338590146140721748e-02,5.197310702987503056e-02,2.627004500906606754e-01,3.738009133710323839e-02,8.801728682072844367e-02,2.630010233048714618e-01,7.895027421357210182e-03
3.994887896929216037e-04,4.980763091611993196e-03,7.924598655899560071e-03,3.141960246630048914e-02,3.301687140138399867e-02,2.354797284771992516e-01,2.486771711972384294e-02,6.712409094811705446e-02,2.554701820789337385e-01,4.437521158997725836e-04
1.893593923028508499e-04,2.499210186723564014e-02,8.320324104270809470e-03,6.278532134822470759e-03,1.200546854658450513e-02,1.744910352865498282e-01,1.741935052583570842e-02,5.328539133850633547e-02,2.364111990327058266e-01,2.756894768151199084e-06
2.149929668113684245e-03,3.685707533887926102e-02,1.830618594573414637e-02,1.753106444011942947e-02,8.822947438569093623e-03,1.077713355000346346e-01,6.307743029039490634e-02,3.430752126361708010e-02,1.959301423738137871e-01,1.542034052836792346e-02
4.929727652656973672e-03,3.891784988619809149e-02,2.213621301769876093e-02,3.459521689512522896e-02,2.504852705248885106e-02,5.095649842514555355e-02,8.392987449268858591e-02,3.506851148133147307e-03,1.303732972623654340e-01,2.738775416927828263e-02
6.756515393658849705e-03,3.527644414742153733e-02,2.382680948090054249e-02,4.407315546611440676e-02,3.342087474851909018e-02,7.962501240144696096e-03,7.076664689610212555e-02,4.303049236484084855e-02,5.894545594291270701e-02,2.258474642608479521e-02
7.424192106514071465e-03,3.096997610984274230e-02,2.555839650891424814e-02,4.925869278071270951e-02,3.608592863952896773e-02,1.941869834120561050e-02,4.250750361806227007e-02,1.029056406325420253e-01,5.823517959934902677e-03,1.761982610357031367e-02
8.193306929270727235e-03,3.174430537402916225e-02,2.881249355315053384e-02,5.282496689486152613e-02,3.911431515614254006e-02,3.073927295600751425e-02,2.866856976160768455e-02,1.591039751623166687e-01,2.016313518425250084e-02,3.116704756444637139e-02
8.942258909692610974e-03,4.082573187350876237e-02,3.493253162033624348e-02,5.245476427218630222e-02,4.404456488992308794e-02,2.679138041178904389e-02,3.853206787413254730e-02,1.894466086935753801e-01,2.103271565285281391e-02,5.080029769594189559e-02
7.941261994013468564e-03,5.115381075345318967e-02,4.027264046419780363e-02,4.441472635506592270e-02,4.510292776702863604e-02,6.931197523806043731e-03,5.335097908573264991e-02,1.872105478119558963e-01,3.925893073533182759e-03,5.274621777488260055e-02
4.818082389902574210e-03,5.051694253189371875e-02,3.877868968100973285e-02,3.315986954579805412e-02,3.921392472756576875e-02,2.470784924687064940e-02,5.385165306746736436e-02,1.683554840357954219e-01,1.199685064388513606e-02,3.903635647205690173e-02
1.440662019524941665e-03,3.850404271833378356e-02,3.238262493662630997e-02,2.982936059401296303e-02,3.294977371821805612e-02,5.088456505574555366e-02,4.798039034048406232e-02,1.607537099007169679e-01,3.850266141934993031e-03,3.060452294744093679e-02
5.874209069618781687e-04,2.809742535799686358e-02,3.025689303391781992e-02,3.709857719036348256e-02,3.330587562621682707e-02,5.234920051308161737e-02,5.737261264021048524e-02,1.843300898545276456e-01,2.390643878856200943e-02,3.535722270021861985e-02
1.417516297725789727e-03,2.869431943992489104e-02,3.701451396944754196e-02,4.579789031737467597e-02,3.811233472895128593e-02,2.758603998976692090e-02,7.908006066982871396e-02,2.333750200460200375e-01,3.351366763242455415e-02,4.524008082505848877e-02
1.755920087372661413e-03,3.790495306367204498e-02,4.987172294913762294e-02,5.065475333384764078e-02,4.229637679806791395e-02,9.158891837554899301e-03,8.194286665294144012e-02,2.784595006028736108e-01,4.191338309195592055e-04,5.639622512028519274e-02
1.813513708101290815e-03,4.919195005027260370e-02,6.486967704466314877e-02,5.543729526449644313e-02,4.562907296253205375e-02,4.484685341115630247e-02,4.646672502879239247e-02,2.935748479280813061e-01,4.780909887004879122e-02,7.311848466386311474e-02
1.658309001438255503e-03,5.732765379808823364e-02,7.754006426411108599e-02,5.911479083319071126e-02,4.749967336224442116e-02,7.304426763921775811e-02,1.000233166519709158e-02,2.845644210020433773e-01,6.302675601560332741e-02,9.444796353569610836e-02
1.504336633215327826e-03,5.809983735901274454e-02,8.194681231607925387e-02,5.442461526894602081e-02,4.372652526516398325e-02,9.137445025153849432e-02,5.498674775196722708e-02,2.841000522779004722e-01,3.407225045985418088e-02,1.088794662370306671e-01
1.445911647968687631e-03,5.101574750747422948e-02,7.685876292794459330e-02,4.381187006031830172e-02,3.556157633533815060e-02,1.025142059804352440e-01,7.349358955829965456e-02,3.089705288420938611e-01,1.017486980399999984e-02,1.059773294753167533e-01
1.397917063875986137e-03,4.099325138385901540e-02,6.851614814046790014e-02,3.915677411792470308e-02,3.193494864719258197e-02,1.084893540712035531e-01,7.138168888244125765e-02,3.299552601888143810e-01,4.039213186304503600e-02,9.065078143190911930e-02
1.311137880665895006e-03,3.341723176779204385e-02,6.230651374477035043e-02,4.247193127573731242e-02,3.640838325322749008e-02,1.012464245012721642e-01,5.863198762835179073e-02,3.061927952772686146e-01,4.911360034916432971e-02,7.879117659470596946e-02
1.224733707143135699e-03,2.983869556461177242e-02,5.660288099907598292e-02,4.241622733037212628e-02,4.095065314935606576e-02,7.300970441891492524e-02,4.228226055935918604e-02,2.432248854402704608e-01,4.811184684051289517e-02,7.558121123486609416e-02
1.162910084740840936e-03,2.898981794810042908e-02,4.815899756114762342e-02,3.264515488330692328e-02,3.766599040028164452e-02,3.608577063188499884e-02,2.839793520646789748e-02,1.829687950057843904e-01,5.583297065136026693e-02,6.883567691682897227e-02
1.107914306001167104e-03,2.836146172239439878e-02,3.893668268986705261e-02,2.101878005544650582e-02,2.891031582839044545e-02,1.453272147654568504e-02,1.819321678632983968e-02,1.429048712247990016e-01,7.456533482803326396e-02,5.033738507245433952e-02
1.048592283953609207e-03,2.556667257898320375e-02,3.422834106277356653e-02,1.773016240148821837e-02,2.196601201449646656e-02,1.548036222307601698e-02,1.011352377504493548e-02,1.082724562336934981e-01,8.520501990127388181e-02,3.114373205731820610e-02
9.936746016285359986e-04,2.111859665153088123e-02,3.637012987924955615e-02,2.334482526991584622e-02,2.012171687973612552e-02,2.440712747513560862e-02,1.241970048291949485e-02,7.280606772062386822e-02,8.340067696754979720e-02,2.770647720654123569e-02
9.482583195462102391e-04,1.743244851313604030e-02,4.255667270257135898e-02,3.159096648459514683e-02,2.231800219957365619e-02,2.641683398701418634e-02,3.700653401967379102e-02,3.840091394068092384e-02,9.713663492687785173e-02,4.237531935265215211e-02
9.072921507797661409e-04,1.293603379507034246e-02,4.711346264797771494e-02,3.762534533465974884e-02,2.647310301326152859e-02,1.792906371589687159e-02,7.763503609508738690e-02,9.686732091273027312e-03,1.335599782126848378e-01,6.090844501982453640e-02
8.685366124630919003e-04,1.863609431451141753e-03,4.449880988208507887e-02,3.955353553164715763e-02,2.932645666349131125e-02,1.766575690302011996e-03,1.165717716463799958e-01,8.814669446272718756e-02,1.397012661143436085e-01,6.115515899156398483e-02
8.358548264203781181e-04,1.662701971879604335e-02,3.337541072895718053e-02,3.581184209926439876e-02,2.624368238534369527e-02,1.668574421413257167e-02,1.507594411172351323e-01,2.006722470368386968e-01,6.884873897044971325e-02,2.739687751442486732e-02
8.088863931620905376e-04,3.374624543528502441e-02,1.930143496073596227e-02,2.649798012007063136e-02,1.544957428830627533e-02,3.087847963516453936e-02,1.851173163020972401e-01,3.485573871722593697e-01,3.832917777052611413e-02,3.249219693017350169e-02
7.811323126663062858e-04,4.041564768686254500e-02,8.763982356522911910e-03,1.587741179713220846e-02,1.307232370105678061e-03,3.776841185182108762e-02,2.050274310856908255e-01,5.109864867693230117e-01,9.632064216744194718e-02,8.698076842619975602e-02
7.539852262082795235e-04,3.878674067009824783e-02,6.314425971621750316e-04,8.551701629876493072e-03,9.839062710845815352e-03,3.999163377688220306e-02,1.864430386892098890e-01,6.263897263839367513e-01,8.000585198507734197e-02,1.082583955354389782e-01
7.386206854656296233e-04,3.916342323838915840e-02,9.667792589562147071e-03,4.120667940609565663e-03,1.596820136077942501e-02,4.120648417609901887e-02,1.378473889281793818e-01,6.490894264102344824e-01,3.387575261173737806e-02,9.811746247747389627e-02
7.298430121994316623e-04,4.655602802070839263e-02,1.981025782130095558e-02,4.003061204987997529e-04,1.912084622188119087e-02,4.083123439511429642e-02,1.086663806415083672e-01,6.018629486904094605e-01,5.289954517798976796e-03,8.178148271683005621e-02
7.026723922024402267e-04,5.664275189290549767e-02,2.377265223132313254e-02,5.305762296802739829e-03,2.122778244895870067e-02,3.509587927171387012e-02,1.392475770334513085e-01,5.310990596364669747e-01,3.991881529168741366e-02,8.110686814094270058e-02
6.664316742717230806e-04,6.471744559342683389e-02,2.250428694324245818e-02,9.005338487608007675e-03,2.282273466974636678e-02,2.224575590917778761e-02,2.096527401402903668e-01,4.507250671598190817e-01,7.351156754577768682e-02,9.785937627409067863e-02
6.728837844696888490e-04,6.999446547068348401e-02,2.140880024922343916e-02,1.083390703003136654e-02,2.340520243692673780e-02,5.389984146785349074e-03,2.594540133225770040e-01,3.652979121457446410e-01,9.154841296862822886e-02,1.177900141750773816e-01
7.017717062429509618e-04,7.002495247460795158e-02,1.972527851651969394e-02,9.801835699835744972e-03,2.108215976829883043e-02,8.282291633563462763e-03,2.586633999959591645e-01,3.003787842317215406e-01,8.959603448946798498e-02,1.255419902130429644e-01
6.406580340997424568e-04,6.099401716084160152e-02,1.258831581988508093e-02,3.873217749464172993e-03,1.421006461337079654e-02,1.210410040194638201e-02,2.301845280012584372e-01,2.691359812324123912e-01,8.592360069873515582e-02,1.168339290205148290e-01
5.285001678739341532e-04,4.687515180422657801e-02,3.243991650898302159e-03,6.128963304918219439e-03,4.819914897463759354e-03,7.687373003457871959e-03,1.988129545510961271e-01,2.430701114927625861e-01,9.441910400139602588e-02,1.007328503062420583e-01
6.078601586819206825e-04,3.939536729727925735e-02,2.962923983797220891e-03,1.458015437293647132e-02,1.974261464949243327e-03,5.338720575291955490e-03,1.574017626058765718e-01,1.922133308900617343e-01,1.099839523573440392e-01,9.123138365150090801e-02
8.101790861548613040e-04,4.366341200014359214e-02,1.445436382498401819e-02,1.693198590119906338e-02,3.908029364242367534e-03,1.218901100498193113e-02,9.707639770738564489e-02,1.275787551885496363e-01,1.273820508072916191e-01,9.272950044887581789e-02
5.723571167636849928e-04,4.995239275755471164e-02,2.438181836527772081e-02,1.512076813190686708e-02,4.403829140646606938e-03,2.424442746132869989e-02,3.615341738245712866e-02,7.214575469875915414e-02,1.493953039370382041e-01,9.408122606722077452e-02
2.281350644482483300e-04,4.640658849412015313e-02,2.153880084893615432e-02,1.249115489202741805e-02,6.432744016423627004e-03,3.369975824305359441e-02,1.324756453803376671e-04,2.163701426238293091e-02,1.700284995147971212e-01,8.230494684933217786e-02
7.216753288751902827e-04,3.605574907974943427e-02,1.423418829029750310e-02,7.136138842500824517e-03,6.909614196580227477e-03,3.860066719710197186e-02,7.805953720024690068e-03,2.608646904299737751e-02,1.736691640326899766e-01,5.854714912963178419e-02
2.709020862781620262e-04,3.235239211749060817e-02,1.640161333489953410e-02,3.041816573968868665e-03,2.359505772152579312e-03,4.220228572068585732e-02,4.671746823371600993e-03,3.721849054652512367e-02,1.599583673840629106e-01,3.273231414396661487e-02
4.867898214704958516e-04,3.854011408691492002e-02,2.463472899904423433e-02,1.323728703592071121e-02,3.423407961749201818e-03,4.718036703082905542e-02,5.745315034640544744e-03,9.475575872119904042e-03,1.499251187017213716e-01,9.477562032466069902e-03
6.844189310036730318e-04,4.162881343145385937e-02,2.484798730381313978e-02,1.753457953241802092e-02,4.174931176481598213e-03,5.287938852892332120e-02,1.072602292284875400e-02,6.770624962725613205e-02,1.568968991789193024e-01,9.884447409776795160e-03
4.442910816870871402e-04,3.071548651429449259e-02,1.436041366342263523e-02,1.703441076657419284e-02,6.019707339082927110e-04,5.595880889416657289e-02,1.164636347325240240e-02,7.217855157348279649e-02,1.680828843867560596e-01,1.896499558774930247e-02
3.248365675413218863e-04,1.327697400263896065e-02,2.550917924758991373e-03,1.552729009580572361e-02,1.530025344133611759e-03,5.264833671189048797e-02,1.327644133994520560e-02,2.196271300756960643e-02,1.666356932352454079e-01,1.357414146212422047e-02
3.972430011069957661e-04,6.110144784744584931e-03,3.284480303566126008e-03,1.310913747260943757e-02,4.988326473907863214e-04,4.183965688078842421e-02,3.268955821423598362e-02,3.175065208171098247e-02,1.553846422575586583e-01,3.847721112255505366e-03
4.305150607337912268e-04,1.389661221231195537e-02,1.003291858775093477e-03,9.526774410688380879e-03,5.504871593292103536e-03,2.730534671756960213e-02,6.948140587642148702e-02,6.233775364687937220e-02,1.456640286977506915e-01,6.386102206170541848e-03
3.811153482164962320e-04,2.442897504021334862e-02,9.534784342015770880e-03,6.967100553514957335e-03,1.110238287822865218e-02,1.686828857811793758e-02,9.750309021074453353e-02,8.905317678018842553e-02,1.389481896502355596e-01,2.331372441275399165e-02
3.375181980096430548e-04,2.452052602828334524e-02,2.282497077338254549e-02,5.381628510843443347e-03,1.295533958734529714e-02,1.710218741906853468e-02,1.040918304928332150e-01,1.305841358119560203e-01,1.316187714362407613e-01,3.915279357640595592e-02
3.301234779220529360e-04,1.370142656724470699e-02,2.781025200046826490e-02,1.562541951794437726e-03,7.237977751934403237e-03,2.575939110160883200e-02,1.123162242034471126e-01,1.703876839776463092e-01,1.231696472641000267e-01,4.000171565467200430e-02
3.592729224434227514e-04,3.806051535107598822e-04,2.024629906158613782e-02,4.888231262586275466e-03,2.479843728174500970e-03,3.110997960162253245e-02,1.438556669731845261e-01,1.764490138084230109e-01,1.133509771487922896e-01,2.574335707380787444e-02
3.956491814425487901e-04,9.973163049492717383e-03,1.061668404800596849e-02,1.023848961661424570e-02,7.365984022907245445e-03,2.430172305048777792e-02,1.879202752908714080e-01,1.472354675659765522e-01,1.037534317672057643e-01,3.459924613202270717e-03
3.524514737701616015e-04,1.819272917614810081e-02,1.247823116665429041e-02,1.169046817807569208e-02,5.035983489567358827e-03,1.144958096822087587e-02,2.237859129581606099e-01,1.214878020779692203e-01,9.869405515854255684e-02,1.788380935159172153e-02
2.743851487438641592e-04,2.508568241769135523e-02,2.530872005390438079e-02,9.607977353265101383e-03,2.050761501802811446e-03,6.004852994132445394e-03,2.457284532074039685e-01,1.249427435028249711e-01,9.290002085044585245e-02,2.712578456071400301e-02
3.922764236500070529e-04,2.823003884780442979e-02,3.551873368044512064e-02,5.805161178778271355e-03,3.228628010859363635e-03,9.923944773048377563e-03,2.590056149837764998e-01,1.261638059358611286e-01,7.154572283155517798e-02,2.043652558690571205e-02
6.353412829835107436e-04,2.796929694649342990e-02,3.326964029334389394e-02,2.849897793314945093e-03,6.486111977066853773e-03,1.261195297764350354e-02,2.783873820439490832e-01,8.236981139954710485e-02,3.523624465034667919e-02,9.534675376712780162e-03
4.480141367603384024e-04,3.132711311550021721e-02,2.145774948008450506e-02,3.539627930008909344e-03,9.568061175000908830e-03,9.026303683733312433e-03,3.243621731086311355e-01,1.109380978602036646e-02,7.101979992573186420e-03,7.201582676033325449e-03
2.906271347100155568e-04,4.414768971480634990e-02,8.002320728511074649e-03,8.293224477653706600e-03,1.361815663016960852e-02,6.782355297837959485e-03,3.956689744225804217e-01,3.049169936338293543e-02,8.911503309398331046e-04,9.764308480999513845e-03
7.179558535837835638e-04,6.219817344739102943e-02,3.177705241788154455e-03,1.374403614105298987e-02,1.844280737588218505e-02,1.254386819955998975e-02,4.631583726861817629e-01,2.194644047451810645e-02,9.992393053988996021e-05,5.906251991249857752e-03
1.984828352460036964e-04,7.598218687490379541e-02,1.072395602522023539e-02,1.582126133735810292e-02,2.149889677021500634e-02,2.239896196718726279e-02,5.104922371559996730e-01,8.542633974148661907e-03,1.605904024077196846e-02,5.220118556311585493e-03
6.402798033767524927e-04,8.275199062188105803e-02,1.231800611348145454e-02,1.389308204994534404e-02,2.264762419036493030e-02,2.955028759141960573e-02,5.498729191775295622e-01,3.308806036612348123e-02,4.032736022445068680e-02,1.644501032153680362e-02
9.330840775675476942e-04,8.793896609886615867e-02,8.422184698841761463e-03,1.036256912141023112e-02,2.370692715010140270e-02,3.325048092761771074e-02,5.800163590118571078e-01,4.902692044386691705e-02,5.707602013448827283e-02,2.547961452702023066e-02
7.808846758924070652e-04,9.507804708409905992e-02,5.473913095021456371e-03,7.033848670181575696e-03,2.366963745505572259e-02,3.638679636966320879e-02,5.713153924521064964e-01,6.513205422342044359e-02,7.013489740127185068e-02,3.552141313830121938e-02
7.353650049740870914e-04,1.002062431577975393e-01,8.954138655364391602e-03,3.764169976444856763e-03,2.002129978323635706e-02,3.898237861960702350e-02,5.137352100840714142e-01,8.463841037370931075e-02,8.783285300538459794e-02,4.780848469414283181e-02
9.111452836978679642e-04,9.849726267551660308e-02,1.542293534993122162e-02,6.920044432665485449e-04,1.337857267643857706e-02,3.748686109978401071e-02,4.377546749370598844e-01,1.003175090368147171e-01,1.012427247992968848e-01,5.875008962092115317e-02
1.099889978424566789e-03,9.270516833608623275e-02,1.780763967876022522e-02,8.035741373573820207e-03,6.552596578820167952e-03,3.000542909169263278e-02,3.719843919515394837e-01,1.036931080235274777e-01,1.058179903711180120e-01,6.261153987171937108e-02
1.133078832983575165e-03,9.103819385135746012e-02,1.675103191037617678e-02,1.850307475765549173e-02,1.086235560182299918e-03,2.002963164608139585e-02,3.160032640077172217e-01,9.791444864571270668e-02,1.208779918448047580e-01,5.784515590490228037e-02
7.692204001608079567e-04,9.722891866851286757e-02,1.900477953489004834e-02,2.914111897256494582e-02,3.057763214908103266e-03,1.262776591073349296e-02,2.576240231250442880e-01,9.212818181746559865e-02,1.600302646749482138e-01,5.104970184587107052e-02
3.550796565682251961e-04,1.072905033271146225e-01,2.605985417059022285e-02,3.620170328083281014e-02,6.330135383841998739e-03,8.548716458641665919e-03,1.871506336060872189e-01,8.645852436217880965e-02,2.005781979561149231e-01,4.993223488371614782e-02
2.097276621466193959e-03,1.176243614511676555e-01,3.326502420983040720e-02,3.837400661839880656e-02,8.594348223582914253e-03,5.757997820655271111e-03,1.042717530163822792e-01,7.830456954202570652e-02,2.067253459678465577e-01,5.372795532718574463e-02
3.264501919235964639e-03,1.294804278917758289e-01,3.876444691459683678e-02,3.635037398947803949e-02,8.749802977121691819e-03,4.497978482908136788e-03,2.660493217035645244e-02,7.756553199010104982e-02,1.759107169042168628e-01,5.687506775870655729e-02
2.736318004700520091e-03,1.406605712291764954e-01,4.408333204719523668e-02,3.139613175285572294e-02,6.470673625183293726e-03,5.792611895992844616e-03,3.017917547530071798e-02,9.478096420701044578e-02,1.423939899658884789e-01,5.827746915577837472e-02
1.354441269685146025e-03,1.417048340778556959e-01,4.787258013539195250e-02,2.536944588547086765e-02,3.685526459971416157e-03,7.014559537955658390e-03,7.608770046356752581e-02,1.187569123100372104e-01,1.330678998276227099e-01,5.950093309283940174e-02
1.192449979573696403e-03,1.285226870305749280e-01,4.796699607532046300e-02,2.055003746241079385e-02,2.600512372904643498e-03,4.334159169105025744e-03,1.187976295439076985e-01,1.276265991781641851e-01,1.378786889603577093e-01,5.899066816099286098e-02
2.529529249403414566e-03,1.098748801663421981e-01,4.675324446124474315e-02,1.840296809491240651e-02,3.038865062286337515e-03,1.351509692338470278e-03,1.345279837241716292e-01,1.197145384169565618e-01,1.328268654411390304e-01,5.576506433151260517e-02
3.391515993241049198e-03,9.357077318112229369e-02,4.667086668722275622e-02,1.760283220997667722e-02,2.801000014504301076e-03,5.074622174143238011e-03,1.016483679495133741e-01,1.135902157271852508e-01,1.135606866830002892e-01,5.367970307043340439e-02
2.581720868843152394e-03,7.503298520144724426e-02,4.443316117540248300e-02,1.411026417231034391e-02,6.374183162951848692e-04,4.130180304172596621e-03,3.316948138044889527e-02,1.195382578086571640e-01,9.160231549150613106e-02,5.540775280591730273e-02
1.165904853628819916e-03,4.824319136685643189e-02,3.633056340812899215e-02,6.875791595940865253e-03,8.767923267083127916e-04,1.130412328923702421e-03,4.450313639818041095e-02,1.301452642828107020e-01,7.452883991028930177e-02,5.741387945051163594e-02
3.417137662185410342e-04,1.811867497932887622e-02,2.501883960457840228e-02,2.140712896015156512e-03,2.915594164748134490e-03,4.162443524625855608e-04,1.078729260529003448e-01,1.373412759318483611e-01,6.398686947412877968e-02,5.594828928670682322e-02
2.467446634118563957e-04,5.490436180125589372e-03,1.612257528091354600e-02,5.749620010525171437e-03,1.217753950680784854e-02,3.217320517337023990e-03,1.326970658933994407e-01,1.393241050418731197e-01,5.830282966299991237e-02,5.180946886568871951e-02
1.288709023921417226e-03,1.737744766254925924e-02,1.157966804780342397e-02,1.332241001113976600e-02,2.082849772945228120e-02,8.269823971308702670e-03,1.159268212616475502e-01,1.309969843410505874e-01,5.178247930965913792e-02,4.496809998566907163e-02
2.394209833435979960e-03,1.789955509831016311e-02,9.364844800124704979e-03,1.604477880742461587e-02,2.403370888043270676e-02,1.608293722020308347e-02,7.821851776384751431e-02,1.057071727151082385e-01,4.657719204596924567e-02,3.188809428065173673e-02
2.620596079660398280e-03,1.373908467031211694e-02,7.151596940657932271e-03,1.326468470936094032e-02,2.341902555595550689e-02,2.826039899680468648e-02,1.224478697136873948e-02,6.817800224742567861e-02,5.785758262905064953e-02,1.270014767206006229e-02
1.632906456618143411e-03,1.414747704022601901e-02,3.853662848946561373e-03,1.076256867482263888e-02,2.254881204710754150e-02,4.202398600806901002e-02,1.116257899945243826e-01,3.274852238037076479e-02,8.771069278808482639e-02,5.815926311195402688e-03
1.476227876486940738e-04,1.728984068416665465e-02,1.352991693461435847e-03,9.780586269086781470e-03,2.159539510269365900e-02,5.054879217429623234e-02,2.591556046070042085e-01,7.615133379116848650e-03,1.087131700805315793e-01,1.860683478119061485e-02
5.208267871728482299e-04,1.475738652915353777e-02,9.220831497752175060e-03,6.385570260393472544e-03,1.882349435156008624e-02,5.095088192405393401e-02,3.409532053090351122e-01,1.185671763673474058e-02,9.712731044518047030e-02,2.828140398683814255e-02
2.942043274494137253e-04,1.951539753333574392e-02,1.866781909981254234e-02,2.962448479717646153e-04,1.466436609018221746e-02,4.816951917309095221e-02,3.376193304906682791e-01,3.448129536690620195e-02,6.768109058525624555e-02,3.908980052207386424e-02
1.779405490476209739e-03,6.072882883639805357e-02,2.591167327507111484e-02,6.181890505467811485e-03,1.239792380389118445e-02,4.865000687586759631e-02,3.238755774332512938e-01,6.150780672182315501e-02,5.320001990762084076e-02,4.925243068164875809e-02
2.577891694336543679e-03,1.365868472843645431e-01,2.762803960819831470e-02,7.848303169472589658e-03,1.479673862668539480e-02,5.279519190431471165e-02,3.485564600331307328e-01,8.360646583086968342e-02,6.252420707108774511e-02,5.347984473949120993e-02
2.415605952955947149e-03,2.077481920985698172e-01,2.655197411105854680e-02,6.019080111163106935e-03,2.010230777828499876e-02,5.572247243015169410e-02,3.793860981543550337e-01,8.891189079744717116e-02,7.542503803149173958e-02,5.044543262894218838e-02
2.188125642513992497e-03,2.490777507715609962e-01,3.148181887973315607e-02,4.079899428915436700e-03,2.243874570257755469e-02,5.337047038880499833e-02,3.774527518247546287e-01,7.415837809478162401e-02,7.047261286299508209e-02,4.310282454788504775e-02
2.456527765815437123e-03,2.687864934954841689e-01,4.683428609215424532e-02,4.862563832911559469e-03,1.831267290622555499e-02,4.613237855075676824e-02,3.488763636818743574e-01,4.947546576271738550e-02,4.971858502361604232e-02,3.373617921658167429e-02
2.329663714841848522e-03,2.726368784896770481e-01,6.417062776186484296e-02,8.149485504860781368e-03,1.194070955745266290e-02,3.873210815661651263e-02,3.216484753471907099e-01,3.297168688576670309e-02,3.671548377697441551e-02,2.441585997050826906e-02
3.032184037858823983e-04,2.519575028927469873e-01,7.068361092414489344e-02,1.131591366880824005e-02,1.036032825175337881e-02,3.708194183571568436e-02,3.276260402585505771e-01,3.585402005119790736e-02,4.548822887011579053e-02,2.030192145880879012e-02
3.498821008192461515e-03,2.098241254664770239e-01,6.338444092132211605e-02,1.342200483278284742e-02,1.330034775509527506e-02,4.177088795509051322e-02,3.859972889244124850e-01,5.013979461320125508e-02,5.750837416498685850e-02,2.528340428542303481e-02
6.632977161161010722e-03,1.633259149295515356e-01,4.810960979590480496e-02,1.738746693925919198e-02,1.308446902131514544e-02,4.542819161083451462e-02,4.674654078259187218e-01,5.777641094960378476e-02,4.616828245682690762e-02,3.585123682839012199e-02
7.054291215938262791e-03,1.192300967862760519e-01,2.942699586239330006e-02,2.588941142528118286e-02,5.386552818222964389e-03,4.088581512734681261e-02,5.132243389148718471e-01,5.289852136820552553e-02,1.554254333217732278e-02,4.617511637129885493e-02
5.747677699553145961e-03,7.289355278921835768e-02,9.488614521481667993e-03,3.582750165964588424e-02,5.540333978978054588e-03,2.977231442507414713e-02,4.962428095430115871e-01,4.341411414991081658e-02,7.695518607318428336e-03,5.561930271734136233e-02
4.894698064228828263e-03,2.776549988931647367e-02,7.855871743242341318e-03,3.983817371280531233e-02,1.327621467701794664e-02,1.919037822865207743e-02,4.220864424988425290e-01,3.249020905315055247e-02,1.440865234107628796e-02,6.381423623053229799e-02
4.424140273972923358e-03,3.654771593981174377e-03,1.935586680412889130e-02,3.427092584934689906e-02,1.553463193828717379e-02,1.365913854288899193e-02,3.126224030838886669e-01,1.727860568478518238e-02,2.318966867071913657e-02,6.497177296550776804e-02
2.714380980783549606e-03,1.487431628489879060e-02,2.511772557968195221e-02,2.330775031526903865e-02,1.354081778492225059e-02,1.310850941303350059e-02,2.335343374583884468e-01,4.224935676911056696e-03,4.951741404938309055e-02,5.622383903577359010e-02
1.265346352073361443e-04,1.004708219019028945e-02,2.454439469713678296e-02,1.363054925830434715e-02,9.775882698921720473e-03,1.450435241168455611e-02,2.520422043916589749e-01,4.222831696816467181e-03,8.110214425046009812e-02,4.437090925106458583e-02
2.206011064854042619e-03,5.967284680269864527e-04,1.533266313163600923e-02,7.107346973862459921e-03,6.654838937369586191e-03,1.415239242464755125e-02,3.289771671060339187e-01,1.311243170992191717e-02,9.584974113883779068e-02,3.636530048697636519e-02
2.723479363011248235e-03,4.826499934191926661e-03,2.692122739810049944e-04,6.331464324434690673e-04,4.345993312602410355e-03,1.195294482297756811e-02,3.598449615023679993e-01,1.570549638651821955e-02,9.498776451963139578e-02,3.092914608861713210e-02
2.680009754088570357e-03,3.003845493805624642e-03,1.218125964797175421e-02,8.325987240000597492e-03,6.493169285861659021e-04,1.205208755317270508e-02,3.380958739496509047e-01,9.482230173927047590e-03,9.668652695908705463e-02,2.517481643030465566e-02
2.679913158343145800e-03,1.415186150776009087e-02,1.743984702000570680e-02,1.789924198968893820e-02,4.719312403985050086e-03,1.555718497528621805e-02,3.522006783133860841e-01,8.613245081129723008e-03,1.024295032300817088e-01,2.058136515103787395e-02
2.050928130411601696e-03,1.437789631746304482e-02,1.828847924698685790e-02,2.344708170253697460e-02,7.852533193746112986e-03,1.612316483578259824e-02,4.151399296271227612e-01,2.040138543792091239e-02,9.901096543652671000e-02,1.772911345825014043e-02
6.609948638092403173e-04,1.780749612310381091e-03,1.775823311342136779e-02,2.261936771374269128e-02,5.603117218902524052e-03,8.055401625164805568e-03,4.304091074200905309e-01,3.139551520706484328e-02,8.942306291755550141e-02,1.314834900010031574e-02
1.559627678137151909e-04,1.142079529183917877e-02,1.614202280369578593e-02,1.795100717133155804e-02,4.223623372275917367e-04,4.893114706450467193e-03,3.476883639742568421e-01,2.796423318509844852e-02,8.958483553907055363e-02,5.479210147917730131e-03
5.961924079707758145e-04,1.493015401833890435e-02,1.602594581509224347e-02,1.346515630674214974e-02,3.446545951767263170e-03,1.471853661322692838e-02,2.351592779049049287e-01,1.938441738063879580e-02,9.926150120269386368e-02,9.393088279286837539e-04
2.106796731652976241e-03,1.049928446333798365e-02,2.266748678752813009e-02,1.053731809696236386e-02,5.912032916530336225e-03,1.923859863502907358e-02,1.642486293433636224e-01,2.379539112255801836e-02,1.039429799461944054e-01,1.653833734542484515e-03
2.962523435592069251e-03,5.776357822972161965e-03,3.630729274000850382e-02,9.154725781164475829e-03,8.642574642239936669e-03,2.099716449346945152e-02,1.168648318158286709e-01,4.020764824727702386e-02,9.786449256796399265e-02,2.268026867952239838e-03
2.876360365959185813e-03,6.643360712184460774e-03,4.889539160508898918e-02,1.000531596210085458e-02,9.995767036632864297e-03,2.072904469643878020e-02,4.540336438676052799e-02,5.239824022985879737e-02,8.605026242269107895e-02,6.130931399208434593e-03
2.545828713523986403e-03,1.606152962724464311e-02,5.201267402730837264e-02,1.180290763787379682e-02,7.813626020841742126e-03,1.801337027122213927e-02,4.481943799748196872e-02,5.328100305984364432e-02,7.320337298988474628e-02,6.949575697872740002e-03
2.565743238939372731e-03,3.179083231161674433e-02,4.576904494949550484e-02,9.970618715853890590e-03,4.365929007326697572e-03,1.441536886271311234e-02,1.092213211303099674e-01,4.926290740619525266e-02,6.043583821598930150e-02,5.246991760252296341e-03
2.913202124362562935e-03,4.464349634638677122e-02,3.686605270057775885e-02,2.037186957312188147e-03,3.516506844676316277e-03,1.182343645596404223e-02,1.201103489949868486e-01,4.474518079047298813e-02,4.675528434681674311e-02,2.605251533444403935e-03
2.966911944595346847e-03,4.488399196800713087e-02,2.963090440199287606e-02,7.968493208817969964e-03,5.308183308449545591e-03,1.084893747499181792e-02,8.770744783589384808e-02,3.514428888529357031e-02,3.366280190220621166e-02,3.059787112302341482e-04
2.060780426722487978e-03,3.072147655185934398e-02,2.333272626208436271e-02,1.303247991338070746e-02,6.687574794013227512e-03,1.154487186594331874e-02,4.662965626643007094e-02,1.670402792610365880e-02,2.718983968908932763e-02,2.618858811728053647e-03
3.365818301991639941e-04,9.684657056443840215e-03,1.778915636490401714e-02,9.291366689509914997e-03,5.466453384652453576e-03,1.266145634230153930e-02,3.580143078749509211e-02,3.433218495775641060e-03,2.606049430174758180e-02,2.696708738101849523e-03
1.501293118527195986e-03,7.405168956138147122e-03,1.524710729564666099e-02,1.411610590984928087e-03,1.844177713376836999e-03,1.208329395483716089e-02,8.018383070771004095e-02,1.232402266863033384e-02,1.547441820596734234e-02,6.299650768250095872e-04
3.212670673198989978e-03,1.590149326501392318e-02,1.472608116389344766e-02,1.213038179132229152e-02,1.998960599872197201e-03,1.056429244154876226e-02,1.713690421087238624e-01,5.488751018027180489e-03,1.140872691125948378e-02,9.251320821467234022e-04
4.615202828595163509e-03,2.120800833454424342e-02,1.097457471081237507e-02,1.463748796787187924e-02,3.153441917355733794e-03,1.190179523051293486e-02,2.648138137999708763e-01,9.546249392597556602e-03,3.682921458928756914e-02,3.560809738984353594e-04
4.611576022691114655e-03,3.018078959531533823e-02,2.426896745077033492e-03,6.456143287069449933e-03,4.186164064095682352e-04,1.754313638869511166e-02,3.189089427556611733e-01,2.367425814675211751e-02,4.157240693595969788e-02,1.119938744036532265e-03
2.498739904000221723e-03,4.126767409751713050e-02,5.548187480507714778e-03,5.743110205223299347e-03,4.314118013096317900e-03,2.397085022693387288e-02,3.399987008082206996e-01,3.298858075659841238e-02,3.289752345240624237e-02,2.868429587262144760e-03
2.048385477787672713e-04,4.857806690202826072e-02,8.810276475530353507e-03,1.236999552656647093e-02,7.765982257815817573e-03,2.670494393462019903e-02,3.641582152556506746e-01,3.547157939134294724e-02,3.092377794362698162e-02,6.260449769989986230e-03
1.340009809421025509e-03,5.218193148664584252e-02,1.038460270028408738e-02,1.050243141886374534e-02,8.142160879281348101e-03,2.511863558318666242e-02,4.003273658836505877e-01,3.035627682045345666e-02,3.690014223291446238e-02,1.096584288997716483e-02
1.120782391300445893e-03,5.696095517977977502e-02,1.448345515456354177e-02,5.234539331259107676e-03,6.244765187184851164e-03,2.219738411474778822e-02,4.265742995172369656e-01,2.437353992261820368e-02,3.271231230311635874e-02,1.396866818197473742e-02
1.453990480358007551e-03,6.328412081056461469e-02,1.970456456719435825e-02,1.697330867284543160e-03,3.835455986672026835e-03,1.975226982489000985e-02,4.335599755792841625e-01,3.086362560629331980e-02,9.478061437673575632e-03,1.357945161560686516e-02
2.505826246830653633e-03,6.623851513938226743e-02,2.253640894453358412e-02,9.412888010047939374e-04,1.057560866075837273e-03,1.552901120184001053e-02,4.307414175555582814e-01,5.446101485663325942e-02,1.408546461190148674e-02,1.068360165228464387e-02
2.123740451503016227e-03,6.393337900179024702e-02,2.360859484835356459e-02,5.160393042735193087e-03,2.975722994051761567e-03,7.295987973948699773e-03,4.184016890822957468e-01,8.016274076631438317e-02,6.546555024435575867e-03,6.366666203353744426e-03
9.019718973549406809e-04,6.063783254946585044e-02,2.603588185615692691e-02,7.710684093960763416e-03,6.256183112210157195e-03,1.178314323637901818e-03,3.940179280211708046e-01,8.724318828369026502e-02,3.975799100822453164e-02,2.343174529118909662e-03
4.652574094210554755e-03,6.082688001396643895e-02,2.999839350426041634e-02,2.097515485381924207e-03,3.925395326580257555e-03,2.304977849825352604e-03,3.777373330791570227e-01,7.201143262398686240e-02,9.181435908718058037e-02,2.131695769203155021e-03
6.164717370710970715e-03,6.430474294144089553e-02,3.266584495123163456e-02,1.135754161571516860e-02,4.892190209438803360e-03,5.779117935329477346e-03,3.893471853696996443e-01,4.679657720226201162e-02,1.095361006293347206e-01,6.660343084702727463e-03
4.966446557929371335e-03,6.837002438411027283e-02,3.245393716183708754e-02,2.371328015801575650e-02,1.414010382569993313e-02,1.548403771408941171e-02,4.003597467824489553e-01,2.097388183155030061e-02,9.267319696034737042e-02,9.459597211017087628e-03
3.376709139041097086e-03,7.161225860886320793e-02,3.077680764305769021e-02,2.788499037049344681e-02,1.826424606647344268e-02,1.823332512026615976e-02,3.515664046441078772e-01,1.986882264132452600e-03,7.174330367734745029e-02,1.886821698021939192e-03
3.212152004326935748e-03,7.370299921392599318e-02,3.013048858417503514e-02,2.602015284951684701e-02,1.794360458653233500e-02,1.322269659572469433e-02,2.316380646801622090e-01,1.243670240040623681e-02,5.555073727638442510e-02,1.541830117601741997e-02
3.437072157340508461e-03,7.325289917578967080e-02,3.223775251590509788e-02,2.407644689867030965e-02,1.553532016363112084e-02,4.870599042675002183e-03,1.031756813571883535e-01,2.402690640295294944e-04,2.290771982212391061e-02,3.112040678991099749e-02
2.115747506976548269e-03,6.795985978756556578e-02,3.698093927083619115e-02,2.387821080087649747e-02,1.125533732359565615e-02,3.840978546999765895e-03,3.273208710097049584e-02,2.614129923175480610e-02,2.649313870565030496e-02,3.553315318321170757e-02
3.749251391031482904e-04,5.681602986402582711e-02,4.120505504474510083e-02,2.292509102463347048e-02,6.246104271217929778e-03,1.162273653200204468e-02,2.207291465493187166e-02,4.694087774376680400e-02,5.402860007092966793e-02,2.989010434837023958e-02
1.939969987979308329e-03,4.152340201982065993e-02,4.050204998492876185e-02,1.807106231618719333e-02,2.391612644068388891e-03,1.662250394618782282e-02,2.240814355362408250e-02,5.919618946599988080e-02,3.548400741995413887e-02,2.116110602641338087e-02
1.887205299732386569e-03,2.593698086068178116e-02,3.484613429062703716e-02,8.187449797276563634e-03,2.003498855177300326e-03,1.770642083322478827e-02,5.836460182148596465e-03,7.594074389359384281e-02,1.945667114160816100e-03,1.278619326448906905e-02
1.402046528336600272e-03,1.435110041331690706e-02,2.997573728111531041e-02,3.697733784547288603e-03,9.559929085228102350e-03,1.618276458365506404e-02,5.973602945041837226e-02,9.650677981691195562e-02,1.854406133264422524e-02,3.916067540237197497e-03
1.375817489470382076e-03,9.467319868841235150e-03,3.011123599146241572e-02,1.159427178069476032e-02,1.732393033743637178e-02,1.458277749295964001e-02,1.069287554742157920e-01,1.015401156527144938e-01,9.700436295223071465e-03,5.654768478563646297e-03
1.575221499700707592e-03,1.078359058934139081e-02,3.255115541420795788e-02,1.267700857317321378e-02,1.949690571917436777e-02,1.421121568311782893e-02,1.190611490945939765e-01,8.192804421202586063e-02,4.614400684965473502e-03,1.361786068517099706e-02
1.633709167098125600e-03,1.511698611029524061e-02,3.263803771928203146e-02,1.061317626406615630e-02,1.594024390517941037e-02,1.404475751817447701e-02,9.320868932938476681e-02,5.235994132140067703e-02,1.394240027003831525e-02,1.769093351152636537e-02
1.541764814342966262e-03,1.923838064427679101e-02,2.920602370128398337e-02,1.122198977373134107e-02,1.248158684064047327e-02,1.188933700040925232e-02,5.269388092566332227e-02,2.914666754901258303e-02,2.200463488963482275e-02,1.776873131843275874e-02
1.412062884954354757e-03,2.102151718810946202e-02,2.132154061832079381e-02,1.740208821899860356e-02,1.353336291727927701e-02,6.903163938010115248e-03,3.222084723619186158e-02,1.020349300272610851e-02,3.097413711521845164e-02,1.504272458545188006e-02
1.471844999306307121e-03,1.816972456568594074e-02,6.427083431628526425e-03,2.812999154038583680e-02,1.830754563465375462e-02,1.239355077712688425e-03,4.675654993262914200e-02,1.309273031429008388e-02,3.606217012229077923e-02,1.040292958266704135e-02
1.807890451904606765e-03,8.739158252428167253e-03,1.282015669657500176e-02,3.816853341364502550e-02,2.272878386788699037e-02,1.763411202490728713e-03,6.909864855579880838e-02,3.702018043705772310e-02,3.339912933395189354e-02,4.801106930548776353e-03
1.811105682679303849e-03,5.707765354774034863e-03,2.687077648513099687e-02,3.996077258215877809e-02,2.212339664181277310e-02,2.258353769968441706e-03,5.774164426723539523e-02,5.325323982501135867e-02,2.752842267736260035e-02,8.466740177826686262e-04
8.346787761005037892e-04,1.934013438131896787e-02,3.016330848326639544e-02,3.108033920018288959e-02,1.425728103657629420e-02,4.854273488128162117e-03,7.731845692500786960e-03,6.633436652782034870e-02,2.861761165569631435e-02,2.315197630619712007e-03
3.828602658916997205e-04,2.586317902245578726e-02,2.714000564186164199e-02,1.789719037511018282e-02,1.912223127618252558e-03,1.235081007105062571e-02,4.994785585953383233e-02,8.719529333220665812e-02,4.078310704635924183e-02,1.015238894110027240e-02
3.510309423163340717e-04,2.305081717704590694e-02,2.329205835408922412e-02,7.098346486278704973e-03,9.734654574401351707e-03,2.127279348128615147e-02,9.380451092189183437e-02,1.159638911813550832e-01,5.864035505124343128e-02,2.025233212752227188e-02
9.266663747940289634e-04,1.403966764572598183e-02,1.766787391466115992e-02,2.474150964696838085e-03,1.878612562770974256e-02,2.702137752811375679e-02,1.267708332760079382e-01,1.437760489592945223e-01,8.084924128716131086e-02,2.796744340475890503e-02
1.944701546673907383e-03,4.798987292223244085e-03,8.147197013972297397e-03,1.387695058754076678e-02,2.644326694331994299e-02,3.005903235052285322e-02,1.484829356317405868e-01,1.631784384015850520e-01,1.145106112295387474e-01,3.281639602219986462e-02
1.969783646625715336e-03,5.204191059609694289e-04,2.950050014709001012e-03,2.284926365746507704e-02,3.166154514961574268e-02,3.346121765178061008e-02,1.451015937163863401e-01,1.679438119097885762e-01,1.543833659640010958e-01,3.609021532430430057e-02
1.696389234807265398e-03,2.547288812655333200e-03,1.223973072195134494e-02,2.253850054820514051e-02,3.116428778159393426e-02,3.794227667006039306e-02,1.170015618477363434e-01,1.534180653242605552e-01,1.760349691145732809e-01,3.772696639112307904e-02
1.721846079969814374e-03,4.019129314274368439e-03,1.851641793894867952e-02,1.466076860398991648e-02,2.530082805872738497e-02,4.222024750999829601e-02,8.960300451047720216e-02,1.246912471058288646e-01,1.662967468224450240e-01,3.853907815328228709e-02
1.843695608928650788e-03,4.309082697285230960e-03,2.017823977808951008e-02,7.820029841203609416e-03,1.869100887583327944e-02,4.480091474793654327e-02,7.820970655804153349e-02,9.632682340098759621e-02,1.414870701329419556e-01,4.100784805386317733e-02
1.853740534987288182e-03,1.644320621863558374e-05,1.542639178448705975e-02,6.376103825275394182e-03,1.442848476337821144e-02,4.350412062864261742e-02,6.612252226021501922e-02,7.946759764897533274e-02,1.242637116525359547e-01,4.529523180057162118e-02
1.901287968429088210e-03,8.058951312424051869e-03,7.733498043343927514e-03,8.289946054630979722e-03,1.221309962663976248e-02,3.655000696660369586e-02,3.865226759027476366e-02,7.396075891905580513e-02,1.250150759344654527e-01,4.906354896727379428e-02
1.942289569769059011e-03,1.360840547308359363e-02,5.069030550523161323e-03,1.135583302730258128e-02,1.148195153216498808e-02,2.558941135733868236e-02,1.275604679562110204e-02,7.346236864941746436e-02,1.452439899766877762e-01,5.309160871606784238e-02
1.472803407776765655e-03,1.318996146902486760e-02,9.987344230990378297e-03,1.371252069295136357e-02,1.121987670770124845e-02,1.556079713157352933e-02,9.210327933505728371e-03,7.140386118765226775e-02,1.681165742257643148e-01,6.148392697301054144e-02
1.166041323120576830e-04,1.093466993476153136e-02,1.549209180749513103e-02,1.088054074328330748e-02,8.005683938076739101e-03,1.062014648611392213e-02,1.830383144851160243e-02,6.027658015410220643e-02,1.561301653326393202e-01,7.380740422458355321e-02
3.000886054355727302e-03,1.177535059564222344e-02,1.437276698181009019e-02,4.310290810122458308e-04,6.781248199590010888e-05,1.069631431552817494e-02,1.598374233412690193e-02,3.404921601098536560e-02,9.313009498622656923e-02,8.361337261311832525e-02
6.181280585617576935e-03,1.482621578766502718e-02,7.619669738585048077e-03,1.191167584723113772e-02,8.778816121222393284e-03,1.216114280463446995e-02,2.836610553654229060e-04,3.672171805797633595e-03,9.149407824274867138e-03,8.849777026121834200e-02
7.409618509505936333e-03,1.669538810815914334e-02,7.649474420863523142e-04,1.771618943046793238e-02,1.231377147979899681e-02,1.201468282544408336e-02,6.273969375778934779e-03,4.024937053803242376e-02,6.470170136465513977e-02,9.349480744501770246e-02
5.215079053759442279e-03,1.708305588513993334e-02,1.192539160364137867e-02,1.647396339439520865e-02,1.085867708262760502e-02,1.048705870612693172e-02,1.138162842781727940e-02,6.410934007020996361e-02,1.318888083434219261e-01,9.826181578664286431e-02
1.114392681335654636e-03,1.824908165732605156e-02,2.851433680113476046e-02,1.528504558543373679e-02,9.011365325108940116e-03,8.089043892627500315e-03,3.489616334153963079e-02,6.983741099068430103e-02,1.991176060953685212e-01,9.010809652037661543e-02
1.772122645526435364e-03,2.195377933659545602e-02,4.635056390458385661e-02,1.863356341221221804e-02,8.563441160433359067e-03,2.501190587440756986e-03,2.520205487958811566e-02,5.953261579471066933e-02,2.495456312826178080e-01,6.045473835867588158e-02
2.286436889839018639e-03,2.803831573803690011e-02,5.668490813965257336e-02,2.357641468167832877e-02,7.651051877770098653e-03,7.852266319780538961e-03,3.282720109314211238e-02,4.600675549797410280e-02,2.633448414750499955e-01,2.243573586120171590e-02
1.822493236522605004e-03,3.364932927225331577e-02,5.551953372122477720e-02,2.587642675712642851e-02,6.140647623372523685e-03,1.966175204003013308e-02,1.061425263948402586e-01,4.657334259853852798e-02,2.367821224434973337e-01,2.325763490660620429e-04
1.723573491069183309e-03,3.432377092240768146e-02,4.574139205309213363e-02,2.618716837502600356e-02,6.935841228475035647e-03,2.871048663202550519e-02,1.513903675371995883e-01,6.508148412813309636e-02,1.805530852087934846e-01,1.100707366715229611e-03
1.911886653463374134e-03,2.806789041105611782e-02,3.187641601628809357e-02,2.711657178116254341e-02,1.068385192283512371e-02,3.513923693974284335e-02,1.665514793044660935e-01,8.478501820767160579e-02,1.178567464950503740e-01,6.857901761859530772e-03
1.969700890508312065e-03,1.813997661372050013e-02,1.759607190799515608e-02,2.782757220686417690e-02,1.350578992972220442e-02,4.043267414738430793e-02,1.758102036943632873e-01,8.669399267649791074e-02,7.437784237266992227e-02,2.351036565937945737e-03
1.961096085766321408e-03,1.063524257424455777e-02,6.581390816539169943e-03,2.530244257083011025e-02,1.253509432723480185e-02,4.285398201694499976e-02,1.777545516796085467e-01,7.157811748838650845e-02,5.554623785978597683e-02,2.199798898333683514e-02
1.963918947636541981e-03,8.727009673090077579e-03,6.464494050373434039e-05,1.788808619039018027e-02,9.518368890873724758e-03,4.014925694665668482e-02,1.507533401490396552e-01,5.318491084528400442e-02,4.219453839746755558e-02,3.098484462815260382e-02
1.884967973311336888e-03,9.611578718827461926e-03,6.170280917526715404e-03,5.476733412494154407e-03,6.349157355527429783e-03,3.342281387058538417e-02,1.017093902614110562e-01,3.321769565768069310e-02,1.791650205060034418e-02,2.163148626854110093e-02
1.927782046318625648e-03,8.508885034479406195e-03,1.638543404665398009e-02,9.505507807513033716e-03,2.007508001198559777e-03,2.510960760400172617e-02,6.747673615063415342e-02,1.944213753852371343e-03,7.839448272795309508e-03,6.692535037760034139e-03
2.293799270747439237e-03,4.817694663585989946e-03,2.581289712933428765e-02,2.057250380668387488e-02,3.310505839792514220e-03,1.592616486328485292e-02,6.697165616439099134e-02,3.618691175869367949e-02,1.325112933983410568e-02,2.477756200618124339e-03
2.348353537687614557e-03,1.683152522842823115e-03,2.373874787506938255e-02,2.179127820801711815e-02,5.542053161424456177e-03,6.278995762355793833e-03,8.312912829667933046e-02,6.124176847146783204e-02,6.060923956227181816e-03,8.440224764042523337e-03
1.353338817374192572e-03,9.835250352286982814e-04,8.236177201919315377e-03,1.422235060626942868e-02,9.806849845048844130e-04,7.731218351403571377e-04,9.425674351598606338e-02,6.580586776718364006e-02,3.021229569757085537e-02,1.601669482388094756e-02
1.415855885559904096e-04,1.962590787249424672e-03,8.473861287837851711e-03,4.379669751254125845e-03,8.814658612374313973e-03,4.005516963840639877e-04,9.585699517179645246e-02,6.226563354813892393e-02,3.462797154252699600e-02,2.013744050823391626e-02
3.319750190894096647e-04,3.080018699386802283e-03,1.388115935768824763e-02,2.363362157097119963e-03,1.769792623615454655e-02,8.763367334343673612e-03,8.694963704325035792e-02,5.982575584635828336e-02,1.328182665985910664e-02,1.057092388192170003e-02
1.704186731736305992e-03,2.770975899307945127e-03,9.909775017572735809e-03,4.902163453651437776e-03,2.072123370775903750e-02,2.154364089345413985e-02,6.330609965946054629e-02,5.445218307563505500e-02,1.108519233901657589e-02,1.474911276422579201e-02
2.505139088944599059e-03,1.735227437391255803e-04,7.511666566981030010e-03,5.311861436836717160e-03,1.858893314252534762e-02,3.048685647085870587e-02,3.472066968074788429e-02,4.393563885079480869e-02,3.362465910523105075e-03,4.494195928578550298e-02
2.473806249426395605e-03,3.929778806691743009e-03,9.113389985442315808e-03,5.657318231838750176e-03,1.449472456138261277e-02,3.145485805475067148e-02,2.167910185533866718e-02,3.757983970907197158e-02,4.472015425986740345e-02,6.559006612528159308e-02
2.865438510094509700e-03,8.361244720748768275e-03,5.670086849681999636e-03,4.397019585684837709e-03,8.044367850919253646e-03,2.372138165812984895e-02,2.360696129163872281e-02,4.709030669982100514e-02,9.882781184672076447e-02,7.029470510248930770e-02
3.195684359209644519e-03,1.288421285401478503e-02,7.950537560880394788e-03,2.617356733494653840e-03,3.233161938584769822e-03,9.485707391337892119e-03,1.927800112527205956e-02,7.219270620094563051e-02,1.193885599078348819e-01,6.201525972804754899e-02
1.167556187819232972e-03,1.706881278027779988e-02,2.467501070914629446e-02,1.557921640666836381e-02,1.739457073659171973e-02,4.232381057264078365e-03,7.714785485496127720e-03,9.434978873128320453e-02,1.020164155804400286e-01,4.738004289760083809e-02
3.269920264495764211e-03,2.000619101236251682e-02,3.508187023948448197e-02,2.771647120687687968e-02,2.822944814022359042e-02,9.404813102348403772e-03,1.480215544152796436e-02,8.896802400431280677e-02,6.750207332552848882e-02,3.185127144936381743e-02
6.886343808325612673e-03,2.205723486357009239e-02,3.661180518928517508e-02,3.136001207575975225e-02,3.124206627018463051e-02,5.830440765469247985e-03,4.861127591009899163e-02,5.290949616028307878e-02,3.103509485984840346e-02,1.782359773854046148e-02
7.406624035049685917e-03,2.404450271049268090e-02,3.094263411814914683e-02,2.494882584151410926e-02,2.583126341997481201e-02,8.002424983758354461e-04,8.007429876750389586e-02,1.311545789548519518e-02,1.172155616323094368e-03,6.568986944648936947e-03
6.098143747770838619e-03,2.455463803808376894e-02,2.107739466793243088e-02,1.286010839490294051e-02,1.408230364455024738e-02,1.124013395866375799e-03,7.928652811495769115e-02,4.663552319783102404e-03,1.993139922321821023e-02,1.089591779631478297e-03
4.942463493443191927e-03,2.145025330213846254e-02,1.280670353832139008e-02,1.519174047011386409e-03,1.397047305543151329e-03,1.602602572020165889e-03,4.819394567390445500e-02,5.779269310131098826e-03,1.639019745658647220e-02,2.955200431893749771e-03
3.699193054062178704e-03,1.575127778805077844e-02,1.082472676493867123e-02,3.030961797866907510e-03,4.668374778187784485e-03,1.484555273451990901e-03,8.999262782614848855e-03,1.193841022882856373e-02,2.755481816305261830e-03,7.810728493914200626e-03
1.476970446717716179e-03,1.056573512392112307e-02,1.195262520067870080e-02,2.491765502325638502e-03,4.582951075545214437e-04,2.552885093235333913e-03,2.570744273888457901e-02,2.894426086997917841e-02,1.044560266891007665e-02,1.057069521863241227e-02
5.882806822293584542e-04,6.640514836728389839e-03,9.202763349486777281e-03,1.529818117334248023e-02,9.865984872923906288e-03,1.229447843200484267e-02,6.016194456440407401e-02,4.213997843444803465e-02,1.883688721476030337e-02,1.247654004001651565e-02
5.777835167779835860e-04,2.236556240227543374e-03,2.908719992991025925e-03,2.700988261263384538e-02,1.812139218795685153e-02,2.336087974613277815e-02,9.337022524570398607e-02,3.585421630537888316e-02,7.498050491212460145e-02,1.627900297452869113e-02
1.011374769496238210e-03,2.632408662343690888e-03,1.106007531260835884e-03,3.143995624264543653e-02,1.969451920296291444e-02,2.903075312809863529e-02,1.057534125476227022e-01,1.190405537518233157e-02,1.169855842644181021e-01,1.999878928188935159e-02
1.731431620631042074e-03,4.970039713078969017e-03,7.875986292762411287e-03,3.202325332850823603e-02,1.765773632281771727e-02,2.757094982016445803e-02,8.580289394582744922e-02,8.291178264470159057e-03,1.258352506755433531e-01,2.247021946886018987e-02
8.139667849847270200e-04,3.129789334383350011e-03,1.675133649385771376e-02,3.659618939574837970e-02,1.866522530903352156e-02,2.287952413154117556e-02,5.669698149380898722e-02,4.807556606225902966e-03,1.265525206103127465e-01,2.737868043095519760e-02
7.107020270485845499e-05,2.148841165714475746e-04,1.822475215335143603e-02,4.495592491284372549e-02,2.419152881291285889e-02,1.719442739280569246e-02,4.836915487711739708e-02,1.768191770708042385e-02,1.377959106988802529e-01,3.510480786244770529e-02
9.736679117168874249e-04,1.042149877813708901e-03,1.087782792699032441e-02,4.882974159952948451e-02,2.839302418052446972e-02,8.122214850932471183e-03,5.557486592663384711e-02,3.841602712166797967e-02,1.362587923878607332e-01,3.882524985263647449e-02
3.014143748996881821e-03,6.686820680599515551e-03,2.055169729887157577e-03,4.408406026831608593e-02,2.560611023655255322e-02,3.996866941236527047e-03,5.621552371308746743e-02,4.584884240354909074e-02,1.015140562891177906e-01,3.482599672211691977e-02
5.076352661868865392e-03,1.337134394039937203e-02,1.216945967303345155e-03,3.518315722431671067e-02,1.662171993158137809e-02,1.228504667938662420e-02,5.494236057967272907e-02,3.869983262996298107e-02,5.863893245896970724e-02,2.987311846668625273e-02
6.227760841577025669e-03,1.586446920576091782e-02,1.256631613661278717e-03,2.817704413289308721e-02,6.667117839920178729e-03,1.233953235422257169e-02,6.756709491266896239e-02,1.532878093160744415e-02,4.120688878752659656e-02,3.324830151370278958e-02
5.365886892889605402e-03,1.164867999056153937e-02,5.546876399753932277e-03,2.586309348588660892e-02,2.442010330956147788e-04,9.059556711123751757e-03,7.510603166370379002e-02,1.379406649911132758e-02,4.617659957806186793e-02,4.579469547698709203e-02
2.287968052652778438e-03,2.906300977626310750e-03,9.745888836150467735e-03,2.868390012283422719e-02,1.280552874757497246e-03,8.633736903244888100e-03,3.939569690386595519e-02,1.783713861482766685e-02,5.726174397768567237e-02,6.033601322721019594e-02
1.252430282445962358e-03,5.700341819286014293e-03,1.473654563822082188e-02,3.540081858153874134e-02,7.228206637223178778e-04,9.177389910753130237e-03,3.781283304466440121e-02,2.076067371723831767e-02,7.775462669012016270e-02,7.001712643328833474e-02
3.251809351134596696e-03,1.147785707498454391e-02,1.953344372608146681e-02,4.264409249169156396e-02,3.513413201424795199e-03,5.480093111743805298e-03,1.119526082158365660e-01,7.705277442259853005e-02,1.093844651194381540e-01,7.328301203327580726e-02
3.597017937094363141e-03,1.441295272885306268e-02,1.952145607232137411e-02,4.552867388828333445e-02,4.446918858136462288e-03,1.328723960837066781e-03,1.542155534340748924e-01,1.139386256818832044e-01,1.306209003370787380e-01,7.225742959615703842e-02
3.409230349978552288e-03,1.375307775336579927e-02,1.121340488462373164e-02,4.005591033106366966e-02,2.168435761060404608e-03,5.282855862029379665e-03,1.777935363742437214e-01,1.238458708152969240e-01,1.241422912961377828e-01,6.915740682891077795e-02
3.268307217521367481e-03,8.000387304791493556e-03,2.965119280017563391e-03,2.707283958104735738e-02,2.755579851211184192e-03,4.328961079713570907e-03,2.021805038517369424e-01,1.178098713018106841e-01,1.022586205275623356e-01,6.488600282972810385e-02
3.199794992451565536e-03,3.559518590211417297e-04,1.590093273044339631e-02,1.410562532950205422e-02,7.690985698733766168e-03,1.591024794005255335e-03,2.247109717095941983e-01,9.881600844345565793e-02,8.515843164459870052e-02,6.041404158730413754e-02
3.416428564976005215e-03,6.128822418129553466e-03,2.203587330579983433e-02,9.224752881533824361e-03,9.421153539374265556e-03,1.763239250443093993e-03,2.364944871007464422e-01,6.870878209097773526e-02,7.190694026409932826e-02,5.909323119531795232e-02
3.701881601149174025e-03,1.058627198657060425e-02,2.297018546337674383e-02,1.025408794728846669e-02,8.432203787616951787e-03,9.059813425219317984e-03,2.406615280438909876e-01,3.910013554068032110e-02,4.565800673889756911e-02,6.615258252021710694e-02
2.894074817143573244e-03,2.110303397696627545e-02,2.534439735772377189e-02,4.516418760453767139e-03,1.087336157175486720e-02,2.116869287219162385e-02,2.414751146260983861e-01,1.985818158693416005e-02,6.223783335099295627e-03,8.385502798990691897e-02
6.069624206099531781e-04,3.739965680092437877e-02,3.264265678350130456e-02,1.598583444461136246e-02,2.205388602481448204e-02,3.211007482060970752e-02,2.305766528254214742e-01,1.022615707796586774e-02,8.220238573896843093e-02,1.072566294285236532e-01
1.337759820427130526e-03,4.857298541976080158e-02,4.288706692444949065e-02,4.344701427227245366e-02,3.846338099279559414e-02,3.550514288966106352e-02,1.990122314719147967e-01,3.012323800839538691e-03,1.625418094435851779e-01,1.258500863046031204e-01
1.131749832861434586e-03,4.841140518191547337e-02,5.367070747073512255e-02,6.298537442142185250e-02,5.035061264168316786e-02,3.134527291785953879e-02,1.576409748325251770e-01,9.067271624071834152e-03,2.164312973758584502e-01,1.307213922872093315e-01
2.153430812461865919e-04,4.264468727784136159e-02,6.310263951291111839e-02,6.813502292071163535e-02,5.177627575055870207e-02,2.312555100051152598e-02,1.305257711012662303e-01,2.279714315538240721e-02,2.307602146989549130e-01,1.234338464184432521e-01
4.368329781833828803e-04,3.749759496398641367e-02,6.708815298591960796e-02,6.387326691625574981e-02,4.531237849118835426e-02,1.268516250759251819e-02,1.248127042884477900e-01,2.139880062216112377e-02,2.270522869917698250e-01,1.174227979111172743e-01
6.561561723703607935e-04,3.178115324321970775e-02,6.247778427258277034e-02,5.814124456734209856e-02,3.764541830073117601e-02,1.268749978986420147e-03,1.210279654241431246e-01,2.818900522257888029e-03,2.297764624248296306e-01,1.239609165805977548e-01
1.684136210442602286e-03,2.394635409302484086e-02,5.228042689864639131e-02,5.430425027832579826e-02,3.295040110851376464e-02,7.769982684206796185e-03,1.027642322855241847e-01,3.077081780845553061e-02,2.293618725289676419e-01,1.365372691462040933e-01
2.352375577477037842e-03,1.853987985530486382e-02,4.350372082673403112e-02,5.140790476133337561e-02,3.091255714132461196e-02,1.130981657238615268e-02,8.211665115048095986e-02,4.075627035438816881e-02,2.039053873269842665e-01,1.371607029822371759e-01
3.247560792569148796e-03,2.053885702522548554e-02,3.979315442920570989e-02,4.818939161428823642e-02,2.919018493684020707e-02,1.088782423158948277e-02,7.825299826365425537e-02,3.843139657491968786e-02,1.626787646446153091e-01,1.188047201659584579e-01
3.839104672304342707e-03,2.664420385539260916e-02,3.737199987287387337e-02,4.312760297094759415e-02,2.552017915800866912e-02,1.122521233862346091e-02,8.236590782941931310e-02,4.137625536823470729e-02,1.329716007752873297e-01,9.414455136155032433e-02
2.697550931169624862e-03,2.720112299873860690e-02,2.945772166975248532e-02,3.345900379736403696e-02,1.872651248673552413e-02,1.259674247248151850e-02,6.802423385756778407e-02,4.655997288915932758e-02,1.156165094729954129e-01,7.978607188259521921e-02
2.237634727568669709e-04,1.822131585482553162e-02,1.640416066394224590e-02,2.078678306675036183e-02,1.112709697003388953e-02,8.155362037742613923e-03,2.895765273133904180e-02,3.693494416711969736e-02,9.213168228590096209e-02,7.703261537448186091e-02
2.723122590398504520e-03,7.960953053212302399e-03,8.499268328787563942e-03,1.467670399350370046e-02,8.718158592013780170e-03,6.992773752877814650e-03,1.600809368575626182e-02,1.368183676998315466e-02,7.036800678269168607e-02,7.375741387343802413e-02
2.850106772342998404e-03,6.976938123204387901e-03,1.325572409605476829e-02,2.186031079988756329e-02,1.451204586273607475e-02,2.671525653391865554e-02,4.565705117307918004e-02,8.331472619579154398e-04,8.146098968695995868e-02,6.342054903429232560e-02
1.684053528171579198e-03,1.383857776881797577e-02,2.315017755199386129e-02,3.445282836634738777e-02,2.280859011173216877e-02,3.953377349529262064e-02,4.800227208039371807e-02,1.517912476893147795e-02,1.250788775355772542e-01,5.229343173609580370e-02
1.643312200027812744e-03,1.739176439719303940e-02,2.410172504813252667e-02,3.821940038225907915e-02,2.494083184208499213e-02,4.187135560095257836e-02,2.841301147225499396e-02,4.328531702414994270e-02,1.570398653765106289e-01,4.508633866262455603e-02
2.684496101383052318e-03,1.209183586337960609e-02,1.338284887224937096e-02,3.020250321732445564e-02,1.932826384682226686e-02,3.928495650369070308e-02,1.642263626661979309e-02,5.621046421404329169e-02,1.457237284505087105e-01,3.604342704377736656e-02
3.004372008428391177e-03,2.914757792758182909e-03,1.631304003361249734e-05,1.920631711479262385e-02,1.081746470626492734e-02,3.545903255602373544e-02,3.884782510940545247e-02,4.254489481490440761e-02,1.061632413170972844e-01,2.133526736523074299e-02
2.571168611100660938e-03,4.984765068616470521e-03,1.036071298517559323e-02,1.123832763862055162e-02,2.412242141509677879e-03,2.802083866221730807e-02,8.233451787352362439e-02,1.643301415382168035e-02,6.473677578704738200e-02,8.222796801457942645e-03
2.727342047100618765e-03,1.230519083173946260e-02,2.043231634042834075e-02,4.151797051999068719e-03,6.042563055233034219e-03,1.676746192031255620e-02,1.105394633386724002e-01,5.146990158671617237e-03,2.459555376539728638e-02,2.970745850909674649e-03
3.398642558085290984e-03,1.924087688883511019e-02,3.182305993546030720e-02,3.522627742022819888e-03,1.294073818868554486e-02,8.014389068634282520e-03,1.157328701855183939e-01,2.020957801426095587e-02,1.873624025601488413e-02,8.226101366438856458e-04
3.636046598035205107e-03,2.164653670603611940e-02,3.899890853890726483e-02,7.681903215360091214e-03,1.547012875175028321e-02,6.588762422027031988e-03,1.234343900622590917e-01,3.581335489647279741e-02,5.595220763239704131e-02,1.310903576875513225e-02
3.622938170386870438e-03,1.764812396689457302e-02,3.658153916115559207e-02,5.293303437081133510e-03,1.421714528684897387e-02,9.064296768824527811e-03,1.494545665624233133e-01,5.388037533696363179e-02,7.392613913027464012e-02,3.287900182514622016e-02
3.719632499442069792e-03,1.212405959300452522e-02,2.730692617824934110e-02,4.672327110499395648e-04,1.209863702414051313e-02,9.152869959077410481e-03,1.802773988483572509e-01,6.587001010913391685e-02,7.152616832516968393e-02,5.027138154087058136e-02
2.983773275331652770e-03,1.080891275428166182e-02,1.895571862910303343e-02,4.407985501300060172e-03,1.031415805096778243e-02,5.416383511810574265e-03,1.954166040550663619e-01,6.113261616196158377e-02,5.834269695639848763e-02,6.029937932468153877e-02
8.266614026133507721e-04,1.413418959742029392e-02,1.650412775530433335e-02,4.294221080521073292e-03,9.209850237640412884e-03,4.504067557601207556e-04,1.900767635370644582e-01,4.275449802422388867e-02,4.707981503706233639e-02,6.833602292094424768e-02
1.202722804794841699e-03,1.909824561996076656e-02,1.966396583271235940e-02,5.058621344424035424e-04,1.031725072142178172e-02,8.600628336579724947e-03,1.766407298155865391e-01,2.954476653006103334e-02,4.687869627699645103e-02,8.134634936458010057e-02
1.314612626454429289e-03,2.309797630654242956e-02,2.488823234570516907e-02,5.570134204938174960e-03,1.413008101396087159e-02,1.874635500952125805e-02,1.730154186809721994e-01,3.269543916452465060e-02,5.660174927862713506e-02,9.824672535073276924e-02
1.382792736758159998e-05,2.443949574175918391e-02,2.792901871022908031e-02,1.209581295265413706e-02,1.859445580365278600e-02,2.596750253496483626e-02,1.860013026769567757e-01,3.781079786419826172e-02,6.712589284623853014e-02,1.129573280916697370e-01
9.710623923627676769e-04,2.260784094146254045e-02,2.686797580178648323e-02,1.758863534778434476e-02,2.178407920322435881e-02,2.534799444043752195e-02,2.038294251276462909e-01,2.512539196057757621e-02,7.335467291010484836e-02,1.249061670450786060e-01
1.006122921008272822e-03,1.903966547317523933e-02,2.344249995287730690e-02,2.113112210601834212e-02,2.352354980346312019e-02,1.970199110517103711e-02,2.084669081609808738e-01,4.144771070548874253e-04,7.876918734249237219e-02,1.403860413774701277e-01
2.116916574478801976e-04,1.568579861876863782e-02,2.032842114632412572e-02,2.185813280084910465e-02,2.391581978043636966e-02,1.680116452507061583e-02,1.930067078931785307e-01,1.089409234972758822e-02,8.732984157383784363e-02,1.622051814719088214e-01
1.737736274199606955e-03,1.300709025127095263e-02,1.814910282500423536e-02,1.958495648791117386e-02,2.283299344563030978e-02,1.948829432995151378e-02,1.669298964753356818e-01,5.285465746326901797e-03,9.757842810290891233e-02,1.835466682503830438e-01
4.665309711956476708e-03,1.043334414507464565e-02,1.610234162250687856e-02,1.559749287028085532e-02,2.088376239792108860e-02,2.367066686751752302e-02,1.474693761155647931e-01,3.859391091638970928e-02,1.061418101374587142e-01,1.961173609355743863e-01
6.822993137807074199e-03,7.809837672104146672e-03,1.390483991390730964e-02,1.149240533700369299e-02,1.907424187984342254e-02,2.521246250841605030e-02,1.417887192503351768e-01,6.508384657852184230e-02,1.120451370346177977e-01,2.012288762368239781e-01
6.635470942518480880e-03,5.400766659353207003e-03,1.190339393092296021e-02,7.654727944918139453e-03,1.768134492015788553e-02,2.409691261720253719e-02,1.420056112709507101e-01,6.538150817661705916e-02,1.159750845898650656e-01,2.080183902661754403e-01
5.045474793352288691e-03,3.221784088763400816e-03,1.022341584115673413e-02,3.629550099806535049e-03,1.637221370889727079e-02,2.252186145436306519e-02,1.472053940486831025e-01,4.128027732660959070e-02,1.180748184246565718e-01,2.224321017742846296e-01
4.440842616297661742e-03,1.185484326460247827e-03,8.692759417158245003e-03,7.448515620732012836e-04,1.499867982830610513e-02,2.250373976010960550e-02,1.708572366100481188e-01,1.563910673679561047e-02,1.176052731624677716e-01,2.428966744768066843e-01
5.346947571805857335e-03,5.331523515695294098e-04,7.236502994823723958e-03,5.241982539580834072e-03,1.369041528597076188e-02,2.493993530987543075e-02,2.095807289912090809e-01,7.686356359246675901e-03,1.137975051216870009e-01,2.655726427112919952e-01
5.779320709576808886e-03,1.914522408852409492e-03,5.918385542215479078e-03,9.745625973152309551e-03,1.250062187128507009e-02,2.903969266361975179e-02,2.384876636449965448e-01,1.302273948994860271e-02,1.068943619733269124e-01,2.884067973843922328e-01
4.064369412904367783e-03,3.394888747879801476e-03,4.757169084280232427e-03,1.431901541207580321e-02,1.135224430071491743e-02,3.292707005283317112e-02,2.556330655314619227e-01,1.602804619252262003e-02,9.849382926258079540e-02,3.093736999315112035e-01
9.120487359726396496e-04,4.916253299402524243e-03,3.705528462896120773e-03,1.896643680863840595e-02,1.020286494626396027e-02,3.525711697356975066e-02,2.796142922305330791e-01,1.248345819657607075e-02,9.034269300245283130e-02,3.252787541795814641e-01
1.687206433343057090e-03,5.467737442890781632e-03,2.736320866607878325e-03,2.357972172091754581e-02,9.074667908060496391e-03,3.581188092581429061e-02,2.853489289698960540e-01,8.057429001454204445e-03,8.293301355969143196e-02,3.352653265113862968e-01
2.680006479929963360e-03,5.215683881928083118e-03,1.854063279587789964e-03,2.806833301778682496e-02,7.977745500038392265e-03,3.501874452158422468e-02,2.138921781685983736e-01,1.892507835940671589e-03,7.580279392299689445e-02,3.426137245975334755e-01
2.598734723621437624e-03,7.004845278875850359e-03,1.055193956280064092e-03,3.242814471432932388e-02,6.890993361581160617e-03,3.393779193969524710e-02,7.375315612611049731e-02,1.347036284839370907e-02,6.868720678566966886e-02,3.492841725273200804e-01
2.411351418224470192e-03,1.262214517352492661e-02,3.226932683928324629e-04,3.664550705365451910e-02,5.798670082569026829e-03,3.408893678902132768e-02,4.095919628607070512e-02,3.610922178751298228e-02,6.173706666908010399e-02,3.518019058258771703e-01
2.390929277559722572e-03,1.828755684255825922e-02,3.549432444892681657e-04,4.057764071395435906e-02,4.709619951635051968e-03,3.570865559663673194e-02,6.423429766657845486e-02,5.089751646760842102e-02,5.503639006589231691e-02,3.462749333065993640e-01
2.380791168317793454e-03,1.814602175735371623e-02,9.805813626291692148e-04,4.407561229484355941e-02,3.639506755674208789e-03,3.689250868006779815e-02,2.520325216468440391e-02,4.546160768576720107e-02,4.847915859708454983e-02,3.328284061184022535e-01
2.467930950141443511e-03,1.220507172518030606e-02,1.556984224504892947e-03,4.723373603320745601e-02,2.581079405813607990e-03,3.628245479781994770e-02,2.146040278889637873e-02,2.275737961340106724e-02,4.200130555642586638e-02,3.123465594648286991e-01
2.641636286110060280e-03,6.332013242309829371e-03,2.088142238110226277e-03,5.017624499651523323e-02,1.513715250703576935e-03,3.502444944331764565e-02,6.449314242229482741e-02,3.943562884354994032e-03,3.565071501876651561e-02,2.848830249035718132e-01
2.406959807674161241e-03,4.332423337123680711e-03,2.575143025894031067e-03,5.252695304599359905e-02,4.612897680948751730e-04,3.388377853420120045e-02,1.034478135490784212e-01,2.322461577696707455e-02,2.945858972579196156e-02,2.522823481173907534e-01
1.659282713289901524e-03,4.464857675090971867e-03,3.015434725551571077e-03,5.382740272179575847e-02,5.141178527694953426e-04,3.097583841261915272e-02,1.087738211718382031e-01,3.242538608381493465e-02,2.338621332638727429e-02,2.165508542825879956e-01
1.241949658151673790e-03,3.889303299034450618e-03,3.404754599517944690e-03,5.473169093395295615e-02,1.433623961077511383e-03,2.458511997611506628e-02,6.061121295048812335e-02,3.525563500737709244e-02,1.743172007863036041e-02,1.780008397811880250e-01
1.685881019755146272e-03,2.387566377344125818e-03,3.737578559575378302e-03,5.643055323419812752e-02,2.398044836974770090e-03,1.554067740360064349e-02,1.062623419418905896e-02,3.362007699310703285e-02,1.170620174050285289e-02,1.404510046309534466e-01
2.345646408500500629e-03,1.001262323251514907e-03,4.006422151362870956e-03,5.826611301744936966e-02,3.330746095029023593e-03,5.853596790765024614e-03,5.968970512096190284e-02,2.538881975575179445e-02,6.244607669955465346e-03,1.101660960667633082e-01
2.609174270449732616e-03,6.261872874043720571e-05,4.201911236958125878e-03,5.787453352772876231e-02,3.973606381266710230e-03,2.405372133594093926e-03,7.843288615917401452e-02,1.144039575089476207e-02,6.149387523251299142e-04,7.925966004924783759e-02
2.657413461336956013e-03,1.275948144471381746e-03,4.313392168756436003e-03,5.463150282155818105e-02,4.432507240120153388e-03,7.655523354509610051e-03,9.248520125818893156e-02,1.694749403373674475e-03,6.100606632628557784e-03,2.164605573840037642e-02
2.454615264146218188e-03,2.927002560291781016e-03,4.329216234663583150e-03,5.065516767330398296e-02,5.261144165133076200e-03,1.066235748032503400e-02,1.256271231840939417e-01,9.017553448158886070e-03,1.434254831527711355e-02,7.283667395252796384e-02
1.620033767601829862e-03,4.778434481676244704e-03,4.236984306333368457e-03,4.753337121302736445e-02,6.459004141823052395e-03,1.423604921019749024e-02,1.755183240574686998e-01,1.119187440327270092e-02,2.284749010571288444e-02,1.668721294403924249e-01
6.075165742237193574e-04,6.222841287895829361e-03,4.024060632769073560e-03,4.447675782853115212e-02,7.131287240945791139e-03,1.957963503399384048e-02,2.140867874308726715e-01,9.802503952666002246e-03,2.923265041903474332e-02,2.092685872513779799e-01
3.392991028524637879e-04,7.124724256446957234e-03,3.677787815593100071e-03,4.033684453774440126e-02,6.863004629149133638e-03,2.462463298919035509e-02,2.140792185038849771e-01,3.467371002447820500e-03,3.251092030033564395e-02,2.016503924446932661e-01
7.616287811715395433e-04,8.402470255127719723e-03,3.185417310091283663e-03,3.525395081372940942e-02,6.315222528608548970e-03,2.596774920718109350e-02,1.735202961028561308e-01,9.414485444861783042e-03,3.412228599295445003e-02,1.987395180374261772e-01
1.215237952833618084e-03,1.089166007893992670e-02,2.534923049517049439e-03,2.978136575820415285e-02,5.843956827693371284e-03,2.131221872648332571e-02,1.056354062129309795e-01,2.646988970668659111e-02,3.575577460752984993e-02,2.415974026909446792e-01
1.632028627881755047e-03,1.388825378213379494e-02,1.716335432671289244e-03,2.392845722261270971e-02,5.215785411934955457e-03,1.239553199011496874e-02,2.525320873421717238e-02,4.143446887932233230e-02,3.752332938666033679e-02,3.247634008225632196e-01
2.153650496676871081e-03,1.598619216697606468e-02,7.210696691312606715e-04,1.750530400153202382e-02,5.014498452646374421e-03,6.362492660340483656e-03,3.702695561149435544e-02,4.902192286993979631e-02,3.909288437214598899e-02,4.218793077161098748e-01
2.351900968460148532e-03,1.718297001465432169e-02,4.599127531559624388e-04,1.057766112309197100e-02,5.962539218360084561e-03,9.307432908310025316e-03,4.127568813872404402e-02,4.965198481997345342e-02,4.074424756983457269e-02,5.042301506532161914e-01
1.651075861905591281e-03,1.890670279790762284e-02,1.833718801489768024e-03,3.312920357090427120e-03,6.765793647800780880e-03,1.739015986042005343e-02,1.477975568041652726e-02,4.701687954057284791e-02,4.232906901383799714e-02,5.423075553627855205e-01
1.436224293799088136e-04,2.189329623888054341e-02,3.400662503218165530e-03,4.235363682902131346e-03,5.372643910196225545e-03,2.069262082325524013e-02,8.751472828884097888e-02,4.091579475918299263e-02,4.306203509040382182e-02,5.233520104515854143e-01
2.944462156520192761e-03,2.527661135304309914e-02,5.158507328460076521e-03,1.206182409034481373e-02,2.193866749784799397e-03,1.636484268323080624e-02,1.442374402521698351e-01,2.798391691344670126e-02,4.270172938102344967e-02,4.621985650734265483e-01
6.078464502076763414e-03,2.810464080992559552e-02,7.112365784478924362e-03,2.011247285624735356e-02,5.123359194320146201e-04,1.083790625755718696e-02,1.923082513165147167e-01,1.156240376368883327e-02,4.093854152262252355e-02,3.848680757403581398e-01
7.963147831261813137e-03,3.060972944587076958e-02,9.265449730222429653e-03,2.831232219035633921e-02,1.834006325715483885e-03,9.584904784787752138e-03,2.393760292926313538e-01,3.471228206040340419e-03,3.639481955708694788e-02,3.170128687864613992e-01
7.541854704264286391e-03,3.348968070522052864e-02,1.159741159143252466e-02,3.660637379033472583e-02,2.514081801347615042e-03,1.225291774185972155e-02,2.671749498947347812e-01,1.002059612676741221e-02,2.886868208683899401e-02,2.760027387018939016e-01
5.949582023112840769e-03,3.678556182477633191e-02,1.408343710205259454e-02,4.495675829630524367e-02,2.820675804565731665e-03,1.740397779834818720e-02,2.657954822667294992e-01,2.172079425571435754e-02,2.128430097866732679e-02,2.489652243097333906e-01
4.904233332829911231e-03,4.001617270375634056e-02,1.674107730508533551e-02,5.333894498723396743e-02,2.111061512384601775e-03,2.516294675433288636e-02,2.593920319310743516e-01,2.467038967487709955e-02,1.658103483963953295e-02,2.068930033348173048e-01
3.981567839421927026e-03,4.312135749848223371e-02,1.959094695466674987e-02,6.172768510706906631e-02,4.936056065577851606e-04,3.400653417118611188e-02,2.741584619069786233e-01,1.876629876643966938e-02,1.392068613699109711e-02,1.586437365686782508e-01
1.884967122694859243e-03,4.671809917715800953e-02,2.255610464915889374e-02,7.006930601752578425e-02,4.692107095160406079e-04,3.926808728772231832e-02,3.024708314256476793e-01,1.587300810827088973e-02,1.026885572860444795e-02,1.410925043336291596e-01
6.034928316185274744e-04,5.094992308574814582e-02,2.554394415625949391e-02,7.832329883321223485e-02,4.928582767247896654e-04,3.764931015942605402e-02,3.141251587641783471e-01,2.110588434830517127e-02,4.348732077560934356e-03,1.493572710988644581e-01
1.667337557443992948e-03,5.462899101898950616e-02,2.866395849385380487e-02,8.654182709815383401e-02,2.688436682029243623e-03,3.205796518684440877e-02,2.907872203885716322e-01,2.567833234381022844e-02,2.824633509922996194e-03,1.441406662036151254e-01
1.297979645329323285e-03,5.684175203025126910e-02,3.205939246852820834e-02,9.477908295564589636e-02,4.592464018706165184e-03,2.847332028257585496e-02,2.412145496257733224e-01,2.191647017137217726e-02,9.996717003521430125e-03,1.218203708884358777e-01
8.215176784789501212e-04,5.885118416548677789e-02,3.543848666337080788e-02,1.029106063395660159e-01,5.952897563859749219e-03,2.744558016227809094e-02,1.834461581885930559e-01,1.722268298247279714e-02,1.673006639950647828e-02,1.037051439984557621e-01
8.176758856172246497e-04,6.266248504838160815e-02,3.842243167805010212e-02,1.108234677576222932e-01,7.680239613870739127e-03,2.369692360053566801e-02,1.233972050952397564e-01,2.465864187156036405e-02,2.325089659495071723e-02,7.958884770980166612e-02
1.033112181275526150e-03,6.866833180108322665e-02,4.156197646222763165e-02,1.188127290915506618e-01,1.018877445360715818e-02,1.627663443485238143e-02,7.080132907914968299e-02,4.355030326492154852e-02,2.980033659174867455e-02,3.869211031546609253e-02
1.150280181939514071e-03,7.571496891658076323e-02,4.563737447419410898e-02,1.271896628635616755e-01,1.264769167952580278e-02,1.228102798142880966e-02,5.700597388911607388e-02,5.845082245845738961e-02,3.545227078232596890e-02,2.298793310754373986e-02
8.220247214534754949e-04,8.077205679365259683e-02,4.937333723519481132e-02,1.353657052562114715e-01,1.381292346923398279e-02,1.617691475062162793e-02,9.215872714619048611e-02,5.604473753499719657e-02,3.843675264659082019e-02,7.760712873252720301e-02
3.571140061931640471e-05,7.909539950546551346e-02,5.041730666659578058e-02,1.424444093409609480e-01,1.354591467599782460e-02,2.231050510884506274e-02,1.244549222006963995e-01,3.694161350893395562e-02,3.909619867085676465e-02,1.780094052246532221e-01
4.259215479639201192e-04,7.019546978335589049e-02,4.993408038512217595e-02,1.491693770338672342e-01,1.312179695912220681e-02,2.320590753521498822e-02,9.922506669454034256e-02,1.256056362918146763e-02,4.061226410461064862e-02,2.554228106219199046e-01
3.989121524152787674e-05,6.108192801200676425e-02,5.179343386642270425e-02,1.576128878684312506e-01,1.350950009669506409e-02,1.925589866306321243e-02,4.010547783010358358e-02,5.910536815259583888e-03,4.396900387352529332e-02,2.692280329780376014e-01
8.075251723569631382e-04,5.551398219440147747e-02,5.391066257053170330e-02,1.678904780357147464e-01,1.429629734681089892e-02,1.509984566757165483e-02,1.093273949906449494e-02,1.670643396521802326e-02,4.453813375944781772e-02,2.326119372432259580e-01
9.841682528316929735e-04,4.530245543164097138e-02,4.641948676818297148e-02,1.770455867336725164e-01,1.510703313925587134e-02,1.146200744008410953e-02,1.563742640561055497e-02,2.612075246810259890e-02,3.831467438992915836e-02,1.871622551190284811e-01
7.416314329675480731e-04,2.297321880573879177e-02,2.494966021814266563e-02,1.829537499430180791e-01,1.653677196753499529e-02,5.973391240711642229e-03,4.282896456728083751e-03,3.750404456336111497e-02,2.967083413809076808e-02,1.578530715892808023e-01
7.398414484376825834e-04,4.508127835162179659e-03,2.931339925175727949e-04,1.879873437655779078e-01,1.881905173588819397e-02,1.157333503106976191e-03,3.159715306682797653e-02,4.474726062016246009e-02,2.644745865035006208e-02,1.286571005146403823e-01
9.150085467771164544e-04,2.689189606191810453e-02,1.338067084928288610e-02,1.966128750057235808e-01,2.119322605129164705e-02,7.462721897827501866e-03,4.583518925299420732e-02,3.958905690432616697e-02,2.809392098655511677e-02,7.180061052149078193e-02
7.484329523406777190e-04,4.543174114541741193e-02,1.548705854101279158e-02,2.096904400519569167e-01,2.288172612678587153e-02,1.234847358159734364e-02,2.564359133882500655e-02,2.394577615341792962e-02,2.683176881984324774e-02,4.476957113315280928e-03
2.468490074578196750e-04,6.352978113659248083e-02,1.574524128865042658e-02,2.233449124695443821e-01,2.325283820982667130e-02,1.650348184279347430e-02,1.799285578902679039e-02,1.100087311257887286e-02,2.094697845436712530e-02,5.818895392392449406e-02
2.432493276612024934e-04,7.542764730220398450e-02,1.870922944067109073e-02,2.340939532948638213e-01,2.167870263635777658e-02,1.884451385020507672e-02,4.820713810078467582e-02,1.173871876656915753e-02,1.624984024712050265e-02,6.489782770210641982e-02
7.487828668406046415e-04,7.854856368407979461e-02,2.166217369845190380e-02,2.425157235987531190e-01,1.877794542689116553e-02,1.826987312716516279e-02,7.526625038784624799e-02,2.377129759646853455e-02,1.196236415263182522e-02,4.767154093240872498e-02
1.212904661354146253e-03,8.432223314656467350e-02,2.469321137706828595e-02,2.490058069796086404e-01,1.683409765541173456e-02,1.708349545730199204e-02,5.461764332221530349e-02,3.761940009334753532e-02,1.363118782649152486e-03,4.607941476409350978e-02
1.008982263790604876e-03,1.034792840213354104e-01,3.219686630821402828e-02,2.479401825729524167e-01,1.743693702126997147e-02,1.842247755413804755e-02,1.739341349757293591e-03,4.883701062392763192e-02,2.438081179499167195e-02,6.949107130614648464e-02
9.077238941153519436e-06,1.322555037321875293e-01,4.473426214760949787e-02,2.326905121480556116e-01,1.926344811370496110e-02,2.091366766194227567e-02,3.179869822144830438e-02,5.671425079060023883e-02,4.498943196644652337e-02,9.551449797209253523e-02
9.013121304575761987e-04,1.618735797619034467e-01,5.711598246946611446e-02,2.081768489168414338e-01,1.946862646652072412e-02,2.020836319975972614e-02,1.824449267664834951e-02,5.747064876737149886e-02,6.005475516203908487e-02,1.042263906321627964e-01
9.778985901654426056e-04,1.874064615726176997e-01,6.465279156034507702e-02,1.890029030395297682e-01,1.703640866694702827e-02,1.600691979517678346e-02,3.300324352184350052e-02,4.981148148198707298e-02,8.290654504292638283e-02,9.826256017557678801e-02
6.794592454473973118e-04,2.006838944914162981e-01,6.721448879784111541e-02,1.756133578708176657e-01,1.272400367385920043e-02,1.301796359199797887e-02,1.002304902256831443e-01,4.280243328339482928e-02,1.177130432897670609e-01,9.430879196917320295e-02
6.033397747836922185e-04,1.913304082748299995e-01,6.843915433971597961e-02,1.378038235752549190e-01,4.646052391789153545e-03,1.402893441092265166e-02,1.577041392454304469e-01,4.580147995086796681e-02,1.460993529615957354e-01,1.067875282836645567e-01
6.884754768490768508e-04,1.623821371548763437e-01,7.331842341557071041e-02,3.792331977743128302e-02,1.265464289891532479e-02,1.613215019130389422e-02,1.753173487550934717e-01,5.270738934188311936e-02,1.530182741042701577e-01,1.378789640774318870e-01
6.706994988592481508e-04,1.305669287393054490e-01,8.420553092024293806e-02,1.226956576795322218e-01,4.043236288885414947e-02,1.457055100835676943e-02,1.460195036520485767e-01,4.940607066846774975e-02,1.470823646428627007e-01,1.745401158319869750e-01
5.706489096795994316e-04,1.060773998851795297e-01,9.675550442137910434e-02,2.909796164299304766e-01,6.947691121202767550e-02,7.501476255417601109e-03,1.057353365875878526e-01,3.666812676881931604e-02,1.423404856131214036e-01,1.956352890549364065e-01
5.121269571825795173e-04,8.383548866828068047e-02,1.019247129767800325e-01,4.059241580429429619e-01,8.725091034880104457e-02,2.214500863789154676e-03,9.790055624619949104e-02,3.112379547358242599e-02,1.371687587104092054e-01,1.909135384396981605e-01
4.882660466138232652e-04,5.644261994332069876e-02,9.453253634926581106e-02,4.491687145963330074e-01,8.979387322739458555e-02,8.139466298389682469e-03,1.283429851784738951e-01,4.063905516605766793e-02,1.225050229237730076e-01,1.743332596451371841e-01
4.423391439975255272e-04,2.596427797457452613e-02,7.838148622413954048e-02,4.483017279548371370e-01,8.192520233349043224e-02,5.692996070214926402e-03,1.743769243644077427e-01,5.282692911373915862e-02,9.775809253638804985e-02,1.685601521580010753e-01
3.783026574864070722e-04,2.749735933856703451e-03,6.173002470739454017e-02,4.437379734254728869e-01,6.894731823580811658e-02,1.963216989318872317e-03,2.181793022287472628e-01,5.405522438643865779e-02,7.027265835634947944e-02,1.744640348847991684e-01
3.243454511321470731e-04,2.749565827449503702e-03,5.033235871974249542e-02,4.574875948272507098e-01,5.384400066301454901e-02,5.861791426614813665e-03,2.468471569402907184e-01,4.834695793160035532e-02,4.760814664582092154e-02,1.701773652843689422e-01
2.805842138401698645e-04,9.091233987094243796e-03,4.573155327401878800e-02,4.803421704992651975e-01,3.976018927602957553e-02,6.139071229530122624e-05,2.395679737101100715e-01,4.878250763691056868e-02,3.511195650767350018e-02,1.453364580950619045e-01
2.354316576288692509e-04,2.305050156073924425e-02,4.654184708470648218e-02,4.842318131411840754e-01,2.940912129581226692e-02,1.312419860183868664e-02,1.878905984280292429e-01,5.763680531124622253e-02,3.514952485166344953e-02,1.191013363258169033e-01
1.903745277561902480e-04,2.280697429111508759e-02,4.878609575872907417e-02,4.523653931693365493e-01,2.257944160387416466e-02,2.433858665518991160e-02,1.206010126568638208e-01,6.479625502153671390e-02,4.447528770508234197e-02,1.137992114396611937e-01
1.526099361070353683e-04,7.974547490959157242e-03,4.677209057286856736e-02,3.950507258746563943e-01,1.705475421640560013e-02,2.645024225918926608e-02,8.124408121893864076e-02,6.217410936386214004e-02,5.453575324220131387e-02,1.255322312284521680e-01
1.230379326719836385e-04,9.635733594778742375e-03,3.656191996779623726e-02,3.366124049081853364e-01,1.137587706750197054e-02,1.984202082334008549e-02,8.537463198647088358e-02,5.048639749738371985e-02,5.692482039805551314e-02,1.340055143376696623e-01
9.943066394840009941e-05,2.361863490762920736e-02,1.909513572704510387e-02,2.938413580256697966e-01,5.413898050932862416e-03,1.054219412606664276e-02,1.131698377356775281e-01,3.380570232440743145e-02,4.852846492221474239e-02,1.306338744365487803e-01
8.263940283067432776e-05,3.804186036433580137e-02,1.204180224840667793e-03,2.644837038635328708e-01,8.663419352737400381e-04,3.998661532993501473e-03,1.313151940019308406e-01,1.710905210507352239e-02,3.168393749213377353e-02,1.225021557650324555e-01
7.536674644953020774e-05,5.519966394662181169e-02,1.962188045287831945e-02,2.327919348407211375e-01,7.503185157160937799e-03,2.031421604655045919e-03,1.164926136109931121e-01,8.677459872330210017e-03,1.121793142278013772e-02,1.144815850586132500e-01
7.797879291463477992e-05,6.666866764736698037e-02,3.142035800526844086e-02,1.905157929430886798e-01,1.289056562769127709e-02,3.657236942326154948e-03,7.465444326632120209e-02,1.346796073439492959e-02,8.279893069588133842e-03,1.030503720001066797e-01
8.851899268784815030e-05,6.301759889439159656e-02,3.319151359394213047e-02,1.480926702504895276e-01,1.379678757483294299e-02,6.320150050039309575e-03,4.016975328581853799e-02,2.148781867654832312e-02,2.442598215002211859e-02,8.853700557733805432e-02
1.072846735334004374e-04,4.871935955202368745e-02,2.771636759882702139e-02,1.174492112353280604e-01,9.040575970253306864e-03,6.858963433400502158e-03,4.311550112633755205e-02,1.499220199273957818e-02,3.761093147952315752e-02,7.913994781546389301e-02
1.379757909523424467e-04,3.735208983698833779e-02,2.229339071292944091e-02,9.401759063606111855e-02,1.790391991367813480e-03,3.298005091496565653e-03,7.719886569900555329e-02,6.788571879199222295e-03,4.867363428901873984e-02,7.709979381094785034e-02
1.799707405499522794e-04,3.336058294569316934e-02,1.890952509505390913e-02,6.621856428948499906e-02,3.821472686374138318e-03,3.402625057422687532e-03,1.084024536694238455e-01,2.203771832925721305e-02,5.627435756672762718e-02,7.365259182076569489e-02
2.251823090762687153e-04,3.075420557755184289e-02,1.319933574661095489e-02,3.180307946086827209e-02,6.400953205376702648e-03,9.966833109793236598e-03,1.153058920077699862e-01,1.412388002547521754e-02,5.874996082882515819e-02,6.547354551001230427e-02
2.735236620734230665e-04,2.851663008863862536e-02,5.573289138228193149e-03,4.237567640945669178e-03,6.104011309274683453e-03,1.383410094135490917e-02,1.117011777097119130e-01,5.673386955005741902e-03,5.787046597564619865e-02,6.185770173672293371e-02
3.402740890783649119e-04,3.349586690053043408e-02,4.036498786580114753e-03,3.812483354404724162e-02,3.004727867748993760e-03,1.534133348579754495e-02,1.225597960453787549e-01,1.271248367433187518e-02,5.735852959439882714e-02,6.597345192484317666e-02
4.237328988199135860e-04,4.730346729082343660e-02,1.267998991842998746e-02,6.763741284862742620e-02,1.558013887542018415e-03,1.664839842163247721e-02,1.433791510391754231e-01,2.670613142514819457e-03,5.830130146626649051e-02,6.563221760905713076e-02
4.884734942186091900e-04,6.004651360882285599e-02,2.545563127733249664e-02,9.003192425304801239e-02,4.756615923677172571e-03,1.868642895787618260e-02,1.352720564405174575e-01,2.886545004025945285e-02,5.943519197150814309e-02,5.360768828932416241e-02
5.336913057621220932e-04,5.788411780147733471e-02,3.440931553294111767e-02,1.003054136964027232e-01,4.728329874837014328e-03,1.968479049243730336e-02,6.758478550643395866e-02,4.774469060202617132e-02,6.049883909658192865e-02,4.012136297493110182e-02
6.334948219924027091e-04,3.512892637373073168e-02,3.859746151038459527e-02,9.144048180035005413e-02,2.407074540893176101e-03,1.780504085956243626e-02,3.713049196032651433e-02,5.105919829117296777e-02,6.172607919190671588e-02,3.532863295815911325e-02
7.986905558908395566e-04,3.061493750217682015e-03,4.206324879800701910e-02,6.465312634966760563e-02,1.204586068174147212e-03,1.462818419407160668e-02,1.162299836531860558e-01,4.542142548483946857e-02,6.166914631810654912e-02,3.518151374495254169e-02
8.380633987232643687e-04,1.598685223081959886e-02,4.549290939861061478e-02,3.746359139393806714e-02,4.017309612317087816e-03,1.312765744100360087e-02,1.344619246742465024e-01,4.240285485516528258e-02,5.851589261391636210e-02,3.226904532539998094e-02
4.454233064172529203e-04,1.060144321949844926e-02,4.384325793815846417e-02,2.830508729198656995e-02,9.083567975203075268e-03,1.275069504313557610e-02,1.195138551974458813e-01,4.673792054833355442e-02,5.240260175046398960e-02,2.758337412473966729e-02
6.298557399417822368e-04,9.431933204341148153e-03,3.435976644776359001e-02,3.610406045331367858e-02,1.131984143308284105e-02,1.074992087857913614e-02,1.161017193820283733e-01,5.697314528296273939e-02,4.515526941798205657e-02,2.554993740630565058e-02
2.293632657740761471e-03,3.133663983696864663e-02,2.340088788428914060e-02,4.810373614576098772e-02,9.607426608980994612e-03,7.543549111122662375e-03,1.306909331359682180e-01,6.967240137993169213e-02,3.912729204131928928e-02,2.602074709222169241e-02
3.643216895023142308e-03,5.531337807518944133e-02,2.028919751491636836e-02,6.079316120048562644e-02,8.488499091982709688e-03,5.774902718124587733e-03,1.432099881643037198e-01,7.705151823315378734e-02,3.631105295299707353e-02,2.545694168189195639e-02
3.355566458345365932e-03,8.075856641361545130e-02,2.643894910255942948e-02,7.789338556295564986e-02,1.047749756707081273e-02,4.989415302203739112e-03,1.458709201051540671e-01,6.989777744085914901e-02,3.659788910255910160e-02,2.148559070800072635e-02
1.315355351824960481e-03,9.097267087030465327e-02,3.543454371643076778e-02,9.466831360738862944e-02,1.201698692157657927e-02,2.256940279891637459e-03,1.429107264242616138e-01,4.961386574081397965e-02,3.714216182713277192e-02,1.401702043219007349e-02
8.471030163944498004e-04,7.195991534767416653e-02,4.224342235487504871e-02,1.013253095176761265e-01,9.818597818102363720e-03,2.364923403387151051e-03,1.333696474313346425e-01,2.992007481857709289e-02,3.557317418553589128e-02,5.055603727282529866e-03
1.676132786572014218e-03,3.849663795958049861e-02,4.733542102983036987e-02,9.992721437097719372e-02,6.184071781499667249e-03,5.358289373656766573e-03,1.174124591688544689e-01,2.168678467358061551e-02,3.314574332665212036e-02,1.427918368556482451e-03
1.469427248793138364e-03,1.826586074883511379e-02,5.147346789264448108e-02,1.037098097154948995e-01,4.889239574347357953e-03,4.759577542521212061e-03,9.947207682667272288e-02,2.145045461186992006e-02,3.203301287358469029e-02,2.817925985714169780e-03
1.273054055159502426e-03,1.478094451864927009e-02,5.111684197188255674e-02,1.179921033154508331e-01,5.960991515715385880e-03,1.903759203795209968e-03,7.073907008974822386e-02,1.877383204152375390e-02,3.062647821733605058e-02,1.112635816303103077e-03
1.385689894983942703e-03,1.127988132937957945e-02,4.252556731880160340e-02,1.314180077998404472e-01,7.725038809516896268e-03,1.653835097036177905e-03,2.046625178848113236e-02,1.106370826485984435e-02,2.542131995778607739e-02,3.673540401991446519e-04
1.526618592372056557e-03,5.663026546177825013e-03,2.859578721840421583e-02,1.296250174259183929e-01,1.007240328689882128e-02,4.674181791854139893e-03,2.040568354837091203e-02,4.656658410016620633e-03,1.694952227330751016e-02,5.722827195160564567e-05
1.566797545611755193e-03,1.041025164660955640e-02,1.739258862782989273e-02,1.129147736320136597e-01,1.217261502423572228e-02,3.985312253040182960e-03,6.573326582702241488e-03,6.496181200016269350e-04,9.604995654119553514e-03,6.296059290545526557e-03
1.482139268015571264e-03,2.065800730326212975e-02,1.389101278659570990e-02,9.599597711625561247e-02,1.097202630269382417e-02,2.887103345220123560e-03,1.024291608144791976e-01,1.124874047461092881e-02,5.948792530990969565e-03,2.508512989584374062e-02
1.051924278212343659e-03,1.650027519282947636e-02,1.670601771079765346e-02,8.999181247162159336e-02,5.800438928968301364e-03,1.243168379182605331e-02,1.866479372489101840e-01,3.693171328953806509e-02,5.222706734808672813e-03,5.247383431916301938e-02
6.114408973445656923e-05,8.524015895891336181e-04,2.272274335650459332e-02,8.996659012021655799e-02,9.163557243532021931e-04,1.763966249169020284e-02,1.898661337272048166e-01,6.300167266653020071e-02,6.896717597193546476e-03,7.195425278911077305e-02
1.834961750472051010e-03,7.224684188820512491e-03,3.027527967028554798e-02,8.547949447628368225e-02,3.860427235904289635e-04,1.600372820929953088e-02,1.303993417381864584e-01,6.907913171383059381e-02,1.139780352955526745e-02,7.276121230881577029e-02
3.297869523751711853e-03,6.253503892943980576e-03,3.622866538781756296e-02,7.761792759568154898e-02,3.439266630963094991e-03,1.095511153561057674e-02,7.146702052362956248e-02,5.151264883577265363e-02,1.702647535896122111e-02,6.177631182040146246e-02
3.013336464927138594e-03,2.295443764798929531e-02,3.482646873606466686e-02,7.559931450077583825e-02,6.667255152715160366e-03,6.407864894420990491e-03,4.107636448800195544e-02,2.507546229444825026e-02,1.980643901944607183e-02,5.083116568108805855e-02
9.393053489275457989e-04,3.307783382409079653e-02,2.415224889812884329e-02,8.077863380663800885e-02,8.202948948505320997e-03,3.563465959244110394e-03,2.376255831888177128e-02,4.484820934134240052e-03,1.802631586095724409e-02,4.326283030145976899e-02
1.039839742048382027e-03,4.510083139628498494e-02,1.076186941330851098e-02,8.526516385452009850e-02,8.656457398385671020e-03,1.897813150275736663e-03,2.457561419431531641e-03,6.767242519552881322e-03,1.488253414756454673e-02,3.899622428765215504e-02
1.352856686325654232e-03,5.724678937002321277e-02,2.679305667661036582e-03,8.429020592046393423e-02,9.561215061942875820e-03,7.116347717053132012e-04,2.207167061792770363e-02,1.194227870789505916e-02,1.458939870908779537e-02,4.060566601766153055e-02
4.569847365610956043e-04,4.880575833223040755e-02,1.161101539358823549e-03,8.131014661977206681e-02,1.160968920554487568e-02,1.872314171948674894e-04,3.946574692415322216e-02,1.463993909990657892e-02,1.721558257468349187e-02,4.694626597592591738e-02
2.370059077223678505e-04,1.376805483725115561e-02,3.770740030394523559e-03,8.183643286024330776e-02,1.407775671709596624e-02,1.060653678220782430e-03,3.867900336820220830e-02,1.777984742408353011e-02,1.986061510223978074e-02,5.039421184098320794e-02
1.241408481056171349e-04,2.114318991748546581e-02,8.868077293399733579e-03,8.676783969593991619e-02,1.582931135981631085e-02,2.393804980234543953e-03,1.919789763391259799e-02,2.250204295595371190e-02,2.133049318341323150e-02,4.663248032973994761e-02
1.374551724151123078e-03,2.578653991573905471e-02,1.243916737711783793e-02,9.126348136705270120e-02,1.653933371100168789e-02,1.195058073316781176e-03,8.470864932095811817e-04,2.587027002820190685e-02,2.177551768218774497e-02,4.049035629889363719e-02
2.115128373214810592e-03,1.089980544920661487e-04,9.084688869519134263e-03,8.928389958076156374e-02,1.653320337358554423e-02,3.771020394170829584e-03,8.066825674423041409e-03,2.452269737141187303e-02,1.925699348748505235e-02,3.831788550225343620e-02
7.236298920733936092e-04,2.833538439144338283e-02,1.333283417687880154e-04,7.934988658789005056e-02,1.574782428513748014e-02,9.098993175789929153e-03,3.985620062346231784e-02,2.221638248883109346e-02,1.200399705141802845e-02,4.040904405893967766e-02
2.204903683376896115e-03,2.926584830229638640e-02,8.466585597276221967e-03,6.431088682027623349e-02,1.377125634451631213e-02,1.003704954846999092e-02,6.861562299126140740e-02,2.805391103816498935e-02,3.357757488030325629e-03,4.444175433228534505e-02
3.722210029564568343e-03,2.920118552847049908e-04,1.185244483597169655e-02,4.661788407416898872e-02,1.102943327114867637e-02,6.064118413049176745e-03,7.051212927640998496e-02,4.434148505402549928e-02,7.068075213594324571e-04,5.118123086516884745e-02
2.085776983325622874e-03,3.047632092509986595e-02,1.025997849106559390e-02,2.806028339799638421e-02,8.596992583769905161e-03,8.337831442533063988e-04,4.504555603619266047e-02,6.028383604929799661e-02,1.734691060026157233e-03,6.141170191403943351e-02
9.328548529387299497e-04,3.603271150485458374e-02,5.391182482885293822e-03,1.332075737339392593e-02,6.565356024352249874e-03,2.818923687277785552e-03,5.583948163522315516e-03,6.138324998630460133e-02,8.416690259190633475e-03,6.999142698678026409e-02
2.530161888492370344e-03,2.067039990677585135e-02,2.431631355325515609e-03,8.260295748968429774e-03,4.514648856325746001e-03,4.795374752047873446e-03,3.497901252424437391e-02,4.489182771256976234e-02,1.690643032097932652e-02,6.943128622986416421e-02
2.320586586018122833e-03,7.796647704079565783e-03,7.454890924939408525e-03,1.294918709398562920e-02,3.450437891968730422e-03,5.274291103316852865e-03,6.551599991759592123e-02,2.321069043709652821e-02,2.384281497567715749e-02,6.029245283237145980e-02
1.962558765498324982e-03,9.367888667066229941e-03,1.914292875257253557e-02,1.905140082243923783e-02,4.407188192037968244e-03,3.930120687878690261e-03,7.479427649094445851e-02,9.834202500846380215e-03,2.323841686433678749e-02,5.303039821198102244e-02
2.361401761102857339e-03,2.087388488058241481e-02,2.875385000281922843e-02,1.658733624056898948e-02,5.683915570749909461e-03,1.330264316383756272e-03,5.762030869463059118e-02,5.984995576437704759e-03,1.235447003911445234e-02,5.611022765843280691e-02
2.698367041034442897e-03,3.395794254432218245e-02,2.970921094635028611e-02,3.692871916997081047e-03,4.888042927683976940e-03,1.759510722350263959e-03,2.221290883686691947e-02,6.052676696559890386e-03,1.564039754316022329e-03,6.518934854326237371e-02
