1.086865210530942039e-02,1.362480760844113521e-02,6.145555433395192375e-04,2.338859668015952982e-04,1.111090454858554592e-03,6.543805091705901368e-05,4.046865790764747270e-03,2.901263304612617961e-03,7.023790010731856672e-05,1.513572544464004965e-02
1.587290983286220383e-02,1.971332533464179373e-02,4.124778066530440722e-04,3.550487759580836554e-04,6.541585393015278676e-04,5.054280711912593354e-07,9.211071127372027351e-03,1.214331793373987734e-04,1.057672864145712784e-04,1.278424815968814965e-02
1.455847019420298920e-02,1.492818113109404404e-02,7.282834182602764906e-05,4.821110056731254005e-04,1.081696183784096766e-04,6.480836177979364338e-05,1.549325748390732900e-02,2.034144737654311648e-03,1.515697487992572444e-04,1.730608860883249209e-02
4.754726994518708623e-03,1.884734700035673935e-02,6.399417161798915321e-04,6.112435781854320700e-04,3.071677353867266198e-04,1.291170938595229275e-04,2.542521204716893801e-02,2.835946900011403291e-03,2.059453728760319115e-04,5.271429465839198164e-03
4.002148975714101692e-02,7.129093724077947836e-02,1.644650385910121455e-03,7.384697698160768310e-04,6.885696552492930164e-05,1.910579760689112806e-04,3.555364913234951990e-02,8.029447537343054053e-03,2.668867193213620022e-04,3.251679939171867040e-02
7.050818930245066063e-02,1.081376605446128930e-01,2.371028943626825834e-03,8.597629400594166207e-04,4.430614283318395934e-05,2.493282420910161745e-04,3.958294536425559229e-02,1.977023328220299178e-02,3.321275662102669726e-04,4.153174404680502751e-02
7.754444666579030088e-02,1.104196709073186899e-01,2.688257172659565351e-03,9.711460235095905301e-04,3.107541407357454450e-05,3.027181283111659974e-04,3.921646895454845155e-02,3.361952950948936952e-02,3.991988278421164404e-04,3.474062743383486696e-02
6.466811082859837134e-02,9.076942742709213918e-02,3.433698189563971510e-03,1.068790336072426199e-03,5.507897294646413484e-05,3.501402739908678410e-04,4.053338692362085105e-02,4.363264218999683003e-02,4.654902765115292128e-04,2.887584793888428245e-02
4.932776484219238838e-02,6.905797578359207378e-02,5.203083334203671521e-03,1.149111259119143429e-03,2.848149504818766502e-07,3.906573673159609967e-04,4.415348577896519022e-02,4.738639061305732064e-02,5.283165383357139259e-04,3.229179230990448374e-02
4.094575530513320377e-02,5.038590882011396987e-02,7.358685354623744658e-03,1.208858437838992213e-03,2.579171594530851527e-05,4.235069303507280232e-04,4.679147874493591597e-02,4.596256240351781486e-02,5.849857167727933512e-04,4.315192526958010200e-02
3.528907061477249557e-02,3.072475220811883567e-02,9.046440456872618940e-03,1.245198261361474225e-03,2.726984807054901402e-05,4.481213679394990736e-04,4.700282776083148512e-02,4.187195692345268422e-02,6.328689211538029470e-04,5.306010238118191030e-02
2.638641529122308371e-02,1.027118951458534310e-02,1.030786018926214270e-02,1.255786579086221304e-03,4.610707838028430254e-05,4.641428971906375002e-04,4.440505069505891467e-02,3.801022491788540181e-02,6.694689453132481385e-04,4.708153809775822429e-02
1.564536475486589390e-02,5.420319104454909831e-03,1.158608671477149611e-02,1.238829845513883835e-03,3.984606877704509190e-05,4.714335046146597881e-04,3.820912088286118613e-02,3.626775293377280940e-02,6.924863540246758639e-04,1.932497616728286530e-02
8.386537054190561224e-03,1.262348698440644845e-02,1.303472894479986398e-02,1.193133168916466185e-03,3.879980066722067232e-06,4.700795584076905673e-04,2.935963469935500003e-02,3.536025482970324429e-02,6.998812906717868411e-04,1.221362019707126871e-02
6.526265177149929118e-03,1.333774716947652358e-02,1.458480134171657137e-02,1.118134060545260440e-03,4.526070433288000055e-05,4.603906367128658369e-04,2.052125363061918159e-02,3.162354392117705526e-02,6.899294176815899855e-04,2.781593530503867484e-02
7.426867167888639813e-03,1.224788414426288170e-02,1.593765356417126133e-02,1.013921032827409287e-03,1.361405629434104278e-04,4.428925743598048485e-04,1.162601975493450512e-02,2.355356577395805590e-02,6.612705429557120098e-04,3.826457875521548091e-02
7.537891262789225832e-03,1.191985935073999227e-02,1.675104587600703687e-02,8.812365683428427087e-04,3.621488307169014255e-05,4.183149724306469450e-04,2.606510534101510665e-03,1.412364494471552052e-02,6.129486665247266741e-04,6.957899872534227537e-02
4.582646513749847467e-03,1.203006129765707422e-02,1.751836518891150551e-02,7.214643671220518370e-04,1.914460655096358931e-04,3.875734172783243587e-04,2.660146520584022109e-02,7.552706216799616630e-03,5.444423899253515720e-04,1.178178065597935142e-01
2.265436287944262630e-03,1.182609540993811992e-02,1.911048007860233211e-02,5.366011687105737716e-04,1.535076942309436391e-05,3.517467445980553085e-04,5.462003229732825815e-02,5.612138601860475542e-03,4.556848629966404949e-04,1.467857243140516799e-01
1.133624592234469715e-02,1.145409121737492146e-02,2.047862834922570263e-02,3.292138277910538233e-04,7.824326866341101442e-04,3.120498774047223973e-04,7.304889092610700185e-02,7.660351938059530366e-03,3.470727093426074117e-04,1.346132479507508861e-01
1.820851753284051175e-02,1.124836407667169011e-02,1.960667143466075443e-02,1.023826878163824189e-04,1.240953876039016654e-03,2.698029060409939972e-04,7.462787270479191715e-02,1.171529394272103827e-02,2.194636625717946395e-04,9.776362771023315579e-02
1.963783558974446786e-02,1.114284395097846561e-02,1.869705612423213856e-02,1.403673628622075864e-04,7.518824815655290395e-04,2.263971485886912178e-04,6.486728950217308942e-02,1.472698498429727242e-02,7.416291857578791548e-05,6.490995546826566764e-02
1.737364668067390566e-02,1.097945711512765370e-02,2.233683421391189847e-02,3.951464606271307589e-04,4.635849919648424463e-05,1.832590025985560969e-04,5.222015559941094870e-02,1.410708988887942467e-02,8.710153606888693101e-05,4.953238121010714035e-02
1.510884302909613203e-02,1.078466307129753721e-02,2.499252945303056389e-02,6.577880037164521385e-04,2.829888379333592770e-04,1.418124787223823229e-04,3.835569246946204242e-02,9.767163669752824962e-03,2.622140552019656999e-04,4.928105888002246721e-02
1.334212378930801045e-02,1.062914382144961901e-02,9.456923724879759408e-03,9.239433823406656247e-04,8.047546280813555608e-05,1.034413538672652034e-04,2.179472459728395289e-02,3.865072073108197226e-03,4.487160248127792638e-04,5.265765611195205587e-02
1.089425293883610098e-02,1.049688967290367952e-02,3.066959470564312867e-02,1.189180866298156659e-03,1.770947768759264997e-06,6.945188953369870388e-05,6.433011176665438986e-03,9.392759434060922279e-04,6.438590193096112996e-04,4.658234518256537671e-02
8.555155179070869295e-03,1.034942216352017358e-02,7.480915996987828886e-02,1.449086206755812161e-03,1.146657678942236724e-04,4.103705430571699415e-05,7.284730256338800992e-04,3.353046248725623148e-03,8.446652509907751245e-04,2.860042884708714067e-02
7.165697213723244349e-03,1.018802878459240321e-02,9.585373233721034003e-02,1.699362457941212563e-03,1.757611217605850942e-04,1.924317361612581134e-05,8.005034311590181889e-03,5.331853578094180278e-03,1.047993850262041648e-03,7.859546031606576971e-03
5.450393742808052472e-03,1.002462412592397371e-02,9.170553352013395554e-02,1.935926545039898337e-03,1.454399505790521599e-04,4.939878422560057967e-06,2.116725073307864843e-02,1.050235623103660740e-02,1.250611049387021162e-03,7.896469646022266642e-03
2.819629729426635124e-03,9.852435294784678971e-03,8.354046932349584731e-02,2.155000194486846998e-03,1.354604512459631834e-04,1.205871403570923386e-06,3.001772362616832862e-02,1.813443849203008607e-02,1.449262442983385857e-03,1.728931353302929144e-02
8.249102422476026078e-04,9.659475299606853915e-03,8.623193027241454756e-02,2.353192971799482943e-03,1.653722038288629693e-04,1.248993460397218450e-06,3.289858288768229833e-02,2.183934724772686881e-02,1.640746106616642382e-03,1.994678413042535320e-02
5.454170185834823813e-04,9.442622036181215484e-03,9.327722333858663728e-02,2.527575339988933495e-03,1.827300154345963708e-04,1.250780368936039395e-05,3.701086857211666886e-02,1.799698558817180299e-02,1.821984901780705247e-03,1.773911062598717420e-02
1.684425168150681558e-03,9.201665320892888147e-03,9.135457630760787651e-02,2.675739914596846503e-03,1.774133751990828118e-04,3.252415815881836033e-05,4.615229122299982500e-02,1.190169546283299448e-02,1.990094870204614074e-03,1.820064797303349788e-02
3.668994572042645098e-03,8.932817058359883780e-03,7.805293916959385458e-02,2.795849438377570780e-03,1.736290791311093941e-04,6.099803404831633896e-05,5.366304152973098290e-02,1.108132244389623162e-02,2.142447579321549514e-03,2.590685488153321447e-02
5.423461709301623593e-03,8.631581929193559918e-03,6.026166762206943556e-02,2.886670292272722118e-03,1.762930589388759974e-04,9.737810084597013974e-05,5.112691231764213834e-02,1.528392763519013410e-02,2.276727521554793802e-03,3.284941691055252855e-02
6.307863850354432193e-03,8.295977064767656034e-03,4.297167099036430793e-02,2.947590599145754643e-03,1.741204644013947199e-04,1.408703838336263392e-04,3.897712586085332054e-02,1.747959320469022818e-02,2.390984018179613708e-03,2.594977745451673007e-02
8.247386148121874788e-03,7.925352646002126883e-03,2.594657433416041464e-02,2.978622432082235656e-03,1.647698844049316346e-04,1.904532646231700977e-04,2.397134438906979581e-02,1.329600247465676996e-02,2.483670558000347639e-03,1.890958584772966904e-03
1.296477870521181228e-02,7.518971989438697802e-03,8.396838936426381100e-03,2.980388291425190017e-03,1.537012906519253633e-04,2.448982227583981113e-04,1.037081271654778820e-02,6.243963756007375569e-03,2.553668424288096667e-03,3.038060744944054772e-02
1.693466538146764719e-02,7.076622719885123161e-03,6.719366521778411330e-03,2.954092259988175696e-03,1.423835527233730880e-04,3.027955636767103056e-04,1.693590715829074861e-03,4.567198788419298341e-03,2.600306164697315393e-03,5.628532610350470144e-02
1.468628001306846245e-02,6.599337700999879930e-03,1.408440150011529279e-02,2.901476078090426108e-03,1.286776243898300157e-04,3.625851540148663024e-04,1.241800283665146082e-02,1.406284328309668694e-02,2.623379228903469432e-03,6.162992701003038032e-02
7.402771594965033668e-03,6.089137396790171575e-03,1.286404540352679808e-02,2.824761058971560559e-03,1.123525450783991353e-04,4.225921046348810636e-04,2.189588882333102365e-02,3.202324969012373262e-02,2.623143350965546211e-03,4.153671617554354628e-02
2.019922954085837628e-03,5.548679532677367431e-03,8.848882051431000706e-03,2.726578306416432926e-03,9.496099288453496419e-05,4.810652811696832691e-04,3.170061914039410539e-02,4.821738986703871799e-02,2.600270780493768585e-03,8.673695326280756249e-03
1.324614120195382726e-03,4.981336698798477687e-03,5.101515739652531974e-03,2.609889381012628351e-03,7.724203212461971317e-05,5.362162865957973909e-04,4.229519526444831812e-02,5.448145077839242761e-02,2.555825455613571027e-03,1.458754104905954016e-02
1.000142448450571037e-03,4.391294360926755076e-03,3.420529405434034713e-03,2.477897257676606353e-03,5.913302312718090681e-05,5.862606586338615488e-04,4.927084189204450348e-02,5.297730925580108885e-02,2.491282722740437855e-03,1.689511723779884428e-02
2.607731585699768918e-03,3.783422091257700008e-03,1.847727892231537661e-02,2.333948903388207308e-03,4.096738809185838259e-05,6.294634035006051349e-04,4.644511112051789153e-02,5.226931102205823604e-02,2.408476255975012560e-03,6.400284915523760110e-03
6.788652113945811174e-03,3.163108038337220530e-03,3.008232067621237696e-02,2.181436490552751337e-03,2.346506228828645004e-05,6.641820861276649278e-04,3.403369121750385307e-02,5.566663086686157030e-02,2.309417075805874405e-03,2.929520310433243041e-03
6.244576753003482431e-03,2.536177492766612807e-03,2.834946440712437024e-02,2.023701799712349005e-03,7.158812493162513722e-06,6.888995734502141588e-04,2.040391072470369715e-02,5.675414475329086661e-02,2.196237286924255377e-03,5.315905299316941134e-03
2.194693987015773097e-04,1.908811348678672798e-03,1.577412836773589566e-02,1.863936543062524919e-03,7.621847418470241648e-06,7.022575048689911996e-04,1.393145371868608970e-02,4.762206784110249724e-02,2.071386968227276280e-03,1.923714411963236073e-04
8.491994977227737204e-03,1.287410569808701425e-03,6.204830568853645983e-04,1.705076487225783838e-03,2.050818170419354546e-05,7.031045352672866261e-04,1.601716283852235370e-02,2.895077044540941488e-02,1.937552849900196815e-03,1.525756815011253958e-02
1.349898418161141200e-02,6.784494955420041547e-04,1.411489101530231591e-02,1.549712640876402692e-03,3.110471351995205838e-05,6.905331000505853401e-04,2.283923744292519487e-02,9.370109833208172326e-03,1.797015911559420726e-03,3.562327214152676697e-02
1.356023855056535075e-02,8.834805358079889787e-05,2.952997916827542965e-02,1.400032254175472175e-03,3.909649887677567098e-05,6.638712855946023433e-04,2.986893106159704825e-02,3.974035278222399006e-03,1.651580969719262503e-03,4.937558685254851698e-02
1.101210327310783547e-02,4.766523637018996954e-04,4.456428041216974750e-02,1.257747506335257608e-03,4.423973577832174134e-05,6.226825598391621695e-04,3.397193733335635013e-02,1.058076906448761692e-02,1.503717794091281347e-03,5.056948778590195093e-02
9.330956142981449222e-03,1.010619144457824969e-03,5.583732004647189162e-02,1.123990230262324891e-03,4.636422196641064341e-05,5.668440351296028358e-04,3.506118973774215164e-02,1.262954178833086694e-02,1.356516584538327349e-03,4.490946636158071187e-02
9.463664975754562322e-03,1.508053400536623050e-03,6.205147740681819096e-02,9.992680138396993397e-04,4.542262784269187118e-05,4.965907927234528398e-04,3.608809738841696479e-02,1.160863612993793398e-02,1.211035321155743121e-03,3.715935139126193970e-02
9.228349583084672833e-03,1.964000659805038330e-03,6.615497308696542678e-02,8.835354717145829390e-04,4.140448370024295732e-05,4.123712191689301557e-04,3.886311291523179140e-02,1.082783625833235244e-02,1.066126983299410134e-03,2.597649898735827217e-02
7.021244062978712792e-03,2.374148598157936781e-03,7.203273208442928510e-02,7.761825442501145292e-04,3.423257510270531285e-05,3.147488161601379023e-04,4.108791763678364128e-02,1.513057461967980480e-02,9.239225930391471763e-04,1.302565254085941322e-02
4.931744127363677822e-03,2.734912438750630378e-03,7.884156911627457354e-02,6.758227238279115303e-04,2.399284845921962017e-05,2.046875880955367603e-04,3.977552834514945512e-02,2.455898201774895859e-02,7.901916787254378155e-04,1.251150606308869566e-03
6.023264191038757258e-03,3.043504297235237119e-03,8.066641566185973888e-02,5.803030821313542387e-04,1.116258268882058387e-05,8.372730526069061951e-05,3.606505480253617557e-02,3.251296174128581740e-02,6.625204057256455642e-04,1.374483838787870019e-02
9.293244227482413966e-03,3.297983536153938945e-03,7.383411017334601256e-02,4.871977246889676121e-04,3.903788887541348740e-06,4.668328544146726990e-05,3.433559289618923205e-02,3.271384777342282307e-02,5.291452189771419373e-04,3.312745065873495126e-02
1.026460659874891060e-02,3.497287825266307947e-03,6.226153899822837318e-02,3.938898221456525782e-04,2.149061688261420705e-05,1.856586485556904384e-04,3.663731292428389075e-02,2.506210104823420465e-02,3.941175573938609199e-04,4.258061899617816837e-02
6.818637826793353188e-03,3.641244901819140709e-03,5.172353075703848418e-02,2.966581842986267523e-04,4.144522782029445634e-05,3.315620073908965779e-04,3.948197939976327148e-02,1.355201268942160878e-02,2.804373729827964751e-04,2.936754058458902056e-02
2.029489586678702353e-03,3.730564456299043270e-03,4.107274775178314241e-02,1.906610655354141278e-04,6.207051705967993696e-05,4.810743167050317293e-04,3.730429442649059457e-02,2.220987059305534663e-03,1.764160282515342361e-04,4.273250398720404922e-03
4.671254961545654415e-04,3.766810101426864513e-03,2.518070028145518585e-02,7.210961277925027175e-05,8.242577025317486560e-05,6.321006121059189256e-04,2.849076094665837014e-02,4.426218379090335504e-03,2.764145588541730214e-05,1.025917029415158478e-02
3.129110679107735809e-03,3.752352335917951472e-03,5.227198509814453414e-03,6.138266523788924584e-05,1.047831994655397641e-04,7.859664203661535916e-04,1.646444715126853253e-02,1.705102774440874717e-03,1.485758571803966156e-04,8.755458696111955222e-03
6.821569825412853068e-03,3.690303835620985847e-03,1.054795884934561431e-02,2.151453999551028104e-04,1.298098341544811284e-04,9.414059896789558424e-04,5.084613570904616096e-03,8.522492030792850476e-03,2.427890315606517522e-04,5.744445691302969663e-03
7.713941306357598345e-03,3.584438580247058422e-03,1.505707734499473274e-02,3.980020454131219954e-04,1.512307357806544491e-04,1.089854654141458575e-03,4.538732307859315480e-03,1.502136970631146561e-02,2.971201150063906967e-04,1.281457469268128951e-02
4.550552223949564865e-03,3.439096709077953031e-03,7.334746884456610008e-03,6.126803016564917733e-04,1.660167661324695896e-04,1.228303513775426967e-03,1.142184941523041904e-02,9.273852615461956536e-03,5.579298347667116780e-04,2.623696790788272726e-02
1.125829277902944212e-03,3.259077459569329621e-03,5.493134884244919684e-03,8.540555733796081645e-04,1.860842573163244598e-04,1.369822450517964004e-03,1.283562353423358011e-02,2.133837699638325546e-03,9.604074965476459185e-04,3.926178484709758748e-02
6.616388024869827508e-03,3.049522810514206355e-03,9.282325836937886307e-03,1.129255985836976738e-03,2.168778938764143519e-04,1.516507489545196102e-03,9.616733169770687664e-03,5.811308409152884588e-03,9.438227461767964349e-04,5.275215906749909645e-02
9.835033831068696469e-03,2.815794557057533717e-03,4.213606696568063595e-03,1.461618748588384888e-03,2.318589392022508174e-04,1.636415429425290471e-03,9.571769478058435657e-03,5.459834091963075824e-04,3.878788528054232052e-04,6.632268372429857284e-02
1.052353422124238484e-02,2.563347693832884917e-03,2.380212353085945851e-02,1.847553949019473726e-03,2.176100312037542329e-04,1.720837026082112616e-03,1.885010236140901088e-02,7.522828088527371698e-03,1.669316731619004536e-04,6.968328586110583700e-02
1.017782618432079393e-02,2.297603199017011696e-03,2.890984989550460932e-02,2.246692091129958400e-03,2.295295600592468267e-04,1.835145152175330762e-03,3.265039677973596843e-02,8.535734241561059032e-03,9.226999063540430564e-04,5.240613484981848647e-02
1.030001683014737310e-02,2.023823310031289385e-03,1.310767160766236269e-02,2.673510083998553808e-03,2.969794795781416884e-04,1.997869162910850382e-03,4.098105984006083363e-02,5.909914767217643201e-03,2.015800015194422427e-03,1.811264843412947051e-02
1.086810926971209200e-02,1.746992050004943491e-03,1.228431693971249183e-02,3.220559256644179007e-03,3.017453404501972409e-04,2.068732039722983359e-03,4.095754294688386254e-02,3.701255423693935488e-03,2.576698673140842642e-03,1.602910682856790309e-02
1.126458271180427045e-02,1.471703632431312168e-03,3.501791551782814510e-02,3.863090347276134512e-03,1.773036078804286850e-04,2.003722507751849128e-03,3.722370032962780267e-02,2.628772020626177121e-03,2.737294031140526714e-03,3.290031670426601940e-02
1.187319519119874045e-02,1.202061714392385454e-03,5.107015407070347041e-02,4.403954615133407607e-03,1.764914212011396959e-04,2.106135082780441221e-03,3.292641912708582641e-02,2.727601192112646174e-03,3.065557935159319777e-03,3.045724628903741238e-02
1.334725727905384032e-02,9.415922079022910791e-04,5.930622566561243730e-02,4.891970477075499590e-03,4.597378275634988413e-04,2.501137280194242873e-03,2.718404519870424099e-02,4.822957416413596425e-03,3.614574838984168335e-03,2.508505330872126682e-02
1.542177620595685042e-02,6.931708841749334698e-04,5.905429079825358363e-02,5.759831356190432163e-03,4.579947727374474140e-04,2.486861204660225765e-03,2.083385568496946144e-02,7.566893233635641099e-03,4.132839219465073849e-03,3.289587770707034370e-02
1.796994465786635672e-02,4.589666051049437413e-04,5.471539961710686351e-02,6.888750176345171880e-03,4.823957239587226605e-04,1.234982834405820833e-03,1.927841970948695333e-02,6.673882736796738976e-03,4.613438289594318231e-03,4.670032584029889383e-02
2.163548902752818887e-02,2.404030789979649438e-04,5.330656587212107694e-02,7.028025715839399286e-03,1.746303957713884157e-03,1.001616523728733436e-03,2.850971008788104680e-02,6.717853406497215855e-04,5.186129671136726314e-03,4.674955827465093749e-02
2.545546482252790746e-02,3.814174708598064376e-05,5.413984417131874338e-02,5.498130676473728107e-03,1.898166018898802621e-03,3.283025247969121978e-03,4.867496081677628872e-02,1.105891525940147849e-02,5.798485742982198259e-03,3.485102920244575325e-02
2.560571408914314243e-02,1.479173015845758484e-04,4.925834099407532668e-02,4.094959837776023480e-03,6.555456384846517588e-04,5.139996703288163792e-03,7.023003156486369580e-02,1.628465705067548217e-02,6.354930841053540135e-03,3.299500787604504881e-02
1.995325615874932179e-02,3.186203832692021645e-04,3.723823327428937152e-02,5.041656154538290413e-03,6.485849628470968754e-04,6.323275010623826201e-03,7.978527873505393553e-02,1.271048748989512915e-02,7.003923933708937864e-03,4.523435539915100778e-02
1.306553104083499166e-02,4.755244696163640349e-04,2.545230923149319549e-02,6.810609089427278537e-03,6.366149229912023214e-04,6.037565190417015434e-03,7.385431828474983695e-02,8.220771077513212843e-03,7.842938786990386740e-03,4.988893100655996532e-02
1.170629263244515710e-02,6.208330760928941353e-04,1.376688874181136377e-02,5.023782284529772213e-03,6.909909971639306876e-04,3.680252886041488185e-03,6.145856838262167554e-02,1.351888961963328487e-02,8.248943605636310100e-03,3.405242010624800336e-02
1.506507587486229614e-02,7.573205755403884798e-04,9.499995651825323545e-03,1.304480696150688533e-03,1.955704952352528819e-03,1.819703395093603439e-04,4.932528828115705088e-02,2.693691515844979026e-02,7.060370550465286041e-03,9.411898438029718539e-03
1.547367278303020052e-02,8.882653486423819529e-04,4.706526563754236114e-02,7.749518144088098602e-03,1.823674407517733706e-03,2.458286432948339571e-03,3.384889919704533318e-02,3.605936584731957856e-02,3.879417285487575442e-03,8.972264645746373668e-03
9.539010149728230359e-03,1.017361498587692229e-03,8.182879765606972111e-02,1.032798673827979054e-02,5.765132410236596498e-04,3.238171865412778089e-03,1.317433664283755232e-02,3.347851768165169273e-02,2.999646863793125479e-04,1.787173133104940151e-02
2.113511923859558942e-03,1.148570883958008370e-03,9.528557715114685522e-02,9.704124000878116760e-03,3.509596789998476385e-04,2.972831949679883342e-03,3.800757925076303848e-03,2.231933080533472086e-02,4.240619735466762304e-03,1.895200558638328661e-02
1.919255604722972788e-03,1.285986201737440368e-03,8.687129163497792073e-02,7.767092324819009977e-03,3.442604862983367100e-04,2.869755951228275710e-03,9.063113032649384310e-03,8.172484343167713688e-03,7.423300131751591271e-03,1.362746088639565922e-02
4.024501789754507224e-03,1.433796496827734971e-03,6.977588032486464753e-02,4.216891394351047866e-03,5.757281273504669919e-05,3.173789822071084593e-03,7.771221369598311189e-03,6.006601711108177852e-03,9.243831867154607765e-03,7.264269763720162046e-03
8.308501028615029871e-03,1.596214862413051008e-03,5.611263586825492727e-02,7.940923281587482620e-04,6.034169868127701542e-05,3.445240694548417498e-03,1.037759166254718576e-02,1.855989543945129466e-02,8.566179191093439838e-03,8.270947930978028023e-03
1.535853521501165039e-02,1.777178347264104542e-03,5.071456314513503316e-02,4.127524360910704571e-03,1.924053520565074124e-04,3.428436226334437720e-03,1.934427915092690534e-02,2.902877249528846432e-02,5.390182316438210143e-03,1.904503695333119653e-02
2.224107597677078135e-02,1.980123599488432286e-03,5.260929220528010736e-02,2.969143652444699438e-03,2.010462681198291537e-04,3.400447391782790256e-03,3.120432375305599165e-02,3.850518504366103045e-02,1.932321185653593275e-03,3.159669081273906721e-02
2.684884331125354448e-02,2.208260859028508133e-03,5.598317262474299810e-02,1.029428703550798550e-03,1.527363237842543681e-04,3.797686826048870135e-03,4.359695050898920038e-02,4.704016701024071184e-02,3.415500408957570849e-04,3.518109343133205696e-02
2.983759273934525474e-02,2.464717807870826175e-03,5.223273569400427307e-02,3.314181910338043473e-03,1.654904496598391108e-04,4.308359927832456152e-03,5.181595975403318483e-02,5.246936799845462046e-02,1.050912084864866745e-04,2.648050138769592055e-02
3.221830554327378970e-02,2.751642587826486595e-03,3.739162733809314049e-02,1.479672615195617123e-03,2.096480722054297550e-04,3.734046721939431393e-03,4.759639197640327946e-02,5.336568798766747057e-02,1.748329542552364436e-03,1.029323043195280382e-02
3.273666135763795421e-02,3.069592046794971871e-03,1.843832820136925496e-02,2.824360200450180911e-03,2.293736310574573758e-04,1.670082985596124930e-03,3.108205524161665456e-02,5.099174170137185658e-02,4.947946621837319425e-03,6.271108188499872893e-03
2.939835646113334033e-02,3.419191483334544507e-03,7.912241895796891938e-03,6.636610597860119302e-03,2.374243885266215967e-04,1.936911861057911098e-04,1.593085992524062577e-02,4.759132505983696554e-02,7.793439400283043786e-03,1.715089787303995805e-02
2.367362929266340205e-02,3.802291534832853096e-03,1.022103162567554804e-02,8.603302793957627245e-03,2.595698629705357643e-04,7.273572432049381581e-05,1.457747805998076129e-02,4.482055124472456020e-02,9.248124581610662337e-03,1.879910177005373814e-02
2.070121311497293004e-02,4.218312551213678971e-03,1.645923663195966030e-02,8.867481092211174434e-03,2.897121611053796002e-04,1.872009537024175779e-03,2.565880282312225577e-02,4.343545117914084791e-02,1.054087281311133321e-02,1.248853108097083310e-02
2.324858843743442260e-02,4.661592421657203937e-03,1.580004104409767074e-02,7.784728132496618151e-03,3.152116352814523636e-04,2.867087020607098427e-03,3.947985627024807459e-02,4.169346531805303430e-02,1.303561051157996718e-02,4.351861903891612003e-03
2.732658346044584616e-02,5.129095562692534242e-03,8.761225355729488490e-03,6.032834642224169618e-03,3.378772340733847976e-04,2.268472375716030446e-03,4.745315610720381161e-02,3.507885335536448101e-02,1.619304874130881450e-02,1.241430291812178552e-03
2.682697188352960171e-02,5.626307279969308683e-03,1.943807628710545084e-03,5.415703103518370969e-03,3.627183777760244307e-04,1.562298303775768804e-03,4.623094658659691186e-02,2.162043486151226518e-02,1.853202979259765959e-02,5.262748931538796006e-03
2.134654568728264895e-02,6.151010618832815011e-03,8.385316047399945377e-03,8.100162209010584174e-03,3.887502725705068449e-04,2.106860263796706597e-03,4.083284888012316677e-02,6.617916117200494698e-03,1.987822579171167822e-02,1.176238962935655628e-02
1.591878648923213471e-02,6.680416905522565570e-03,3.186088257124809753e-02,1.396427240734885583e-02,4.134650619619408538e-04,3.739801039089294364e-03,4.039146039372189939e-02,2.607852626613944239e-03,2.119713350765692339e-02,1.430612792217345920e-02
1.362843495277601090e-02,7.205670731672414453e-03,5.932053663921488251e-02,1.915936927200377615e-02,4.355803324861496966e-04,5.623424145741942951e-03,4.440523551937639035e-02,6.142490851521012138e-03,2.179624034976938851e-02,1.222684834207369252e-02
1.215813559027646359e-02,7.760476567777442776e-03,6.497732296685526654e-02,1.917586787050735292e-02,4.544502621125932006e-04,6.704894922190118844e-03,3.987114954927935273e-02,1.083201988563205383e-02,1.850879733693158030e-02,1.026506318964703728e-02
7.949390679031399440e-03,8.348439925901326997e-03,4.445010711519865876e-02,1.416395682735126400e-02,4.723037758617004960e-04,5.528498669371981200e-03,1.817437469150471815e-02,2.001871910313283986e-02,9.857302449845098749e-03,1.055970010084470237e-02
1.336199281397490533e-03,8.880355085763283127e-03,2.702461618395372855e-02,9.695992438118614803e-03,4.915475927808135321e-04,1.542310944884295884e-03,1.135182872479424676e-02,2.826434784511839757e-02,1.146390086072891551e-04,9.527756380701324704e-03
3.266140863859065720e-03,9.328088380330428614e-03,3.583662047868155925e-02,1.040036065411230337e-02,5.061089414817311312e-04,3.275857664315384461e-03,3.043941703707239710e-02,2.823753850250359729e-02,4.256451070630844560e-03,3.093822389550257915e-03
2.269336529380155433e-03,9.862890935771700604e-03,5.721056085572445021e-02,1.354738717234861209e-02,5.088424221809221843e-04,5.866681198911433658e-03,3.107909267789638746e-02,2.086631140905077439e-02,2.993653183309183570e-03,8.633933551193618411e-03
2.083188520769359633e-03,1.053074711819824982e-02,6.339562382491779891e-02,1.202602465552194549e-02,5.120519170524678388e-04,5.653060484953779941e-03,2.097657870817664152e-02,1.550369887098160780e-02,3.229547194418548248e-03,2.106188795736039718e-02
3.835169706085212252e-03,1.094889711550108002e-02,4.836058811786986961e-02,4.160128065221650913e-03,5.313805004462778675e-04,5.251955839292882580e-03,1.195890762058878648e-02,1.848964160274455329e-02,1.016525712646873178e-02,2.808162773781855415e-02
1.805753338630351409e-03,1.099166901336768969e-02,2.781784444173624610e-02,3.578852529280826186e-03,5.407105549037733404e-04,6.871127507991551045e-03,9.392061699085187468e-03,2.410025567869362312e-02,1.995743680677229681e-02,2.858867184160073308e-02
2.385537732928769399e-03,1.145696437521743181e-02,1.566592152868854018e-02,5.392488094030653892e-03,5.057805314509284571e-04,9.386387102417386580e-03,1.320767264826644936e-02,2.092390606587050603e-02,2.492551322310920109e-02,2.922026856835054434e-02
1.040669440939198664e-02,1.261854227813130787e-02,1.241524881923807520e-02,3.508056984216758722e-03,4.817918625460366252e-04,1.033562240480684694e-02,2.103626283343889777e-02,6.532215588756628590e-03,2.281412675482259039e-02,3.542654333683711160e-02
2.065908393119452596e-02,1.276169452504685893e-02,1.004459672434308837e-02,4.058330746633284462e-03,5.439845777755071944e-04,9.319627111244446413e-03,2.672047005011378429e-02,9.102385289992822454e-03,1.751076740686954153e-02,4.307006174320387321e-02
2.443895755710633055e-02,1.124930212086182497e-02,1.233501988291971826e-04,8.610097979382121125e-03,5.770249331747494791e-04,7.532878218985729520e-03,2.311754731750687020e-02,1.604697216095980067e-02,1.311308681877212598e-02,4.562298184055095518e-02
2.244201053404151769e-02,1.182098589283574371e-02,1.833622167143343640e-02,1.298010586424426169e-02,4.175618305999453180e-04,5.505714043256493100e-03,1.173357085329493690e-02,1.494276053740670532e-02,1.061653029360272796e-02,4.406236389544534310e-02
2.168495850493874777e-02,1.598067786393782622e-02,3.064248135533240505e-02,1.340425549637890359e-02,3.105581867048092231e-04,3.337533366218876571e-03,3.822056215858392249e-03,1.198079523288791623e-02,8.853682995727847269e-03,4.145034883360634859e-02
1.865587616930148435e-02,1.358540905090676286e-02,2.251796348777175549e-02,1.075010803191488867e-02,6.261383976299985223e-04,1.618306471094999727e-03,6.135321202736923607e-03,9.428847329228370877e-03,6.193749033826408817e-03,3.508453538471208166e-02
1.282302509535590291e-03,8.304014296079945470e-03,3.157971234163501825e-03,8.038604537412973039e-03,8.293850343009549547e-04,6.482035850396486443e-04,1.120183214100057938e-02,6.554505012978579549e-03,2.105896125210060532e-03,2.357472342375864158e-02
4.141152774186400431e-02,4.450152218812063187e-02,4.505112451032846840e-04,6.231160042381882203e-03,2.093122207904821066e-04,4.039475244808053440e-04,8.550268180210277014e-03,4.345197903209299314e-03,1.836374459221558342e-03,1.440561139265322810e-02
8.290672055957030995e-02,7.250126680660154421e-02,2.217501364313013631e-02,4.038420438165044209e-03,2.234575699389042269e-03,1.814003947196032775e-03,5.200099142757542677e-04,3.563845115579051918e-03,3.441227428955398373e-03,1.515611404486449584e-02
1.043969498144162455e-01,7.785387885399328023e-02,4.196920649238012474e-02,1.135036365022548937e-03,3.404536708332569356e-03,5.775543060258825009e-03,6.975533293877476948e-03,3.151504088790289208e-03,2.691975320414696175e-03,2.298175920241975895e-02
1.028242959064432777e-01,6.698802730299142916e-02,4.124438776515249733e-02,3.206553831366501040e-04,2.938487271392033889e-03,1.059668880298706740e-02,6.093526560980478367e-03,4.272806647992921994e-03,1.155513563385712371e-03,2.832920984889305410e-02
8.978115010620536796e-02,5.312921617689399939e-02,4.442674469598562048e-02,5.361066934041196219e-03,2.154895699557976205e-03,1.284003452465308677e-02,1.734556190356245468e-03,9.784749409080023899e-03,1.831141394461586113e-03,2.282886293541574671e-02
7.580896921536837973e-02,4.134018251665136368e-02,8.479410899774018906e-02,1.588993365722008930e-02,2.000490829634995853e-03,1.095616316209194543e-02,1.442394878447410614e-02,1.760106378453608206e-02,8.982214187339280023e-03,2.671243312207530890e-03
6.324118082394056262e-02,2.993835048848211486e-02,1.485639453665594245e-01,2.562411397576645072e-02,1.631382376670266390e-03,6.152376141672383225e-03,2.568582655913376200e-02,2.127371261604015309e-02,1.924750687286637049e-02,2.746901207924573943e-02
4.984639383701112286e-02,1.763328796478330282e-02,1.847028415526995870e-01,2.794759228925823916e-02,3.791937801744015902e-04,3.163067004686695351e-04,2.659169582239519561e-02,1.723003516163778420e-02,2.603963988358417789e-02,5.531523396156823313e-02
3.501089982739506723e-02,5.504999614648232488e-03,1.670039245661793792e-01,2.296860715811593553e-02,7.569994208674015379e-04,4.587094618368409323e-03,1.516456463372707272e-02,5.432533441856951875e-03,2.461497321797672180e-02,7.221555566555100392e-02
2.135221689560403910e-02,4.273018594615769772e-03,1.199385290550815941e-01,1.638388427658480154e-02,5.835715428461782329e-04,6.208383110631000498e-03,6.931725308556846432e-04,1.328641687149487854e-02,1.841482956005307745e-02,7.807236099092680626e-02
1.122789122156576079e-02,9.821553039707589874e-03,8.162302394973391939e-02,1.166830295078584261e-02,4.756423686427050366e-04,3.978056622382331216e-03,1.130570560288663394e-02,3.380411517722178849e-02,1.433966682929683177e-02,7.276842532807130393e-02
4.064875338856121026e-03,1.112668717268952209e-02,6.257493944877601244e-02,7.540366284719655574e-03,9.620502276882945351e-04,8.090241214327951189e-04,1.164200598832631876e-02,4.682984859436636893e-02,1.395658760299330059e-02,5.506526842589815063e-02
1.846617934395979911e-03,1.034940453583414223e-02,4.910915538698145538e-02,3.833206399629219933e-03,3.526602930970253028e-04,3.574851674551383484e-05,1.777904692803828485e-03,4.948900956578619614e-02,1.405368512758632671e-02,3.300894013177536890e-02
6.810618167276826992e-03,9.705726980233902318e-03,3.291442735549577475e-02,4.019866202574112410e-03,4.516108172320913196e-04,1.171242913734589150e-03,1.273046245615656186e-02,4.964751952142086588e-02,1.395186845715390596e-02,2.116649344391821619e-02
1.034584139918995338e-02,9.630596518264608261e-03,1.982045778924827056e-02,8.934773173193327755e-03,6.262508019652378863e-04,1.781766847475751417e-03,2.255561314028861619e-02,5.454521902051928661e-02,1.571717032221925381e-02,2.300498047674673710e-02
1.293204323112331390e-02,9.519877364720359322e-03,1.096559185642501100e-02,1.360507637092494941e-02,4.165953475931600571e-04,3.723084176601824404e-04,2.182499211262922678e-02,6.129322068706818949e-02,1.790046781490620131e-02,2.674010970228715353e-02
1.540103811411423773e-02,9.185568571621833059e-03,5.982535161747896957e-03,1.401311589568182692e-02,3.654596080244674160e-04,2.109707131195527694e-03,1.323588265495274745e-02,6.214674666418014415e-02,1.613217869108358668e-02,2.110640450096595844e-02
1.716922076384341106e-02,8.892273615137086251e-03,3.803068521280509456e-02,1.197201502783647176e-02,4.825962594744209657e-04,3.541628241368980582e-03,5.349956071228222435e-03,5.388862287913563642e-02,1.001168821294293014e-02,7.103731824522914635e-03
1.713983357021081275e-02,8.730393928182795735e-03,7.156457645768819764e-02,1.024523801798394966e-02,5.339197984881986249e-04,2.737503930162172618e-03,6.506699114817384236e-03,3.996741054776237895e-02,3.475148910369229606e-03,6.355290760264621641e-03
1.650091782655643824e-02,8.577771624945901979e-03,8.775092203209015895e-02,7.832777893370702904e-03,5.078264642314985790e-04,1.080604450587774323e-03,1.827087017595556417e-02,2.683756044445080244e-02,1.535827837771093409e-03,1.214153974011457013e-02
1.782457003475397192e-02,8.389483743577071106e-03,8.685227264098548117e-02,3.165735762301314770e-03,5.106046658078952595e-04,9.365647080357780924e-04,3.187830931904653969e-02,1.876481607051641923e-02,6.859832289576936817e-03,9.873907752721299697e-03
2.049644027407067706e-02,8.219841107738276934e-03,8.426179568254671404e-02,1.864262720024452381e-03,5.466129292048894960e-04,2.054803598978256762e-03,3.614986001681373684e-02,1.513147788580140700e-02,1.344152179779784656e-02,4.457208373114562514e-03
2.065518954116880856e-02,8.087227866994999015e-03,8.479718910624330086e-02,4.136468110881348290e-03,5.681960771644873438e-04,1.610349454279615946e-03,3.086100057962916365e-02,1.319127884989593213e-02,1.876622473428501969e-02,9.572946529853190549e-04
1.726923427976448724e-02,7.962255666037795776e-03,7.605092828784600079e-02,3.677856540407826308e-03,5.759253843971626728e-04,1.790330260495070526e-03,2.569826431048074719e-02,1.130816796840585815e-02,2.011138542413184668e-02,2.011529809437639493e-03
1.443847568984099952e-02,7.831037100030847214e-03,5.081714023839714600e-02,3.457124189478631357e-03,5.858267126618683322e-04,6.218086852749782519e-03,2.580864708592204779e-02,7.707223443602451672e-03,1.805831989779017877e-02,8.610353366455185051e-03
1.570916217843248280e-02,7.701662303739817764e-03,2.290720397332675351e-02,5.438032757484974680e-03,5.888817318819148565e-04,8.726739359664312939e-03,2.646516981069536867e-02,7.743466507918721903e-04,1.546791807990606678e-02,1.840362030515937941e-02
1.934022808482593891e-02,7.574821988518842114e-03,1.300030500058954076e-02,8.531039155543335833e-03,5.889281776587360941e-04,7.955342830603071361e-03,2.239431503156786782e-02,6.140546973263566292e-03,1.427542717745474907e-02,2.407841324095462768e-02
2.105848820484962705e-02,7.440596839572217146e-03,2.705800116414187190e-02,1.057741320604277564e-02,6.081419647187053966e-04,4.494279609337460159e-03,1.518355312832653757e-02,5.914654893805985914e-03,1.439842044623724192e-02,1.974379198813360284e-02
1.928677080341612698e-02,7.292360042749725102e-03,5.452935905808926897e-02,1.116168931283227118e-02,6.197963137051181294e-04,6.662621575601751240e-06,9.980209051988757352e-03,2.491028060630097463e-03,1.498855687590722706e-02,8.779316769700612824e-03
1.594779963600169437e-02,7.128636965026241903e-03,7.969883728664055311e-02,1.162048597901919368e-02,5.732678930343762915e-04,3.574776608065355007e-03,8.321511455670720092e-03,1.044847927425320532e-02,1.542313305021258442e-02,4.092123031203772666e-04
1.308906343273856174e-02,6.946800098672555740e-03,9.006732488819076121e-02,1.289163263501344643e-02,5.324251496371141135e-04,4.580859626276329900e-03,6.070955393660044941e-03,9.164283375509067048e-03,1.493114123066578876e-02,3.299195054044330635e-04
1.036774907915520225e-02,6.742294184997800303e-03,8.230591370038684018e-02,1.440531446545671376e-02,6.104753367997470259e-04,3.074442363904086699e-03,1.751937418122044652e-04,6.581502280136771995e-04,1.260668451879031100e-02,4.083342355783390817e-03
6.445480988162098981e-03,6.511738534795241500e-03,6.503559571799122363e-02,1.451871712582191234e-02,6.789984051236016508e-04,1.215102077280221958e-03,6.748061142793264702e-03,1.019654644770884473e-02,8.856485620599298392e-03,7.865128700458615466e-03
2.082539598975409207e-03,6.253469714072239921e-03,5.045960949329646866e-02,1.137935307586338332e-02,4.523311711703206913e-04,7.378634537499560719e-04,9.189825162592528407e-03,1.197872216166982404e-02,5.876901446844154039e-03,7.263093533864228846e-03
2.950753375585489328e-04,5.966216377974337473e-03,4.128318604049709128e-02,4.589724789466126907e-03,4.242407571695729345e-05,6.242564431585806949e-04,1.237730075748753704e-02,7.703761687993570910e-03,5.379358154268962938e-03,3.613388101843039574e-03
2.321269115095500775e-03,5.648925707336500089e-03,2.893084548376688436e-02,3.640959266612657768e-03,5.565678475387249649e-04,7.778886060738562664e-04,2.388864673820810178e-02,5.108907747700095620e-03,6.162378344265802103e-03,1.446404667050616225e-03
4.516770103607828726e-03,5.301452017875347804e-03,5.215020138320433131e-03,1.018415783797175719e-02,1.085186997692785729e-03,2.472951401654242560e-03,3.835605271596159715e-02,5.996375842842308936e-03,5.011834181249487374e-03,2.876947632272039770e-03
2.103003109627330208e-03,4.924688441611886798e-03,2.503868481300610543e-02,1.345377987184421913e-02,1.539156795451826227e-03,2.041607859392675483e-03,4.027622695731980507e-02,2.781907228370159284e-03,6.271714846012960923e-04,5.636319169363027820e-03
4.181099594327164493e-03,4.520258874415586034e-03,4.558111159693689629e-02,1.379823094658002951e-02,1.391851924836853957e-03,5.979802500263676828e-04,2.397467073151868244e-02,9.870704475765185171e-03,4.017442851208100074e-03,7.001386018048981648e-03
8.815507582716831589e-03,4.090435863493287194e-03,4.675462684583344547e-02,1.286821892839027162e-02,4.804794618669862988e-04,2.898434747899676731e-03,1.010049500128957622e-03,2.704325028687059457e-02,4.915048947872340500e-03,6.799657528019431747e-03
8.609577345876097063e-03,3.638238193060534375e-03,3.732255260965119947e-02,1.242544262622388360e-02,4.935294407947037271e-04,2.928367835722994576e-03,1.429711316714599688e-02,4.029546139340285660e-02,2.245242449978171635e-03,5.746440569687111082e-03
5.138940455112213368e-03,3.167397135717580151e-03,3.104393700902366438e-02,1.214033693751732576e-02,7.839889289636013583e-04,9.694833268155397333e-04,1.762019703287680955e-02,4.482599866355441859e-02,1.561403542727811747e-04,3.863405771777625626e-03
1.052060294506452272e-03,2.682211150975406973e-03,2.887398704179005779e-02,9.680530724744161944e-03,2.715634113465711192e-04,1.903980203992887681e-03,1.062874466880367290e-02,3.883160227938491083e-02,4.566652103555647602e-05,1.749500053438369585e-03
2.443724855420660938e-03,2.187437487010137488e-03,2.449945317654253843e-02,4.733580256567573863e-03,5.741490129808841979e-04,4.799981366596268138e-03,5.293126609870637059e-03,2.424955140275520532e-02,2.352211163181495111e-03,5.510057715483323041e-04
5.679977367588382592e-03,1.688216388820530222e-03,1.807148717930359694e-02,7.283830350235363533e-04,9.454132743501888168e-04,6.843406586838618293e-03,2.588801256004377715e-02,8.156241644244381639e-03,6.175295481323066389e-03,2.401363860757535127e-04
9.967669318428301270e-03,1.189961993402956480e-03,1.250785860883076375e-02,7.139605242824923403e-05,4.658473128020363080e-04,7.933730596659152590e-03,4.270210207968291871e-02,4.345036655090296282e-03,1.076520918421373582e-02,8.445604016561280127e-04
1.527127520628097750e-02,6.982251666847450172e-04,4.862871050202732977e-03,1.130886244545246141e-04,2.470071495504033536e-04,9.133624101398269898e-03,5.023723273317667187e-02,1.661903099754732591e-02,1.349538047558309153e-02,3.346069056873637870e-03
1.887044115455371873e-02,2.185635581953181616e-04,8.246507162201268185e-03,3.071251842308113118e-03,4.456885421395564658e-04,1.089424112811536102e-02,4.976043408721720490e-02,3.276470955992005080e-02,1.221581983760863625e-02,5.450990585737796983e-03
1.877982605243842112e-02,2.435786247113094207e-04,2.413153840668371894e-02,8.730717129494460979e-03,2.458994111422588540e-04,1.212283840253441242e-02,4.588912910637629738e-02,4.811061751982264462e-02,8.207548290128914223e-03,7.168516294018467336e-04
1.704397143117454202e-02,6.829930081672274311e-04,3.848522742849171813e-02,1.236313718023066173e-02,1.533674677594902775e-04,1.236602638761785319e-02,4.510004364571218449e-02,5.584452945652830513e-02,4.082107126471040855e-03,1.344214746004022444e-02
1.707955387969301367e-02,1.094828368679685469e-03,4.722721798328363002e-02,1.164371488781316272e-02,2.381224596606576623e-04,1.310578369255333518e-02,5.423218905803490336e-02,5.835818850071858299e-02,6.465522999574135074e-04,3.130121294659317377e-02
1.904700300274821123e-02,1.474700874599114281e-03,4.219173710896626656e-02,8.546310463364329216e-03,2.846201401302256425e-04,1.499195566728287431e-02,7.190268709340534581e-02,6.297641567546823083e-02,2.187851111767747173e-03,4.537665093852109865e-02
1.991233278537099874e-02,1.818790521432640805e-03,1.763908643512715479e-02,5.705146350502171906e-03,2.548035349569002361e-04,1.563754272804249168e-02,8.422029166183007953e-02,6.962132226671252644e-02,3.777646209919514018e-03,5.242291478744308397e-02
1.768017837711504878e-02,2.123924658483812740e-03,1.618897976527291019e-02,3.562711116925678431e-03,2.465384291477282349e-04,1.269974778575505212e-02,7.868825283998628906e-02,7.185275872552229770e-02,4.014356830830853075e-03,5.114952956685245300e-02
1.403221413466705474e-02,2.387646610948939221e-03,3.823234251583094295e-02,1.727856709113755832e-03,2.743763357197667686e-04,7.813290328941409346e-03,6.148544800024911133e-02,6.849246644542258955e-02,4.343151154065730615e-03,4.044362442356792126e-02
1.169883355822438561e-02,2.608266214857718132e-03,3.897582175741356320e-02,5.460397161651828288e-04,2.943021694490398983e-04,5.003593718068817704e-03,5.125518921937374101e-02,6.353240337579239838e-02,5.675852572097126944e-03,2.386919808058012016e-02
1.019183341863922482e-02,2.784891036802374358e-03,2.841506251786380874e-02,4.603176853533284688e-04,3.071439877442373235e-04,5.953924701142917358e-03,5.441035495751121720e-02,5.468131480917261950e-02,6.580687597908786712e-03,1.065019299427358811e-02
6.772666330343068974e-03,2.917438295100705219e-03,2.008633554293228277e-02,1.543631376330138229e-03,3.284515606003418674e-04,8.348215780869651034e-03,5.592919029410994142e-02,3.585894718850064083e-02,5.351422167976342681e-03,6.606344548974887355e-03
1.393177141551126506e-03,3.006627298037526513e-03,1.630440969037699403e-02,3.697881438038105005e-03,3.382919970231948567e-04,8.440110019579045650e-03,3.942010801117425134e-02,1.335561973305988276e-02,3.019850577615127742e-03,7.450540640230981365e-03
2.766722191529378833e-03,3.053952344823521702e-03,1.133703644797681188e-02,6.169630609840111302e-03,3.371717631381098757e-04,4.907709311167691990e-03,9.712506624444231657e-03,4.027182299051883761e-03,2.288029658671105089e-03,5.872231706739886557e-03
4.081168168469965878e-03,3.061636844058703098e-03,1.869650400230464266e-03,7.792566573421634731e-03,3.744318379509225104e-04,3.896342233165682846e-04,1.177871050680284054e-02,1.254854979911798792e-02,3.862457870624580805e-03,1.849515274637650655e-03
4.685684003625669933e-03,3.032570046734368602e-03,7.591361211503442827e-03,8.532100328489770902e-03,4.319538572329635444e-04,1.399522040252343391e-03,1.163222239700422225e-02,2.385497822410217322e-02,5.823431824345181099e-03,7.668409871752323703e-04
7.134844735709983815e-03,2.970228075357329856e-03,6.393287884918606376e-03,9.501731516150826312e-03,3.980390692721142375e-04,7.523527765552942125e-05,2.835132661812959226e-03,2.317502319578172709e-02,6.233276449665699041e-03,3.778565101297001391e-03
1.080774256527335803e-02,2.878581235902275860e-03,1.201457488556091635e-02,1.105685197015176396e-02,3.144786027569846038e-04,1.592199932581586912e-03,1.576827385827538411e-02,1.270777002621630881e-02,4.735623604728050190e-03,5.749906525481993796e-03
1.262984250849247779e-02,2.761990004064855415e-03,3.858374366198595584e-02,1.210876423631339523e-02,4.241012446378252670e-04,2.727448565137908197e-03,2.132252793204209712e-02,4.123239623618276707e-03,2.397812907189254307e-03,2.303676731306578823e-03
1.098123363024512168e-02,2.625092390604542945e-03,5.451457536954999045e-02,1.177348193024407505e-02,6.483846853677854242e-04,6.047251938623976301e-03,2.489910028418775706e-02,3.551371869731726090e-03,9.772567051092857608e-04,5.787948787811541922e-03
7.867776131271521367e-03,2.472685561813947001e-03,5.160961108772962880e-02,1.107918194002509120e-02,4.219912590639256721e-04,1.162588391097283715e-02,2.717462518683305336e-02,8.128089948094174150e-03,1.148962904975822045e-03,1.480075856329256603e-02
6.270827069603331430e-03,2.309604704307088169e-03,3.847901949264482396e-02,1.201746236658230056e-02,3.551347383034707196e-04,1.235109820096669600e-02,1.538420385406418997e-02,1.098058183174151908e-02,1.568939275658607366e-03,2.080977452785219561e-02
6.527453757754039972e-03,2.140602197604745197e-03,2.528092184435739784e-02,1.462612702037640287e-02,8.079106013256500893e-04,1.840420886810364672e-03,2.148969087018007956e-02,6.982741966863461464e-03,1.223011043379968431e-03,2.189253261700357250e-02
7.174287115197953285e-03,1.970230142967933397e-03,1.232251985936669812e-02,1.653384221144214503e-02,3.479927950657999108e-04,1.438994666083558138e-02,7.213338913771580319e-02,2.120276085519783027e-03,1.371510894282817333e-03,2.048375947024699134e-02
7.757445813778301655e-03,1.802729181091637005e-03,3.455143050866730462e-03,1.609668376485715036e-02,3.736631466054017993e-04,2.323284715630408170e-02,1.079497951585880189e-01,8.023288296780839435e-03,3.232455868627327582e-03,2.061587739089012355e-02
8.532546395084238122e-03,1.641926357551554486e-03,1.899920691122786859e-02,1.415622931132047048e-02,5.944296142880860527e-04,1.997378141809849628e-02,1.114476995549285449e-01,4.934299586365610210e-03,5.638835372803910166e-03,2.187086582798911799e-02
9.196105658565944391e-03,1.491144577667818764e-03,2.789937127751646734e-02,1.197585719388318329e-02,4.681311707915341755e-04,1.259849175155799625e-02,9.247894453770287571e-02,3.138385378900164328e-03,6.910119726485715493e-03,2.088581802864738352e-02
9.580209282237624885e-03,1.353125882943170127e-03,2.971609662306411853e-02,9.616054946735645356e-03,3.305005604523634025e-04,9.188307273175700535e-03,7.187476004994178269e-02,8.179506257154753671e-03,7.116739394069661849e-03,1.857839431125847540e-02
9.803301001979090878e-03,1.229970373978946704e-03,3.130352612901762116e-02,7.620253849533652202e-03,1.785724423461978083e-04,8.584598514369374059e-03,5.556510776878299807e-02,8.838979078002733025e-03,7.083726545322623254e-03,1.982241130077792846e-02
9.429084536461320581e-03,1.123092212503815340e-03,3.824366488644140999e-02,8.115693150337001741e-03,2.591920784195859235e-04,5.954484441003729533e-03,3.430511559260349813e-02,9.984209133492171276e-03,6.966369499523647306e-03,2.591305241694892916e-02
8.288940754687598722e-03,1.033193795410511720e-03,4.735503483815301645e-02,1.167372510234617952e-02,7.219158242404580608e-04,1.249157950763871584e-03,6.450017015196511314e-03,1.340212845077396603e-02,6.638097899299513251e-03,3.264940670346591634e-02
7.653448834880661328e-03,9.602587041019052189e-04,4.943687721551705272e-02,1.452112294954566868e-02,5.755477786707193042e-04,1.475163642022448048e-03,1.241158534144783457e-02,1.505958633612156788e-02,6.131652361701593612e-03,3.669777164764033428e-02
9.158518491624948257e-03,9.035633433800955390e-04,4.125459931491427812e-02,1.251164551717497998e-02,1.158289596095902520e-03,5.659705190977832624e-04,7.766296203038786962e-03,1.133569018106920200e-02,5.655569166766875530e-03,4.018185010206039298e-02
1.276397736115519009e-02,8.617067592667356987e-04,3.156200447650499979e-02,7.006203658145839820e-03,3.364105206383090785e-03,6.810683389560200605e-03,1.513437902404573057e-02,3.132200517958168458e-03,5.735113257429749409e-03,4.663211098007115363e-02
1.598998145421208841e-02,8.326581185117497936e-04,2.741763078421508015e-02,2.456912153776977161e-03,4.160104920106060325e-03,1.431653965642467295e-02,3.729140633762134671e-02,5.836232574508732479e-03,6.179411853757027853e-03,5.371931377811230146e-02
1.540149356369577456e-02,8.138207963940778927e-04,1.982523072069570028e-02,5.570728982273151541e-04,3.815608183530162269e-03,1.943271090870459655e-02,4.528021850347263566e-02,1.149682912137949507e-02,4.928953569295103920e-03,5.380699448732687018e-02
9.991079919169636170e-03,8.021106369993334650e-04,2.997725853628847425e-03,4.402674255822480905e-03,3.839704914921093087e-03,2.044583029741262395e-02,4.113583777965655608e-02,1.160458610961702733e-02,1.273647230724380612e-04,4.270072480278884475e-02
2.929388375455196664e-03,7.940457712731791712e-04,3.344100229201341784e-02,8.156451261830472560e-03,4.089847364515872101e-03,1.933183859905105231e-02,3.729895861824077813e-02,7.701425553604717214e-03,6.703907072275484477e-03,2.403081402603535546e-02
1.440063655984332282e-03,7.858471646573996936e-04,5.096250618011309574e-02,8.584985906651037071e-03,3.283964781215901324e-03,1.928758507680366011e-02,4.253443122742837923e-02,3.527348647148076909e-03,1.172780683138972477e-02,4.438731972268628034e-03
1.763242940598634938e-03,7.735484894264486834e-04,4.656502903220807038e-02,6.389722653318999183e-03,1.471312578121149921e-03,2.052225967786721131e-02,5.126009089307027172e-02,2.223949326276233266e-03,1.293635302245833320e-02,1.064639658822469359e-02
1.988516729059760547e-04,7.531092618447722802e-04,2.978293286044789850e-02,6.032792609153987164e-03,2.504156734953761278e-05,2.037490059913259557e-02,5.070304618701312188e-02,6.763178585427407838e-03,1.164625409894482801e-02,1.699312932232076648e-02
2.144698160995616582e-03,7.205256704330345726e-04,1.457347324497689986e-02,9.473416358264680204e-03,3.320742578900305847e-04,1.702804855602913989e-02,3.700480287605321938e-02,1.864065808442986333e-02,9.943144147922801726e-03,1.397779280577225378e-02
2.970964636852901561e-03,6.719430672733445967e-04,4.484504111538437608e-03,1.379501870802508738e-02,2.722868576988987763e-04,1.083359106002233438e-02,1.541333915844329307e-02,3.292298166534329135e-02,7.980220099525444852e-03,7.523239247678701475e-03
3.265675433457406254e-03,6.037731217999349866e-04,7.876281883618520968e-03,1.548033359516231763e-02,5.346336445937817415e-04,3.105131593758460925e-03,9.195370839882258812e-03,4.044001176775013917e-02,4.639450000541893611e-03,5.821361938066553846e-03
4.489893551206621154e-03,5.127982707596179246e-04,2.752776610268305515e-02,1.445214885227066176e-02,6.151883649644353204e-04,3.667294338622828758e-03,2.745747380091525386e-02,3.857992823468225224e-02,1.632560980286266897e-04,1.172155262675684054e-02
7.124919461336905700e-03,3.962479157312475742e-04,4.801332330356170019e-02,1.267159497150845311e-02,3.067795629055515691e-04,5.789816595390923776e-03,2.131909641638348590e-02,3.468662889599598287e-02,3.448421575890270058e-03,2.114231511548857884e-02
1.002389999992430412e-02,2.518748518458133645e-04,6.047518112491795383e-02,1.075877895791109949e-02,1.532542301084530373e-03,1.929835481850643991e-03,1.470366311092368913e-02,3.603186968693619652e-02,4.821738244513103233e-03,2.777637765010939827e-02
1.148851119656385013e-02,7.805837512304183165e-05,6.638310724944462837e-02,7.944546699311064164e-03,1.497298433589779303e-03,3.549849238019485518e-03,5.455203932991355142e-02,4.065658936770475546e-02,4.942912243907707226e-03,2.837987183020780277e-02
1.036085867132302205e-02,1.261326898599940990e-04,7.296810274908308025e-02,4.307046049509041970e-03,1.795055224393373122e-04,3.806927284007833191e-03,6.157099554802502456e-02,4.076095884889300441e-02,6.111412744955996290e-03,2.432578299758599016e-02
6.849547412411723796e-03,3.609808358238149480e-04,7.781638590268219469e-02,1.820680946591144312e-03,8.858402530840124491e-04,2.588407673316868440e-03,2.877794819708346871e-02,3.333829009508515462e-02,8.621632637343813743e-03,1.851508117804820386e-02
2.941447587135486742e-03,6.261280713805491421e-04,6.772343945884622129e-02,3.053776894613545803e-03,9.407775383549362141e-04,8.734476735240675332e-03,1.083447847828324095e-02,2.465193426894205300e-02,8.641897542901112034e-03,1.213729477229487028e-02
9.675400304312291744e-04,9.204147645701927886e-04,3.928218460858350081e-02,7.680472368142322870e-03,6.830744295778805233e-04,6.723475224389876929e-03,1.860068516693096780e-02,2.251342850994069236e-02,2.326032953538003344e-03,6.353813918829416020e-03
1.137371869952009170e-03,1.241838851805823025e-03,1.097951990390217542e-02,1.109896039480565491e-02,7.485008615139985199e-04,2.997457615855838794e-03,7.369053882512252920e-03,2.596782512780778859e-02,7.443864442125220672e-03,4.948581456307282397e-03
1.074187242327793784e-03,1.587935256675865846e-03,1.305658997046574982e-03,1.015101590366713873e-02,9.560469152368148305e-04,1.216147394226101131e-02,3.252506169927689428e-02,2.679421259070990241e-02,1.347337015066193099e-02,1.048685221791481256e-02
1.762819483447958420e-03,1.955963530486839151e-03,1.085467268560337886e-02,9.020027994855100983e-03,1.020544748036303871e-03,1.348851736832815638e-02,2.759724839553907849e-02,2.093169050050412011e-02,1.440820626447883446e-02,1.857974961031187700e-02
6.888148688079612572e-03,2.342244940107878967e-03,3.811859297471809765e-02,1.405508354733389816e-02,1.016844259913304458e-03,6.597401881073297787e-03,3.503138633441282325e-03,1.380721038266339434e-02,1.612019647775094627e-02,2.162513927395189051e-02
1.040414538744465107e-02,2.741935037154661324e-03,7.291147851679186109e-02,2.364857549674756476e-02,1.077432367989293680e-03,2.910337161111027117e-03,3.555545773671855980e-02,1.336881511972231977e-02,2.166444687095342783e-02,1.866681941434363348e-02
9.605304896338812473e-03,3.150667203513131051e-03,8.611467027404987040e-02,2.904246312943554661e-02,1.168232021787280481e-03,8.100410064710496238e-03,4.768687460666841404e-02,2.045087508121654074e-02,2.643241588464049011e-02,1.615914941016209291e-02
7.750565487882993612e-03,3.565352109368691118e-03,6.904160533272205025e-02,2.530264177810384943e-02,1.226113311499211003e-03,6.536402640348701332e-03,4.010508200322025762e-02,2.724943193056413721e-02,2.517767860418549178e-02,1.821405038320448450e-02
1.057119015537750020e-02,3.980989606992952311e-03,3.789583041324217499e-02,1.680137354630159563e-02,1.265626892913479214e-03,2.583515223475008667e-03,3.227324752924485424e-02,2.632311847685740377e-02,1.869456698229893590e-02,2.154458929113480317e-02
1.771156899748554947e-02,4.389201711881393804e-03,1.168254759699911653e-02,1.088759050722974860e-02,1.316002514992505382e-03,1.823134881338962223e-03,3.755929499682669065e-02,2.058184722193865529e-02,1.172417710922927549e-02,2.193994938115757104e-02
2.273164332785937436e-02,4.785340697987507108e-03,3.072658215908226440e-03,9.592221371502382410e-03,1.370441613537805433e-03,3.752506606983606243e-03,4.265010640941948455e-02,1.933945193048810379e-02,7.482196250273534521e-03,2.046486645066419516e-02
2.248192834277708274e-02,5.172151050321706703e-03,1.486500264102036048e-02,9.338288599138976423e-03,1.414997136386905762e-03,3.551999937716877800e-03,2.780689440103040200e-02,2.332681576897376388e-02,5.313872458909525698e-03,1.940875265239825828e-02
2.098533550946769452e-02,5.545025288216707746e-03,3.307779280525541266e-02,6.767904700613413572e-03,1.452613206914714046e-03,4.326656065613945822e-04,8.392501701134300052e-04,2.198225857995784321e-02,2.282267662287264243e-03,1.632867780377698572e-02
2.288706902958194400e-02,5.884127658868159964e-03,3.990182582980161818e-02,2.521489715946773676e-03,1.489904878330618101e-03,9.388605792074634785e-04,1.181210216637528648e-02,9.874519856498389578e-03,2.913269595752157257e-03,7.626641989824125417e-03
2.775696803823870032e-02,6.185985908618270648e-03,3.612142687618299930e-02,6.848939867093392381e-04,1.525863295148786837e-03,2.002555999722161438e-03,2.743687611314760827e-03,3.271170137420826782e-03,7.856562456245247406e-03,3.965223473894338192e-03
3.157784430110861795e-02,6.481418263253335005e-03,3.370393112681456527e-02,1.848945925026690505e-03,1.557881784927912273e-03,6.160968067481389573e-03,1.070253715529190762e-02,5.626100619763913999e-03,9.709269027312917091e-03,1.061004159786068518e-02
3.043088640210577997e-02,6.768780336564651431e-03,3.354397881720736635e-02,2.118616696749568880e-03,1.586831232142574396e-03,8.148824554858952879e-03,1.368696382796167309e-02,1.714324176178184164e-03,9.251744400554911402e-03,7.936606593911396321e-03
2.316244116204456763e-02,6.974144830277777783e-03,2.706941878193953530e-02,2.763210694872050843e-03,1.614313536897363840e-03,8.501626115044597087e-03,7.654611136331933123e-03,9.536790225284568628e-03,9.448603603984766577e-03,5.811286763911589943e-04
1.332703541008522195e-02,7.092983590111508890e-03,9.557045407710646617e-03,4.550901359221056972e-03,1.640818213087366162e-03,9.321174209774284528e-03,2.299172778760928942e-03,1.257467900408094572e-02,1.172474263964122000e-02,7.908284675981893524e-03
7.236552985123764943e-03,7.279017835090913560e-03,1.393143129812159965e-02,7.254414392368334699e-03,1.666915921096555299e-03,1.107198902067424613e-02,5.806692681653361811e-03,1.055146171667854793e-02,1.474173312587449131e-02,1.088716691213340547e-02
7.465046186345820206e-03,7.544014614664413046e-03,2.347975527425293432e-02,7.812984615697566096e-03,1.692858790368289689e-03,1.246953637258291572e-02,1.689798832287085772e-02,4.271893201674418182e-03,1.443878660929654410e-02,1.256588826705643848e-02
1.041154456314771944e-02,7.560207454763458006e-03,3.459899582338472369e-03,2.487124395942429296e-03,1.718060467102801737e-03,1.215038108294408392e-02,2.362307833962187451e-02,4.142579204169865442e-03,6.543420926623457097e-03,1.609049154173623070e-02
1.290649339496709354e-02,7.296258142420127685e-03,5.556348973950478443e-02,6.313369202191717461e-03,1.743928663376283434e-03,1.045393306902338629e-02,1.706399675027461121e-02,1.184583941079824995e-02,6.986185288764833884e-03,1.849797598612678076e-02
1.736467065912638066e-02,7.455799743608520179e-03,8.455176818866419475e-02,1.008473920916783985e-02,1.774038278905003610e-03,9.452723074191676789e-03,2.018260882831740023e-03,1.843430708393552220e-02,1.678644877136778804e-02,1.487508568475673018e-02
2.560533484801411422e-02,8.129774266880530897e-03,6.275624462022864891e-02,5.168785113194624206e-03,1.807059678450887016e-03,1.077216415597940548e-02,1.107085779956295049e-02,2.544404946201365980e-02,1.620856449433181329e-02,6.588258649229359991e-03
3.212795701309204693e-02,7.821537431890809508e-03,2.126748911397748423e-02,1.421699373858960292e-03,1.836584937424588521e-03,1.398803836803491282e-02,1.529191767812646159e-02,3.266310040836747225e-02,9.192071046989196831e-03,3.603988690597050059e-04
3.227101328123981733e-02,6.312591117507052041e-03,6.630034810274758675e-03,1.864528221704098501e-03,1.866634242710007302e-03,1.721111672843100848e-02,6.797415384109960212e-03,3.710138108236362559e-02,3.530042244949465387e-03,3.743082511332247383e-03
3.296007664369454693e-02,6.900890749470117713e-03,2.155486033583887615e-02,1.874857890012782179e-03,1.912186641289805294e-03,1.834203138627633900e-02,1.115748121508325190e-02,3.531536208798065346e-02,7.099836413718306136e-04,6.870054933501299269e-03
4.030494244424143863e-02,1.015196157288510495e-02,3.284294261257146574e-02,2.321542554578846611e-03,1.965819362725845180e-03,1.628185145215979221e-02,2.381055692512278055e-02,2.669150403385567999e-02,2.772138722800873353e-03,1.309668764146349612e-02
3.839754734894587629e-02,6.932529845918309133e-03,1.938105300621623811e-02,3.256552140727955128e-03,1.995760071621312248e-03,1.221640077928032135e-02,1.963773041054682131e-02,1.545454102524863177e-02,8.231155659209146019e-03,2.205989460944877273e-02
3.485176678940818482e-03,1.244718762205689576e-02,1.025652320479433603e-02,1.156104478251351875e-02,2.017159223236015750e-03,8.995522140356865606e-03,8.057015605003397044e-03,8.591998415150516391e-03,1.391671931943895026e-02,3.038702170092561286e-02
5.694596928696268878e-02,4.131567682154732579e-02,3.570262728332429525e-02,1.878900558750919159e-02,2.098051386912887228e-03,7.804653762311744916e-03,6.238694331020757169e-03,1.050992214046672125e-02,1.880559220401724005e-02,3.437257247568773627e-02
1.048875766053879860e-01,6.000871982035985847e-02,4.627625280277487818e-02,2.371281202919016742e-02,2.207241955470230256e-03,6.521924648488122700e-03,1.181845118097976308e-02,1.875799744199906777e-02,2.348658810070147415e-02,3.336211221440578412e-02
1.176345909316431904e-01,5.816769041780592286e-02,4.982931093381770538e-02,2.667594023434617656e-02,2.197627306913846074e-03,3.128127914765266217e-03,8.614485554028848691e-03,2.415469491309264055e-02,2.815342544502521041e-02,3.092809561129949980e-02
1.081868056472201356e-01,4.382837363806454251e-02,5.941052175394084117e-02,2.758481331051176530e-02,2.130677530584709940e-03,5.069236539730569667e-04,2.872315322880355550e-03,1.828206359571857287e-02,3.148682003232752130e-02,3.040773809201095107e-02
9.598333965248201372e-02,2.949664577440189520e-02,6.943223641290702242e-02,2.557293420452665111e-02,2.320569895556752645e-03,4.639877311872395681e-04,2.350397674390647222e-03,4.061036508939845635e-03,3.114263569524566150e-02,2.997702277469512303e-02
8.250984431500113514e-02,1.877478661240623847e-02,5.913887565875107499e-02,2.078324760675099442e-02,2.641856068644354676e-03,4.106865340988117424e-03,2.046929684874187680e-02,5.088385490396220984e-03,2.529426542387448046e-02,2.574412044587941553e-02
6.221911021003387332e-02,8.955754755133060047e-03,2.474709190103523138e-02,1.563768676445929581e-02,2.415818388136743364e-03,9.699407353205787702e-03,5.048015329743379270e-02,8.413038863933535241e-04,1.499940916002218821e-02,1.813941905293092044e-02
3.783964116974158909e-02,4.639838950877886708e-04,5.943968401804342397e-03,1.379755433187297882e-02,1.895955637673778747e-03,1.274264767166051124e-02,6.783781006280140136e-02,1.927876342879221092e-02,5.427695854187847800e-03,1.049383186503809878e-02
1.697564689213472769e-02,6.520107578270760082e-03,1.721284646097308475e-03,1.689974252134157293e-02,2.591830948343112201e-03,1.313586402255118024e-02,7.048800676595404213e-02,3.845076195052879453e-02,2.609087336084321782e-03,3.271784957407863296e-03
4.042632398721073515e-03,7.578768767282018787e-03,2.774560256165005401e-02,1.998217524885258223e-02,3.943955262368921584e-03,1.126887113308811146e-02,6.378514124524957418e-02,4.518657865979951865e-02,5.918677328694710998e-03,5.167816700942599525e-03
4.524828875417906404e-04,5.710128147851607772e-03,2.768665368010588337e-02,1.268520610201533116e-02,1.416731795986746634e-03,4.099183088932822211e-03,3.938741388415925582e-02,3.376154367556313124e-02,4.994312990257697774e-03,1.368486733494424061e-02
1.137020198816898579e-03,4.240889646108447417e-03,4.080970862167444813e-02,8.736026043228343682e-03,8.052776865429822628e-03,1.029707198352572753e-02,1.169559980553742246e-02,1.213184983481372520e-02,9.971429659960997713e-03,1.872809039103634846e-02
3.840750979425468226e-03,4.647304492725787793e-03,1.443120499454937644e-01,3.329684772960922468e-02,1.979021036994895247e-02,2.588480655577203929e-02,6.998742328281776226e-02,4.812201693937028825e-03,3.433111843066793262e-02,1.923819901115484884e-02
2.996566995180886470e-03,6.032213426713063133e-03,2.103248446753129830e-01,4.622767338573279677e-02,2.525040521300102661e-02,3.341424494728121447e-02,9.990901906881975714e-02,1.012148659587910546e-02,5.239918203724974743e-02,1.830984616971675569e-02
2.254653362572575821e-03,6.888634700030822622e-03,2.052064309203555093e-01,4.415757419884043522e-02,2.172184887163399608e-02,3.121631314307773269e-02,9.128827198708953927e-02,8.219231160050254753e-03,5.517256185171888483e-02,1.912649136752573795e-02
8.926701597234333596e-03,6.870557338422149905e-03,1.500114444375466038e-01,3.375498808770782677e-02,1.413056827075222580e-02,2.536091802874353845e-02,6.553193788149323795e-02,5.351100629244317369e-03,4.695260284021481045e-02,2.058124633674483436e-02
1.257615318447734623e-02,6.662107638160165782e-03,7.990806120303634019e-02,2.153196792797295103e-02,7.815295907208880816e-03,2.107275091503025069e-02,4.536648508784212053e-02,4.085269735642743649e-03,3.536758307528362066e-02,1.868246694376531070e-02
1.005393999149161756e-02,6.702031858986903963e-03,2.066653332660461223e-02,1.068166833053068275e-02,3.594774430523747094e-03,1.913433372991061449e-02,3.824699428331562040e-02,6.281539315068028137e-03,2.388071211984859471e-02,1.210674687501506717e-02
1.839184423339457024e-03,6.809026559363405562e-03,1.346069499479710455e-02,2.555631189006721347e-03,2.086916592105260079e-04,1.834662693518636367e-02,4.045390000558372889e-02,1.366906780178611495e-02,1.382317218107811940e-02,4.292369482782957581e-03
7.587903634225432598e-03,6.785215490776167792e-03,2.760811782090318370e-02,3.729082811933313868e-03,2.228134983029524639e-03,1.716843372558533865e-02,4.028637358648565203e-02,2.342661819863495545e-02,5.809984400122053354e-03,4.907180277481937303e-04
1.245699624654623798e-02,6.701255687224656234e-03,4.285821477001525159e-02,1.057561851476742851e-02,3.010950327594913954e-03,1.421352626686020991e-02,2.610608253794089936e-02,2.807065128280894495e-02,1.617205887486916670e-03,1.590162488962396830e-03
9.967446376484430035e-03,6.645016354762016755e-03,7.316034831690240714e-02,1.849197451856074773e-02,2.718089910408782138e-03,9.513905711753638250e-03,1.245264711425068428e-03,2.292880337537593280e-02,1.009102607545099908e-02,1.920901669405827676e-03
2.126122737769007599e-03,6.582038028580476652e-03,1.143725085025305982e-01,2.503172984090327319e-02,2.425083493694681243e-03,4.417639565713828327e-03,1.946168581688588473e-02,1.164762078442575441e-02,1.841850574289454964e-02,4.247571844243000494e-03
7.194703414775310661e-03,6.465975137940557955e-03,1.530367620052296984e-01,2.774701598323134691e-02,2.360994109332073716e-03,4.263944316429556149e-04,3.065046892342360857e-02,1.401836825890189191e-03,2.385233827160585310e-02,8.117579349157768437e-03
1.605140058718479076e-02,6.305203187461833059e-03,1.720339289291090701e-01,2.627803383824499697e-02,2.404351326198220663e-03,5.263748808236018428e-03,3.945912666359780580e-02,6.103184328456160920e-03,2.474813719653935762e-02,1.073709844070059975e-02
2.355765424807182429e-02,6.121284972434594060e-03,1.553496795333908220e-01,2.117656088243088930e-02,2.597553720560696888e-03,8.980873120047069835e-03,4.764666388354125981e-02,1.476613924436423995e-02,2.075992463037716271e-02,1.030880896058962957e-02
2.707762602242881275e-02,5.918165447903552326e-03,1.024979511075737870e-01,1.264610793998031946e-02,2.486878718456248145e-03,9.204240950166744581e-03,4.780574884748522990e-02,2.525358924591289064e-02,1.279281461499420444e-02,7.783679753436556145e-03
2.448640908639796582e-02,5.681662648571385484e-03,3.375003855423552163e-02,1.409905525890899113e-03,1.431825669631867602e-03,6.033407297803097466e-03,3.969523056374839320e-02,3.182739023106728737e-02,3.415706085640483544e-03,6.258593837687557136e-03
1.881397212627667487e-02,5.391661294190847747e-03,2.478818537416088708e-02,9.870766772269739045e-03,1.059102804840144534e-04,3.355943595535290473e-03,3.567424685644506044e-02,3.014241412823767674e-02,4.654941789308725264e-03,8.697879388620117364e-03
1.589224253650452570e-02,5.064362205061814087e-03,5.648613089333839876e-02,1.734184337594096154e-02,3.685005771780170357e-05,4.230130025496053534e-03,4.403121173600893501e-02,2.255719767352593053e-02,1.036595677007062788e-02,1.368450677747404080e-02
1.701880170564321407e-02,4.752963291904731095e-03,5.924518375755583044e-02,1.925358114155116887e-02,1.244554513802400945e-03,6.722437475596601542e-03,5.616477052484709909e-02,1.340891556465112489e-02,1.363649991577483428e-02,1.416598705865678397e-02
1.867769197331068526e-02,4.438571986224666699e-03,4.386203395473672884e-02,1.737592074666576697e-02,2.125793894338527234e-03,7.097776174172589631e-03,5.893422465142637845e-02,4.925953690184055149e-03,1.390633946192330016e-02,5.025861932433511869e-03
1.956753097213026482e-02,4.013406658038303279e-03,2.112027591239825502e-02,1.336696630957636724e-02,1.955765150396392323e-03,5.514382157714252213e-03,5.406701681832611073e-02,8.220658382524751069e-05,1.016213502706778474e-02,9.315075612751959333e-03
2.227199677235345773e-02,3.521784116958494998e-03,1.132261109647319380e-02,6.199732074733623269e-03,1.656494444249504913e-03,4.933369278705597612e-03,5.240645982420953641e-02,2.364944894154715014e-03,2.235657697709202314e-03,2.028574821330625041e-02
2.733809237090282368e-02,3.210791697553978721e-03,5.575899454721418985e-02,3.644165224715631077e-03,1.800107675722330530e-03,5.608396565536986900e-03,5.128618328838201179e-02,1.232791032878901259e-02,7.384102862710407479e-03,2.545953352366111047e-02
3.111512104334443474e-02,3.016591917823436501e-03,9.193559039502091634e-02,1.069492556481376269e-02,1.653012964587547784e-03,4.743180884024529413e-03,3.488996277456012096e-02,2.369482769098910438e-02,1.360017293242639716e-02,2.751723991078130344e-02
3.065786875972835793e-02,2.381129718347902921e-03,9.113452818368653063e-02,9.876238478384037969e-03,8.066571710422055846e-04,1.164062426286867780e-03,4.244569502513174421e-04,2.865599086907616791e-02,1.282753018030369403e-02,2.671092420368184964e-02
2.717539899575179344e-02,1.186600190525766065e-03,5.260841258743664123e-02,3.051922976151737014e-03,2.022303186069260186e-04,3.173365569201049181e-03,3.294487684779096037e-02,2.418246593939700137e-02,6.965634288726552277e-03,2.065234527582788041e-02
2.416459887686082594e-02,3.077307476167974454e-04,5.127899747454344077e-03,3.656437209564376064e-03,6.119067291789520883e-04,6.134166907516011916e-03,4.846396271590584781e-02,1.492588091865279694e-02,1.011465332058516988e-03,9.484850771671297573e-03
2.394066873661060413e-02,3.875143025414568834e-04,2.365281724237073419e-02,6.590391672398341998e-03,1.366016149811636248e-03,6.994228668993286886e-03,4.982097471723587884e-02,7.808137535853806356e-03,2.354192712161388631e-03,2.817692792247591428e-03
2.527345215442692791e-02,7.922094964224471935e-04,2.157107753418312929e-02,5.599656366407705990e-03,1.531809615402006343e-03,5.411614732259917987e-03,4.605766149354521138e-02,2.822731206140650321e-03,3.126800158265942344e-03,1.203868025131455029e-02
2.380862969420305744e-02,6.561906730024334765e-04,1.048783652246330564e-02,1.616902967323239227e-03,1.246195601277381038e-03,1.754178413364373664e-03,3.487733589672274009e-02,5.252643244334452392e-03,9.947194953931160974e-04,1.736458330956413762e-02
1.642516965239562005e-02,1.061463969725988865e-04,5.211398621714470603e-02,3.442805616617940039e-03,1.101754732285270761e-03,1.529997049455064130e-03,1.376334029609836695e-02,1.601115103911461210e-02,3.918272668339985339e-03,2.095524476287384877e-02
5.200092789628059028e-03,2.917344298292904150e-04,6.856869167909204754e-02,6.802124456665135065e-03,1.160174804585681644e-03,1.834344020085625776e-03,6.605240277242142508e-03,2.367880835760171124e-02,8.824894335094793721e-03,2.424995943360849088e-02
4.505267807270374111e-03,4.668848653042841556e-04,4.792283243240793439e-02,7.853442537408618015e-03,1.164263853201372200e-03,1.605020034211748314e-04,1.546916202966483293e-02,2.741731664549970637e-02,1.091149644989844979e-02,2.673618432964987301e-02
9.031922099459516531e-03,6.604659256550553725e-04,2.305711225988036142e-02,9.451495732183528078e-03,1.077106329766026101e-03,4.870095529259555085e-04,2.036421250015525708e-02,3.030529048192812797e-02,1.126938766146936416e-02,2.872566674503842024e-02
8.229079834623963946e-03,9.107269721993283603e-04,3.328938472752734218e-02,1.364771337626356079e-02,1.016826808622636052e-03,4.725490386583008386e-03,3.733615919991115778e-02,2.999306973032983548e-02,1.275297213431861136e-02,3.183887505021486958e-02
4.316717687041391090e-03,1.105436126285661621e-03,7.027060140498853080e-02,1.747020527120879060e-02,1.001532323716492054e-03,9.727844109421698512e-03,6.254182724325782483e-02,2.168733369300785210e-02,1.483955718334491539e-02,3.504102081278750308e-02
6.483301099459173010e-04,1.225336878562761434e-03,8.545857037649248755e-02,1.601953468180054505e-02,9.754041804183319949e-04,9.886046395493340230e-03,6.778597111266156106e-02,8.637411672572752053e-03,1.405644821141901861e-02,3.385616600431694961e-02
4.232354196849500913e-04,1.323919125085378911e-03,5.237292527371717465e-02,9.156714155950373968e-03,9.284752757622536387e-04,2.993921586678683581e-03,3.535956431101755504e-02,9.665031018993563159e-05,9.316488444875724306e-03,2.603827696204613976e-02
1.524033904955225931e-04,1.413126719988578098e-03,2.998728569794890074e-03,1.310350519407204803e-03,8.859630087804700859e-04,6.352863112881047651e-03,1.397749788349980302e-02,1.607482289867093140e-03,3.541954319365308440e-03,1.510762649459829882e-02
2.088502623807833407e-04,1.471300615604895657e-03,4.278463760854493009e-02,5.212897671934411947e-03,8.520808075822641509e-04,1.068133777798905594e-02,4.506447825392558004e-02,1.653063647444682691e-03,6.646663875466566132e-04,6.455520575376579029e-03
1.726257190107020759e-03,1.496694397676363430e-03,6.154860918319299268e-02,1.180051279444181526e-02,8.143664921836440626e-04,7.537748892093369159e-03,4.915755099050225091e-02,5.134444050954221038e-03,3.870314011430908870e-03,2.775685754349057136e-03
2.838579096785693538e-03,1.504293488170289645e-03,7.384682049227003775e-02,1.815136794218936978e-02,7.700660474779547505e-04,1.439407073791339978e-03,4.162597341590894978e-02,1.000365047122524220e-02,7.106067798891484849e-03,3.905023552535144028e-03
3.932290107325755665e-03,1.500580282093740133e-03,8.372951962003777338e-02,2.098511523880562668e-02,7.244483536752574157e-04,2.398314398159877379e-03,3.308204271952137204e-02,1.201735268926595532e-02,9.445426115565903891e-03,7.734075722395384808e-03
6.068162447850849496e-03,1.484560923809191257e-03,8.599383030507644354e-02,1.897901859781036746e-02,6.784469058956515454e-04,3.279626070935491751e-03,2.347311701047957028e-02,1.032852908212981632e-02,9.944750330715939474e-03,1.054274474373359180e-02
6.831521934204821261e-03,1.459427379321202173e-03,7.767841059202579279e-02,1.425399478528001015e-02,6.293113883229275443e-04,2.938216112484981837e-03,1.311500007957755627e-02,6.171270810914548585e-03,9.093242222642721612e-03,8.572045671479041132e-03
2.760579237247520658e-03,1.432044436391126732e-03,5.598739747434302444e-02,8.944395273849117811e-03,5.764125451807889646e-04,1.715889807843095976e-03,3.083468008472994674e-03,5.661920471982844275e-04,6.988725563959746409e-03,4.991723162738149555e-04
4.367513741198406421e-03,1.407304398673172230e-03,2.258333369733298360e-02,4.287117720591857896e-03,5.210145864468745513e-04,5.109166572228603749e-04,7.363714167152464983e-03,4.672382399590896060e-03,2.987739257585633051e-03,1.064143809793403027e-02
8.751116945673698827e-03,1.388121029088833095e-03,5.614552601246941207e-03,1.985467190970716979e-03,4.635570863143723911e-04,2.038684004808610350e-03,1.557865184317437646e-02,6.890282877300720962e-03,1.821949715718609603e-03,1.874514926922339272e-02
8.042084310998568603e-03,1.377901220865764866e-03,9.178735112183698461e-03,2.479056068626352312e-03,4.037275043234731658e-04,1.176622454603917008e-03,1.631164516303004394e-02,3.985754382789200717e-03,4.554965512759173892e-03,2.070340575633249774e-02
5.298044288528477169e-03,1.380416516176204839e-03,7.425441763035246605e-03,2.880824104241430303e-03,3.417304292540952098e-04,9.349112089913772308e-04,1.071763152074946962e-02,4.625409550378898303e-03,3.750788251470755369e-03,2.021260609078839865e-02
3.860881058369756980e-03,1.398497050922586308e-03,1.861356483909363396e-02,1.658677493179556550e-04,2.782608504223243128e-04,1.988033584548585479e-03,4.807398465790732427e-03,1.462882029056162929e-02,7.109120885286971357e-04,2.217356743272187389e-02
4.268720378490508185e-03,1.433946903214924689e-03,7.322279319516967686e-03,6.293933956990185700e-03,2.138974192038590192e-04,1.910368212748865578e-03,1.160264701039327327e-03,1.533887780099426473e-02,2.151011074628785338e-03,2.532009238328011835e-02
5.786114578599373462e-03,1.488047479228795473e-03,2.114702507858971792e-02,1.185969489603141448e-02,1.490929372711515617e-04,2.076324544602366293e-03,1.190573036668154602e-02,3.970761251925487151e-04,2.647903644101061611e-03,2.466853878979329701e-02
7.617504547174686405e-03,1.561520777912235114e-03,5.223920151972220871e-02,1.359889732097784541e-02,8.444187437857712461e-05,1.909869091012118434e-03,2.766024824874047452e-02,2.480231189847902432e-02,8.731637472620968612e-05,2.015224818038505172e-02
8.975669149071805603e-03,1.654237591504842961e-03,7.700951691060270443e-02,1.088258527882173497e-02,2.066806989732552992e-05,6.418683662437885259e-04,4.311908532835403290e-02,4.162720893853867621e-02,4.149994421203612519e-03,1.819231806742952623e-02
1.007310397358656892e-02,1.765203965533896236e-03,9.413486569536302917e-02,5.656253323979502923e-03,4.152446047023647575e-05,4.970737570044929041e-03,5.271367575453583115e-02,4.308605721568518204e-02,6.267994499850722268e-03,2.307999535507391370e-02
1.226382706184451013e-02,1.892699813168541257e-03,1.047840159418806649e-01,1.386030719195815650e-03,1.014700633596391524e-04,7.239009556798630014e-03,5.378056323257739829e-02,3.390483087203401136e-02,5.695814784927860121e-03,3.102484984148016003e-02
1.601148090987509695e-02,2.034318517999019350e-03,1.089903417141056541e-01,1.175977127445688043e-03,1.584908211019053087e-04,5.003864535001426202e-03,4.882030647841271304e-02,2.255884754273453086e-02,4.761609938501950613e-03,3.695865563845499718e-02
1.992591824476828977e-02,2.186962846755760321e-03,1.053401125346805911e-01,5.001171134467997069e-03,2.119118438488682072e-04,4.123326791587351731e-05,4.400596573822158214e-02,1.594864179411775024e-02,5.098656314363863087e-03,4.247597372809229499e-02
2.243733158759370766e-02,2.346914050878990115e-03,9.125728628889866190e-02,8.846747953869568692e-03,2.611184295469810629e-04,4.845126622605134929e-03,4.200269955664504701e-02,1.813848285336982016e-02,5.422233474181335083e-03,5.028127945143726768e-02
2.291205198996967840e-02,2.509947563319025327e-03,6.752815633103646797e-02,9.017848746179486438e-03,3.055704994144150047e-04,8.280026504510630547e-03,4.015471383899588131e-02,2.651129571805601118e-02,4.035085130497201474e-03,5.593578617746887416e-02
2.132593688870454765e-02,2.671437459796044151e-03,4.503520545540573572e-02,7.127236758619917220e-03,3.447756157345978215e-04,1.041354257888722941e-02,3.777492553386962992e-02,3.265735145262483458e-02,1.961521651623073566e-03,5.306276954649084138e-02
1.897888831705874663e-02,2.826458059929129810e-03,3.323657588628070592e-02,6.931315944867548311e-03,3.783032123060524853e-04,1.051365180401762044e-02,3.852547627242973449e-02,3.238417608980525414e-02,1.331288565386318842e-03,4.221108302276722901e-02
1.816185457118467059e-02,2.969905968250623890e-03,1.793714599141014651e-02,6.873959290842844398e-03,4.058590050394415252e-04,8.327905037074791184e-03,4.188016077977448071e-02,2.982200841074014730e-02,1.266566735246152809e-03,2.833214518084677461e-02
1.853305904437994867e-02,3.096634626376966373e-03,2.517518603074794456e-02,1.841633153589243175e-03,4.272883039276648880e-04,6.308771543145877576e-03,3.948819525565158001e-02,2.826418294251694871e-02,1.220186170501638906e-03,1.429435823255972848e-02
1.689860657601951338e-02,3.201585782058120368e-03,9.010687329574071369e-02,7.867524892415459978e-03,4.424543757178158029e-04,6.887972480394986829e-03,2.976056161737268210e-02,2.461255283756699080e-02,6.137964944350167602e-03,1.707845033648242115e-03
1.315834502718972454e-02,3.279916625331346942e-03,1.428614680089204114e-01,1.602904457920640777e-02,4.512486887865347664e-04,7.589302872174776005e-03,3.081670840096660188e-02,1.614262084851043888e-02,1.030467971094868596e-02,6.187806749705268908e-03
1.175565836222295865e-02,3.327125031632908320e-03,1.637380509078714408e-01,1.872487713371085230e-02,4.538582772239417367e-04,3.210193762652040986e-03,6.043669037890201517e-02,5.534024930228099645e-03,1.232104174669916910e-02,7.028300060479444715e-03
1.501801591588023017e-02,3.339168741993745523e-03,1.574731974241591614e-01,1.711134592791071010e-02,4.507548095949675507e-04,6.392509466321714094e-03,1.041609155533929770e-01,2.172623551258412011e-03,1.348265206404469438e-02,3.141692110752972514e-03
1.995364010838333521e-02,3.312572714749213981e-03,1.317183133331211731e-01,1.321456308445358510e-02,4.421220761901099188e-04,1.520555549282687213e-02,1.270149725891883408e-01,2.650586133075613377e-03,1.388573372874044032e-02,2.683580366515387998e-04
2.255350776928283230e-02,3.244522264351420646e-03,9.767820270341109890e-02,8.352896357391063203e-03,4.278532820392851673e-04,1.889156602491381953e-02,1.175806980437666405e-01,5.177057418371565356e-03,1.207367280233214921e-02,2.663347165818088797e-03
2.118694305848040776e-02,3.132940749485460096e-03,7.821584647579502003e-02,4.184378938714122809e-03,4.087536995154939586e-04,1.912850767405622349e-02,9.624811645024966555e-02,1.623669663000593122e-02,8.469812655247288893e-03,1.007908457104891159e-02
1.646939388570413040e-02,2.976549517321029972e-03,8.623827097527866914e-02,1.428614978973194319e-03,3.865517360443674428e-04,1.866253569395409304e-02,8.123608108043640919e-02,2.319241364548992740e-02,5.164004664328486136e-03,1.868505118868762915e-02
1.104533722248866520e-02,2.774907991392211015e-03,1.058957583109658984e-01,9.606056026776627760e-04,3.612988634997901945e-04,1.684942127300357445e-02,6.957698733373725297e-02,2.391115422000463300e-02,2.591081948187625491e-03,2.434230818466825985e-02
7.989147860193826153e-03,2.528432978338151539e-03,1.104373188627681829e-01,3.893590267335211852e-03,3.312400771839872356e-04,1.236435835599145744e-02,5.076108976166854303e-02,2.019770696074755373e-02,2.190419754163480670e-04,2.583920110886907609e-02
7.127428763293270492e-03,2.238396669862590879e-03,8.783385724725542576e-02,7.210488216407381738e-03,2.983201778387250592e-04,6.348557389692779246e-03,2.245735987792228314e-02,1.162048671701471254e-02,2.959300180508423958e-03,2.543476978526900550e-02
5.167429609453023064e-03,1.906903006679012535e-03,4.964872006741193056e-02,9.783763566268456613e-03,2.685574476107841554e-04,9.036439678407346202e-04,7.274309000526406679e-03,2.793020383495070560e-03,4.506405274532251752e-03,2.567144048933684905e-02
1.140508928819133514e-03,1.536843241357692272e-03,2.865632780537012356e-02,8.474263093158428128e-03,2.402449002349415770e-04,2.609172804068198622e-03,2.679539981785675554e-02,1.902004829164698554e-02,4.698377415394200049e-03,2.613714636888714998e-02
1.796047414541207402e-03,1.131832333271538772e-03,5.495759271045210642e-02,7.637172910271016347e-05,2.027936974291909451e-04,3.266972502588250029e-03,3.167438077114981265e-02,3.098911700012973655e-02,3.460037661476692006e-03,2.492609134844812890e-02
2.000797845577553628e-03,6.961268330295668043e-04,1.176212402140966590e-01,1.277782561617382510e-02,1.618497648652767883e-04,1.187471707480660700e-03,2.706874109606443451e-02,3.801750849398957688e-02,3.116678189492432275e-04,2.233432172795329212e-02
2.300684787085658690e-03,2.345250444946853563e-04,1.671116301946525828e-01,2.161372148798762147e-02,1.423694746730394187e-04,1.844658462025777984e-03,1.673035818353749843e-02,4.337391743493448915e-02,3.392474752744513780e-03,2.016902335907825097e-02
4.844852861083907489e-03,2.477460627405915538e-04,1.688051779361364746e-01,2.097727944431228286e-02,1.350117564253209114e-04,3.846724396337083528e-03,3.992968935041954839e-04,4.655603992337732644e-02,4.427728928098350475e-03,1.807795634289095441e-02
7.694464864699275541e-03,7.451516404427354062e-04,1.340343207636588985e-01,1.356185847433192225e-02,8.812056757057403877e-05,3.748971549656604334e-03,1.757569898361419428e-02,4.375515140328361391e-02,1.787072933376340203e-03,1.413760246918664351e-02
8.701450590902465310e-03,1.251978585493702511e-03,9.136856747913639498e-02,5.129684513894672282e-03,2.196926422950265013e-05,1.075857530684847354e-03,1.904165780721037149e-02,3.554408491178311785e-02,1.613893182603006859e-03,9.312741851244973196e-03
8.268761768265797674e-03,1.762476574272421517e-03,5.244046406547828859e-02,1.210431275835928411e-03,4.896295278114951911e-05,3.295126317393006193e-03,1.082227416770356132e-03,2.714603174558788412e-02,2.804917395789647237e-03,8.239305773946211525e-03
6.863065520993850283e-03,2.270998067474101594e-03,1.545113980709271126e-02,4.776870434839665044e-03,1.301632558760814793e-04,6.468028533342044806e-03,3.163916492356861482e-02,2.122952605568055595e-02,2.104646761133430102e-03,1.351884827069381283e-02
4.074091333865647972e-03,2.772120913611212170e-03,1.860157598201445106e-02,5.731998922510781608e-03,2.286008397354124990e-05,6.342942004207747717e-03,6.040153437724698343e-02,1.624398333141935033e-02,1.419634233653095049e-03,2.018722654703573177e-02
1.125723000202115799e-03,3.260768925149635979e-03,4.562759197191845750e-02,5.175101672361699830e-03,2.047355214017399232e-04,4.769426327678025559e-03,8.452534528171894157e-02,1.043703103547613878e-02,1.340189429071196418e-03,1.934947240949131883e-02
8.247647920565228741e-04,3.732355065517431025e-03,6.526672012337013384e-02,4.563880841069316817e-03,1.047967437075104696e-05,5.151944606322516815e-03,1.030474075282367397e-01,3.002140881753422377e-03,1.265797121085728396e-03,8.693581896402319265e-03
4.212327284554896224e-03,4.182904652641643295e-03,8.059564316624787117e-02,4.385627439235480034e-03,7.914120828035189426e-04,7.535824063481010374e-03,1.128960613417146763e-01,5.827062265731269494e-03,9.421561283040232049e-04,4.734933719740013446e-03
9.313690102217518640e-03,4.609095047127289603e-03,9.340857473495271790e-02,4.252963566325981132e-03,1.267999277526080581e-03,9.143686983121134676e-03,1.154716152285735487e-01,1.274494819934413048e-02,6.417075357436568357e-04,1.433473848652679940e-02
1.348123208149392543e-02,5.008292184824627083e-03,1.021218124926485393e-01,3.946473386917258470e-03,8.015992066928724060e-04,8.956900000479352947e-03,1.147012012591474422e-01,1.283762659361511668e-02,4.903171898081657007e-04,2.085226045832504205e-02
1.586125464670884097e-02,5.378713867320148237e-03,1.040971475110380462e-01,3.634284299803934061e-03,3.006459678924506209e-05,8.396349457500507096e-03,1.085489819466465278e-01,4.751234630523369640e-03,3.668540618740303758e-04,2.627687102225412588e-02
1.730789313293431761e-02,5.719545011684912944e-03,9.962502637541459372e-02,3.421498423075143309e-03,1.773092694100552788e-04,8.159731844819594418e-03,9.529697460603939185e-02,7.904614080838860690e-03,2.146605222098445210e-04,2.719985069547759676e-02
1.856572567926165554e-02,6.030717752715014125e-03,9.246212752014053293e-02,3.232348042101228225e-03,5.584786406578290895e-05,7.519179675300581914e-03,8.287511699203788107e-02,2.015815417940427720e-02,9.248786124584442749e-05,1.932148295004008226e-02
1.954208669805495083e-02,6.312718721320923279e-03,8.600738033488733447e-02,3.017564228570435506e-03,1.657737786697930597e-04,6.295461116479271133e-03,7.742824419385750667e-02,2.907406112950629284e-02,2.932730743033577873e-05,4.531318441716788471e-03
2.025611579662506961e-02,6.567044323333080975e-03,8.066609051241172001e-02,2.812394517474294496e-03,8.368173100515281337e-05,5.129992237694194074e-03,7.155645499270335552e-02,3.454145920956314120e-02,1.262510545014307881e-06,1.129208951023448135e-02
2.102346270704248329e-02,6.796546408561070056e-03,7.546141506527906384e-02,2.640331858415265621e-03,5.180624831448661974e-05,4.279807716804175100e-03,5.787411589879960794e-02,3.795664077379259232e-02,1.352079959809909335e-05,2.559179031878495991e-02
2.158108063750353856e-02,7.004324462104435586e-03,7.022721218471816851e-02,2.484776693178618844e-03,1.087246454981327670e-04,3.769610225376564261e-03,4.397782796929270571e-02,3.975198265161312972e-02,3.368287019838200545e-06,3.960155581812822151e-02
2.164637633825809357e-02,7.192750709052256504e-03,6.540369239144355751e-02,2.333784601012820880e-03,1.417967551696690080e-04,4.058246919957019146e-03,4.290358361217926769e-02,3.908116477411251871e-02,5.379502807225180100e-05,5.154934458568405375e-02
2.216952110609806542e-02,7.365544667296540851e-03,6.107466169482558827e-02,2.193911261188861983e-03,1.306485147235005571e-04,5.373541113518357816e-03,5.753917524059728311e-02,3.742502626811719524e-02,1.293784592528441485e-04,5.527558839413618252e-02
2.409004528382617180e-02,7.529591982763286957e-03,5.702735234181496859e-02,2.069465184232529772e-03,1.269746105939790451e-04,6.917779216559541769e-03,7.926314736022643803e-02,3.931115675732050480e-02,2.237108034685130603e-04,4.924981748491560202e-02
2.627759729480675516e-02,7.690200711615131739e-03,5.319994268083291789e-02,1.955813751144277243e-03,1.402956176371887597e-04,7.542314146254455211e-03,9.520201999042635088e-02,4.537793794254985080e-02,3.356121459784478607e-04,4.165065310328281561e-02
2.713173575180067437e-02,7.846698286685030790e-03,4.966952704433007237e-02,1.849063617863627197e-03,1.459735031245463176e-04,7.148771665493655787e-03,1.009390269761382686e-01,4.966989583078824932e-02,4.623886848606410631e-04,4.069877519330255405e-02
2.768059101584315757e-02,8.002028487647694366e-03,4.644427947474555340e-02,1.749364523818670945e-03,1.388139965304001919e-04,6.954856674462471695e-03,1.105895718352915280e-01,4.931802366696241835e-02,5.983653944796782061e-04,4.368195173148396032e-02
2.972411547480886124e-02,8.171972922237513356e-03,4.344786681707202280e-02,1.656470379211181718e-03,1.299820386507811467e-04,7.715984978422562104e-03,1.369878412072662865e-01,4.787491708147321307e-02,7.381770489122413533e-04,4.087184753580438284e-02
3.123514738571024976e-02,8.364461930943060605e-03,4.061540798310435407e-02,1.568192653225526558e-03,1.218731648854035792e-04,7.697459872794955478e-03,1.565726711677039584e-01,4.244776560848569080e-02,8.776565460584695878e-04,2.780274079963334158e-02
2.838000697703154870e-02,8.558916270559607450e-03,3.794499944785802159e-02,1.482514344985803477e-03,1.092552147628156551e-04,3.879701485595270314e-03,1.255592101332021759e-01,2.304394484059543030e-02,1.012470554231753280e-03,9.996135804495411004e-03
2.244758235386087875e-02,8.749487953264174431e-03,3.546057508730188906e-02,1.398392801536637664e-03,9.104968541825084487e-05,3.950536007522897387e-03,4.269823604545165685e-02,6.204591010472132462e-03,1.137854332119747928e-03,3.198633947290675360e-03
1.906751915201419095e-02,8.989933955588252923e-03,3.309936447293326811e-02,1.314829647024714620e-03,6.993862570304229618e-05,1.171233856454103293e-02,3.820423307517948480e-02,2.433486335180012200e-02,1.249412575044795510e-03,7.213490117699219648e-03
1.992888848159870413e-02,9.302108999151455920e-03,3.071414319964128545e-02,1.230529518462079646e-03,4.683738644758900926e-05,1.468377213997123718e-02,6.772173170210121773e-02,2.139745308606887803e-02,1.343410181659274389e-03,4.154659744425719635e-03
2.112858965729742106e-02,9.577462642984107058e-03,2.831744818511615358e-02,1.144372421565570484e-03,2.100202782801345976e-05,1.177593313152407173e-02,4.179487654042228495e-02,1.029244815855430775e-02,1.416544607381979180e-03,2.399685320212949398e-03
1.985991513256248064e-02,9.769670609091906516e-03,2.612470982694022406e-02,1.055614440254035776e-03,7.393420882692953799e-06,6.050265018886531211e-03,1.325060022061656448e-02,5.908394419735468577e-03,1.465938608644283591e-03,1.041410690142010632e-02
1.716537214971795150e-02,1.010986717640379069e-02,2.404022341551927469e-02,9.636975458007352412e-04,3.729066322314033763e-05,1.976956222604089007e-03,6.291452882292213056e-02,1.079930782838826007e-02,1.489364640853071530e-03,1.627851036616751942e-02
1.453858827775918530e-02,1.070077957043518921e-02,2.147855261322046544e-02,8.681746708814090056e-04,6.797157464928822723e-05,1.751707590475904634e-03,8.003538952215111246e-02,2.194413648059495223e-02,1.485342647920151948e-03,1.545318529894972731e-02
1.268905221895375718e-02,1.104645808629578507e-02,1.830025190471785274e-02,7.688117083731173208e-04,9.907653228345502218e-05,3.471747307838825031e-03,6.802303330368358880e-02,3.382378817172113084e-02,1.453095608970599592e-03,1.062931717280286674e-02
1.290596498334717346e-02,1.090688558826346903e-02,1.536285329411146532e-02,6.656300030853650341e-04,1.300519431746883126e-04,3.557696108774074766e-03,5.968688825789381786e-02,3.625760984785860591e-02,1.392549142338893363e-03,1.140846445807369193e-02
1.573574140092966547e-02,1.132488208803966376e-02,1.329671046409760214e-02,5.588575910267015983e-04,1.601565290300880772e-04,8.977043097350939464e-04,7.636365976658272825e-02,2.425851219647033249e-02,1.304392015490891260e-03,1.861504488040377839e-02
1.888286966806653269e-02,1.282709379293527942e-02,1.146113103670994005e-02,4.488997082922154599e-04,1.887420526016512145e-04,2.916336423286537173e-03,1.053369053747846840e-01,7.613506529365805450e-03,1.190066539664823503e-03,1.750698721132304750e-02
1.903958033347782561e-02,1.317967020116748815e-02,8.989510587139875816e-03,3.363451623032069995e-04,2.152755895907797776e-04,6.644230924896741761e-03,1.262720536089103340e-01,5.259700802549216936e-04,1.051660506802199867e-03,3.465622833474699648e-03
1.565708510534296813e-02,1.118537738055985949e-02,6.013118191762578495e-03,2.219575565485937263e-04,2.392296622599470054e-04,9.519700294598009913e-03,1.316151826275291647e-01,7.395543761754629075e-03,8.918549224086880353e-04,3.512472225528814190e-02
1.151170162421322543e-02,1.169247169555595600e-02,3.108048073795473612e-03,1.066436637501482843e-04,2.600907401256088969e-04,8.839519418412865662e-03,1.095589152921286752e-01,2.565979432952401190e-02,7.139871885226390345e-04,5.948371972487054987e-02
8.251821499558357684e-03,1.747265502820484484e-02,3.599849723049204295e-04,8.576445349519381785e-06,2.774290427204570441e-04,1.981705427713857225e-03,4.293794165099215632e-02,5.210895389766940361e-02,5.219640258392737328e-04,7.161235487060257920e-02
6.914131089674519122e-04,1.558832999894093491e-02,2.452294030604752935e-03,1.225926907243811556e-04,2.909112972516468879e-04,8.561710604782007614e-03,5.422495510741138364e-02,7.846609270832650973e-02,3.198985094878390085e-04,7.865399196874132970e-02
2.064556861803268709e-02,1.236811397471817772e-02,5.342916971799997750e-03,2.342321603627522009e-04,3.002823879100533855e-04,1.646512221974838486e-02,1.339257863932876436e-01,9.177365500226569717e-02,1.120137932095451657e-04,8.345996482173616282e-02
5.613798531689773857e-02,6.101177280845895140e-02,8.172022848754508656e-03,3.422915144713028460e-04,3.053711268823648857e-04,1.845386304131460889e-02,1.694957277146642294e-01,8.697404847931308747e-02,9.689941986018861704e-05,8.058865183142951971e-02
9.035678257973195349e-02,9.945608026910880695e-02,1.088992396424654126e-02,4.455686425632420086e-04,3.061061569852156251e-04,1.639176963269704454e-02,1.811934045459110965e-01,7.142444981513616786e-02,3.016024422570290570e-04,6.658118895235184964e-02
1.062846617825747436e-01,1.060716959207489707e-01,1.351768431721485884e-02,5.428917960574773053e-04,3.025160725240616955e-04,1.320475026076254645e-02,1.949847891042700010e-01,5.374855728739524191e-02,4.977382921149100170e-04,4.573429610703650533e-02
1.023427797005306977e-01,8.909153107272707595e-02,1.603371266527143027e-02,6.331479451130889472e-04,2.947247140561190352e-04,1.042958508296961198e-02,2.107085351604012224e-01,3.537798606759356979e-02,6.819703851591655793e-04,2.440423050619367623e-02
8.894079591232448290e-02,6.767789563458639912e-02,1.838260545437726129e-02,7.153102186837801031e-04,2.829533510717034054e-04,8.790125485475627776e-03,2.149296274927836869e-01,1.516917310867377418e-02,8.495072488734816069e-04,5.263367355341660309e-03
7.439931285835799102e-02,4.864088835667097765e-02,2.052955508161282208e-02,7.884626343751151289e-04,2.675144948918427301e-04,7.973545584861825922e-03,1.986999328925236896e-01,2.934086041694232948e-03,9.940923256731347499e-04,8.969952242794360792e-03
6.114601200581282203e-02,2.869920593194466921e-02,2.245805228790315189e-02,8.518213234186718368e-04,2.487926653394074419e-04,6.835716923526314812e-03,1.710145024627524324e-01,1.103850367761528319e-02,1.113621341104391229e-03,1.098240599059082355e-02
4.982955925168326000e-02,8.046771266338934719e-03,2.414550299443057879e-02,9.047524674482366807e-04,2.272414906554387384e-04,5.488737530249975481e-03,1.641534301196622136e-01,6.661586499909411332e-03,1.210615835671013246e-03,3.293448864359921346e-03
4.038244782697859164e-02,7.433240050880597291e-03,2.556504524805705211e-02,9.467867543214008317e-04,2.033987199493301665e-04,5.152785278126956366e-03,1.968556463470500228e-01,2.262582061507491769e-03,1.280510504764521308e-03,2.387020154638958003e-02
3.168179535160372401e-02,1.406739102943715784e-02,2.669792064563674197e-02,9.776295760308443758e-04,1.778585792585003821e-04,5.134274699830019759e-03,2.317149226207848578e-01,5.071719172911554573e-03,1.310566912453754469e-03,3.369781132886540825e-02
2.287728162360602377e-02,1.446193747517212844e-02,2.753357693530411598e-02,9.971666882101373839e-04,1.512018497553964510e-04,2.952409035455210839e-03,2.109682498421597829e-01,1.446087066138803182e-03,1.305042903678916167e-03,2.668068576533290381e-02
1.338164663836629437e-02,1.343018118572044707e-02,2.806452974346106827e-02,1.005466003469476007e-03,1.240132896242188609e-04,1.593375403682449187e-03,1.347346657624834410e-01,1.301481075354080780e-02,1.288302225068100508e-03,1.078833032251219799e-02
2.857577561413392371e-03,1.310611195981026267e-02,2.828674080333650268e-02,1.002775776254018116e-03,9.698782676178712228e-05,5.442714515875564894e-03,6.231930719689944553e-02,2.295449283671776447e-02,1.251220858747214334e-03,4.442225765987866185e-03
6.555317668345417813e-03,1.298591422887642767e-02,2.820234198060732334e-02,9.895180017700177209e-04,7.085006867562639813e-05,6.429673964732374181e-03,3.398298951163290782e-02,2.467824590483093383e-02,1.143163668075039725e-03,1.481547318617410479e-02
1.121831943393446565e-02,1.250214543511365094e-02,2.781962227052660677e-02,9.662768672502319856e-04,4.607900017285948584e-05,5.809131682640006518e-03,2.812505859188858814e-02,1.618607567978109368e-02,9.862030450714810020e-04,1.825573388350760010e-02
1.112344729465222261e-02,1.189861296432630916e-02,2.715169784532916325e-02,9.337853343388735541e-04,2.302692505702246445e-05,5.507070767626518967e-03,6.737944811898041036e-03,4.975649920782674457e-03,8.952762631994239237e-04,1.341707582489535047e-02
9.997189265978706149e-03,1.143380817822947475e-02,2.621626455133321820e-02,8.929111743656245083e-04,2.466019056496831694e-06,5.342538432598621830e-03,2.343857870854283015e-02,1.256569133996596286e-03,8.346470763080365970e-04,2.325243053633969936e-03
9.598454094557987495e-03,1.100468559853907957e-02,2.503580370103457298e-02,8.446371130843645424e-04,1.469352201823078942e-05,4.524294881586834668e-03,2.270599171803778724e-02,5.692736599937783804e-03,5.653977204286175133e-04,9.474438678490723631e-03
8.886795795492367575e-03,1.049912743901910972e-02,2.363712069445527211e-02,7.900334917323578385e-04,2.861654574823661260e-05,3.779789168279271572e-03,1.193069214593056940e-02,1.223970207489267006e-02,1.600273584864782186e-04,1.560064632256476236e-02
8.646127407995534905e-03,9.973310931373057658e-03,2.205051207843040928e-02,7.302363143092993917e-04,4.000662127941214226e-05,4.106146872633277892e-03,2.815673129754436496e-02,2.032405657842784041e-02,1.863164475102529311e-04,1.229869087781504042e-02
1.099663322005175158e-02,9.489187484186400665e-03,2.030910759401698129e-02,6.664360531017934301e-04,4.753012374766494105e-05,4.881396575161232529e-03,4.589253055959583924e-03,3.206826272981696396e-02,7.721213703673608739e-04,2.982734290192213915e-03
1.438445720709355218e-02,9.029421479108968793e-03,1.844827687369596930e-02,5.998515939582012941e-04,4.891721872811494491e-05,4.939735884523314621e-03,3.928197413461494841e-02,4.030681931335983875e-02,1.052479292573154333e-03,2.284953718125942983e-03
1.508133539693022260e-02,8.572262028897015620e-03,1.650486749633720690e-02,5.316789353732068960e-04,4.650810416922770328e-05,4.503624536345413737e-03,1.953758160735424854e-02,3.431939189852432903e-02,3.938705189628948964e-04,2.004395539239945626e-03
1.371170107842347233e-02,8.132125488000621280e-03,1.451634916553546512e-02,4.630708215892959416e-04,4.505588780352544668e-05,4.562982823089583619e-03,3.276446204757101077e-02,1.759644593405891230e-02,5.608345440063086055e-04,8.754313727871785092e-03
1.437180207741807839e-02,7.724902863038059057e-03,1.252000144889424404e-02,3.951726486247061952e-04,3.982693813844322595e-05,4.890039260102838244e-03,5.686912421564985221e-02,6.071465877891106880e-03,9.375524800219606821e-04,8.336237461315045005e-03
1.695407474668810671e-02,7.348429785074990332e-03,1.055213970185619153e-02,3.290969315295400499e-04,2.097788966790634075e-05,4.101422762763463903e-03,4.790316077270695416e-02,6.563007413281209644e-03,8.554736483917976505e-04,1.659139880437869976e-03
1.606172339121593809e-02,6.998417358009391930e-03,8.647342683697668494e-03,2.657806286428405487e-04,9.285906942680505725e-07,1.898698683152711579e-03,4.726225842374678215e-02,8.308814426760778929e-03,8.743802103597795227e-04,4.298387174601514538e-03
8.905949204152802112e-03,6.677746797811673525e-03,6.837711155958987701e-03,2.059765825054391149e-04,3.623813020860977801e-06,7.242950551497283882e-05,6.312435110504757696e-02,9.194141111143949371e-05,1.059637390241229948e-03,7.504554280003358259e-03
3.772246924293483480e-05,6.389109860786027981e-03,5.152200782739020310e-03,1.505057410876871988e-04,7.877503022675500855e-06,5.536413443647701053e-04,6.583144422964663789e-02,1.374329211758644476e-02,1.166233059153639695e-03,1.055452936556216734e-02
3.896650066609094309e-03,6.130584611200792788e-03,3.616040073497831138e-03,1.002378098050680643e-04,6.038217744929521978e-05,7.811354056664198027e-04,4.918027788878497758e-02,1.913121421109113124e-02,1.153525643160712268e-03,1.511470902660031965e-02
2.014361054201846673e-03,5.899076145107103042e-03,2.250234584756733748e-03,5.551666125433462901e-05,1.164203951511556931e-04,2.751428543234888269e-03,3.931789086670022665e-02,1.511943103816992123e-02,1.132856135826308111e-03,2.084693977511847124e-02
4.841241021624604051e-04,5.692508378582025741e-03,1.071170644720453868e-03,1.616049714788059624e-05,7.326172278516163952e-05,5.944946364883680126e-03,4.596311743289736851e-02,1.485542646046369639e-02,1.124097279682281575e-03,2.538271336321855712e-02
4.823837271484495998e-04,5.508345165710117931e-03,9.033304948574943233e-05,1.732766591575299222e-05,2.165125066592576698e-05,7.464363415955752382e-03,4.853067826107743121e-02,2.510686402641422801e-02,1.075863894345960390e-03,2.437670426700864340e-02
2.963283320911449040e-03,5.342675938240539803e-03,6.858581319588406833e-04,4.373581086699479276e-05,1.839936092468875029e-04,5.546203025171561433e-03,3.206822562984774222e-02,3.664642714674996860e-02,9.797485813343657490e-04,1.582391706188472982e-02
2.776847330889491844e-03,5.191048220154149441e-03,1.256091295491292437e-03,6.372509792229650964e-05,3.794623067827397351e-04,1.515208708680238284e-03,5.021578086352414434e-03,3.924207432547159591e-02,8.622791019749891919e-04,4.299593361054518739e-03
5.546148757989174775e-05,5.049074476497294496e-03,1.624087356939339383e-03,7.993755656599460307e-05,8.351267539390011822e-05,2.068039797930039565e-03,1.970347091882254306e-02,3.367040852870152590e-02,7.312695871485043984e-04,2.847994655714977501e-03
9.344771500754045414e-04,4.912231276965436239e-03,1.798405711987338760e-03,9.146456962687323487e-05,5.845880980627509880e-04,3.820125102691850419e-03,3.576525396048822747e-02,2.583893496544825696e-02,5.788405046744354420e-04,3.489689681605064736e-03
2.119506323365826471e-03,4.775762706881241278e-03,1.792137285732494159e-03,9.344511699644429529e-05,8.236653302717800943e-04,3.792391169974095120e-03,3.610511743275754415e-02,2.023502836109107930e-02,4.064661205848286020e-04,1.648022800524838547e-03
6.533921995788061210e-03,4.634966912999901288e-03,1.622493387538920251e-03,8.883434265183073420e-05,5.589773794881053260e-04,2.831299249057739505e-03,1.885306367994389609e-02,1.969925236158108495e-02,2.237370628431167808e-04,6.350948012515747476e-04
8.095010086266139770e-03,4.485437325395039143e-03,1.310302308412848379e-03,8.952867826330683444e-05,5.521785243660944477e-04,2.124903605009919368e-03,2.364306374667646347e-03,2.242320471971973386e-02,3.647103023933674090e-05,7.454927343519021470e-04
5.259744659325694960e-03,4.323117921970176872e-03,8.794266686605713493e-04,9.121725609787476334e-05,8.034700039726520989e-04,2.334432863470382435e-03,1.280306709595930778e-02,2.097705529540563191e-02,1.530115815846685697e-04,3.792624228904143118e-03
8.494729746699350263e-04,4.144366796348820242e-03,3.561135577033877272e-04,7.027447986244410392e-05,5.515953194880144879e-04,3.000588346196166132e-03,5.162181137477656750e-02,1.089154724726326511e-02,3.404845402611766719e-04,5.605572366267378044e-03
8.387003204281070004e-03,3.946091887588491082e-03,2.317071079406393327e-04,3.733713563854102645e-05,1.283200947313954622e-04,3.202264191179700348e-03,9.279907368382857291e-02,3.357185623611106274e-03,5.200508539889394429e-04,2.739981146881906651e-03
1.517401599574023929e-02,3.725864709759469252e-03,8.551529541652481969e-04,4.529282550619224539e-05,4.347407183245351908e-04,2.526439070949640375e-03,1.165977310665822358e-01,1.452455000913355047e-02,6.868481125680814779e-04,3.283022228144958244e-03
1.885562029120818259e-02,3.481977532196298131e-03,1.485128296122874975e-03,7.500882295156440849e-05,2.480699251884302750e-04,1.408254082283697493e-03,1.270063609120692938e-01,2.001203180119030117e-02,8.371400987101460661e-04,8.219077740108719082e-03
1.877546135160648721e-02,3.213484750122469306e-03,2.093066263229215532e-03,1.510583186464748367e-05,9.256206448072132570e-05,7.769600514087550078e-04,1.301340553915698028e-01,2.209346569711317584e-02,9.672117553248775609e-04,1.074024189062123061e-02
1.690209631815606239e-02,2.920242830514864323e-03,2.651660802881265940e-03,9.458729913212574763e-05,1.487992558423533753e-04,1.034438072742332277e-03,1.185687977858850134e-01,2.518283587204254645e-02,1.073461398475403228e-03,1.183349689148501492e-02
1.532817618859376105e-02,2.602928335867002192e-03,3.135545171604124139e-03,1.062210355845444239e-05,1.941842159008065334e-04,1.511855623440149215e-03,9.081359815497926091e-02,3.107639754331225843e-02,1.153052183735032944e-03,1.121365414144222597e-02
1.392450770502260196e-02,2.263026174059575794e-03,3.521889853898520738e-03,1.993639593683728655e-04,1.378355071979850519e-04,1.453235556546784123e-03,6.818992318926204999e-02,3.434287870158683059e-02,1.203990787522750622e-03,8.431263591801215276e-03
1.195531423776560395e-02,1.902797461235539904e-03,3.790960883345140860e-03,2.733201798182073946e-05,8.240681757768560274e-05,1.002220044037233342e-03,7.486232493414816946e-02,2.826513526137279519e-02,1.224915362940837355e-03,5.172535036766044009e-03
1.033518245498573143e-02,1.525231425660975157e-03,3.926650534528566654e-03,8.133935168268423190e-04,7.260037349905121588e-05,6.737081027427769273e-04,1.069478007912101347e-01,1.645162065442612453e-02,1.215123979814802671e-03,3.009229679160599705e-03
1.010935726595554342e-02,1.133978382175000743e-03,3.916851459857525163e-03,1.288712424301899405e-03,6.177049080160991121e-05,5.302187629496941425e-04,1.327104379074880991e-01,9.397669607897172692e-03,1.174716251015537477e-03,9.336017859931913711e-04
1.016067053701168003e-02,7.332637370432005088e-04,3.753609758898295533e-03,8.147739261890713739e-04,2.925541537303727289e-05,3.557464195354433241e-04,1.259005046879072831e-01,9.404929375999390717e-03,1.104596775650501300e-03,2.091388297484403011e-03
8.876868086302180244e-03,3.277871290317249317e-04,3.433302026127226306e-03,2.972264777331340749e-05,2.509361882569406533e-06,1.180458486173151711e-04,9.556031437604325940e-02,9.624692053551136411e-03,1.006396523369646996e-03,4.535467223778635870e-03
7.012737428773624902e-03,7.738993140793252491e-05,2.956959549916702342e-03,1.967014637554957289e-04,2.273920252418288983e-05,7.979052005444519334e-05,7.562641772937145346e-02,7.551371775477758695e-03,8.824308139083788648e-04,5.557038788044275056e-03
