1.136202745047962676e-01,3.990695394764622039e-02,6.120228315245884038e-02,2.110274225552650812e-04,5.951389498742300324e-05,8.245805124869093512e-05,3.886763671323409299e-03,6.632351603907714506e-03,5.761333811578966350e-04,1.193314840700548029e-03
1.335119753330001324e-01,5.182111895933242535e-02,6.078632138131780105e-02,1.870446032565791915e-04,5.456717408043145395e-05,8.066027692659498091e-05,3.758396995396380124e-03,8.171347431244150444e-03,5.094576757245858215e-04,1.158144513509792471e-03
9.929130930602975136e-02,6.235013961513029279e-02,5.725685278631246350e-02,1.557268950019870116e-04,4.877416375417722820e-05,7.664270303743477572e-05,3.538528650826082249e-03,2.996354378293150829e-03,4.265976350014737887e-04,1.124503579732921829e-03
1.441023793253736092e-02,7.330543735024791507e-02,5.241349196702710378e-02,1.175916369567900799e-04,4.227113118716271820e-05,7.049646441109588054e-05,3.231374774888833186e-03,5.843303178514252204e-03,3.276323620117393347e-04,1.133493665631574122e-03
5.185892428216064276e-02,8.253995174971918980e-02,4.336737299330871431e-02,7.333472750919184532e-05,3.521008270959926403e-05,6.236610286180848620e-05,2.843255840463365831e-03,1.033095791213888524e-02,2.129397936563840908e-04,1.135964017747103857e-03
4.828168776882971192e-02,8.442077371479232706e-02,3.254760229770572305e-02,2.378948191588095193e-05,2.775529480331731457e-05,5.244606831397855066e-05,2.382425310436375471e-03,7.195885427594848373e-03,8.317980637521188122e-05,1.037491664392488052e-03
2.042383386941747786e-03,7.596667521858278815e-02,2.887866101391567408e-02,3.008815981106758496e-05,2.007953639307207485e-05,4.097598205251701118e-05,1.858854711647669892e-03,2.233146085167212781e-03,6.068502545646026929e-05,9.345502260414353815e-04
4.476487268992410118e-02,6.162679659451924391e-02,3.633418341380399708e-02,8.718291928499776768e-05,1.236007080611545209e-05,2.823477847322822669e-05,1.284060241937598924e-03,2.824275375692001169e-03,2.173813147102871793e-04,1.025045837700642613e-03
5.931016416784018475e-02,4.875007106786803657e-02,4.776632496441283321e-02,1.462496716362235677e-04,4.774531474105338095e-06,1.453386950504408776e-05,6.708833089194131015e-04,8.687824150682909100e-03,3.854184021053489112e-04,1.099038987274554308e-03
5.877187491487945170e-02,4.315889932365952336e-02,5.139524197295528701e-02,2.060645696631290577e-04,2.503231035920513954e-06,2.095001226078076380e-07,3.305740666491210466e-05,1.306507335833020748e-02,5.631773885180060618e-04,7.071319371021028959e-04
4.188288519660438025e-02,5.165695844410159859e-02,4.095453219798320804e-02,2.654462385627807692e-04,9.307231894298047478e-06,1.438551653609700011e-05,6.152363920228815126e-04,1.282507346369237376e-02,7.488012387912117412e-04,3.007445488841743102e-04
2.420692480063703356e-02,7.891523565862351708e-02,2.207757165821845266e-02,3.230202687003268344e-04,1.548326720440624599e-05,2.889048048554410943e-05,1.259439950055734172e-03,1.380138615361249134e-02,9.401056090464865282e-04,1.172709816618343554e-03
1.546366324360591848e-01,1.153675676450315324e-01,8.865329539286277011e-03,3.772589279414466086e-04,2.089256745247059432e-05,4.294568826716411032e-05,1.884712274632084628e-03,2.299120954059357888e-02,1.134928935954863417e-03,3.256082468047876485e-03
3.000685112041879266e-01,1.367432427269092143e-01,8.840643123050405394e-03,4.270785716835304906e-04,2.541510090830567418e-05,5.620129888842573430e-05,2.476855104848036098e-03,3.777786022779642400e-02,1.331460867069593230e-03,4.329348364889870279e-03
3.862387745874462652e-01,1.253895344465356665e-01,1.406758674359453315e-02,4.718639174173522560e-04,2.895244658058747491e-05,6.832596313635634795e-05,3.023215093291042963e-03,4.780060575732893863e-02,1.527640134919057077e-03,2.907861678929623325e-03
3.903153183071180754e-01,9.055374992646335330e-02,1.456684027420436858e-02,5.102841651408955960e-04,3.143016620730599756e-05,7.901500279840795063e-05,3.511788641363327093e-03,4.683535616176196653e-02,1.720579275906491306e-03,4.730439512901480313e-04
3.430499896874562027e-01,6.049283390778496111e-02,1.362406990314344105e-02,5.402972169014277209e-04,3.279961637473529116e-05,8.799793732754697775e-05,3.930282369784985838e-03,3.799371046541066832e-02,1.907978872001904989e-03,7.536599330080001255e-04
2.726370293496649388e-01,5.256899811644404064e-02,1.849308046104472525e-02,5.617585539264192572e-04,3.303915492213620897e-05,9.504517150466911804e-05,4.268938350560502401e-03,2.728606177423585633e-02,2.089534456812067436e-03,7.059613560334884567e-04
1.857997732416395986e-01,5.637269691046040143e-02,2.368065410596056908e-02,5.765522359220015850e-04,3.215471001049104480e-05,9.997367828727771687e-05,4.523456457594219812e-03,1.711288798937908931e-02,2.264089043790114709e-03,6.819210647013466487e-04
9.022533369214939813e-02,4.957747861093221575e-02,1.697964362887748394e-02,5.830843492492122221e-04,3.017969531432929996e-05,1.026515357818289138e-04,4.689762287916558747e-03,7.167962837481976074e-03,2.426681724195652642e-03,1.135701829948478027e-03
1.174093213549089187e-03,2.316913999752263226e-02,3.303960140299619895e-03,5.759092746392616277e-04,2.717427036350785488e-05,1.030012055293334599e-04,4.758219956063769115e-03,2.718879193461865452e-03,2.574667652837882379e-03,1.610352548229759123e-03
8.151512717014308684e-02,1.573798076517020361e-02,2.849594636766096881e-02,5.575163895455247228e-04,2.322396066947370345e-05,1.010014703538554505e-04,4.725095511686589270e-03,1.215136769478906628e-02,2.714282225530190162e-03,1.892150912425404541e-03
1.383437576544056524e-01,5.719475178422602640e-02,5.251970052864077254e-02,5.394580901276807474e-04,1.843766757731670912e-05,9.668798312578198717e-05,4.605495256281484998e-03,1.928003958402721082e-02,2.847826754977520955e-03,2.195258416683256754e-03
1.430345078070970610e-01,9.378718699989288532e-02,7.518886793843453098e-02,5.172146106259267739e-04,1.294511259035771904e-05,9.015241211949108068e-05,4.409333730347369043e-03,2.060384916281897058e-02,2.959380617868446681e-03,2.622900099659822553e-03
8.470303997905295756e-02,1.193958479377492665e-01,9.446427452897894483e-02,4.671211283703713283e-04,6.893774798217857955e-06,8.154020335080754210e-05,4.113016136532999037e-03,1.535570461524397856e-02,3.041840219604742025e-03,3.042546306027258795e-03
7.089289993587068878e-03,1.321294937645664247e-01,1.023726164910418734e-01,3.999446934424344467e-04,4.453923068120100875e-07,7.104701450593882135e-05,3.709794970621114064e-03,8.761985874866583604e-03,3.128167163035582270e-03,3.384101880129466739e-03
2.144499535757640740e-02,1.347736391465507166e-01,9.090802514726412098e-02,3.688128579068206624e-04,6.227890957379997014e-06,5.891390797416444519e-05,3.271173866301278592e-03,7.238289797387718535e-03,3.234457967527133975e-03,3.761913685252618947e-03
2.285882403069035979e-02,1.298213428775393252e-01,6.198401965568804683e-02,3.549413317023663683e-04,1.294764250740757495e-05,4.542142125726999737e-05,2.840418626329695075e-03,1.157610229321236715e-02,3.291567674832058740e-03,4.234422927788702475e-03
9.595978400355706373e-02,1.200659751689432259e-01,3.027698497417981999e-02,2.475214427795809080e-04,1.953342462883109434e-05,3.088266088765484376e-05,2.297814259134950930e-03,1.689382728780714632e-02,3.264718715825098202e-03,4.613695080572908711e-03
1.346639767763230522e-01,1.123436874857769163e-01,1.244124120607897552e-02,8.715284746418664407e-05,2.580714195873693280e-05,1.563559025336655432e-05,1.583614807935785664e-03,1.827658915133017689e-02,3.305341377543837608e-03,4.793342851692443049e-03
1.241842068893485168e-01,1.113650657225610519e-01,1.265696587219959819e-02,1.179713317924159423e-04,3.159735086976918854e-05,3.470179938087442707e-08,9.936049384315684928e-04,1.597379659781359568e-02,3.506173462622152407e-03,5.138049008374306025e-03
1.008303910299649803e-01,1.110362903452288968e-01,2.192735778678005579e-02,2.729310097513616847e-04,3.674342732404595072e-05,1.555772054923862955e-05,7.164831010626005262e-04,1.407403688917858477e-02,3.518708354115236865e-03,5.843027707840584527e-03
7.809670526752890418e-02,1.014437394861936181e-01,3.048780588867907454e-02,9.631624902204634846e-06,4.109948965076526086e-05,3.078053259904007280e-05,1.348437972696241226e-04,1.274832689848753170e-02,2.855034571878775455e-03,5.798335788905639547e-03
1.700564368918169172e-02,8.479644662576027447e-02,3.563339387952053211e-02,8.509426683118611863e-04,4.453798075255066877e-05,4.528263363134982000e-05,1.424051099628868052e-03,6.284226571370496450e-03,1.634072139941795000e-03,3.342842214498557320e-03
9.346515033321856070e-02,7.541181122931293890e-02,3.782833100682921751e-02,1.380256752587150429e-03,4.695282859462284684e-05,5.873162207806067813e-05,3.200742109146465647e-03,7.237360436518783767e-03,6.320985532332357984e-04,9.816213871719787348e-04
1.887004505054290793e-01,8.155243687345588299e-02,3.645978466673541890e-02,9.592910148867366199e-04,4.826210795314562222e-05,7.082198849271565126e-05,3.675496032022157814e-03,2.073320903853519137e-02,5.920494018537946889e-04,3.733113790688389472e-03
2.110967432677413325e-01,9.534385960929790682e-02,3.281250934001635200e-02,2.247305871039296523e-04,4.841012359667067782e-05,8.128264245554100878e-05,2.838044466846391476e-03,2.735072344423567295e-02,1.616072854991912420e-03,2.382849289824363979e-03
1.797789913790800997e-01,1.028253801402835010e-01,3.067034493399517503e-02,4.307439307117999662e-05,4.736886009649010751e-05,8.988358636760560027e-05,2.187842189180244125e-03,2.794192544858949481e-02,2.972853465526729272e-03,9.688166241091942859e-04
1.351648630159629216e-01,9.500458549938170516e-02,2.828034495752309099e-02,2.917971581271536761e-04,4.513878938390663003e-05,9.644157004766652124e-05,2.464838873390611147e-03,2.538632510336143178e-02,3.626616880392864988e-03,2.100668615345497193e-03
6.989880708092192918e-02,6.890778828015038660e-02,1.729848085312527678e-02,4.125342417445683647e-04,4.174901869124140834e-05,1.008245851317838280e-04,2.978046047085253483e-03,1.842142257506376030e-02,3.428684334733297923e-03,6.953638138549986421e-04
3.812780193314459221e-02,2.944701601302838687e-02,1.996130599062466340e-03,3.344042344179869804e-04,3.725671042640438089e-05,1.029550868742720509e-04,3.093526384736959827e-03,5.868400068009881759e-03,3.365133214580159383e-03,6.264268892497600050e-04
1.505487155345960892e-01,1.050016097497480198e-02,1.451964571273982492e-02,2.889059315529720218e-04,3.174577185349848954e-05,1.028118623554839935e-04,2.985580711628901471e-03,6.667022476396578315e-03,3.864517325067054910e-03,3.441775739419562254e-03
1.782127254485227075e-01,4.171191147818278239e-02,1.106218661068932019e-02,3.203583703881487249e-04,2.532497398904497848e-05,1.004304975437110911e-04,2.938092076336273895e-03,9.685389249364829978e-03,3.477659528118148304e-03,5.499873922906485350e-03
8.456204099548444986e-02,6.617762344705233057e-02,3.839808006493243553e-03,3.414122292308213128e-04,1.812557235275457022e-05,9.590243031052845223e-05,2.882207693788209953e-03,7.481153792127481598e-04,6.336138720465290565e-04,3.828225798895461274e-03
5.569439692261657360e-02,8.734294686250637652e-02,7.774595498271669181e-03,3.229156456172259208e-04,1.029820435464566637e-05,8.937261150589616949e-05,2.692128722684192666e-03,1.117111869285139329e-02,3.511538957253322428e-03,1.046253363748399483e-03
1.338659101872089752e-01,1.010875009400984542e-01,1.744199682556158912e-02,2.656837664120233742e-04,2.009062571129381981e-06,8.103583069630900741e-05,2.408211900777786074e-03,1.530401143290254298e-02,5.697584942324654400e-03,1.224593785026898253e-03
1.148568920311313218e-01,1.005343042864900727e-01,1.731803898421820087e-02,2.004793453665184406e-04,6.563971531895907094e-06,7.113179630301530118e-05,2.102298130593720574e-03,9.573787464352083096e-03,4.307292332036664548e-03,3.872423423273249621e-03
3.660363448634728484e-02,8.328490613272919452e-02,5.599732276247165394e-03,2.162048134838239551e-04,1.523497169500980627e-05,5.993909082733262390e-05,1.771212945866061346e-03,1.564334054229648673e-03,9.968392561173755866e-04,5.474824745468064545e-03
5.987514153087006297e-02,5.216090220350746293e-02,7.443764480944923059e-03,2.699993482299906751e-04,2.381456856767949558e-05,4.776814984903078793e-05,1.398077884871124030e-03,1.444485857728968620e-02,1.722094084869965841e-03,4.833771749674792458e-03
1.500421662799624467e-01,1.280707826008664271e-02,1.802385676042961640e-02,1.316924429133704616e-04,3.211579679290703788e-05,3.495343783640730958e-05,1.002495009697903453e-03,2.582015630410665341e-02,3.189762797446481744e-03,3.764726582952075858e-03
1.980117348849466108e-01,2.655592858261157999e-02,2.996713382867388295e-02,1.266683107749032896e-04,3.995835390291506325e-05,2.184501390704278597e-05,6.119818469877216522e-04,2.970701813612203201e-02,4.206707272972722185e-03,3.695762544057086714e-03
1.709305173665405242e-01,5.380539600489893381e-02,4.197510418362386531e-02,5.425718196083231251e-05,4.717024911179625864e-05,8.799696024602711143e-06,2.376226882737108345e-04,2.249682206950072774e-02,4.638750079442803542e-03,3.874584168854343195e-03
9.186919562944644013e-02,5.860623739615865302e-02,4.839955605553685619e-02,7.977544916102479724e-04,5.359252944540533465e-05,3.827957675151204186e-06,1.133710755461886312e-04,1.004774792291025266e-02,2.708579058264562033e-03,2.742498614730474321e-03
3.573092617940711035e-02,4.334473466177725387e-02,4.673910032152388261e-02,1.237850133542311949e-03,5.908908083485852415e-05,1.569462692469874150e-05,4.266273604097435058e-04,3.093882891262677865e-03,2.735133654081386978e-03,1.157226175855485660e-04
5.297122608701584912e-02,2.028148609086578499e-02,3.171754509464039251e-02,7.381350320459028301e-04,6.354908901462411974e-05,2.647694393761292083e-05,6.868714978003873138e-04,5.880187265311228109e-03,1.018058128923316451e-02,2.298266844305072235e-03
1.198365968152702993e-01,3.793905548611300246e-03,5.237936874852771284e-03,6.309030363252168014e-05,6.687726900693840540e-05,3.587972802203577013e-05,8.836584946511496326e-04,1.394062078337488658e-02,1.628672608916546458e-02,2.683726322971989858e-03
1.777022500861770438e-01,2.802324316851595790e-02,5.567377321667692919e-02,2.953245871226707598e-04,6.899797593904278615e-05,4.364353520853013214e-05,1.008967597273647144e-03,2.166181250696969790e-02,1.808602568910536168e-02,1.024573240738471018e-03
2.057647646840623235e-01,4.518434782029299990e-02,9.049777223807355109e-02,8.029724816687179817e-05,6.988408466113999330e-05,4.955133457432901690e-05,1.054897733689816319e-03,2.783454584981787799e-02,1.502323191925910954e-02,1.150107239911625761e-03
2.281870798786354571e-01,4.683882246364803881e-02,9.315125732382655011e-02,1.957385085158562293e-05,6.955495545150837573e-05,5.343414429193345358e-05,1.015118399645639899e-03,3.374682731130570351e-02,1.016081624331391896e-02,2.103797054042699701e-03
2.461997450064539461e-01,3.735134340033792466e-02,7.854916001387288182e-02,6.374873695219688543e-05,6.801862656875197238e-05,5.517548593428407591e-05,8.862540084571677483e-04,3.781096729129410083e-02,7.910965630474196125e-03,6.750586638896027706e-04
2.119293795337026109e-01,2.560247165106432909e-02,6.572389528259640901e-02,8.733887234528473593e-05,6.527639675835067770e-05,5.471454460449939433e-05,6.674364161548848422e-04,3.505748900709793753e-02,8.937409808062835720e-03,2.711013858134405079e-03
1.059167140635325494e-01,1.250977153727869315e-02,5.306425406546552009e-02,1.200061521638280898e-05,6.144591717164502021e-05,5.204795430688082409e-05,3.597881106467452298e-04,2.407044863012392996e-02,9.268411754464684141e-03,5.449493203513347366e-03
1.093151268936210993e-02,4.156204083397061974e-03,3.508902656811309362e-02,4.988798010454566429e-05,5.675190425484249871e-05,4.723016185746764154e-05,3.331945856548813704e-05,1.019234801307211495e-02,5.963831977776216063e-03,5.067109038532437854e-03
6.763399690184437874e-02,1.907342515843815645e-02,2.251245459330431312e-02,7.783975755157429804e-05,5.125812997323253079e-05,4.037235772378327929e-05,5.060490018437092735e-04,1.408165887452101023e-03,1.306783884018487916e-03,2.303587783592206915e-03
5.694499721753785992e-02,6.132072490576450513e-02,2.799774586413463634e-02,1.231811888505117110e-04,4.487330254852616481e-05,3.163999761183087177e-05,1.050326930218605133e-03,1.001352663069773712e-02,4.237756612601395684e-04,7.389869298625185426e-05
1.477778569851487603e-02,1.065446348271510968e-01,4.621656465762057769e-02,1.948176244720587413e-04,3.791471472294462931e-05,2.124897348383848620e-05,1.656139408318018985e-03,1.520096358786231054e-02,1.473991537866343278e-03,2.725992973292976269e-04
1.728038189667004815e-02,1.329076992628222265e-01,6.243755993015492889e-02,2.672010290207653968e-04,3.109980732501125384e-05,9.460526144923677848e-06,2.311696164309606522e-03,1.691630519037237712e-02,3.725952543638672097e-03,2.170896640851354418e-04
1.560491659326724082e-03,1.428184886455941827e-01,7.087587837462912266e-02,3.339466777573423320e-04,2.433015645153355124e-05,3.424977194071059175e-06,3.003631137673045803e-03,1.969506444071770015e-02,3.387418124981178297e-03,4.447131629759062173e-04
6.557964743228046622e-02,1.417237362626514452e-01,7.417644058485332870e-02,4.047998212407065812e-04,1.666452681364157074e-05,1.707524869194081488e-05,3.717326978036438259e-03,2.721686088092058545e-02,8.288042258332594704e-04,4.862638461357492647e-04
1.345603341771530737e-01,1.237363520880534473e-01,7.309340386933188549e-02,4.805389904843150356e-04,8.901013773829863460e-06,3.113409283561548732e-05,4.437275627957606994e-03,3.419570427086581627e-02,1.538811392281666307e-03,6.135846603481982407e-04
1.548136184374644397e-01,9.145314839347878921e-02,6.619139084399819351e-02,5.541405844094877660e-04,3.687328833395399347e-06,4.523003031585565295e-05,5.147422210516178730e-03,3.295156312412353405e-02,2.339126292928791866e-03,7.058846035765330932e-04
1.253693199791894031e-01,6.479760523982190656e-02,5.583662944449392651e-02,6.225994093220898334e-04,5.640355579984165186e-09,5.898532105644354814e-05,5.831520673729914499e-03,2.478193709318113336e-02,2.251366258789886960e-03,9.007836253234217851e-04
6.752229488557530412e-02,5.683724684902671798e-02,4.789980830965755859e-02,6.865853034904067153e-04,7.278220032151402769e-06,7.202516425961199100e-05,6.473513514135820039e-03,1.651087597293286052e-02,2.087106565697592099e-03,1.724055317370016280e-03
2.196628999641797239e-03,5.825607830649025265e-02,4.620982623334055073e-02,7.449627832158122473e-04,1.552395835189562061e-05,8.398684887777581657e-05,7.057909247014590437e-03,1.098959128038776850e-02,1.160979986242513789e-03,3.236822880906692519e-03
4.429572511631592324e-02,5.499207333876592052e-02,4.950587337806990063e-02,7.949434908919978358e-04,1.329328187725718511e-05,9.452862926148748106e-05,7.570138270876099890e-03,8.584010062974651092e-03,1.396468594176328466e-03,4.890099124340102632e-03
7.789538954488144269e-03,4.631717338730891725e-02,5.286163479741910753e-02,8.347112825161290056e-04,5.429355591277923799e-06,1.033381066953036260e-04,7.996886180796095034e-03,1.151264462277945891e-02,4.854032375807319603e-03,6.633002438890839292e-03
9.787984839535227022e-02,3.658889442563174887e-02,5.199295351075727822e-02,8.634370417560768883e-04,1.616158316438938433e-05,1.101399084724998884e-04,8.326401096168754151e-03,1.948362448517285822e-02,7.565253135398793821e-03,9.394191870079771772e-03
1.959217283269754362e-01,2.299118400962589515e-02,4.708359329586696285e-02,8.800995242594181764e-04,3.551368309424507208e-05,1.147024742722262288e-04,8.548763799287994319e-03,2.654921173053368527e-02,8.371930549760056572e-03,1.353502582667329840e-02
2.235695572617813487e-01,4.156242544888977784e-03,4.069418609354881478e-02,8.835083605578384399e-04,1.129987924144624447e-05,1.168437834550246028e-04,8.656111703178905048e-03,2.751318272818392002e-02,6.825827921403129599e-03,1.726071984461668637e-02
1.820679663162055040e-01,8.842644791415405631e-03,3.192586848477493161e-02,8.728942029850068765e-04,3.661958014966624553e-05,1.164358806251208586e-04,8.642812713124205237e-03,2.354547646775214872e-02,3.512641387192925665e-03,1.812397329996155715e-02
1.113479934250361097e-01,5.269611627679399342e-03,1.731631610880892194e-02,8.479353153023599238e-04,3.872246308691468375e-06,1.134080818237389015e-04,8.505585715309597547e-03,1.908313445128511157e-02,3.492930728628021409e-04,1.609176565204108872e-02
5.064127530565976087e-02,7.146650933811156056e-03,1.386421282392454567e-03,8.085033499496483821e-04,9.367905705925572602e-05,1.077487807246357507e-04,8.243563976652506023e-03,1.684433105032569905e-02,9.507253608877800841e-04,1.326417505532911240e-02
2.319022088151409533e-02,1.162294571481541257e-02,1.589457067989038727e-02,7.546606355832658018e-04,9.934758831421454370e-06,9.950581834953790470e-05,7.858299386260961597e-03,1.748420746138784967e-02,6.714333974181164620e-04,1.079190687706421854e-02
3.758843248328826159e-02,4.445914131338679978e-03,2.114046041776003471e-02,6.867827103192001995e-04,2.386523095096009233e-04,8.878540573900676200e-05,7.353707605632815725e-03,2.096961034529214868e-02,2.951369164731109849e-04,8.407655417460108138e-03
8.805112526182946875e-02,6.676484106018477742e-03,2.276800335609709819e-02,6.055551333696829446e-04,2.913734412167086192e-05,7.574960384774563280e-05,6.735955569961039370e-03,2.626821740601907942e-02,4.580617521269916598e-04,6.498245733292334556e-03
1.483560645429977121e-01,1.890769881755359136e-02,2.985649324066580110e-02,5.119007117369643155e-04,7.418694865019078051e-04,6.061242037251040330e-05,6.013294239304496983e-03,3.140382025186724824e-02,6.851500767766455181e-04,6.014086161083357675e-03
1.808815034614580930e-01,3.421647826271399101e-02,4.155027998376825682e-02,4.069556861638820838e-04,1.204768548003028097e-03,4.363466263103135342e-05,5.195840892355836106e-03,3.469120328680748433e-02,6.244752509888559875e-04,6.693676792328812769e-03
1.688402653577260881e-01,5.013485376805601468e-02,4.835574346711048882e-02,2.920705710104629939e-04,7.214777395692405833e-04,2.511767545589356268e-05,4.295315783976657968e-03,3.471959239840648886e-02,6.162788529370221693e-04,7.385997343853744138e-03
1.344228883169808209e-01,6.196230120276541298e-02,4.773522672008927159e-02,1.687805137222789026e-04,6.950818591823467775e-05,5.396023281354432199e-06,3.324739119578850894e-03,3.078144044336956694e-02,9.941034134565783064e-04,7.654483891333496715e-03
1.171774949726728521e-01,6.829023364793421202e-02,4.821878350259177493e-02,3.875682142270807091e-05,2.981868261338697901e-04,1.517071304796743092e-05,2.298097183292630019e-03,2.595622379305817518e-02,1.291510606922359212e-03,7.808913862806693938e-03
1.395871610425977183e-01,7.035103109417130407e-02,5.425031579106225077e-02,9.623311144872797088e-05,8.743401476631237608e-05,3.620662164776581454e-05,1.229987283297421206e-03,2.662355378356072444e-02,6.990791862063180711e-04,8.015850592838106442e-03
1.916213943764892014e-01,7.275958856003221509e-02,5.848406651686054170e-02,2.343613246660216753e-04,2.306924394799775356e-07,5.732838802125580938e-05,1.352475428002179281e-04,3.464250488783798820e-02,5.674782631390289621e-04,8.224669600346084034e-03
2.359880106146638457e-01,8.129254174699490632e-02,5.494907781764452742e-02,3.737820180782848206e-04,1.045753784519307307e-04,7.815467518444243794e-05,9.714222370049052820e-04,4.270878040892182176e-02,1.106215373752920776e-03,8.391029900985483639e-03
2.299958262045312118e-01,9.084844352814332169e-02,4.877794823688856585e-02,5.126783744987048605e-04,1.574587746332072654e-04,9.831578832715124824e-05,2.075833190660097537e-03,4.156117836368770913e-02,6.068727793131297073e-05,8.308363729525239730e-03
1.617621253329404041e-01,8.465358503444023186e-02,4.609234251743909994e-02,6.493056911442270053e-04,1.195613633328314616e-04,1.174624703350332167e-04,3.164657525253247554e-03,2.997885666161664853e-02,1.704072238898034219e-03,7.862085169163902931e-03
7.061165414821318764e-02,5.638626121562029248e-02,4.404657990957259323e-02,7.820305784155990193e-04,1.028321381755786931e-04,1.352734482632442768e-04,4.225759975638652272e-03,1.473601392361571089e-02,2.799091782639362685e-03,7.626543738136364048e-03
9.293523518568744951e-03,2.336256258265088925e-02,3.874449462101609010e-02,9.093699053764049646e-04,1.270240384523265234e-04,1.514634922787057379e-04,5.248516703780856454e-03,1.824681299848987526e-03,3.003067234230046272e-03,8.213179227365577026e-03
1.948048102970747347e-02,8.324393616251930805e-03,3.492258130663716126e-02,1.030028380166873783e-03,1.399081302198006301e-04,1.657921835591151744e-04,6.224087080803367145e-03,9.053833847651664851e-03,3.084955270102627232e-03,8.916279414362052527e-03
5.157607977033432795e-02,1.496630733376256780e-02,3.818904359642406876e-02,1.142928375734204686e-03,1.315270767063090728e-04,1.780690214818726692e-04,7.145599862432179365e-03,1.948460495759846839e-02,3.519439852067496061e-03,8.335914243435179824e-03
8.182366464036597287e-02,2.710500521423323678e-02,4.358383580025062404e-02,1.247230746928014011e-03,1.261885803489297257e-04,1.881537868167555607e-04,8.008304791104214199e-03,2.542435252380505564e-02,4.053151125864671613e-03,6.403529720619758996e-03
6.026159421994472382e-02,3.002023070104184455e-02,4.291313153341796277e-02,1.342355587380747927e-03,1.288779195830107110e-04,1.959609919073885154e-04,8.809754656425852412e-03,2.214586836226687880e-02,4.321216700919879548e-03,4.402694399589663840e-03
1.316811381160858108e-02,2.842534859477685930e-02,3.908852852688932122e-02,1.428003944532835797e-03,1.283529443766745514e-04,2.014705777830190817e-04,9.549895763739673152e-03,1.463526379729674157e-02,4.493693397816160215e-03,3.196339654697459738e-03
6.402486385181452300e-02,3.633647589135330369e-02,4.093782315643280934e-02,1.504160666102890122e-03,1.222614204232831290e-04,2.047257692759399893e-04,1.023091410375882165e-02,1.368282526628569404e-02,5.072398433530310273e-03,2.616804348778420126e-03
4.047844818976600867e-02,5.150726992415904926e-02,4.726257383530461931e-02,1.571074288223735889e-03,1.159876541766404016e-04,2.058127972376592584e-04,1.085708765094794970e-02,2.155546174370639653e-02,5.874967241861827477e-03,2.063919444447879972e-03
3.037936547087087547e-02,5.650315512249801109e-02,4.950211961534503602e-02,1.629254946717089824e-03,1.108962324346551717e-04,2.048630468850552798e-04,1.143497577209177767e-02,3.131324991461308799e-02,5.871680593494103470e-03,9.496853624474502252e-04
1.023367378557027002e-01,4.854508080774378592e-02,4.873211464042840474e-02,1.679499903854611478e-03,1.047423869404283690e-04,2.020900324487705430e-04,1.197342249956246177e-02,4.028127938641162809e-02,4.856833903198163466e-03,8.713366414981154858e-04
1.675086076903378740e-01,4.816708058198979070e-02,5.628115377867580482e-02,1.722859915757006229e-03,9.712837625656085632e-05,1.977750564793301607e-04,1.248266065775486752e-02,5.294879438329264110e-02,4.314633915888094542e-03,3.043520662734234324e-03
2.354217562979805944e-01,6.752431851394791185e-02,7.461402846493424279e-02,1.760524476853506408e-03,8.933066461634131831e-05,1.921730853481857582e-04,1.297362757233708891e-02,6.800751070692896694e-02,5.446135907979734320e-03,5.277107666985341589e-03
2.981082800281331657e-01,8.753452893862909145e-02,8.877770881160998440e-02,1.793811905533488011e-03,8.183727887955892749e-05,1.855224273222471710e-04,1.345906004873894876e-02,7.374397092413903509e-02,7.505884388094448932e-03,7.180850343811794045e-03
3.401796951371513500e-01,8.230989735777495542e-02,8.367557092871001634e-02,1.824317848068386563e-03,7.448172200655136849e-05,1.782242570859914857e-04,1.395405711253761179e-02,6.314999566016525623e-02,8.917138284070218537e-03,7.933958401222948598e-03
3.634276485215622299e-01,5.434089006866009430e-02,6.330263324510869427e-02,1.853828755861531424e-03,6.737635833195019879e-05,1.708021749669519059e-04,1.447272512638956773e-02,4.549159736464953446e-02,8.758791730636187114e-03,7.718765949335028818e-03
3.761578548450397186e-01,2.977890540424656465e-02,4.547989207630168118e-02,1.883878299955653920e-03,6.065503114405042029e-05,1.634911894115457305e-04,1.502577905867288031e-02,3.474122566235241655e-02,7.300307342892324580e-03,8.573909258963643282e-03
3.645659967821946457e-01,2.643263451369850386e-02,4.069259478112605827e-02,1.915786755206262378e-03,5.447698818968031037e-05,1.562853437567649547e-04,1.562648463588556594e-02,3.301813530371307953e-02,6.246191076538571384e-03,1.183809720714128211e-02
3.065210384667500509e-01,3.867381897284236786e-02,4.324419361707287218e-02,1.951469149757809832e-03,4.957604367507900987e-05,1.497879704700936035e-04,1.629475450745146436e-02,3.394611343424756844e-02,7.306184669254036160e-03,1.603100102944180622e-02
2.163173717666085349e-01,4.963905976419888399e-02,4.320851923714950221e-02,1.993229089323655251e-03,4.630576384404380035e-05,1.451033580016615422e-04,1.704339121957793024e-02,3.592694835323569785e-02,9.816841406404951120e-03,1.914217363259459320e-02
1.389930989526050042e-01,4.937463868490332003e-02,3.842636004854045606e-02,2.041884915189867353e-03,4.340917801745816646e-05,1.419899723604042699e-04,1.786784421216822821e-02,4.154424002152952433e-02,1.152241247954602713e-02,2.126154851887276237e-02
9.852404470404814429e-02,4.093417972774825858e-02,2.974590546941835792e-02,2.097022714371907584e-03,4.045594510693673371e-05,1.390168843982290741e-04,1.877425251374128731e-02,4.818841801874051978e-02,1.177896408491825413e-02,2.322757803924459935e-02
9.140611537322043678e-02,3.276513452858566267e-02,1.514297549945675322e-02,2.160873972386368694e-03,4.053682155236284839e-05,1.374871914678530945e-04,1.980107522656578481e-02,5.074230679036694641e-02,1.199929384025222485e-02,2.476274898714011380e-02
1.182154920736471215e-01,2.678678307224357374e-02,1.240776264185972436e-03,2.237756606117029430e-03,4.491333873556883211e-05,1.411843076206328873e-04,2.095890909066547292e-02,5.162656574447389846e-02,1.301050435774033301e-02,2.576055306613151200e-02
1.644696911016384488e-01,1.513609488457154893e-02,5.758921810416566499e-03,2.325673393800030669e-03,4.710824018650947226e-05,1.479675918128116623e-04,2.218200580900914903e-02,5.716664069226617961e-02,1.379487436517557418e-02,2.763934859526061619e-02
1.675238534390316170e-01,8.869771208589567746e-03,6.516574493142962901e-03,2.417197543805303574e-03,4.427042278813969752e-05,1.500797961566004558e-04,2.345497562514230541e-02,6.504139224428978627e-02,1.313177795957605996e-02,3.151840693278940703e-02
7.582752357638046503e-02,3.725555327360122182e-02,2.094663910920117195e-02,2.517368673282285689e-03,5.009611967132103266e-05,1.520927092093243989e-04,2.491924870579546522e-02,6.631509570777703588e-02,1.106137334015751955e-02,3.571021716892321118e-02
6.580800824721889930e-02,4.942433952240599809e-02,2.204277332506936193e-02,2.642219876102104396e-03,7.085058565117774172e-05,1.707121878610199002e-04,2.660505850693252461e-02,5.980531656751931352e-02,8.205104056611062582e-03,3.643195419655253370e-02
1.574459926535211607e-01,3.107791322380572610e-02,1.315263554860612513e-02,2.780493792371988970e-03,7.714790140953452430e-05,1.964455185762720461e-04,2.819709247334400287e-02,5.469741924929915483e-02,5.187767653234997590e-03,3.158733061650984691e-02
1.578226218617306831e-01,8.717055774460275019e-03,7.038070955318031716e-03,2.895786709363836354e-03,5.445113271104865026e-05,1.930202574677497486e-04,2.960101878412367549e-02,5.892907597471012948e-02,3.291435051875576858e-03,2.368177762728483279e-02
9.687060150773429967e-02,4.305288410593331727e-02,5.253858092541348855e-03,3.008391755445231994e-03,6.467450682651452478e-05,1.792469080605641992e-04,3.145886345351949637e-02,7.214597470163315596e-02,3.352456559578980127e-03,1.851260599536437221e-02
9.293844704657574368e-03,5.310545570200256998e-02,1.085328960769856022e-03,3.192905110640652678e-03,1.399405811970793603e-04,2.324126107626665807e-04,3.395110684896995856e-02,8.861962735758165122e-02,3.311778725874805172e-03,2.047131240584697254e-02
7.024298461178318798e-02,4.227009052279188939e-02,1.281525615175389474e-02,3.403319307475546462e-03,1.481194171199573582e-04,3.134209827971037540e-04,3.566856017841019827e-02,1.024585462849024187e-01,6.055565850461661764e-05,2.850003418739727873e-02
8.421439650395359799e-02,1.915613663463583416e-02,1.599394714447423954e-02,3.473389925407293233e-03,1.609047976100824427e-05,2.547206194342341041e-04,3.618986616085943797e-02,1.122540028059459821e-01,5.170691648568373315e-03,3.667016908734331559e-02
6.821695907804061973e-03,1.789430377896704394e-02,1.658225066802103062e-04,3.492672408374729916e-03,2.564118197302382870e-05,1.360686169823127189e-04,3.855245263885130613e-02,1.187120279517950433e-01,6.948511636130213706e-03,3.946027448084767075e-02
1.055257014038997465e-01,6.522644188464740700e-02,2.119595750491112471e-02,3.824589321077037120e-03,3.512031178830556577e-04,3.295852635924929625e-04,4.276135077586071254e-02,1.101447666678087994e-01,2.966009850327029195e-03,3.578272317146002912e-02
1.792908671490130723e-01,1.028080868035638196e-01,1.531883752170640212e-02,4.263184099586165426e-03,3.611934631283738630e-04,6.532133876275694013e-04,3.636553494244462725e-02,5.984520572065112759e-02,2.373115731449570911e-03,2.694749757276902052e-02
2.044466725957570230e-01,1.191614224690849128e-01,2.829075537366916582e-02,3.726348080506713695e-03,6.308572895166648410e-04,1.113703103601689977e-05,2.719297708596566700e-03,4.182942315058727628e-02,4.078390951479968045e-03,1.308979577351743195e-02
2.064947489480776222e-01,1.277805178187831903e-01,8.220167488449128812e-02,1.685346023143302271e-03,1.878429704942537323e-03,2.207295360716300756e-03,5.512316592478058719e-02,1.593413414791586269e-01,2.687547625786328338e-03,5.454720682486076042e-03
1.852400780102684275e-01,1.405384691809118403e-01,1.166822545917519244e-01,9.622087481418362294e-04,1.873613643152825586e-03,4.396945944399769518e-03,1.097093456750165147e-01,2.400446215487885282e-01,1.031532743829164430e-03,2.425852715926841291e-02
1.286796294507162042e-01,1.478159207333413216e-01,1.396534385623396379e-01,3.951927606572837141e-03,6.165493088037821146e-04,4.385933239476076835e-03,1.366452926136958734e-01,2.662538130451099216e-01,1.878042873265194004e-03,3.558139869546305539e-02
5.429560669617290031e-02,1.411281977118924447e-01,1.775887291347672259e-01,9.166866023285166407e-03,3.845762046059846332e-04,2.174524655700918636e-03,1.366146080077738356e-01,2.582869160032214562e-01,9.160748399793186211e-03,3.477307823046452140e-02
9.306674373214956358e-03,1.288825150850868573e-01,2.241801660883227243e-01,1.728424038573438820e-02,3.829769209703661999e-04,4.259606250362347590e-05,1.236782095232885209e-01,2.347482975271331651e-01,1.931765083829241683e-02,2.401672492927743596e-02
6.504490205589846807e-02,1.148817849250525214e-01,2.392420764465359728e-01,2.419961515709414396e-02,6.487306536963684158e-05,7.266047462461081453e-04,1.049041633361523507e-01,1.960140696578467900e-01,2.557458293555849374e-02,7.492158449133290085e-03
1.249486979399880987e-01,8.915098622327329025e-02,2.057521732114847013e-01,2.472713792594113599e-02,6.162166340133946245e-05,4.208545287273887138e-04,8.086684965787618862e-02,1.435135384604508402e-01,2.363479948419725321e-02,1.221785818398931668e-02
1.520235740008334946e-01,5.186727075922840935e-02,1.593306941380560893e-01,1.943110519262739380e-02,1.985941857025619599e-04,2.430032627608534580e-04,5.598080036277440497e-02,9.037898705697589019e-02,1.766565631707480225e-02,2.688807581984484218e-02
8.574820349698061839e-02,1.946448112485474335e-02,1.437410563561170029e-01,1.389006396998975802e-02,1.938401729431313335e-04,3.747307246863087766e-04,3.759369223263196030e-02,4.882485636683431274e-02,1.575883528277349788e-02,2.089103020381630899e-02
5.974994410861470678e-02,1.543382196981165147e-03,1.582495680444131469e-01,1.132784892994789100e-02,1.203557159525992307e-04,4.436033563940226798e-04,2.760700112729905231e-02,2.157110716506930106e-02,2.031654796405984315e-02,9.495987617252236307e-03
1.830560690734855389e-01,4.131459688855778495e-03,1.686738357874428551e-01,9.765185033219797583e-03,1.101879175686879756e-04,3.696226892606134344e-04,2.081750574363977480e-02,6.473721844990308616e-03,2.599603649531760652e-02,4.232653144523383648e-02
2.064392642635093367e-01,1.789218258618550592e-03,1.532579337694293942e-01,6.545273814916527377e-03,1.311738184091225889e-04,3.201766527959855942e-04,1.146529531778469127e-02,1.365632531089885915e-03,2.671833153599250874e-02,5.210189898494659022e-02
1.510430554415132520e-01,1.364722873556136092e-02,1.152495559176985596e-01,2.065943305534944773e-03,1.214025469274326380e-04,3.342801286432748567e-04,5.777399953804801536e-04,9.250578338415735291e-03,2.104347294673382385e-02,4.099075920549151431e-02
8.346258938281882200e-02,1.160901294075751197e-02,6.337892031590976194e-02,1.684417616809019778e-03,9.546085852087880233e-05,3.346485028839293213e-04,1.029347137081556771e-02,1.966270299022924301e-02,1.079506533948597011e-02,3.308557899652275758e-02
3.784814202305879227e-02,1.260539425359199529e-02,6.303249255446360597e-03,3.779330922726844601e-03,8.282925479113521436e-05,3.025578081030530714e-04,1.384198328355496638e-02,2.896369851029609310e-02,6.992993826588117696e-04,4.092767613325155179e-02
1.692061250976262254e-02,3.062895610834717036e-02,3.841386973963947099e-02,4.530028251483749803e-03,7.737363717547565017e-05,2.744489446283659788e-04,1.308660765569391593e-02,3.660561753873903257e-02,7.646838719233985289e-03,5.143709564860623334e-02
2.911975095512836509e-02,6.526756438611846373e-03,5.461161565109418775e-02,4.226741848713706957e-03,6.556321033939135348e-05,2.600608867953397435e-04,1.195328830369061894e-02,4.292306049184214933e-02,4.317215835545059471e-03,4.635668467185210390e-02
8.348851700938554610e-02,5.555075894736827280e-02,4.906508996692207636e-02,2.974237373333825027e-03,5.045728637496612793e-05,2.430058003037347631e-04,1.044022181852111153e-02,3.786722890108921991e-02,8.252032441869550788e-03,2.724158963287661925e-02
1.580084562651124791e-01,1.162607397655815444e-01,4.584847989521519812e-02,1.653910810743972363e-03,3.877729156563355982e-05,2.190938737274379048e-04,5.765494088364441112e-03,1.083576044682064282e-02,2.160661654482019800e-02,1.378173638314619288e-02
2.056239835647717396e-01,1.451552291583185217e-01,5.856668157223259702e-02,1.564293757157298468e-03,2.950889323506253114e-05,1.965189086474316746e-04,2.708647687299360445e-03,2.821824770897422840e-02,2.830921916733737664e-02,1.927173075620083886e-02
1.959702084687931500e-01,1.388441600778084761e-01,7.979015875524811396e-02,2.647026749182648450e-03,1.980829069551850313e-05,1.779019293470508972e-04,1.260058513810642655e-02,5.531647081494066309e-02,2.807207488354696717e-02,3.590464061812399799e-02
1.347200052203879339e-01,1.065001696109196122e-01,9.320556382337595591e-02,3.487767396498789654e-03,1.040391446219290305e-05,1.599718776717181431e-04,2.013244246637116430e-02,5.920664790507197683e-02,2.493645326980377733e-02,4.811603039107671675e-02
5.085270657976902892e-02,6.248186615882269507e-02,8.472694979949456362e-02,3.370735233471387326e-03,2.889976598223910502e-06,1.419573714222259659e-04,2.163882020214859259e-02,4.917860977563159181e-02,2.233800811949903167e-02,5.092635907368397302e-02
1.615150305405341560e-02,2.914064121877128766e-02,4.952986977836402321e-02,2.941757715815322954e-03,2.841975396777965209e-06,1.258273674754492534e-04,1.635741451547000763e-02,3.919256381463991773e-02,2.148392666702644838e-02,4.755066847631462396e-02
3.653402629476769359e-02,2.317673733204345110e-02,1.816500015394285211e-03,2.819767278999111074e-03,7.372259545598206660e-06,1.123544502448054302e-04,7.508159063447835020e-03,3.296329718625178040e-02,2.123497730959674271e-02,3.966613264756371771e-02
1.765160619577771026e-02,3.547444041627686312e-02,2.879661444329072520e-02,2.850977433306517168e-03,1.053938823264134956e-05,1.009451680586332973e-04,1.646969749010498453e-03,2.397018299748272796e-02,1.900108517153912061e-02,2.944498322639179863e-02
1.139259537144852313e-02,3.966922965417416652e-02,2.391837781025006604e-02,2.761082966038734890e-03,1.200441757500473800e-05,9.147423430613029621e-05,1.138698817007652991e-02,5.382858406840869067e-03,1.311689561139580372e-02,2.135415607090995066e-02
4.248891331213421746e-02,2.127639387191624862e-02,4.751843916924520204e-03,2.614562762752326540e-03,1.182775530417723671e-05,8.438132507858199060e-05,2.306794175925227716e-02,2.166209940192501127e-02,4.329669048097204570e-03,1.511642434201597440e-02
7.999406040265166773e-02,1.360085873763587638e-02,3.246277048601992066e-02,2.540523971448570718e-03,1.021227916496898012e-05,7.981002097853174735e-05,3.447985377014008840e-02,4.638236504773114027e-02,4.457511328783411025e-03,6.192656771451420482e-03
1.028059848344841098e-01,5.305947486508560962e-02,5.013361347383465255e-02,2.510833762198007909e-03,7.229132638145947988e-06,7.755020383335366652e-05,4.029656188469476347e-02,5.425532938356775886e-02,9.424578257439183981e-03,3.939547307582158368e-03
7.804420026497384255e-02,8.901496067754399721e-02,6.563327881775797568e-02,2.464327984926369293e-03,2.932396438660244470e-06,7.744143711273746434e-05,3.810436700212328776e-02,4.248151450209473184e-02,9.128838322534863631e-03,7.447736299628966543e-03
5.568817642236101317e-03,1.157329474592007912e-01,8.371155233448741850e-02,2.412838557470493861e-03,2.514613428808586582e-06,7.940869544877553535e-05,3.242707035611106653e-02,2.945292004855673898e-02,7.593693034234609389e-03,1.354774534812966044e-03
7.359979964753685100e-02,1.286697674798286117e-01,9.911857477622981749e-02,2.384639349325310027e-03,8.896152894604377555e-06,8.327847901881895267e-05,3.024647834051499840e-02,3.530831913087837531e-02,1.097572719383391009e-02,7.883724897630731837e-03
1.087894112854654177e-01,1.263242047321469497e-01,1.096250095129933377e-01,2.372993576052920099e-03,1.600958931658149468e-05,8.876431342456839581e-05,3.337524975455925802e-02,5.448326886295638133e-02,1.992745892212142642e-02,1.073290691077608341e-02
8.156340678845075409e-02,1.144905878515618675e-01,1.223431083841940714e-01,2.361545579337199358e-03,2.364622789265786320e-05,9.556143721941300648e-05,3.839853278293973299e-02,6.554169736981083072e-02,2.856110475144404276e-02,1.546640433844425396e-03
2.465307289340015751e-02,1.080412747154977787e-01,1.395232191747592665e-01,2.351218246990864798e-03,3.156777792386341968e-05,1.033691908250667052e-04,4.265555092445844770e-02,6.465282448031875462e-02,3.180839313569313459e-02,1.828299230902935210e-02
7.699423631467267742e-03,1.210251623647292940e-01,1.480224091245844753e-01,2.349847647545197545e-03,3.952302224444794305e-05,1.118572040283835264e-04,4.581483610300996628e-02,6.560298078713508452e-02,3.029451475456722970e-02,4.088887332997415830e-02
9.993042924754278952e-03,1.524911453200804290e-01,1.361195329698956791e-01,2.354341449529530166e-03,4.726742043890457082e-05,1.206566166753353402e-04,4.635030220595273004e-02,6.908118976727001259e-02,2.754190967004369051e-02,5.797830214875642624e-02
6.022322852463726783e-02,1.870320103287048397e-01,1.144189557941353297e-01,2.352823978754902626e-03,5.456412447474356996e-05,1.293899699920920640e-04,4.104558361372588615e-02,6.043314851401311583e-02,2.602297773128675606e-02,6.798073470521370787e-02
1.101729727697701999e-01,2.095972429672640913e-01,1.041796502544014152e-01,2.344097796705508271e-03,6.118338989807790818e-05,1.377099642944922030e-04,2.885995625444987348e-02,3.882202603263340546e-02,2.649667132522487076e-02,7.509039897526402496e-02
1.429662399823770358e-01,2.162477464232537283e-01,1.097077981937943231e-01,2.342705542267263259e-03,6.691046135242737934e-05,1.452965042736898077e-04,1.258818777859422276e-02,1.895288596840690939e-02,2.846137325816164299e-02,8.180484242332032585e-02
1.671280066773500050e-01,2.115772597049829784e-01,1.172115774137912764e-01,2.346590581285829761e-03,7.155390125040099339e-05,1.518060247289130258e-04,3.997109696846651988e-03,2.914248861428735560e-03,3.060597917494201764e-02,8.650793829469778651e-02
1.998944425026762672e-01,1.999929591119703476e-01,1.146252281453212646e-01,2.321499613734088596e-03,7.494935101321566250e-05,1.568888190303931954e-04,1.831240535742235595e-02,1.893726735209348699e-02,3.159639567640664531e-02,8.822279191653731312e-02
2.370512803162280746e-01,1.818535295420819486e-01,1.007643893215851155e-01,2.265552231727863564e-03,7.696224468895514583e-05,1.603213406488633098e-04,2.777339713672399846e-02,3.927900750423504728e-02,3.029282398179510699e-02,8.791315689454957949e-02
2.467728319598307407e-01,1.563129390588354484e-01,8.272626212555189706e-02,2.246242995928545653e-03,7.749170255716460588e-05,1.620033249184007790e-04,2.935326439384008251e-02,3.650369163562747904e-02,2.596525507011528469e-02,8.364433128557152708e-02
2.066887666822554703e-01,1.237993267299858091e-01,6.991094541666285911e-02,2.265634741142990172e-03,7.647384412472053275e-05,1.616973882789268400e-04,2.203275194137502627e-02,6.869652624334044062e-03,1.923758873908482450e-02,7.129028392534218772e-02
1.396960733234464125e-01,8.463074130586742405e-02,6.242047757409827091e-02,2.176932405221029820e-03,7.388334163549835766e-05,1.590431407632407869e-04,9.118563992538793878e-03,2.973038771316094397e-02,1.180090235407428405e-02,5.293926611495364948e-02
9.600835022785568496e-02,3.868092901311818987e-02,4.765589406020243751e-02,1.969200920563268786e-03,6.973393803472905273e-05,1.541275434396996501e-04,1.999496230883916932e-03,5.371822729286871573e-02,5.129649233176330689e-03,3.717627809534430894e-02
9.617225334059685549e-02,1.050785266647093381e-02,1.616164343958685634e-02,1.956307808309391653e-03,6.407843464869380546e-05,1.474816611573719126e-04,3.979952992189403696e-03,5.669845904586271607e-02,7.373486024844257136e-04,2.737286426232275055e-02
1.010209196462636683e-01,5.369998180852295772e-02,2.675947402830482907e-02,2.180955421451373413e-03,5.700779212900100167e-05,1.388691108302746060e-04,3.476314121577229500e-03,3.600730841698621121e-02,1.560744327073300061e-04,1.845870990053842878e-02
5.814781268157899474e-02,8.298006894107390341e-02,6.863261778411308689e-02,1.940632111087301328e-03,4.864911275962890589e-05,1.272626776591395800e-04,1.204485764355319941e-02,1.083238062928012667e-03,2.893796314004941968e-03,9.914678577757761457e-03
1.745248243946074390e-02,9.893547507750859171e-02,9.711204574717391402e-02,8.328024307381353721e-04,3.916270987383156698e-05,1.134286086190709113e-04,1.372460306009585726e-02,1.999804382906670425e-02,6.214188747359523923e-03,9.318035458005812649e-03
5.062468410915205858e-02,1.056047601414973058e-01,1.018835319976863496e-01,2.223916043231491998e-04,2.873844895853053393e-05,1.000376126171360745e-04,9.114728916423044114e-03,6.626580946034586576e-03,7.780436984967867634e-03,1.356828591548879179e-02
1.650574438922178602e-02,1.034281935251768481e-01,8.566101600365685909e-02,3.485297066587258758e-04,1.759137004186625371e-05,8.613788334320377849e-05,3.481355199404122767e-03,2.192591022619158961e-02,6.855788108959667490e-03,1.502828738803047709e-03
1.255779674987630296e-02,9.616099969300989647e-02,7.041116550629976378e-02,2.250566721880892696e-04,5.956636606429913138e-06,6.675892449116489660e-05,1.314270197691959569e-03,2.642276447674515513e-02,3.525570399447717530e-03,3.968904292492782260e-02
2.971288250581410884e-02,9.699827717018820461e-02,7.658543554743874049e-02,6.076566304211091256e-04,5.916036500464731863e-06,4.468645872631501603e-05,6.529491923656337293e-03,3.614422044874748179e-04,1.338456733114767698e-03,9.254494595847825855e-02
1.073131471630337508e-01,1.123726721317476335e-01,9.795010371418888528e-02,7.439217813957747262e-04,1.776831783770158214e-05,3.159446767390913021e-05,1.186275236026331989e-02,2.403383642411795543e-02,5.957581986821286132e-03,1.266031604273062661e-01
1.338651679354624091e-01,1.278741109995844005e-01,1.091083414175643695e-01,4.595278922710888765e-05,2.933943156328074916e-05,2.290395476244258956e-05,1.596910305149024795e-02,2.117571697235596379e-02,8.730333140790923901e-03,1.274073661408834102e-01
8.124299662691154833e-02,1.307357303082969102e-01,9.656402080246433151e-02,9.104508282528159810e-04,4.037243244688861388e-05,5.316878572560392401e-06,1.991804315079309662e-02,3.401999663642465803e-03,9.207180213745046540e-03,1.021500240149632865e-01
2.461085336943648338e-04,1.344620840169589993e-01,7.367257431132555323e-02,9.490368434659121307e-04,5.062042593143113641e-05,4.276784690553411112e-05,2.572603167413727715e-02,3.094457904226342870e-02,7.955331860062732352e-03,6.846621360752846996e-02
4.186003325417128607e-02,1.549505128292925360e-01,6.391767257505576172e-02,5.190727144377674978e-04,5.985257711442175800e-05,3.692075111701524344e-05,3.109576264671709556e-02,4.597924288825866457e-02,6.134435134025345224e-03,4.248098606538137922e-02
1.723988957949827358e-02,1.771537376621901139e-01,7.416535102427035397e-02,2.853410238943233056e-04,6.785976614775587575e-05,7.283126181897116086e-06,2.940823628968830192e-02,3.594685884801954862e-02,4.749868106148333151e-03,2.992587759903287195e-02
5.902014867735491666e-02,1.738909243692546847e-01,8.848571688628396881e-02,3.101471789251819457e-04,7.445975488283518241e-05,6.561739421649097229e-05,1.769580505054507008e-02,2.237127731703797591e-03,2.938125090553611683e-03,2.538879151338841941e-02
1.559455468150664492e-01,1.423207281230439436e-01,8.699139028826773090e-02,3.717209912609833696e-04,7.950173623625713672e-05,1.724794638486865518e-04,2.541463573083702337e-03,4.882584182460847355e-02,2.197077340198866011e-03,2.032890277617548092e-02
2.413861906800805479e-01,9.868976338230688039e-02,6.388487249096852505e-02,2.634880279862157572e-04,8.287015206645985865e-05,8.480103924859352796e-05,5.909341153122522720e-03,7.172270459831113498e-02,1.124641159918740758e-02,9.047473306985957808e-03
2.820089095847557181e-01,5.424266158300111718e-02,2.675724721024295982e-02,6.871129354445802803e-05,8.448768440596551431e-05,1.294105418972931474e-04,5.567118908236995400e-03,6.286144968943417621e-02,1.839617262361984557e-02,1.068397286804801359e-02
2.586197899931229061e-01,1.353461092333734656e-02,1.108172803116799776e-02,1.597524442599628945e-04,8.431734423792334912e-05,9.290204759040256524e-05,4.098751878446757480e-03,5.070824112067461031e-02,1.579858442834304946e-02,3.425742157854632514e-02
1.876981290645540756e-01,1.855655376141109730e-02,3.346500386885908895e-02,3.999628912538303574e-04,8.236360235638011786e-05,8.747566320913420209e-04,8.329701509540175797e-03,5.983253809233446407e-02,2.977118004646688368e-03,4.825518109070969092e-02
1.068119176079922739e-01,3.769957353023627167e-02,2.801439591960974002e-02,5.428499193696594829e-04,7.867252961861504487e-05,1.346355292164724089e-03,1.617614698915244287e-02,7.334701776976440546e-02,1.203148221326291213e-02,4.245942845078872624e-02
3.230303639394107446e-02,3.926224260005312799e-02,8.277928170062984897e-04,1.621866977462619978e-03,7.333093802097312886e-05,8.694657107357762604e-04,2.135358604925818513e-02,6.088748067487122217e-02,2.193900393801085161e-02,2.376740221787163043e-02
4.625543910323295926e-02,1.991485050609363358e-02,3.101260984806814003e-02,5.962332137521703969e-03,6.646453803997413867e-05,8.248426892545414910e-05,2.241828512247721547e-02,3.094175470025974789e-02,2.674277308752626148e-02,7.672062348601965329e-03
1.164836759665438537e-01,1.198280193927385960e-02,4.232871400600454054e-02,9.776468814287253908e-03,5.823515123672525835e-05,1.446306452239900706e-04,2.305604278899313353e-02,2.263339109522427214e-02,3.018906283880685298e-02,1.145187471881951250e-03
1.206738047626614851e-01,3.574129940721327420e-02,3.282158253587043328e-02,1.069784161440220580e-02,4.883704007687512759e-05,6.525650529222335957e-05,2.494840625994998451e-02,4.917247558597870327e-02,3.360177128257783169e-02,8.461247804149663390e-03
2.427977653992716145e-02,3.399430181302536685e-02,1.345682105583540303e-02,8.690279505906284285e-03,3.849243860876827962e-05,1.492313007118589458e-04,2.530974685251589570e-02,8.034555859806366551e-02,3.502914441001685891e-02,1.770490593053230741e-02
1.151062444232989201e-01,5.841765330060829861e-03,3.866383970070033996e-03,5.218805532375568081e-03,2.744638734119378849e-05,3.941575219615032490e-05,2.233291536463888338e-02,8.528097131072739923e-02,3.290894960517295326e-02,3.048209142546874986e-02
2.004583534862806882e-01,3.035693764152829627e-02,9.545189627910942790e-03,1.929909444718411237e-03,1.596099293090119618e-05,2.100884460159563509e-05,1.805230072026103166e-02,6.770611402563658787e-02,2.891116501638127737e-02,5.101085587693672541e-02
2.018056136106250731e-01,4.561169828477382171e-02,2.357507982374213232e-04,4.389044730454484591e-05,4.309247793061209366e-06,7.495841714762791917e-06,1.389454208663503353e-02,4.925447634174585226e-02,2.604544281168556102e-02,7.631052218996635383e-02
1.605138995453165018e-01,2.595712042796679414e-02,1.558815822713213728e-02,5.975413934106320237e-04,7.231443900616559014e-06,1.324089369280988899e-05,8.994124696499497876e-03,3.677315851943589037e-02,2.462115273725165587e-02,9.068840635037404840e-02
1.119185553036113889e-01,8.420924230436976562e-03,2.542330410106976094e-02,5.074331916374177995e-04,1.838587950649463209e-05,2.322995142131402074e-05,5.057448271479516796e-03,2.172126368442655470e-02,2.268772847831362904e-02,8.267791268154912887e-02
5.974571496980608104e-02,2.617392656210312113e-02,2.542605377501061178e-02,4.910669832542172673e-04,2.888765196821571201e-05,4.936043910062665619e-05,6.531371174134837851e-03,2.389711643976257828e-03,2.003929564081770309e-02,5.995008874626320261e-02
7.866098105091326453e-03,2.393398482750584005e-02,1.800858206884147286e-02,6.356109713638135976e-04,3.848556575084365592e-05,5.484599032735735884e-05,1.352830403429627383e-02,1.019761794717249752e-02,1.813618708626206846e-02,3.796622260433094032e-02
3.454983182704154249e-02,2.135836829060444239e-02,4.066064471972783215e-03,7.406725322898005063e-04,4.694971918051412627e-05,6.363756811344243940e-05,1.989293527124724736e-02,9.344821164944934130e-03,1.659586293318560113e-02,2.198937505109333640e-02
7.012809124782763692e-02,2.381538709203684032e-02,1.434277079318434928e-02,7.679430080922228447e-04,5.407710492077362507e-05,8.035625211569186340e-05,1.974558105534125751e-02,4.852722151074793586e-03,1.382847774035521511e-02,8.264558128496680284e-03
1.031145799040309036e-01,1.737336454528356361e-02,3.101444128027507768e-02,8.023245368150441151e-04,5.969659113361266680e-05,9.339190361621306502e-05,1.268426244036385125e-02,1.249730524009554783e-02,1.034303267031450209e-02,4.849859885959569364e-03
1.278307718147724814e-01,2.044999538697298176e-03,3.937092626919181521e-02,8.597606859322706133e-04,6.367316006126221635e-05,1.000427319496606195e-04,3.086876016686914553e-03,3.510149068164174907e-02,7.640730828586551893e-03,1.485267945940480817e-02
1.480297572512354609e-01,1.994253127873550635e-02,3.339517609079575150e-02,8.989200176373985871e-04,6.591129800183959445e-05,1.053811111677865642e-04,3.938973734423742434e-03,5.986070568736089753e-02,5.204079050455929709e-03,2.011489206348310646e-02
1.773304010570665445e-01,2.423646820292410520e-02,9.609234353020301711e-03,9.102622624766827566e-04,6.635745054163331340e-05,1.104761506705259324e-04,7.388101506868874346e-03,7.452925779130654960e-02,1.885489459886929061e-03,2.229381633582353320e-02
1.975219009546486104e-01,1.754562002825460140e-02,2.315350075759838380e-02,9.118221287831754880e-04,6.500147898418540040e-05,1.127870358818376244e-04,1.079940924121103839e-02,8.043503651745262384e-02,1.624536234454140773e-03,2.507517785950436062e-02
1.597718738709266451e-01,9.453620241243314640e-03,4.467150117924911790e-02,9.075379912494701282e-04,6.187707766022483970e-05,1.116868307555767041e-04,1.621129140122508361e-02,8.611811192349523580e-02,4.586015797951337528e-03,3.080466906467423452e-02
6.037204689487792042e-02,8.685764009323047874e-03,4.290225401975759217e-02,8.887307749514314868e-04,5.706113664975151999e-05,1.083480287058846475e-04,2.075941630652726466e-02,9.297311178280083521e-02,8.209027696084407813e-03,3.746258594956521776e-02
3.077594953226646043e-02,2.070056028681498128e-02,2.351719812685297215e-02,8.536369876959942846e-04,5.067205980544988412e-05,1.031548191689135509e-04,2.144713047324357108e-02,9.348499883307977154e-02,1.319220008500542919e-02,4.067371045872148622e-02
5.356647007229616009e-02,4.448997923503494878e-02,3.542402569948597049e-03,8.069489907700866729e-04,4.286707322611712010e-05,9.572314706173807696e-05,1.898141270359324576e-02,8.236252283398091956e-02,1.747209065360929431e-02,3.837206888223107515e-02
2.568234728996252048e-02,7.257655641613287856e-02,3.267757453798224299e-02,7.506463235579915929e-04,3.383858387960585510e-05,8.610870547968666876e-05,1.498568711546616715e-02,6.388454094996366683e-02,1.884960166126783271e-02,3.061556998357755841e-02
2.896833664055730242e-03,9.449709409890931500e-02,5.354649383151643960e-02,6.840713979836314735e-04,2.380967132041307278e-05,7.480640905582487243e-05,9.761834342884819979e-03,4.720667619708314444e-02,1.786581226627526053e-02,1.744575636260156659e-02
1.753103500863730999e-02,9.773860435224232535e-02,5.125615381199657983e-02,6.081860681876487046e-04,1.302881681912567831e-05,6.217705216013348288e-05,4.363478064777137275e-03,3.813787290031807331e-02,1.628675572584435682e-02,2.064633493847233686e-03
3.056157126563116902e-02,7.381822603258264559e-02,2.688685052589818297e-02,5.255415410327356771e-04,1.763993192899518755e-06,4.843123410234867601e-05,1.792124428280627516e-03,3.789557947979371733e-02,1.486114180748481645e-02,6.957930398241727113e-03
4.578396821181648924e-02,3.217990431318756839e-02,3.323555839590252962e-03,4.382302414366260734e-04,9.703745273703334820e-06,3.388691631290858663e-05,4.837880679518718335e-03,4.696186016004568614e-02,1.380860532255357570e-02,2.738502679997517793e-03
6.269351771743897350e-02,9.538664945702730186e-04,2.248027954533554727e-03,3.478135486922535099e-04,2.108702060490801812e-05,1.896824665266001587e-05,1.322077423047130461e-02,6.360058537625475072e-02,1.340048760082060419e-02,1.229720613850618718e-02
8.620396429792542836e-02,6.644247259845193800e-03,2.213794794747986003e-03,2.562133974202040945e-04,3.209907517616328722e-05,4.072243247315908158e-06,2.241600727432313533e-02,7.711846665577506976e-02,1.325797834974439503e-02,2.909682457176913234e-02
1.072181688511637809e-01,9.982081380232283446e-03,2.759841872820599940e-03,1.656868326012419514e-04,4.246073522208019450e-05,1.044553043137309445e-05,2.611996214432601646e-02,7.210020776965404832e-02,1.265884464612735197e-02,3.999359356066911619e-02
9.904386328338898871e-02,3.001683341652445353e-02,5.717810276598188184e-04,7.833608642316020347e-05,5.190722563898293772e-05,2.422218666695496406e-05,2.168576707181006993e-02,4.650058343178739562e-02,1.166970339921526156e-02,4.303388090348948813e-02
5.167987289156387304e-02,4.009233144814784711e-02,2.474168893731972223e-03,3.957834422032909948e-06,6.019467059665616033e-05,3.689357862281317029e-05,1.187251564989980773e-02,1.609706303725136692e-02,1.085286131720494471e-02,4.139300519758608299e-02
9.610537066808711934e-03,4.029477080588206306e-02,8.040849125782296991e-03,7.937737859286834118e-05,6.710612117312790526e-05,4.813015687536037349e-05,1.716955363312447445e-04,6.346502078412457476e-03,1.018486048254241445e-02,3.943422074835815222e-02
4.780286718177828575e-02,4.103351683156911123e-02,1.676518492435156299e-02,1.462030287916348979e-04,7.245696180029644170e-05,5.764676777355246787e-05,1.169737253562247795e-02,2.302156721700378619e-02,9.285547136506146562e-03,3.830814161376037974e-02
4.357552909625372894e-02,5.377678855710458367e-02,3.220011691694348727e-02,2.029503580995936250e-04,7.609956152337273949e-05,6.519714471503581859e-05,2.042219316148023364e-02,3.614693357406155438e-02,8.423434098020515792e-03,3.580797069367590985e-02
6.124746860169045723e-03,7.693581514263871102e-02,4.887608034006034330e-02,2.484119148121379655e-04,7.792705361057701129e-05,7.057910246639488268e-05,2.151441917074606303e-02,4.022442867781490100e-02,8.112657012632947320e-03,3.023962221302739853e-02
3.487273987045660245e-02,8.857108421109001484e-02,4.827446302550891105e-02,2.816422421131251465e-04,7.787614749631327005e-05,7.364547692121774540e-05,1.565239752110461971e-02,3.720970266517464875e-02,7.627016872088723635e-03,2.277847568591824870e-02
5.606567667409726591e-02,6.381606706090454939e-02,1.945744032057167977e-02,3.019778722902089624e-04,7.592889992337997871e-05,7.430836659551039831e-05,9.304195481199708032e-03,4.139540726245242996e-02,5.447189272129136783e-03,1.621527648751726336e-02
6.310541749280332291e-02,5.814467639617942191e-03,2.397050211638623862e-02,3.090745161356019252e-04,7.211339692820874496e-05,7.253868351060941506e-05,6.940066238565896148e-03,6.009134975093434472e-02,1.918817623723486233e-03,1.322972322694973384e-02
7.532767595360935486e-02,5.182166495940051382e-02,5.710138275189046569e-02,3.029174976571682282e-04,6.650332439920764757e-05,6.836674929772335778e-05,6.405881897039656520e-03,8.049664697214978237e-02,2.222011572743940247e-04,1.547051299199754190e-02
8.997524146703841930e-02,8.025091055172398069e-02,6.794194417519132390e-02,2.838127466953167290e-04,5.921643170851946801e-05,6.188300026873530080e-05,3.844249758500128261e-03,8.407415325183349719e-02,7.377168131731284655e-04,2.108346312098423325e-02
8.197660799064931947e-02,8.101950315436817762e-02,6.060153862647994771e-02,2.523788078851846826e-04,5.041191972820051608e-05,5.323608881485536898e-05,7.477072335379065854e-04,7.001066052113917582e-02,3.085297054939833798e-03,2.267786111426459486e-02
4.144129255778846582e-02,7.232424710895639375e-02,4.233719042589886156e-02,2.095367522219519036e-04,4.028681074456138406e-05,4.262882228530185319e-05,2.924265828791395867e-03,5.642581963304319631e-02,4.102546653666620281e-03,1.265836401382025057e-02
1.079904109149440287e-02,6.500551287921871313e-02,1.938002104047221660e-02,1.564887036033248916e-04,2.907138274168773230e-05,3.031330134938066981e-05,1.238199074840649894e-02,5.793563958754669591e-02,3.433918599871791343e-03,6.893060686746563595e-03
4.837329155165304151e-02,5.846001498202092750e-02,1.626596522473562796e-03,9.468691698615822419e-05,1.702377362589695527e-05,1.658520287053624520e-05,2.354322672213795750e-02,7.081736115821525568e-02,2.559443339727155483e-03,2.451520198986915922e-02
6.085454288692090236e-02,5.099185264349810620e-02,1.428571317064267210e-03,2.579862111637714115e-05,4.423881637365588203e-06,1.776749161859649290e-06,2.907610832714850255e-02,8.251617978068843950e-02,2.237806492705492895e-03,3.249713949344920638e-02
5.220899837270061294e-02,4.859565021174670763e-02,8.747103282172310687e-03,4.833314842096314134e-05,8.433294070941885483e-06,1.375139489208373160e-05,2.736633062454342860e-02,8.615285465847320745e-02,2.047847890494576724e-03,3.432248979691765456e-02
3.374271201995047292e-02,6.024141221413828462e-02,2.024234222567436112e-02,1.257338919824164741e-04,2.124471435974918557e-05,2.961882228381031376e-05,2.319629678986336735e-02,8.323272017410635049e-02,1.655891492261271723e-03,3.593958454422025578e-02
1.446144887581397344e-02,8.147263954399952546e-02,2.236832538872865830e-02,2.043458394590561510e-04,3.370659361439030775e-05,4.543450250298320628e-05,2.247259102293313812e-02,8.100181120714168570e-02,1.242362002379555647e-03,3.654403249840067897e-02
3.730735832825397835e-03,9.218165237275388613e-02,1.355221856945291320e-02,2.820778489776883786e-04,4.552175035707599360e-05,6.080622899466418710e-05,2.648334206604636629e-02,8.667468399989271266e-02,9.611532704412358843e-04,3.311675556977521778e-02
1.224881825174290936e-02,7.958990938927507086e-02,3.190644978033401954e-04,3.568559207828821763e-04,5.640683712881226910e-05,7.535015379861588036e-05,3.053357445086621672e-02,9.558308051314691467e-02,7.270927039849998897e-04,2.773758961474262486e-02
5.950325539267380982e-03,5.284682652787272422e-02,1.315855471768835952e-02,4.266735731776341253e-04,6.609927375529139014e-05,8.870011631191616788e-05,2.890943554080268804e-02,9.130998748870595982e-02,4.640298609320894253e-04,2.418174078075313246e-02
4.556963346138979964e-02,2.656117580658648794e-02,2.491400238383621388e-02,4.896408185953075951e-04,7.436371432919508507e-05,1.005165444895297824e-04,2.119368863712264850e-02,6.822692786439769896e-02,2.076032486572246911e-04,2.177363386674861442e-02
7.352451907817611487e-02,3.214685230619488028e-03,3.822143788720494539e-02,5.440303377353365851e-04,8.099788860546008548e-05,1.104947404542233971e-04,1.166381790971367065e-02,4.173836847268200256e-02,9.466022934709870419e-06,1.766234467447474685e-02
7.466165872696585437e-02,1.864494320212838063e-02,4.827994580984072692e-02,5.883197518604478321e-04,8.583767278885766382e-05,1.183723460407447488e-04,2.840638828738644046e-03,2.323032689847489077e-02,2.068142178723589774e-04,1.160415712196751978e-02
6.930547179248880418e-02,3.177173494680841925e-02,4.390819444937928140e-02,6.212290686439651301e-04,8.876126257115786314e-05,1.239357918602125585e-04,6.616473552130228142e-03,2.694763973660324434e-03,4.032544345456617408e-04,5.082413780153423669e-03
7.064388734495345712e-02,2.800243184170727456e-02,2.327590722010753829e-02,6.417523814658144393e-04,8.969234233559630703e-05,1.270255721833688932e-04,1.684832032207142505e-02,2.722443558385202744e-02,5.929010781756218536e-04,1.097498507768404716e-03
6.667024978142818692e-02,1.205047036576805536e-02,7.577387448209531653e-04,6.491829983816537093e-04,8.860216819719784478e-05,1.275402217084578961e-04,2.398784656280789768e-02,4.978094437070570977e-02,7.697086754494130052e-04,6.077346317443649455e-03
5.757298471768194231e-02,1.797436964304666845e-03,7.866916393271868035e-03,6.431313846806907498e-04,8.551050842850758732e-05,1.254388949021561096e-04,2.521932049621303587e-02,4.692350192508486922e-02,9.388873315958535430e-04,8.442114476162831949e-03
6.560595315512177117e-02,3.677437969414065061e-03,6.797981292116293643e-04,6.235354943304673332e-04,8.048541221628603421e-05,1.207424796806475962e-04,2.373863555374756962e-02,2.843256583617148614e-02,1.105496431633683739e-03,8.004279920149650479e-03
9.179122800138898863e-02,6.471911192738136545e-03,1.412102884763821037e-02,5.906632243968933799e-04,7.364180595025754969e-05,1.135332157675244380e-04,2.527328295432113014e-02,2.034146227543091878e-02,1.268914197485539967e-03,6.608122309926910652e-03
1.018721721924533002e-01,2.392606413693581027e-02,2.988152604907356666e-02,5.451069062533443494e-04,6.513894467988505695e-05,1.039528256333934505e-04,3.108070917673639091e-02,3.483035125630200984e-02,1.428076089622018485e-03,6.540977955260126112e-03
7.115728128928029694e-02,4.429839980247723963e-02,4.471231011299136443e-02,4.877699499360481014e-04,5.517677430086978801e-05,9.219920065105907095e-05,3.722885553938243275e-02,6.459588930609293234e-02,1.584105128536980036e-03,8.904289098766280872e-03
1.564538134827211588e-02,6.449264246967612024e-02,5.834789964811103874e-02,4.198459517377448914e-04,4.399128676944324035e-05,7.852171967530741472e-05,4.037124237415933015e-02,9.819878426808308081e-02,1.737880137366319949e-03,1.356447953808292105e-02
3.204729476221564871e-02,8.171214491567709015e-02,6.966564791436327675e-02,3.427907521738268477e-04,3.184897553417857476e-05,6.321531131385529326e-05,4.172167786535541795e-02,1.288644089014555072e-01,1.888775897154322710e-03,1.987690663635047206e-02
5.830372616022316129e-02,9.370603520297733635e-02,7.639359334032046200e-02,2.582881000292715592e-04,1.904052080755145725e-05,4.661340221895210332e-05,4.344500424557588142e-02,1.500442940628207433e-01,2.035800432763601800e-03,2.635175717862615896e-02
7.185905281224701235e-02,1.009176414755805495e-01,7.790208407590133721e-02,1.682097358881316014e-04,5.873853714423791142e-06,2.907992079394567964e-05,4.273705435977454004e-02,1.518583093412802787e-01,2.178225023212848523e-03,2.956598371263929881e-02
8.100304060673144124e-02,1.059718242244082897e-01,7.763032371377928675e-02,7.457084570808136380e-05,7.333235736461416516e-06,1.100054887932374100e-05,3.469553663827745077e-02,1.302257723764281283e-01,2.315097117431407815e-03,2.591311637771449156e-02
7.527807237296238463e-02,1.086070658976333453e-01,7.816437946727464170e-02,2.051805255666980016e-05,2.026076991527072727e-05,7.226567189651418170e-06,2.123983692557726913e-02,9.811824940486608970e-02,2.444987771237472785e-03,1.606380342817368551e-02
3.805243164762256436e-02,1.043029037014790023e-01,7.410256826125941054e-02,1.149016385919315755e-04,3.259434935485662802e-05,2.520042110206849431e-05,1.001409124918605648e-02,7.695239711927505388e-02,2.566274490753202298e-03,5.173225439418906689e-03
2.167894235192990154e-02,9.055942776200077982e-02,5.648298530453478572e-02,2.064315237224820243e-04,4.403282501064518281e-05,4.252683352942064160e-05,3.810772733378868949e-03,7.359956390597137410e-02,2.677328857858820091e-03,2.746885056472738937e-03
6.962320941284622089e-02,7.047425995306892677e-02,2.598405753972135232e-02,2.930179454552495890e-04,5.429569016572321778e-05,5.882798591360946467e-05,9.879968189426863341e-04,7.371919666679455085e-02,2.776458729489604017e-03,7.818423662728387485e-03
8.576106384536796856e-02,4.839971711541481841e-02,4.082272256232115024e-03,3.726801771605101825e-04,6.313001090651833747e-05,7.375156866149383561e-05,5.822511751617443464e-03,6.072245393860315615e-02,2.861896683186683499e-03,1.123423654779483020e-02
8.050890387394066261e-02,2.634803383095602261e-02,2.084348771231517294e-02,4.435944357439236454e-04,7.031672427962953962e-05,8.697932017838763631e-05,8.039618509428182042e-03,3.615143206097038570e-02,2.931906703721399044e-03,1.258198426256925372e-02
6.627888651250096741e-02,5.558868331451861412e-03,2.396668779564624374e-02,5.041381275478001248e-04,7.567614763271498428e-05,9.823474751248602776e-05,7.136887718069691994e-03,1.648397669951974162e-02,2.984871434536464588e-03,1.082824907232902631e-02
3.865386842758927050e-02,1.061375009644958956e-02,2.124650626429511538e-02,5.529293581947769716e-04,7.907256091674541533e-05,1.072898388337289273e-04,6.679302184529688213e-03,1.036360996075259833e-02,3.019322589020399794e-03,6.037773973455340393e-03
6.625148427715363102e-03,1.704797486933356393e-02,1.656126510585111469e-02,5.888607437148014098e-04,8.041774546208247049e-05,1.139706020659449182e-04,9.962806533031493342e-03,7.913870061760305136e-03,3.033976537942806480e-03,4.093244647698245954e-04
5.386814573320505839e-02,1.365775463219300392e-02,9.467087113137465440e-03,6.111266953248540397e-04,7.967338742891508859e-05,1.181612921729133410e-04,1.581029546285997109e-02,3.350535883166298745e-04,3.027791419151321887e-03,7.310170236778004704e-03
7.319797167627248302e-02,9.660105267042456284e-03,3.218943200676150328e-03,6.192435054408428324e-04,7.685228119105000659e-05,1.198072211962596188e-04,1.801153198379203818e-02,4.271058300691097341e-03,3.000015117909202774e-03,1.451382627280924445e-02
4.881745525431590432e-02,1.308760235241977071e-02,3.168429583374569522e-03,6.130617342673254670e-04,7.201829669737405378e-05,1.189160793886397843e-04,1.090242490515566653e-02,1.159384146811612455e-02,2.950214436096324031e-03,2.043651623105178367e-02
1.428775052438700267e-03,2.012220368617430657e-02,9.165760451107627174e-03,5.927705805547957025e-04,6.528510467823164115e-05,1.155577318521542148e-04,2.304936483875851764e-03,4.082460214122700382e-02,2.878298231398509349e-03,2.037700652880442345e-02
2.832718718415305065e-02,2.345150386387283292e-02,1.739446691579780296e-02,5.588941124067281236e-04,5.681368370597493918e-05,1.098624921114418060e-04,1.117194595773342986e-02,5.851791765158421976e-02,2.784537998876079629e-03,1.149222872228587364e-02
2.170639242816580633e-02,2.380526737056810199e-02,2.549827019832618530e-02,5.122794297468915344e-04,4.680866284955590670e-05,1.020179111274207396e-04,1.130290398470344508e-02,5.196773698086328691e-02,2.669579002707850920e-03,1.391111887181837974e-03
7.275365309652523024e-03,2.590761719735718699e-02,3.044365308354694821e-02,4.540770245346472051e-04,3.551358225745673738e-05,9.226415648874746649e-05,9.707592416629089865e-03,3.370035170474611208e-02,2.534439592150412347e-03,9.478887359791854372e-03
4.269442633248053676e-02,3.110762408518829084e-02,2.805742601480233980e-02,3.857137933637279966e-04,2.320518076007386621e-05,8.088809102109879553e-05,1.259010042969935413e-02,2.023462729823282194e-02,2.380501555583595334e-03,9.829442116452303396e-03
8.332113457604450879e-02,3.786128756298597769e-02,1.886057426164564760e-02,3.088593351415428595e-04,1.018684384099329884e-05,6.821619198804316499e-05,1.561123974341954712e-02,1.028690430157278707e-02,2.209492628573084608e-03,8.029600386828272124e-03
1.194612885109186395e-01,4.365626158660179668e-02,9.305337204216669947e-03,2.253863298095777059e-04,3.218633517617602548e-06,5.460648063950626174e-05,1.225888727219927136e-02,7.957121886124844667e-03,2.023460128266043549e-03,1.017104737299415369e-02
1.217383639777572246e-01,4.653051322950660373e-02,7.488303268805640914e-03,1.373259385683888519e-04,1.667679708919071377e-05,4.043965639062290261e-05,3.898876568250996509e-03,3.749106860264628943e-02,1.824735799707569986e-03,1.542511255847130169e-02
7.484254806228216039e-02,4.659199767339727155e-02,2.078978369199372539e-02,4.681928828933051156e-05,2.984961129074132464e-05,2.610964977896592737e-05,5.488759992378408788e-03,7.190845133708526071e-02,1.615893287315857060e-03,1.954077712258296684e-02
2.884899623486726454e-03,4.476939645389005351e-02,5.111091380113775423e-02,4.393380026946878980e-05,4.240367023137848096e-05,1.201382305923586137e-05,1.679886767694577926e-02,1.070244161237228625e-01,1.399699410559031992e-03,2.257775987898811426e-02
5.684994435945753960e-02,4.450075730835417742e-02,8.711821391218968480e-02,1.327276115710958673e-04,5.401834311711922032e-05,1.456943519238979734e-06,2.973987810581728980e-02,1.364293340739153593e-01,1.179060046844022588e-03,2.696992076658488724e-02
8.667812385287348986e-02,5.468507824051636185e-02,1.087233018743619939e-01,2.174035930242431748e-04,6.439365568572768248e-05,1.392803828671795239e-05,3.608242561116679209e-02,1.406023807794715141e-01,9.569617853691920854e-04,2.975493350381069879e-02
8.620884961271736702e-02,7.890348933017789224e-02,1.046410445554331325e-01,2.959023932339427095e-04,7.325771464828497381e-05,2.505053855726000535e-05,2.953095964583164063e-02,1.074347671228737117e-01,7.364109027656555841e-04,2.531674538991415813e-02
6.221891045323405672e-02,1.030893311446527960e-01,8.099568739561244235e-02,3.663136240648648899e-04,8.037349214112418335e-05,3.451003409643601524e-05,1.876179439213338657e-02,6.546700115962698907e-02,5.203711217125145741e-04,1.609999785903837993e-02
2.847632480568596317e-02,1.098991251714599993e-01,5.300496810375506657e-02,4.269221415046237631e-04,8.554480172604086779e-05,4.203463676767203586e-05,1.876588656448214057e-02,6.147610428163886864e-02,3.117014761614655656e-04,1.155535887857229299e-02
5.909873123373664966e-03,1.009267227425250241e-01,3.377915293567188698e-02,4.762497211759278816e-04,8.862131619079901147e-05,4.740197867539186895e-05,2.926028028788666205e-02,9.509434032384522784e-02,1.130958293340697486e-04,1.437565603547845405e-02
4.888089398727108598e-02,8.891123677816673010e-02,2.771373556254991960e-02,5.130911124985826311e-04,8.950249986477554610e-05,5.044502519462386894e-05,3.423830418087129429e-02,1.139476136318155891e-01,7.297424586067590346e-05,1.619542119438475980e-02
1.035551577690147079e-01,7.652739717159147415e-02,2.850920048336392371e-02,5.365435884142222972e-04,8.814035385127458203e-05,5.105655760713168577e-05,2.582322574046649541e-02,8.762483748520670523e-02,2.443119745531939350e-04,1.044612281571262458e-02
1.385423485971337132e-01,5.783416227301712426e-02,2.662720718362092051e-02,5.460292621244034134e-04,8.454090088222661965e-05,4.919221197606200787e-05,1.517087621108569907e-02,4.658970082230010079e-02,3.990424553748724186e-04,1.757467403480308596e-03
1.123959953545184409e-01,3.333537270676474595e-02,2.100575100777890558e-02,5.413096147933684670e-04,7.876436674904349481e-05,4.487199569872430153e-05,1.347693510833765200e-02,2.983297243398579796e-02,5.356528074796271764e-04,2.524833455291027734e-03
3.131865988590829680e-02,1.268908305764533673e-02,1.814773401162256966e-02,5.224918645249945976e-04,7.092404673045641912e-05,3.818024004491414586e-05,1.503538350807445689e-02,3.226910657290252282e-02,6.530233732719338416e-04,3.298605955859984940e-03
4.647495176884926249e-02,4.431130995661275787e-03,1.921964545346259781e-02,4.900270026887961015e-04,6.118387736543789697e-05,2.926398485482159401e-05,8.493196649730326564e-03,2.743575035803529766e-02,7.504498421472749134e-04,5.425323223068266240e-03
7.000163814920493111e-02,6.864533100211504812e-03,1.581996227682367154e-02,4.446995241530349459e-04,4.975476553236666952e-05,1.832982950850662240e-05,4.832334160739261940e-03,1.216516155183093237e-02,8.276578455287017218e-04,8.125162509955385221e-03
4.105407575012801069e-02,1.009260045228683317e-02,1.658869743698334134e-03,3.876090783678728144e-04,3.688975732311264679e-05,5.639321731196005649e-06,1.385021486682944114e-02,2.597168174402616873e-03,8.848082224880196014e-04,7.650933605766173720e-03
1.543447872431102062e-03,5.618977940665774266e-03,1.713341486230542457e-02,3.201444637006131883e-04,2.287815789329582987e-05,8.497008115398459573e-06,1.336513702682142792e-02,2.414993004275488644e-03,9.224881518214154193e-04,5.625977309087513284e-03
1.246251960628161001e-02,8.822927671866090046e-03,2.846982568681846737e-02,2.439505732357954136e-04,8.038739618501199706e-06,2.372682654491838121e-05,8.933041076200839981e-03,3.321269041596332239e-03,9.416911346602793807e-04,6.246045144397506521e-03
2.070182628273208904e-03,2.949363559924611175e-02,2.846757840133900055e-02,1.608890719112888513e-04,7.287801160614299524e-06,3.966422041315774199e-05,8.043905522853798951e-03,2.590618456448276138e-02,9.437961598773736025e-04,7.205474114489731838e-03
1.043207350381599591e-02,4.486388134169518732e-02,2.233450450628909206e-02,7.299373819145637773e-05,2.274695934094594221e-05,5.589876833651818039e-05,1.147833488205169707e-02,5.510972785746558189e-02,9.305406851831444798e-04,1.768108733380214202e-03
2.045710902755351612e-02,4.049742927872272691e-02,1.254019155794121321e-02,1.757846526698614913e-05,3.797891382499861716e-05,7.200524130250335504e-05,1.404676841282733422e-02,6.695061531441122427e-02,9.039666940738619403e-04,1.022726596617473151e-02
4.248878241335126565e-02,1.718652131974165997e-02,2.634719297237685630e-03,1.085994215477894002e-04,5.262719320252203783e-05,8.755369845650315820e-05,1.133242490764133081e-02,4.856211461398930729e-02,8.663529123565746502e-04,2.124814136375386200e-02
7.622076135457404866e-02,1.802145942381820805e-03,1.671938213092532058e-02,1.978237415728891619e-04,6.634730435060783331e-05,1.021197372624587816e-04,3.048637912485794264e-03,1.059700057781547654e-02,8.201806295102752851e-04,2.699596225120684881e-02
9.828991487367233493e-02,4.393669993481952307e-03,1.508133679967867125e-02,2.830432017952636253e-04,7.881511369878265827e-05,1.152946515633057617e-04,9.359635225471896192e-03,2.768191871892340672e-02,7.681098183084827166e-04,3.047522007257244189e-02
9.035770291324232706e-02,2.613494031990677702e-02,5.184139474940342197e-03,3.621404239175088965e-04,8.973477576771398865e-05,1.266952452204940494e-04,2.378622138721964499e-02,5.750474763866497002e-02,7.128675245031923470e-04,3.295186071045260595e-02
5.693489160982328351e-02,3.567698646376327165e-02,2.605665435854858172e-02,4.331404977041392306e-04,9.884601348349144527e-05,1.359730592033547370e-04,3.518828170785048837e-02,7.827210739846388043e-02,6.571000643039929916e-04,2.917016640951461751e-02
1.263292528700909328e-02,2.620771214906173971e-02,2.921464426845899257e-02,4.942592939701749566e-04,1.059305694820844926e-04,1.428227995002268958e-04,3.753382247069907141e-02,8.574951169642916482e-02,6.034043617582766396e-04,1.593363547938820429e-02
3.547632215619574841e-02,2.020867238689106477e-02,1.863378558741992860e-02,5.439472912034955905e-04,1.108176668201748351e-04,1.469897671386096740e-04,3.061222359248384067e-02,7.472753863517164752e-02,5.544388193328969724e-04,4.624489831397208530e-04
8.320339935935217035e-02,3.438800023484453461e-02,1.131799014088135866e-02,5.809278442622583735e-04,1.133883407568125705e-04,1.482760812352283165e-04,2.130393013045242187e-02,5.082654555208022257e-02,5.126561818110682680e-04,1.001073536482000037e-02
1.119757608093875784e-01,5.506132198315222270e-02,1.155834092775813969e-02,6.042289547351918947e-04,1.135785300210432789e-04,1.465455244227457216e-04,1.631986048766396330e-02,3.123553152556834620e-02,4.798640749592536330e-04,9.566776560101641208e-03
9.790561833760097477e-02,6.057788911730196263e-02,8.598123295120501872e-03,6.132077567775335962e-04,1.113808456024189723e-04,1.417269460772536255e-04,1.607470382038479403e-02,3.054302398035564636e-02,4.576004684682348630e-04,4.724816449120835746e-03
4.811211079057860218e-02,5.346557751529654873e-02,3.036499656662665879e-03,6.075671058887828144e-04,1.068449668905960395e-04,1.338161749566701172e-04,1.608850669239195522e-02,4.406241886047228273e-02,4.479150479648454303e-04,2.362823910918364183e-03
4.108008120294015866e-03,5.281422336232601683e-02,1.417762731717282787e-02,5.873638470506904741e-04,1.000766481836495853e-04,1.228762724802738928e-04,1.240376493113204935e-02,4.890989402617731963e-02,4.524415337975735670e-04,3.514720090364140907e-03
5.870253861834591295e-03,6.361707947434554200e-02,1.255744026753760970e-02,5.530085383837701979e-04,9.123535237691337749e-05,1.090360336257565076e-04,5.092916491925067804e-03,3.057100192162946067e-02,4.705828922442884237e-04,4.033369733432518901e-03
7.329237322074974928e-03,7.317555241706599767e-02,3.376397012517422160e-03,5.052566122226931572e-04,8.053056221651237571e-05,9.248701991468618970e-05,3.217439967572621306e-03,2.207352413305271183e-03,5.013507167695969253e-04,1.392000320343875133e-03
2.387328833546266058e-02,7.296191237675693497e-02,2.281834037890403954e-02,4.451911623100868664e-04,6.821685204349177683e-05,7.347937758336930763e-05,1.158005866871279418e-02,1.713831805755762147e-02,5.472243222173253218e-04,9.583277360254169666e-04
3.491914920683869550e-02,6.388326138832527146e-02,3.288884768176298518e-02,3.741977486782653746e-04,5.458783366230855603e-05,5.231600675460156274e-05,2.162536045522992639e-02,3.362728674399116657e-02,6.102901330611527940e-04,2.632318254576599629e-03
2.514608764557469886e-02,4.392169321668300958e-02,3.040913255807287455e-02,2.939318058220154401e-04,3.996911806250066294e-05,2.934481248729290135e-05,3.393600490419561300e-02,6.607472923728414937e-02,6.838987673783058141e-04,1.320681068922258117e-02
2.104923373297179490e-02,1.240184578896201019e-02,2.235673278550765961e-02,2.062794202529481314e-04,2.471045951185474028e-05,4.950350091449580075e-06,4.588185262993969143e-02,1.096934243162874106e-01,7.607242235498599958e-04,2.587080820037616219e-02
8.344967133489038236e-02,1.538702756935014272e-02,1.580729904731245986e-02,1.133124060689570667e-04,9.177269441470956035e-06,2.045403396694066728e-05,5.395844841481310661e-02,1.370658620826616936e-01,8.508556205190642707e-04,3.403901477997649250e-02
1.155201264156325153e-01,1.898623813069775373e-02,1.244205156113746893e-02,1.723874779153984464e-05,6.258295989531566146e-06,4.643575880280911172e-05,5.619816596689793803e-02,1.333220006808514824e-01,9.651525352484734100e-04,3.441712352621738302e-02
1.026337548413297496e-01,2.197571385253787798e-04,1.324359507262432012e-02,7.965040504432095757e-05,2.122645924630033390e-05,7.255601736990254175e-05,5.115742021512922205e-02,1.080382364510464183e-01,1.076296341807034956e-03,2.959982487012957977e-02
7.844957392645723893e-02,1.941134422573245408e-02,2.079903554787113779e-02,1.750359200806041334e-04,3.536893400001403954e-05,9.838088389926538853e-05,3.716934402848338231e-02,7.354503740701050230e-02,1.153469591100058939e-03,2.501408551469985059e-02
7.257717203420596674e-02,2.434840789709451225e-02,3.226132037095529037e-02,2.666267130970352561e-04,4.834780419013993914e-05,1.234858794629624986e-04,1.629728230439157072e-02,3.444703050601474054e-02,1.246618059043085643e-03,2.186583029759391755e-02
7.044804105382747317e-02,2.331409714923366946e-02,3.641875935914295342e-02,3.522152750916379606e-04,5.985395109395440477e-05,1.474645261149525033e-04,1.662339759587998060e-03,3.204499435035929565e-04,1.414780704402629572e-03,1.676654038238853395e-02
4.168956640554336013e-02,2.511363221707081997e-02,2.575323033963720573e-02,4.297313507899405889e-04,6.961481988182532867e-05,1.699502925328194038e-04,4.854585967544353467e-03,1.301894044743422477e-02,1.544333263574214268e-03,9.711502939778838411e-03
9.632197476760990390e-03,2.117154957909599816e-02,8.540780154533212168e-03,4.972924643646006813e-04,7.740133244018574451e-05,1.906289186958895227e-04,7.324561685729461327e-03,3.191145204630527199e-03,1.497243490043753070e-03,5.574626714637088282e-03
4.614641794908787981e-02,4.273974299824402981e-03,3.125884766421124263e-04,5.532500602619059562e-04,8.303377267330685010e-05,2.092197027639691872e-04,2.120794050133341380e-02,1.288780295273499188e-02,1.505948937707000381e-03,5.873809988284293612e-03
4.662179284470052698e-02,1.205725076478354404e-02,4.122598194834168651e-03,5.962301291499463819e-04,8.638649382040891741e-05,2.254736536278799982e-04,2.545160329000595301e-02,2.512250611605582745e-02,1.876560812795282024e-03,7.388933374162336837e-03
2.928887966483469801e-02,1.401933079164781847e-02,8.705807803467307746e-03,6.251673187573486817e-04,8.739132589192808516e-05,2.392348820754659528e-04,2.570600204980389575e-02,4.851583809666124708e-02,2.092340972873425742e-03,9.870477952298964408e-03
1.559594830085450287e-02,1.103555913492990960e-02,6.647799729096995694e-03,6.393316837183942196e-04,8.603959404865059663e-05,2.504636048021621048e-04,3.207365001143111516e-02,9.288642222336378207e-02,1.163273926811246063e-03,1.541392355991209884e-02
3.878281644366298950e-04,1.633560346393016574e-02,3.140728589749612176e-03,6.383474038332096487e-04,8.238269079282769635e-05,2.591186390355290506e-04,3.743244308372354473e-02,1.270265388485224689e-01,7.253329800154236038e-04,1.999576678875439675e-02
2.480582453486206845e-02,2.271508346563854558e-02,3.746693582759259410e-03,6.222029922255996196e-04,7.653117622119090860e-05,2.651134302257005860e-04,2.606095262678845628e-02,1.107276300333712576e-01,2.302289937488177264e-03,1.680503596348018741e-02
3.431230301834164303e-02,1.963629507226598639e-02,5.459883999866186818e-03,5.912527191517077041e-04,6.865241921136662180e-05,2.685690813389167994e-04,2.229876509465904787e-03,5.841420741897807023e-02,3.292472139203165334e-03,8.812535405194563479e-03
4.041022019214254336e-03,1.361826708413872190e-02,5.871291110628130624e-03,5.462091887856277295e-04,5.896683590085557053e-05,2.699130099565760798e-04,1.158285341199542448e-02,2.541033125801568648e-02,4.329111905813629035e-03,6.224313394427269906e-03
4.936948535081862183e-02,1.255409988251488668e-02,1.075300636296951454e-02,4.881272200958136284e-04,4.774281057235871625e-05,2.693342436762466950e-04,8.368015588999798068e-03,2.771795887750009083e-02,4.660192700041363052e-03,9.922954322548567171e-03
7.972713951167922919e-02,1.130485707367126849e-02,2.501372186484385890e-02,4.183793937701590850e-04,3.529039995636951935e-05,2.665467176410649466e-04,6.277180953832955587e-03,2.538749917051441943e-02,2.842167122073825918e-03,9.931117984878562108e-03
6.373934736357095288e-02,6.320097234549385337e-03,4.305194554885315161e-02,3.386238299427192858e-04,2.195396425772313536e-05,2.619299753158967764e-04,1.782448921443623158e-02,5.164893563646746726e-03,1.964263599931164047e-04,2.656389228200133588e-03
2.157251720682520912e-02,2.670627129975920722e-03,5.374891378311068973e-02,2.507649512927530126e-04,8.103931376806513355e-06,2.570438103003685093e-04,3.094592156026403779e-02,3.480269104701587402e-02,1.867531966307196768e-03,3.152259478101879404e-03
1.556152297691794015e-02,5.756176609385330175e-04,5.029462637683830561e-02,1.569081582949532995e-04,5.872101538592511762e-06,2.521812255795357130e-04,3.071172223729068743e-02,3.373965099768418824e-02,1.555082823731044044e-03,1.203509347349739859e-03
3.627715825345449036e-02,9.153134418953493695e-03,3.277602515953154105e-02,5.930949377553562744e-05,1.957878551518791397e-05,2.451780009806726586e-04,2.135455077847702235e-02,1.287543904549817882e-02,8.626949499300916226e-04,3.019576179377865804e-03
4.233268422007616799e-02,1.525832036108922853e-02,6.878809936516669388e-03,3.967850123791724924e-05,3.262274824750913924e-05,2.365776266299524848e-04,1.581536346928938755e-02,4.219667404714072013e-03,7.854550386955703014e-04,2.535885418134726371e-03
3.291091159449536369e-02,4.332739366948284640e-03,1.739628260385450709e-02,1.376634422003521273e-04,4.462224949041412121e-05,2.322766828427523772e-04,1.776409507296003096e-02,1.171056554056272396e-02,8.706891858621899081e-04,3.835435902595486736e-04
5.283816492516459247e-03,1.892916786331414608e-02,3.038734086135243609e-02,2.322709029831581057e-04,5.521648266519042309e-05,2.325308182137162066e-04,2.339414409631578734e-02,9.253224255240175347e-03,6.758891639181789906e-04,3.001463611973706740e-04
3.631252658892281798e-02,3.392279662779453669e-02,2.919276203074146550e-02,3.212019694189272565e-04,6.407460939009658137e-05,2.259854841193626796e-04,3.002557763243148339e-02,9.484192346751281130e-03,4.006146293045814103e-04,3.323279100266175300e-04
7.287112654703503667e-02,3.276231463936681021e-02,1.887169179218092449e-02,4.022891501149724919e-04,7.090440814508181596e-05,2.129670995296171555e-04,3.529576224695720604e-02,4.197376955184615316e-02,2.572688593375683391e-04,5.054435269951079203e-03
7.790418344803490269e-02,2.691400862669222210e-02,8.639294614465950831e-03,4.735492852296644610e-04,7.545965184583995676e-05,2.188081712368617089e-04,3.537871733085332093e-02,6.918168451844819433e-02,1.599461685846428579e-04,1.444991845571852104e-02
4.559942084918434252e-02,2.787047036996691957e-02,7.296392631797075229e-03,5.332321619522091506e-04,7.754578868095224212e-05,2.444251087210386740e-04,2.900437818898988010e-02,7.267888960726558156e-02,1.262360610368551514e-05,1.743026458971563483e-02
8.450203188161281576e-04,3.462065931209221126e-02,1.673355701726166045e-02,5.798636449541702716e-04,7.702520633908048096e-05,2.365449876288566440e-04,1.875552902931485952e-02,5.286228752357095828e-02,1.415305590577229213e-04,8.710060925076441168e-03
3.193010812225181155e-02,3.944184889258049026e-02,2.743228969090689973e-02,6.122822587939732476e-04,7.382249469850486983e-05,1.924549567548288972e-04,6.810855650972805382e-03,2.742967095497320096e-02,2.532488702109937304e-04,5.152950384381653134e-03
5.130429835056331961e-02,4.044816298553891715e-02,2.730823048733966793e-02,6.296683141440118049e-04,6.792654179748505001e-05,2.263138749331865696e-04,7.093099316866398850e-03,1.202569636983783635e-02,3.387966025701421528e-04,1.361572269046544201e-02
6.046757255013408827e-02,4.418311417823471421e-02,1.668331395581348908e-02,6.315648471201863214e-04,5.938814841336518299e-05,3.471549136083949545e-04,2.256124500652521847e-02,4.004627867115390094e-03,4.186139815436156712e-04,1.239402105643173588e-02
5.152111220326856256e-02,5.176973745492375462e-02,6.592713826786598431e-03,6.178898367141824697e-04,4.831964643935805293e-05,3.111979631056001902e-04,3.533938379626627019e-02,8.444708641627534512e-03,4.830942859034966170e-04,5.445648181869792645e-03
2.003582453237383321e-02,5.028026343205742321e-02,3.582642830711504824e-03,5.889393746898468783e-04,3.489936973174715713e-05,9.194329287329054429e-05,3.985419054205716072e-02,2.624655325228375524e-02,5.209511597603579038e-04,3.713298500714593995e-04
2.351353923528987089e-02,2.971535389592627058e-02,6.153636665316139509e-03,5.453816802898824251e-04,1.936718933995501294e-05,2.135360135424705947e-04,3.636536769090564780e-02,4.206569379119864949e-02,5.356293867331043393e-04,2.753837016845120216e-03
6.457676639952153463e-02,1.965118405615197319e-03,1.338034693097833391e-02,4.882420734640309252e-04,2.004773841118856651e-06,7.660725374479083550e-04,3.106263473561412733e-02,5.289128839653711722e-02,5.322461649002903621e-04,1.086598837664099100e-02
9.432945630743731769e-02,1.075142567120732431e-02,2.558843686479625804e-02,4.188792397300923707e-04,1.686992542540107206e-05,5.570546791407183498e-04,2.507354917619995793e-02,5.152233259733027260e-02,5.097539923429733610e-04,1.383666738459014139e-02
1.059349704550228560e-01,1.900352984530282938e-03,3.802607928877637516e-02,3.389533318974659098e-04,3.687932703420838607e-05,1.178603599305475111e-03,1.140941387282685786e-02,2.237518878853879054e-02,4.669491675714861783e-04,7.969737327000470930e-04
9.216898151189745203e-02,1.574232300812175578e-02,4.354618658012742588e-02,2.503866535587431601e-04,5.759619689523803101e-05,2.815505951229883320e-03,1.010851860722702250e-02,3.033924697672048948e-02,4.061874470731709295e-04,2.454304455637984494e-02
5.267846365525383906e-02,2.662177633444575559e-02,4.084876964455233517e-02,1.553178516094518794e-04,7.861930818737320500e-05,2.317030344013493344e-03,2.532293775267968963e-02,6.887276388458191123e-02,3.305720944011386587e-04,4.462424655950232577e-02
1.017268593225244960e-04,2.336938308716977192e-02,3.393494759044859282e-02,5.605070561145321210e-05,9.958221536708082773e-05,3.931521073563294666e-04,2.286944905856853547e-02,6.273271451895569284e-02,2.421203402082904867e-04,4.643553418170651842e-02
4.713751180038203148e-02,9.280484882758024967e-03,2.595632338556547875e-02,4.500126339541471671e-05,1.200219079473096434e-04,7.910431391399516850e-04,1.018355547922486677e-02,3.022127048521211848e-02,1.429842424092021662e-04,3.388452123526516230e-02
7.607407677607547214e-02,2.149725556683130482e-03,1.855798311013881138e-02,1.453730363645622595e-04,1.393878287254361335e-04,8.292100960679434606e-04,3.465530214013867044e-03,1.636655673391039512e-02,3.623835716188853259e-05,2.145429121968735198e-02
8.687197294478846143e-02,1.290243344477479039e-03,1.418042063664854552e-02,2.426077898546071378e-04,1.573542226774370481e-04,5.413676277838403838e-04,7.387628147237872318e-03,3.624821021533543991e-02,7.477844247194168981e-05,2.027363969359972581e-02
8.408012555045586700e-02,1.644423694877499703e-02,1.445568128168975980e-02,3.343165974645570244e-04,1.738402900476096848e-04,1.498512852014519722e-04,1.261123642088119931e-02,6.163640668297681174e-02,1.869440346719125352e-04,2.956540213879371021e-02
6.743592677309337424e-02,3.184007419034234204e-02,1.790336733634854960e-02,4.182366913955777241e-04,1.883738050703458449e-04,1.431292246789838156e-03,1.135789574588077708e-02,6.420783280223310574e-02,2.971605031445982313e-04,3.914436195092946269e-02
3.488753237035723681e-02,4.341723883832666192e-02,2.140192174135942607e-02,4.922868661200250750e-04,2.000597744330501757e-04,2.195665992293382735e-03,6.793883734990286208e-03,4.809653501061691983e-02,4.022392161030037463e-04,4.078792294566040838e-02
7.625333694146496991e-03,4.934901237706500882e-02,2.170629128988367171e-02,5.546186702846465748e-04,2.089644456843114918e-04,1.472725708240864208e-03,3.204716889379219825e-03,2.900698072080944850e-02,4.991024655001452320e-04,3.521997028536619223e-02
4.917351855436509489e-02,4.034903571144523443e-02,1.522017059256696066e-02,6.036621301656727636e-04,2.162409165988714321e-04,7.426151177414294711e-05,4.546172681263700201e-03,5.411196999552125159e-03,5.849500741267242782e-04,2.638955416061292136e-02
8.762930284180461826e-02,1.295074395185558461e-02,1.919101267794230247e-03,6.381648759990241710e-04,2.211954902368736507e-04,7.021129413392426279e-04,2.136812712825241281e-02,2.766106051584195716e-02,6.572720951295071140e-04,1.489113934541069773e-02
1.252052470325678568e-01,1.822839182849531406e-02,9.676911292994321359e-03,6.572236983443864068e-04,2.209574361676888319e-04,8.149814382692869598e-04,3.726462702698488810e-02,5.445470956919100380e-02,7.138681986850053951e-04,1.267590046669763403e-03
1.432717461842296647e-01,3.691421235848536125e-02,9.559697498950303629e-03,6.603077416373211682e-04,2.167454971736374500e-04,6.679631985055599049e-04,3.665162049703629688e-02,5.586151508342492022e-02,7.529289639410824842e-04,1.034050988125403796e-02
1.050533534550098375e-01,4.294833644469805284e-02,5.143753738227280561e-04,6.472727419694495905e-04,2.147417492770253085e-04,7.080781916251652046e-05,2.042735722351343361e-02,3.891386132098480916e-02,7.731023831240339209e-04,1.617882190825729177e-02
5.192942686285638432e-03,4.159129408477670736e-02,9.290750771459202473e-03,6.183659311453303890e-04,2.127314833283620269e-04,1.448747574395246873e-03,3.415631247203722905e-03,2.044718505139134224e-02,7.735169066505620528e-04,1.578291827968316893e-02
1.036460104908283053e-01,2.914498301611028602e-02,1.083201412206546803e-02,5.742214540433824036e-04,1.978831191851855272e-04,2.266744490735821994e-03,8.619060668902533626e-03,5.086161812290937272e-03,7.537950505650980364e-04,9.935063257679439472e-03
1.597891517696285180e-01,4.138558016793839403e-03,7.509117687863638493e-03,5.158463758429152014e-04,1.752131447118240306e-04,1.554132087926965358e-03,2.166889817515291888e-02,4.740150358711470169e-02,7.140702455863026221e-04,1.358495420491887332e-03
1.503243932410145423e-01,1.869919012146820797e-02,8.845828734915686491e-05,4.445975842243873183e-04,1.730609013459138675e-04,9.299144389631246665e-05,3.430570387854092046e-02,8.302425731578892687e-02,6.549903991423267633e-04,3.604087790641465668e-03
1.006625545121077187e-01,2.099951863866116042e-02,1.475585248568468677e-02,3.621501136620201107e-04,1.824151842523553241e-04,6.862014969221269262e-04,3.616700328553905386e-02,7.634588176234335943e-02,5.777017071652857652e-04,4.557943328347780019e-04
3.623056045713825279e-02,1.401036927981137280e-03,3.248431776029840623e-02,2.704576289999843569e-04,1.434878284993869378e-04,5.589079350496920602e-04,2.770386215010376546e-02,3.420344609392066831e-02,4.838204909967986516e-04,7.624978712883165831e-03
1.760265212025739767e-02,2.531644229517454256e-02,4.043443223359829281e-02,1.717059984967986947e-04,7.489554509863487035e-05,3.009792709223862430e-04,2.289160408213607514e-02,3.583550499640492625e-03,3.753967342571118263e-04,1.460755732581588140e-02
2.720797864497426569e-02,4.433544624143816171e-02,3.064866981262414497e-02,6.826105769226466441e-05,1.084498664786668975e-04,3.210525486790257723e-04,2.868746634775425769e-02,1.218462868082438241e-02,2.548667046938830763e-04,1.927339013949653720e-02
1.826200226670760332e-02,5.042458983682979873e-02,1.109834966325872960e-02,3.738818943781912520e-05,2.180361722177568578e-04,3.961975353346563122e-04,3.643374977924969393e-02,4.007538965313886536e-02,1.249942949837655123e-04,2.284819150123240661e-02
7.993307232433666254e-02,4.664452149676426990e-02,1.727423737101340751e-03,1.426895701420942235e-04,8.253549883472323834e-05,3.476258784718637266e-04,3.612125935986826297e-02,5.434939143635839770e-02,1.119593678819976750e-05,2.343943856815579319e-02
1.041195447942709629e-01,4.023212214599801440e-02,7.136504842271767200e-04,2.450894986344452956e-04,4.941776644165853842e-04,2.729115005614098435e-04,2.774600286182642150e-02,4.483054958732991119e-02,1.504917253233741903e-04,1.943262876531339639e-02
7.733184305314806661e-02,3.785018707186994791e-02,1.231168806030440328e-02,3.420949950730187020e-04,1.202655410731073024e-03,2.566575650517921190e-04,1.749495975944482043e-02,1.976862113934630891e-02,2.895710449630357051e-04,1.416448320731534399e-02
2.753378138919097134e-02,3.790985991288930990e-02,2.059944089109526019e-02,4.313344628616643753e-04,1.516034282085150682e-03,2.550277632826976359e-04,1.129103343055774811e-02,6.752463583831389698e-03,4.250835057387864434e-04,1.044196204732963582e-02
1.493382794927160251e-02,2.936895087975687629e-02,2.001621317265395855e-02,5.106157437535946983e-04,1.207462725439427571e-03,2.285056203285839595e-04,1.222712671538052527e-02,1.416573108565423629e-02,5.537328830011294936e-04,4.710385944564437176e-03
3.871786788388554418e-02,6.396996308463688899e-03,1.508391776533286530e-02,5.779800306536098239e-04,5.325162583863654944e-04,1.976418613684786062e-04,1.841304992161182236e-02,1.341637961462926326e-02,6.723586052767412330e-04,6.595373254629864797e-03
4.859567860793676669e-02,1.981056627194812195e-02,1.005062758707919203e-02,6.317503131279968804e-04,3.707111342751743757e-06,1.816232623211142178e-04,2.352563039685656374e-02,6.402358041794416199e-02,7.780143614740666572e-04,1.867027808085100493e-02
5.675684167304560074e-02,3.366466600211606014e-02,1.834077431667954783e-03,6.705731582712802421e-04,1.468735172650563643e-04,1.714093041390055909e-04,2.276887817201039832e-02,1.031599399612694312e-01,8.680419688652538188e-04,2.292150484414030159e-02
6.619507984815484192e-02,3.342145014796348013e-02,1.133943530145038563e-02,6.934527867825884080e-04,6.844360723259957963e-05,1.581584188333054258e-04,1.757115460192835640e-02,1.097305257277023244e-01,9.401385972727519576e-04,1.811968843345233143e-02
6.167882712729778200e-02,2.650382823215569755e-02,2.107722454398329448e-02,6.997765871731309074e-04,2.334774938509493120e-05,1.461485007765450661e-04,1.287658689379773264e-02,9.256862613053301603e-02,9.924156329003039605e-04,1.160991939792988328e-02
3.216935476052901199e-02,1.389167528715143547e-02,1.685033563724844252e-02,6.893314156134160283e-04,6.042049292594584351e-05,1.396215261916939059e-04,1.080397450204145966e-02,6.850040893587433510e-02,1.023447731984809816e-03,9.400844255845766662e-03
7.586776427188502391e-03,8.705644483708155357e-03,4.280112498336236838e-04,6.623102501596757905e-04,6.912271354057725734e-05,1.365724610560452366e-04,8.090574271186402877e-03,4.048040726055898014e-02,1.032310830529453629e-03,9.203078616911313653e-03
3.570893826648067343e-02,3.657776311577778244e-02,1.900242271298806240e-02,6.193090006882101929e-04,2.775313886868897178e-04,1.348354421136269371e-04,1.727351355330290598e-04,4.464333868168706212e-03,1.018608105908056036e-03,4.958062309798096957e-03
4.744831492570316528e-02,5.339589180882192004e-02,2.992488347616030497e-02,5.613135142068949703e-04,6.122931816394245035e-05,1.350710204759902422e-04,1.267357685379715340e-02,3.408804474311731558e-02,9.824831821553588630e-04,4.606304023111463565e-03
4.588370795516024531e-02,4.680852477707876658e-02,3.597080698256988757e-02,4.896770535068160511e-04,6.932998234101964488e-04,1.379597235054459009e-04,2.499574106380712119e-02,6.064376432812249723e-02,9.246201945117026640e-04,1.451789269421988569e-02
2.949726875448314620e-02,2.224372537510638237e-02,4.298590325981013066e-02,4.060887595950900936e-04,1.144520363898108043e-03,1.427780660716737474e-04,3.190670421540514612e-02,6.517431497059987533e-02,8.462306446966601052e-04,1.915526093713250388e-02
2.489237781430238706e-03,2.763592677072800215e-03,4.476411857442186282e-02,3.125338294231653873e-04,6.595551258599755820e-04,1.487062773092389083e-04,3.319136841981419617e-02,5.082535537110047935e-02,7.490272932828552326e-04,1.723878517322095447e-02
2.283414236407198955e-02,1.475279095670436330e-02,2.803484016114008229e-02,2.112463446485158386e-04,1.358465123763824382e-04,1.555237633363460586e-04,3.220687841343735508e-02,3.198365994390941353e-02,6.351856549371764568e-04,1.235247775855937390e-02
4.555774625699701708e-02,1.156790861969918607e-02,4.231430754250153220e-03,1.046558693477623637e-04,3.739225517549282611e-04,1.630193518632111537e-04,3.254227424589875572e-02,2.581444940141205263e-02,5.072939717419417110e-04,9.700228750823202198e-03
7.892426406770268466e-02,1.500366180916435418e-03,2.894015024981773723e-02,4.670909714647546434e-06,1.712415812310269677e-04,1.706735627533596832e-04,3.529348535352683225e-02,4.028679903569779702e-02,3.682928254260866836e-04,1.087673474018788049e-02
1.208513761774746703e-01,1.750731068501382853e-02,2.926807253585016200e-02,1.140921009962516362e-04,8.928680296024570995e-05,1.779466736521450872e-04,3.876475314927587540e-02,6.510141804672402166e-02,2.214058070682973231e-04,1.177750084678211816e-02
1.419193601660545534e-01,3.209363577457180483e-02,1.261236453242560104e-02,2.209545926605094670e-04,1.986246208574599537e-04,1.844471016428727390e-04,4.117182284722705615e-02,7.957310175344202430e-02,7.006288920377420546e-05,8.650631414308338277e-03
1.234785588818458346e-01,4.462048413814283243e-02,2.479289258797065781e-03,3.226585561632366395e-04,2.566251128313178738e-04,1.898145602921278883e-04,4.306051757145908793e-02,7.790663905002621903e-02,8.218166681712781876e-05,5.392944249641554166e-03
8.902881941423498868e-02,5.527833208401117943e-02,6.897556272291950272e-03,4.167209033343354289e-04,2.224413267867201411e-04,1.936552842733866111e-04,4.549849501371434901e-02,7.905427067922039808e-02,2.317348921142299155e-04,8.700468968188906915e-03
6.946114730716156094e-02,6.352790969970266433e-02,6.344864822994724859e-03,5.008361498917585650e-04,2.075290312584669229e-04,1.956105795848433408e-04,4.634276088143902267e-02,9.737532575907414945e-02,3.750521086154420120e-04,1.530543350280809053e-02
5.655685997974172624e-02,6.920474463591878844e-02,1.177776921683847990e-02,5.729331937322516746e-04,2.320930664559156965e-04,1.954013997677216065e-04,4.171362631694859602e-02,1.147643292550363653e-01,5.087232270623153352e-04,1.257463099583302352e-02
2.873680429165321321e-02,7.050219894179374225e-02,2.429586860148790980e-02,6.312266109527291938e-04,2.439296085399260123e-04,1.928086500038991087e-04,3.266684065058716308e-02,1.053947705744715801e-01,6.295562328755526914e-04,4.214167627658698019e-03
2.274303079218050611e-03,6.291895337684273726e-02,3.181922579467889173e-02,6.742612032920109388e-04,2.327129351838902785e-04,1.876620913674624850e-04,2.563066993364703644e-02,7.672673593997846042e-02,7.346558054789601886e-04,2.333857139555918503e-02
5.488931417163458136e-03,4.562669117174464328e-02,2.566032704555567395e-02,7.009486869516144735e-04,2.226380726916099388e-04,1.798573588178093232e-04,2.193599206373299942e-02,5.426202713616699175e-02,8.214951246621800957e-04,3.088809909529883005e-02
1.682384331553145318e-02,2.471030558855833933e-02,1.309352079132920614e-02,7.105955926738353112e-04,2.188238726857375189e-04,1.693670130415417978e-04,1.277131641105417811e-02,3.529353127520751948e-02,8.879790736058693415e-04,2.583239071083946042e-02
1.117624108545486189e-02,6.469897859355654840e-03,5.484222212033387778e-03,7.029216624598622629e-04,2.101018357370616405e-04,1.562359313994691448e-04,7.685825340210103440e-03,4.230241107807426217e-03,9.324972488043720836e-04,1.510968080681145305e-02
7.174395706595747269e-02,6.934225194586994545e-03,3.452157010342212298e-03,6.780682708729509007e-04,1.941450704348262170e-04,1.405767945896614602e-04,3.005253734550906997e-02,6.141621388833004569e-02,9.539654277095825727e-04,2.550844223689292811e-03
1.063158964150483082e-01,1.461970928192701802e-02,2.694562230815205663e-03,6.365966280066034412e-04,1.764655260667584587e-04,1.225703788860649517e-04,4.074758809775604063e-02,1.020836764853964573e-01,9.518544197947137724e-04,9.733197545488379149e-03
8.671189699369753756e-02,1.450677868447620630e-02,3.957582328079285380e-03,5.794757377191608015e-04,1.586285581750268830e-04,1.024633725105054179e-04,3.956049866748658633e-02,1.054850238417868041e-01,9.262055293315843560e-04,1.689369002722925645e-02
4.559195435353106257e-02,3.364349872180500984e-03,7.533365173473023473e-03,5.080603576104414333e-04,1.385693533446882332e-04,8.056152113481720133e-05,3.561286926910457729e-02,8.521846020416426470e-02,8.776321812554578432e-04,1.674073144573159921e-02
2.379552227271857640e-02,1.777007860252885138e-02,7.870026240016408242e-03,4.240595182334211421e-04,1.161039588371268937e-04,5.722164260099635367e-05,3.150333314604084750e-02,6.360133406749751694e-02,8.073075972861972274e-04,1.447565939862020291e-02
2.359593888760157937e-02,3.426916641483451764e-02,2.692536334488517761e-03,3.294963418476959610e-04,9.283519106018377513e-05,3.284379367417944841e-05,2.279272709207897513e-02,4.551303872921615146e-02,7.169387498375919465e-04,1.586072829866045156e-02
1.656090623290242675e-02,2.564594335261545163e-02,2.420591525096380155e-03,2.266599717302156475e-04,6.955597565918405286e-05,7.862207974649092570e-06,9.902337089283896887e-03,2.310783911593527681e-02,6.087271578740154976e-04,1.973776980419486918e-02
2.065838261531029174e-02,7.599143879067621690e-03,4.916720269323518640e-03,1.180507194719728262e-04,4.624529577299163116e-05,1.726530821465359269e-05,3.418071277388589485e-05,5.549205064490150829e-03,4.853174135168044322e-04,2.164263432864465403e-02
7.410404745687618200e-02,4.019772193586199777e-02,8.936307157270425086e-03,6.320017397027226131e-06,2.326685431000796679e-05,4.206853940173937057e-05,3.663216113944159618e-03,3.293774555075457133e-02,3.497346328625050051e-04,2.155264026311175946e-02
9.172109022380194043e-02,5.456201125071138275e-02,1.454919037472515546e-02,1.057933117081979037e-04,1.368138749366154061e-06,6.607605705261407987e-05,6.196171699711441883e-03,5.512350217198591640e-02,2.053123015922520423e-04,2.410397217974611511e-02
3.463414140277681907e-02,5.656081426640160309e-02,1.686185119927804607e-02,2.155295272494930643e-04,1.889868984933486338e-05,8.882651553112133874e-05,1.292681719453289517e-02,7.680115935892339873e-02,5.561222859845870039e-05,3.131780445332926766e-02
6.688418905627338540e-02,5.311010444327694813e-02,1.701041713458291416e-02,3.201757483194969342e-04,3.720130926130144837e-05,1.098798988649825640e-04,2.119658327136475159e-02,9.868862426289284895e-02,9.566147708859966924e-05,3.763264740983067458e-02
1.346001638727849226e-01,4.175760394958778071e-02,1.992995345443976385e-02,4.171321235384547652e-04,5.317285792157737888e-05,1.288282887609011975e-04,2.557435841312317992e-02,1.122357614519528257e-01,2.447523344866618287e-04,3.581996835061810464e-02
1.225347715953566674e-01,2.833535618779407794e-02,2.168484211067409073e-02,5.039743813036411373e-04,6.641174081474320685e-05,1.453058315441685432e-04,2.745958669037536562e-02,1.161100555565090509e-01,3.879431458895523060e-04,2.776259546761572494e-02
5.480968928640311821e-02,2.646798480130069242e-02,1.309820101431321757e-02,5.785139203489282622e-04,7.661477741450483671e-05,1.589977333140604851e-04,3.236026865401180064e-02,1.238913883227869411e-01,5.216471472819190569e-04,2.261902413950858323e-02
1.007378913986051172e-02,3.531301870217590927e-02,3.869180076723879695e-03,6.388548802519604126e-04,8.359295048539099103e-05,1.696480920665274154e-04,3.911483837139059089e-02,1.416362607354077485e-01,6.424964225983733918e-04,2.260914965879479502e-02
3.148679694404080132e-02,4.211837766042594161e-02,1.535184954754787584e-02,6.834410524217940288e-04,8.721844237361273458e-05,1.770663403941113913e-04,4.060561035732784124e-02,1.523285646167365781e-01,7.474254055781955064e-04,1.994158305933070932e-02
8.847007831610883069e-03,4.530674733168498641e-02,1.248545020169655219e-02,7.110893480226753837e-04,8.741911011907833656e-05,1.811321250854269066e-04,3.514129246239877657e-02,1.381345500621694311e-01,8.337474015885663545e-04,1.019111554618900434e-02
3.017721636560486559e-02,5.298834555782624967e-02,1.215873002374571153e-04,7.210211501615032071e-04,8.420846309033844636e-05,1.817985169563806399e-04,2.757472392065123123e-02,1.039296425932765278e-01,8.992222215724412528e-04,2.396150469182450806e-03
5.687143740608043702e-02,6.363521617123689411e-02,1.314957606717531008e-02,7.128955791137596160e-04,7.770015605888942170e-05,1.790934754887479993e-04,1.901673956036534566e-02,6.536927389477389938e-02,9.421132275899293893e-04,1.500270104812768263e-02
5.989267689882069035e-02,6.737410477418233345e-02,2.571349103585734985e-02,6.868179427259630968e-04,6.809143019461767678e-05,1.731195208412278743e-04,5.694773630772862090e-03,2.777924019722540980e-02,9.612323394498643913e-04,2.972152362586496371e-02
4.359110898841696280e-02,6.144162703543438325e-02,3.906028927962874875e-02,6.433121327616384303e-04,5.563082180762934741e-05,1.640516129582564363e-04,1.106645770773561493e-02,1.059812564793331802e-02,9.559718387851947425e-04,4.444095808372758305e-02
1.553861162062604613e-02,5.109964422910233395e-02,4.854811522553945796e-02,5.833125711810050558e-04,4.062120838061953883e-05,1.521332874053905448e-04,2.288854862679368801e-02,4.362787311051485178e-02,9.263221237926048957e-04,5.062012528717897697e-02
1.685660333779154946e-02,4.049030220150774684e-02,4.487797782971478244e-02,5.082007630082174734e-04,2.347081886514816804e-05,1.376711380015047180e-04,2.514604504948815197e-02,5.947967921444761996e-02,8.728749071424269767e-04,4.420469038034469111e-02
3.802228642255992691e-02,3.088806097334527781e-02,2.544992329565965231e-02,4.197687626195169036e-04,4.676240721323270996e-06,1.210277733448601603e-04,2.430979968584821155e-02,6.063897098769299027e-02,7.968117030883090611e-04,3.258553517457511706e-02
2.933877160925192629e-02,2.301225148290431122e-02,1.221543498409373516e-03,3.200541662058294361e-04,1.531267091895790078e-05,1.026134122811063780e-04,2.987033123568642520e-02,6.832234518680467550e-02,6.998778089930243794e-04,2.565769438575422196e-02
7.701464138090340257e-03,1.660006893242026507e-02,1.142623274597427338e-02,2.112984966656319161e-04,3.609569846114307496e-05,8.287631808773389787e-05,4.054526758055489871e-02,9.289277213714219883e-02,5.843423425774803368e-04,2.274278311447886988e-02
4.787047330522328087e-02,1.173067131587953588e-02,7.262267069983366526e-03,9.615652526574769172e-05,5.706904563495521134e-05,6.229229931248640945e-05,4.593388478514993239e-02,1.132829516318463320e-01,4.529452404625514627e-04,1.558544985326550461e-02
6.993865011279250254e-02,1.076044562629419402e-02,3.227752065794506960e-03,2.237468777017434876e-05,7.744787729657116946e-05,4.135352759197869274e-05,4.363520926119546922e-02,1.078376475775545268e-01,3.088324475176947633e-04,4.248159815757213999e-03
7.319579724660404962e-02,1.457887292094358668e-02,8.417444605279371383e-03,1.415893539096122985e-04,9.684682413057983392e-05,2.055694002287042395e-05,4.424060663512330294e-02,9.203730582087647771e-02,1.554808221172360183e-04,2.767505079903068068e-04
6.119860605658510727e-02,1.927681811285691243e-02,8.292342507344426308e-03,2.591375847636017402e-04,1.152883554119229803e-04,3.925046523747481163e-07,5.411689390388567389e-02,9.764605644412580054e-02,3.385457754243427833e-06,7.062467575873903475e-03
3.123666542659254280e-02,2.037318447172080729e-02,7.331718220859951944e-03,3.718838314175971940e-04,1.320037141211311829e-04,1.866836844614301553e-05,6.420826280458107049e-02,1.248847961396409301e-01,1.638849850661685734e-04,1.636553853715505893e-02
6.482406935297877794e-03,1.629047718427297647e-02,2.015128113572977123e-03,4.759539705550598111e-04,1.454225726598423209e-04,3.618399104252595307e-05,6.295317395088705081e-02,1.440624737285182977e-01,3.220735388101186782e-04,1.625529086694070535e-02
2.264416418293526898e-02,6.145034958202254260e-03,1.358506936135784812e-02,5.693892557575467661e-04,1.557707433346412437e-04,5.175286566142423168e-05,5.136227046778248789e-02,1.370945583990673677e-01,4.740405339902579443e-04,8.056810238406196881e-03
3.141685256085898978e-03,7.983455457233598618e-03,3.168619999477722410e-02,6.523244309073460709e-04,1.651946416574428004e-04,6.502320569977018238e-05,3.873765288887000974e-02,1.128388416160971686e-01,6.160051549650631154e-04,1.611117165240733874e-03
2.814573317444560296e-02,1.717575306311202449e-02,3.390548220301759647e-02,7.215234680265864096e-04,1.722474107476845012e-04,7.570127523430347360e-05,2.932686317672252019e-02,8.745388044154418783e-02,7.444098158244045809e-04,2.722494188769611270e-03
3.629406792926086894e-02,1.671529695372944019e-02,1.559600287568755315e-02,7.700401665542732418e-04,1.715051537385984225e-04,8.355834498918464186e-05,1.833234503298647802e-02,6.600806875664275153e-02,8.560086444117567112e-04,7.882612385530597676e-03
1.131984499429741602e-02,1.725517771671251921e-02,5.525120618495732612e-03,7.990425765045714281e-04,1.653532743536612363e-04,8.843609386288403659e-05,2.270935436847411511e-04,4.109836919067419436e-02,9.479487962141387811e-04,9.053200309963847087e-03
2.394658358951743532e-02,2.754201378284311386e-02,1.296278951075878483e-02,8.189860478337318301e-04,1.651286839270959281e-04,9.025032253295322431e-05,2.014811918148789668e-02,7.807822428586424016e-03,1.017842568265235354e-03,3.669339471920374934e-03
3.116890495595198499e-02,3.480206342741793551e-02,1.000925907358691559e-02,8.245034145459920194e-04,1.659871913107149996e-04,8.899288610970211154e-05,2.835854103330763543e-02,2.071401086824577187e-02,1.063828497719977164e-03,1.144925870770867283e-03
4.480440869597770992e-03,2.484360918485671588e-02,5.330477836760067617e-03,7.913261959247425408e-04,1.438105427092375153e-04,8.473179561309855483e-05,1.708062080095937990e-02,2.671269501326132764e-02,1.084619889882341200e-03,1.603584043295192213e-03
4.740339804734799989e-02,8.285604969491175073e-03,3.023252986194548911e-03,7.298794737145418866e-04,1.087961358683095026e-04,7.760948216006661494e-05,2.145412789463166901e-03,1.644436994744771785e-02,1.079539520078686950e-03,8.182628545452597102e-03
5.092458810552617787e-02,5.175061024321875574e-04,1.478150799988715326e-02,6.932767856790964835e-04,1.134559117779247175e-04,6.783926211596364418e-05,1.197357649833304463e-02,1.165120771118706780e-02,1.048539585742454998e-03,1.096319213650903852e-02
2.075027842491503766e-02,7.230942995694145808e-03,1.493628071729311869e-02,6.630439845915159442e-04,1.383533193003414787e-04,5.570008501990558378e-05,9.839960598393853591e-03,1.301238221381635987e-02,9.922063414567600364e-04,1.079735192293392217e-02
5.314998242534215399e-04,2.716259899946763673e-02,6.329025471998541222e-03,5.288766900273017459e-04,7.188269819496899003e-05,4.152968778187580610e-05,5.606800731116824525e-03,2.378873950250342921e-03,9.117492218922916515e-04,1.261896628688389914e-02
3.167131221946354637e-03,4.339611570384704908e-02,3.231185956971995704e-02,3.320678217431826318e-04,4.627293098387228961e-05,2.571631745540189348e-05,3.461417443466167920e-03,1.799211004893441074e-02,8.089746365477406892e-04,1.455281356356901042e-02
1.379254438163075597e-03,3.320616351940209460e-02,3.890392637200793674e-02,3.178817350239843869e-04,2.727014859542464917e-05,8.689219869486957266e-06,6.408351669038578943e-04,2.420504713920764925e-02,6.862449967020386359e-04,1.217079057308764409e-02
2.271836045487361094e-02,5.662956871965250244e-03,2.743871159632128506e-02,4.208021605325838765e-04,2.248889050518943151e-04,9.091878296049714245e-06,5.892126529968906568e-03,1.365582060435713285e-02,5.464238997853430044e-04,7.993994412144976927e-03
5.847182375263117182e-02,1.055698958896063647e-02,1.833490058357224034e-02,8.049819983146257597e-05,1.603015393182088686e-05,2.714804153141975727e-05,5.404956039480935705e-03,1.298886084410724728e-02,3.928087404685052207e-04,7.039992751086084077e-03
8.815525153395584179e-02,8.061770011162464403e-03,1.835035061166673601e-02,8.231518289274502740e-04,8.180123655442512413e-04,4.499288031734803529e-05,8.253113045275483738e-04,3.445419530826326904e-02,2.290523326164545497e-04,7.440825033061659183e-03
9.982500556062399999e-02,4.220948999404650591e-03,1.561149309594365986e-02,1.417354214592174552e-03,1.310730802081387170e-03,6.214450512329867764e-05,3.446193223337622007e-03,5.551430607854863225e-02,5.907540397713834817e-05,3.040599315375468528e-03
8.709247805201102144e-02,1.022270977693012090e-02,4.907377074416748031e-03,1.060853987386231861e-03,8.554007042001500992e-04,7.813739046170234620e-05,3.910471782688456147e-03,5.065743208622777716e-02,1.130279409214924138e-04,7.352402544639939988e-03
5.259051091153850443e-02,1.810788887588434676e-02,2.089246006898444388e-03,3.890717577421981457e-04,8.985629565592919744e-05,9.253386135319223926e-05,1.793324884562354921e-02,2.036249573255338383e-02,2.830895106813916917e-04,1.783850950216445477e-02
9.607773960534750704e-03,1.744594285135833006e-02,4.651413293672621019e-03,2.691099228876041890e-04,1.165018983820574681e-04,1.049349229942419176e-04,3.126198206356456399e-02,1.568254224949344050e-02,4.469686621100075075e-04,2.124421916655754375e-02
