3.499562053385280036e-02,2.993555563813737191e-03,5.547971495710362147e-04,1.164562483576769375e-04,1.177689606042026018e-04,1.878717634562970329e-03,1.302075930532432986e-03,4.786369860148214327e-03,8.950038871414335660e-04,1.027071275010568718e-02
2.301763902033403340e-03,3.152640067352840275e-03,4.986432370277844471e-04,1.090932853045273115e-04,1.041104889969667432e-04,2.711510858799737363e-03,2.972896788418950831e-03,9.587780301501011397e-04,3.878618845419678617e-03,1.540523185575443099e-02
2.017193672862125503e-02,3.350397295183838928e-03,4.413775803348195465e-04,9.962698173171797135e-05,8.690082903841126957e-05,6.778115553399266004e-03,1.175499395809296091e-02,6.696436734438927264e-03,7.404903539862640709e-03,1.617897337151931111e-02
2.525112452105218036e-02,3.551292730798401558e-03,3.823238912493818098e-04,8.817628771422018267e-05,6.631073728741470783e-05,1.173865851358222613e-02,2.306586596917515469e-02,1.502514553676682039e-02,8.667368780060361738e-03,1.422797812209514005e-02
1.840081748822664648e-02,3.650036589834537715e-03,3.211895941980452500e-04,7.490224291117734707e-05,4.257262314730946755e-05,1.506744282830066277e-02,3.256253035807923218e-02,1.058139154938761255e-02,7.450043158612080878e-03,1.187024454841393260e-02
5.940366550819046500e-03,3.738920224566547827e-03,2.586930801137026165e-04,6.000426432285309167e-05,1.598348215941570484e-05,1.686832653337767829e-02,4.085503242480335168e-02,1.668831729513209567e-03,3.478010776478314935e-03,8.710084416164061427e-03
3.294483711622172174e-03,4.036794966756850588e-03,1.942715527403787062e-04,4.371551426937693148e-05,1.300518475328675419e-05,1.847671421979919099e-02,5.021813735735480844e-02,4.985909142251611706e-03,1.365091624843621640e-03,3.438779501534807489e-03
1.565919510564027506e-03,4.065878621802661644e-03,1.246891880321930992e-04,2.629746148778432959e-05,4.380556692809950246e-05,1.952326104841172610e-02,5.725296136125932606e-02,1.893917293159534145e-03,2.559550237831247164e-03,2.005702431352552034e-03
2.068286425655639638e-02,2.389781612419679749e-03,4.891610764812730710e-05,8.033768351680129472e-06,7.595695958279204000e-05,1.875579018034078879e-02,5.605781077874109203e-02,1.725801242460644688e-02,2.083067942925889357e-03,3.275510519546479329e-03
4.273933489734240559e-02,1.406407599415431930e-03,2.873960988886648798e-05,1.077634590122656270e-05,1.091277577560037374e-04,1.730231350429253800e-02,4.929815857649998134e-02,6.054165459043681780e-02,8.921417329583541944e-03,1.457232595330801078e-03
5.890658629967459453e-02,4.451319032549213781e-03,1.089262075710832264e-04,2.982510281525278497e-05,1.425671360473107247e-04,1.806489555894949875e-02,4.632415020381656229e-02,1.052900429839257329e-01,1.244869304952517242e-02,9.472542354781196203e-03
6.676373269826404999e-02,2.743753979155213324e-03,2.041516009251003610e-04,4.880335088938139373e-05,1.751237354545490241e-04,2.122550310479107485e-02,4.822818042632238955e-02,1.168334868866773568e-01,1.104926414797143333e-02,1.601039149234145115e-02
6.536155386820317881e-02,2.962264138215985141e-03,3.169155571516615280e-04,6.740776295257850206e-05,2.064686715263680029e-04,2.355055672876043421e-02,4.550652860206828160e-02,8.868209685653984098e-02,7.469397215148687943e-03,1.773613880413008395e-02
5.622397761088723106e-02,6.170224606399114277e-03,4.243252370694554571e-04,8.534786678349568130e-05,2.371317048801001878e-04,2.316722152460221062e-02,3.319510061689520675e-02,4.755716945965576814e-02,5.222278618677703155e-03,1.454700858543146041e-02
4.252454360383010890e-02,2.654863518509564205e-03,5.243184590002903213e-04,1.023527347308686870e-04,2.659294590750820747e-04,2.129655477265436983e-02,1.802937398431399621e-02,2.652763845494912273e-02,5.282301346892318353e-03,8.831663631579096327e-03
2.452867145438734214e-02,3.092012155261399976e-03,6.696443711435330626e-04,1.181771661684928284e-04,2.898638095435961798e-04,1.812853816683859809e-02,7.873830602069193177e-03,3.145399157862777823e-02,5.783211012364427098e-03,3.367749622122402382e-03
5.766028216644852530e-03,3.854330853425299609e-03,8.699510233813854704e-04,1.326072089185587489e-04,3.096553568263649939e-04,1.162842578650363431e-02,2.917950795008242715e-03,3.807207089669760458e-02,5.142602722123469118e-03,2.185177466904057904e-04
1.523108013053202196e-03,4.858967061179738636e-04,1.016576608746896796e-03,1.454648818091428106e-04,3.301440003382421183e-04,2.372239556970957147e-03,2.137541936328350538e-04,2.701583949351417033e-02,4.544162180892943013e-03,2.106546331388616574e-04
7.800078537107989381e-03,4.566889316366300536e-03,1.089617782843287780e-03,1.566119798062175737e-04,3.485162218888444245e-04,4.935400990912311783e-03,6.964338935313862423e-04,7.195775206142533340e-03,5.664256282748967794e-03,2.106679665935789342e-03
1.777925888735622587e-02,6.194133893175808592e-03,1.323896239484708944e-03,1.659528656328035281e-04,3.531730101121623297e-04,7.286452591723995009e-03,8.140525540423744835e-04,6.545718218262655194e-03,7.380013263771316792e-03,3.546920117256265742e-03
7.681330079910197485e-03,7.260828019604809516e-03,1.770857074830163146e-03,1.734361771468517506e-04,3.488683789035985547e-04,7.343573575951615334e-03,4.726188772538475122e-03,1.847932668737585493e-02,7.356144418573750537e-03,3.455913935721564596e-03
2.480509383558563916e-02,8.393030219487798704e-03,1.931949221963194649e-03,1.790554064839009136e-04,3.598027622694645582e-04,9.356376782068989012e-03,1.615415444910121151e-02,3.628796470311768801e-02,5.743790674410422827e-03,2.169236908349437068e-03
6.499145584682519683e-02,8.666245679923559667e-03,1.686818711781843403e-03,1.828483339012669821e-04,3.760293602564646889e-04,1.319070622182749557e-02,3.258420051897011060e-02,5.002034186293155549e-02,4.487752380919370933e-03,3.561574377997743642e-04
9.540762910830508092e-02,9.071982264875396926e-03,2.118096768653623691e-03,1.848953276191160784e-04,3.454498298186143277e-04,1.412460081363870780e-02,4.481509532134440171e-02,4.789639464447960349e-02,3.778306668821623891e-03,4.437349681046431210e-03
1.030194815909162565e-01,1.052294258551444983e-02,3.525069496840617291e-03,1.853165512125353181e-04,2.880681410008803988e-04,8.400882334993526115e-03,4.230774599281442172e-02,3.582604301382872475e-02,2.188223913204141637e-03,8.828834201738255255e-03
8.482884724573988566e-02,9.406683816081232857e-03,3.192554285204255403e-03,1.842681475091479000e-04,3.161921747062748081e-04,1.306428779428966784e-03,2.546075949286758996e-02,2.338340233652890648e-02,2.144791241351177709e-04,1.089319365281769814e-02
5.473772191975970897e-02,1.857098950496668737e-03,1.338757700767643230e-03,1.819374892057689286e-04,3.909525343985189466e-04,7.193609963075076399e-03,1.183576644833219185e-02,9.956803091380535264e-03,2.373536486745076845e-03,9.744463642976894033e-03
3.782730300499921594e-02,7.518060403540820572e-03,6.943935229517383435e-03,1.785376095045852188e-04,2.698769962226794938e-04,4.264586941086385800e-03,1.858610230822172957e-02,1.367938390011627127e-03,5.436987625144241824e-03,7.929331185303775328e-03
4.815916272737080089e-02,9.587904054534605522e-03,7.749938669617240615e-03,1.743009561918948229e-04,2.158427794967198143e-05,4.534029582790720381e-03,4.010663038220695781e-02,8.740142965996101042e-04,1.120868879422009731e-02,7.976278781126548700e-03
6.907208903759103069e-02,4.784953965585303330e-03,3.483792222940297178e-03,1.694726309895084660e-04,2.097247540228499630e-04,1.216581033908849772e-02,5.669726203235508910e-02,4.521354254851932958e-03,1.769950490527212247e-02,8.816944283488193160e-03
6.289074701702586367e-02,3.738424727558489757e-03,6.303648067349433993e-04,1.643032694142903855e-04,9.578518974679030686e-04,1.405128155273900614e-02,6.011379332753643417e-02,7.723774863545314340e-03,2.086749625984089113e-02,8.514523297924275064e-03
1.344521116992872592e-02,1.134536414475466673e-02,2.135570845796785303e-03,1.590417230412356732e-04,1.396666136630805161e-03,9.762698349549441684e-03,5.450827347926878036e-02,3.952318487499118654e-02,2.029690543530368943e-02,8.029690019698635869e-03
4.559427283322776969e-02,1.970023856183372724e-02,3.247436281659060470e-03,1.539277541797098045e-04,8.884311256096737771e-04,1.956666581984528412e-03,4.184896109854097795e-02,6.229386214567526198e-02,1.868084502406021363e-02,8.333707547657519255e-03
6.569589049977615780e-02,1.993436980192270572e-02,5.012715991230179587e-03,1.491849607021300311e-04,7.194872943378313344e-05,4.003219508724824120e-03,2.628871726014397545e-02,5.524580628693877976e-02,1.705245911734455666e-02,6.895772541402334088e-03
4.434772539819324677e-02,1.260185848946409823e-02,5.956101023254701220e-03,1.450140531976854919e-04,1.826265444679463917e-04,2.927430115992249188e-03,2.197777306816208615e-02,3.334499135239450684e-02,1.491959942708715250e-02,1.594964900250687295e-03
2.652833821648953316e-02,3.397858504465861140e-03,6.026373118083290341e-03,1.415865806804202749e-04,1.975866344430636523e-06,4.296451433009482179e-03,3.541450586104402665e-02,2.462594961176287761e-02,1.307971534176372193e-02,4.506875209735715371e-03
4.632459671594331418e-02,3.728926762617656553e-03,6.352807839902603441e-03,1.390393837557910961e-04,6.314257288237600440e-05,1.012643909335634099e-02,5.012389735690764292e-02,3.369976445252000075e-02,1.187929794364835263e-02,6.073877471740853073e-03
9.187262118459771365e-02,6.217091027771536917e-03,6.078394500163956243e-03,1.374700802444116167e-04,6.687178889613934983e-05,9.020136386195672443e-03,4.747242389798429080e-02,4.282555689993632758e-02,8.552851366951254308e-03,1.679532415451147950e-03
1.297941270337775177e-01,2.898653368913581274e-03,4.200446350843536555e-03,1.369334522028756206e-04,1.454315129013230136e-04,4.638791817620638476e-03,3.300600607757622762e-02,4.148455991262450099e-02,6.058101916671450749e-04,4.572567723359255779e-03
1.406372714142922198e-01,2.309623577927747123e-03,2.931349250074211533e-03,1.374384781310408711e-04,1.335292173021749131e-04,4.235733292960543184e-03,2.541068003242445000e-02,3.607359757764599245e-02,9.230772818959422782e-03,7.029436133260854626e-03
1.237996572084620189e-01,3.075483485112872999e-03,4.517949782633205909e-03,1.389466140684022816e-04,1.422629873572354823e-04,7.311262711028277718e-03,2.679588767051491183e-02,3.075136149315145853e-02,1.528319865160976225e-02,4.392325355839696126e-03
8.668304525324320442e-02,7.429196636987156488e-04,6.503045755701408401e-03,1.413721405237140176e-04,1.908185804905834055e-04,6.499465736988015163e-03,2.095126365446364422e-02,1.840066925312782570e-02,1.579171587162382304e-02,1.315976277122645529e-03
4.059587001664077821e-02,3.371783032903656954e-03,5.050524812067462566e-03,1.445834782858885365e-04,2.290747284311490950e-04,7.859949502118270112e-04,6.929344689039808325e-04,2.955820656029244445e-03,1.440527942982872643e-02,2.726900910444986312e-03
6.475148552326994052e-04,2.283837667097911566e-03,1.158865803970259966e-03,1.484037833006026253e-04,2.488249847648517235e-04,4.566649260878121938e-04,1.805303851955750161e-02,2.006431138481546902e-02,1.512986436895521515e-02,7.764428474478978111e-03
1.909529920197563027e-02,1.664947619080257065e-04,1.568119218611135034e-03,1.526131128045350922e-04,2.705762892993014940e-04,9.047145217206620238e-03,1.648948268945182871e-02,1.971613100970679572e-02,1.822392298920012116e-02,1.117299932397344472e-02
1.527354452310950017e-02,1.577570887346882531e-03,3.250613757428131353e-03,1.569557348936102305e-04,2.962863589276134766e-04,2.235625614744023507e-02,2.304289399692587351e-03,3.521121038737052948e-03,2.079341609871608945e-02,9.604577419927247048e-03
1.695122482651943013e-03,4.325047246316765862e-03,6.174731030377146254e-03,1.611475950142493997e-04,3.236995807709315554e-04,2.811067365355591000e-02,1.845895675471512926e-02,2.007207165195162499e-02,1.972601409298715275e-02,5.463237852207650062e-03
1.992238251388830234e-02,7.385109862409007866e-03,8.791499257128687628e-03,1.648759121885262483e-04,3.582276157381908735e-04,2.345873750775202132e-02,1.965060669542154428e-02,4.654250687365925343e-02,1.425194856512031379e-02,4.550209211437597837e-03
3.648756828441960393e-02,7.487401409857604752e-03,7.248084939875041634e-03,1.678009991208903910e-04,3.874180276047850448e-04,1.371656391061372958e-02,1.097131591266886468e-02,6.855733832858086629e-02,6.318581548193928817e-03,8.941610595361308006e-03
5.209676237699934626e-02,4.633221748861599334e-03,2.226422810946364350e-03,1.695772976842183598e-04,3.968022134304267337e-04,5.138280994753836872e-03,4.665356711311040294e-03,7.277251552353151964e-02,1.755032098681066259e-03,1.278660794538500657e-02
6.819146752768937003e-02,4.250472709985572001e-03,9.773206892713342912e-04,1.698720415513137432e-04,4.230635266586017101e-04,2.377008581226678664e-03,9.746840184627913323e-03,5.762938551209488558e-02,9.380015236812361615e-03,8.109825493537980642e-03
8.903795228433870890e-02,9.842068630284514508e-03,2.986617524875761348e-04,1.683441730362590812e-04,5.018847559778401909e-04,7.754066257148297878e-03,2.876206038581838320e-02,4.148071716891146149e-02,1.636522183069257647e-02,5.460596590579998820e-03
1.103525038360999855e-01,1.639381193373350490e-02,3.030740485072147897e-03,1.646280860460848047e-04,5.534329346924143651e-04,1.864616633099045948e-02,5.583729868481696057e-02,3.830775899415037739e-02,2.028019012904755045e-02,2.012372639468942848e-02
1.146649507805977686e-01,1.633059461427759790e-02,3.795946763602502973e-03,1.584025938942340897e-04,4.997607659774510897e-04,2.870034940153310191e-02,7.907809814081845357e-02,3.732959615701882117e-02,1.763863337421623864e-02,2.861267227651237768e-02
9.384631367862250606e-02,9.634001154587897714e-03,2.832325175566610849e-03,1.494514445224195140e-04,5.149941012219090650e-04,3.364817949738464070e-02,8.835626576890909245e-02,1.957457487154481979e-02,8.957449709691815004e-03,2.961192951133514301e-02
6.072956499960622395e-02,2.385009127300506074e-03,1.295172417860934039e-03,1.375406575023815209e-04,7.835703970531109107e-04,3.396087071753994130e-02,7.991022699129139706e-02,1.476784912001132336e-02,3.500892867833605565e-04,2.510723687389983250e-02
3.018004105243385707e-02,2.111208438860974305e-03,7.678588331949327047e-04,1.223076252726063625e-04,9.078247640895885850e-04,3.253801375043575278e-02,5.839056771130878704e-02,4.400800345732767960e-02,2.863186040922427109e-03,1.750083302658970649e-02
9.640230194797132918e-03,4.840095183693287999e-03,1.857570717684029838e-03,1.035396906134687553e-04,1.968445439847950362e-04,3.182256026067880467e-02,3.775853378989947606e-02,4.528494640353019490e-02,2.427145199801572333e-03,1.006678996924207682e-02
6.208884441469130801e-03,5.900295998031985893e-03,6.845289243096140935e-04,8.143525632006267724e-05,1.143236359451075407e-03,3.203854688693730246e-02,3.154674888940634664e-02,1.596311290340696187e-02,3.625621205774665849e-03,5.861859560244723523e-03
1.757725469388170952e-02,3.929340696325858868e-03,5.937938489219890537e-03,5.602974062301428732e-05,1.861792458744000820e-03,3.135530774745572125e-02,3.870196361126050644e-02,2.276011874219381614e-02,7.535603225544649023e-03,5.461523500397112013e-03
2.302234524830528914e-02,5.802842936138404104e-04,9.314853146911654391e-03,2.663377658734846146e-05,1.140968095473655908e-03,2.827858051627029148e-02,4.548494637117793393e-02,4.498688004321892836e-02,1.082828222748986879e-02,7.989215572169014457e-03
6.398191580681340807e-03,4.738403509716433530e-04,8.874764185222344670e-03,6.948226911645570951e-06,4.373393451580490283e-04,2.345462840424778275e-02,4.119277059470600327e-02,4.258278836011342161e-02,1.148943295249167315e-02,1.275657311793689484e-02
1.930022897108514546e-02,4.863799422098654020e-03,7.872031032194489950e-03,4.318293387003729802e-05,1.618102844377911943e-03,1.911745043167548813e-02,2.750299010966304747e-02,2.717435133891135668e-02,1.040518723386525332e-02,1.852170193814839383e-02
2.543478051492055469e-02,8.750615683504827172e-03,9.223314502677342278e-03,8.137849331572905205e-05,1.572244590237298475e-03,1.641902311604459541e-02,1.282760962295512695e-02,1.404868608672679361e-02,8.022934091165242684e-03,2.348185245111375843e-02
1.616837040170433261e-03,7.093606637101025278e-03,1.085603993034299150e-02,1.243934906983414296e-04,4.621794688344469130e-04,1.216014777445184429e-02,2.920795141334244123e-04,8.565880762705237184e-03,3.484249591234235641e-03,2.578367133199568895e-02
3.024743207222670496e-02,1.453530412469497112e-03,9.036984999381061923e-03,1.732259642658389928e-04,5.452244884264646069e-04,1.344960990329135400e-03,1.755067463032231045e-02,5.318939504617222966e-03,2.603712407712994656e-03,2.280271268675373997e-02
3.598777587036838116e-02,2.981194026074820199e-03,3.987779038332391404e-03,2.210982022715387684e-04,3.577678927001536448e-04,1.352539248876471686e-02,3.935483856755532528e-02,5.141431521556061486e-03,7.736134529866578111e-03,1.344998611671142583e-02
1.796508273856738981e-03,3.951862828974028741e-03,6.595648373983915846e-04,2.648727922059834652e-04,7.793248634620155053e-04,2.213757754517715545e-02,5.432638720799686655e-02,2.849837119351420964e-02,1.004905757605488101e-02,2.040160800706593974e-03
5.482830078457183454e-02,1.244462509327559727e-03,2.927061884088960793e-03,3.180006423901103217e-04,1.882441101595062980e-03,2.124735485865257567e-02,5.509628890037240878e-02,6.014731169695362867e-02,8.567817177165776982e-03,5.709879728495529695e-03
1.003933901808272133e-01,5.649423606029458159e-03,4.050837108046865566e-03,3.864983291969803156e-04,2.476453329615521930e-03,2.048250849678613997e-02,4.920553052621337575e-02,8.433594313345753324e-02,1.912549210324308684e-03,1.069889063936886250e-02
1.062096882552499288e-01,1.264041765677177166e-02,4.899061176724723958e-03,4.406907891005598351e-04,2.223912063174283277e-03,2.554091954968860934e-02,4.431306376874970254e-02,8.539773724416264977e-02,9.623473969464014718e-03,1.809611424011303010e-02
6.787166198821226182e-02,1.070809235038519547e-02,3.964393440992251480e-03,4.658012430991175044e-04,7.231552520542867957e-04,2.748569119944116457e-02,3.677287654630493480e-02,6.480532722262807854e-02,2.135303618543795204e-02,2.787857331006216022e-02
1.687893918816887190e-02,1.959404974548261194e-03,3.114413615499344971e-04,5.236489900100965104e-04,1.307963210173900513e-03,1.877793584614719305e-02,2.559073773048654507e-02,4.183551427146803281e-02,2.707417582433038067e-02,3.471538567315615026e-02
2.962138448982273679e-04,1.499107504153300054e-02,3.993890026180084082e-03,6.462411109279988641e-04,2.532916641380458366e-03,8.374307877486742227e-03,2.210505039555219625e-02,3.150014030514398933e-02,2.501637301229253305e-02,3.629327045548667863e-02
3.446741074737116189e-02,1.916332695704239808e-02,5.810087300805256809e-03,7.011156703022624649e-04,3.159727091739214944e-03,9.650359193064598010e-03,3.425009226715521743e-02,2.787436766886568912e-02,1.837522304806505496e-02,3.494678554126570691e-02
8.580993688243115924e-02,1.608870432122360555e-02,3.310807161783418072e-03,6.149563400082290899e-04,4.289892809875551181e-03,2.180304514575976890e-02,5.485178760344088661e-02,1.611211235478184067e-02,9.469096031506260905e-03,3.192129385572155947e-02
1.075810217949859648e-01,1.069008814124713068e-02,3.384956441459736117e-03,6.699244966539873777e-04,5.160560173533538901e-03,3.321198731816028815e-02,7.495681210950269624e-02,4.525252907545818451e-03,2.696502875793914747e-03,2.620637531892862360e-02
8.965080957514359739e-02,4.305334830707049226e-03,1.095057156818740433e-02,1.040659011485450813e-03,3.751044189254325138e-03,3.770057761504358451e-02,9.554265725381064223e-02,1.781849205938333333e-02,1.627458144636629439e-02,1.833289561731466996e-02
6.095333341121752374e-02,9.906597878516767638e-04,1.325634309432986713e-02,1.094673117883920507e-03,2.114655280482632732e-04,3.875850118925852628e-02,1.173026011337443414e-01,1.052557850983338109e-02,2.319557476709601523e-02,1.056679077849046605e-02
5.024363390702332732e-02,9.554439681185029464e-04,7.255793633103958112e-03,1.450265445787957174e-04,2.813705664329149529e-03,3.999093411802718406e-02,1.311887761479477998e-01,1.007801363880222664e-02,1.814502337867809553e-02,3.977276487782240022e-03
6.407078659453718794e-02,3.812463376015373662e-03,2.360328413637196188e-03,1.059747235704928004e-03,3.582198691655688431e-03,3.926535363216308167e-02,1.288194427800208597e-01,2.377650794287624811e-02,6.746992970063524567e-03,2.273331948308177607e-03
9.716287119803398986e-02,6.568546651825042486e-03,8.130985264219103489e-03,1.010492065306198154e-03,3.046709138987289435e-03,3.437811557295364362e-02,1.139836080696064319e-01,2.254852440888890225e-02,1.430495069888766593e-03,9.268015772933430041e-03
1.353220002973053171e-01,2.944431534725041981e-03,7.700058662171961436e-03,2.886523262923616469e-04,2.955001188360781902e-03,2.905320993690644130e-02,9.648381613829001835e-02,2.000637068826035397e-02,3.146450630245275527e-03,1.597596659796057111e-02
1.504565466880773417e-01,4.547230475182718890e-03,3.519809677220442530e-03,1.327069918906063602e-03,3.556642446412903221e-03,2.804427671030776045e-02,8.091498658892642970e-02,3.097571807626768939e-02,1.436956624963578477e-04,1.900451236973715874e-02
1.250586384006710516e-01,1.145023905372361678e-02,2.099841267779325050e-03,1.366840695567595951e-03,3.682910285454768506e-03,2.886711726623897301e-02,6.643984416123416281e-02,5.034751862443136161e-02,6.952759588532878877e-03,1.695847982757879568e-02
8.130324563060482845e-02,1.591648777221006672e-02,7.853166771595997131e-03,1.100025928813079317e-03,2.639707962822446154e-03,2.487858070111946540e-02,5.204298796686219336e-02,6.141492517897748082e-02,1.387760389650303898e-02,1.324259050673746822e-02
5.761740849306224571e-02,1.818755353194068461e-02,1.204435495095981280e-02,1.139644835278833500e-03,1.450103629451779874e-03,1.605329670367669492e-02,3.880527834039552981e-02,5.960864359849060018e-02,1.653028140819842728e-02,1.064420762689602222e-02
6.140370730212593026e-02,1.941687944425342024e-02,1.367210255681956636e-02,1.298562425473694321e-03,1.567231824353895134e-03,1.090385657064399903e-02,3.174303418266835597e-02,5.669236909926729517e-02,1.629868249224701582e-02,5.988593595450938077e-03
7.118527920644009133e-02,2.074642345403336294e-02,1.381102394660163948e-02,1.333971316475852020e-03,2.791609151590154943e-03,1.701346436093789660e-02,3.897145988578096937e-02,6.290413735006591955e-02,1.922356713422247732e-02,4.671327132509808105e-03
7.478378297269602792e-02,2.173682859010707055e-02,1.461212276763445596e-02,1.346598476641229589e-03,3.772533526732504191e-03,3.232998234485272987e-02,6.064491343375623400e-02,7.612908943987940769e-02,2.592195724951719404e-02,1.818668184525455006e-02
7.684811996577432802e-02,2.127391523187677908e-02,1.738694555356853563e-02,1.387781893108998256e-03,4.035363981147956428e-03,4.555043346505748686e-02,7.953367742853210964e-02,8.994258730643889255e-02,2.990988636087912531e-02,2.705267449730916485e-02
7.809824807428052129e-02,2.057229618930190435e-02,2.123101998714211833e-02,1.374710486533788426e-03,3.870621345148850343e-03,4.546538062190207813e-02,7.501620380472361072e-02,1.015145403975376698e-01,2.789510112625651767e-02,2.792710573655026937e-02
7.141879427364559996e-02,2.222978106333257931e-02,2.300301403545158135e-02,1.389467477210501933e-03,2.837787425178070738e-03,3.200909322251221933e-02,4.864085189731489484e-02,1.076753047675564207e-01,2.485993968302320153e-02,2.244204720345820137e-02
5.110892551092966613e-02,2.516542390187278058e-02,1.973378557130129815e-02,1.296013439792828396e-03,4.942812739566809961e-05,1.690670961555887364e-02,2.451343791952478174e-02,1.021886506239923775e-01,2.621761334744628427e-02,1.207109210393737808e-02
1.606103201810949593e-02,2.414949784980418776e-02,1.187681546379971281e-02,1.314146991683103505e-04,4.266335877227396198e-03,1.198720122461712292e-02,2.290006108161598761e-02,8.414090136261521968e-02,3.015524285449483477e-02,1.794750528569349652e-03
2.222889410277202257e-02,1.733783228225292336e-02,3.803429804564991551e-03,2.661424279986380776e-03,8.375148737787755163e-03,1.919727320040040541e-02,4.385134451266433503e-02,6.370110319864531745e-02,3.135820975599816485e-02,1.401687154227404530e-02
3.834596674933549859e-02,1.086000340044419345e-02,4.113643395472012286e-04,5.204067245892386034e-03,1.021648673528344729e-02,3.198743751112994443e-02,7.479099599035851642e-02,4.864455487462987504e-02,2.920859720226162692e-02,1.823839465748350666e-02
2.302356032148598214e-02,1.107601197369768344e-02,2.550967806393597201e-03,4.732015683841067112e-03,8.929865564041870873e-03,4.218758477104408294e-02,1.007103401293416023e-01,2.905225837421707147e-02,2.777730918062717297e-02,1.387950809197654317e-02
4.156105441307235762e-03,1.506185443054915314e-02,5.943716011998259954e-03,1.683613250221588278e-03,5.379065590391463730e-03,4.502271251385396578e-02,1.087527775294629545e-01,5.789813471176495814e-03,2.851029900910400858e-02,5.957861156833017119e-03
1.291895637196221851e-02,1.449762275386615000e-02,5.413759619911917564e-03,6.835824390556100808e-04,1.289755037973862187e-03,4.023357040793713174e-02,9.465777037249531456e-02,3.990809330710341080e-02,2.737969646309145258e-02,1.832680964257182073e-03
4.425683707666561162e-02,6.907233241755241296e-03,2.237345754584161173e-04,1.029337989491852347e-03,1.927032961826136061e-03,2.863786301030531514e-02,6.133024997675017020e-02,5.040698753590198283e-02,2.008480398394839675e-02,8.544054878650829757e-03
6.957394099680722088e-02,2.185857322296480554e-03,8.059431620629175369e-03,9.663375076515532281e-04,3.683593313772619629e-03,1.000422763257665174e-02,8.922895448383883973e-03,4.919694007143370074e-02,7.386106556335678835e-03,1.211944876967165075e-02
6.724398321205478368e-02,6.496785143348102198e-03,1.456709329450367463e-02,1.545116798448342623e-03,4.197459714296600773e-03,1.113726199296245258e-02,5.677591490738456009e-02,6.519928101518090990e-02,4.912047557941534234e-03,1.174170494342076029e-02
2.998387579023271271e-02,4.190296752236032617e-03,1.793004117078947357e-02,2.041440947056534158e-03,4.152240407842429717e-03,2.303612244440794710e-02,1.072704353649888143e-01,9.187767977995002500e-02,9.987079210362469900e-03,1.248269383329610009e-02
2.958328835139869759e-02,2.259105966017940087e-03,1.782663158499972478e-02,1.991152190692424898e-03,4.085513431047660057e-03,2.011679536117389616e-02,1.132326305648577863e-01,9.621461554414813266e-02,5.339881109706403131e-03,1.943242198733859810e-02
7.091560968083472638e-02,7.705559531168201283e-03,1.463671473312363851e-02,1.841411119884909771e-03,4.091470379521205090e-03,1.364883691441346261e-02,8.712447397386557935e-02,7.224493192218581217e-02,3.986752417252237626e-03,2.866519517106192252e-02
5.252492523447804124e-02,7.114447822935650485e-03,9.498229292466124629e-03,1.844230044008836160e-03,4.143045671842692304e-03,1.786253495462272051e-02,7.235115764062072241e-02,4.681773171186774662e-02,8.125589837471615395e-03,3.135922895862980342e-02
1.790490696396895495e-02,2.807917507815797169e-04,4.517428390094857006e-03,1.906388274789695301e-03,4.292019444396423522e-03,3.165295935102019342e-02,8.685198314708790501e-02,4.053341136984974641e-02,5.075107998552995858e-04,2.554817474369274269e-02
8.036390636014179023e-02,9.983622855046166839e-03,1.632440121542814418e-03,2.094329745558962032e-03,4.304729373499401740e-03,4.444222945653616974e-02,1.080892573013659819e-01,4.932477731675969507e-02,1.557797997587521271e-02,1.803478565512974668e-02
8.551422698426308644e-02,1.677135013130083563e-02,5.873551213478869423e-04,2.236601372427125551e-03,3.429744523282713363e-03,5.183991809893283287e-02,1.153261545357132101e-01,5.495793025821508332e-02,3.007986712147650218e-02,1.556114397062137444e-02
4.996216597041786694e-02,1.951410004122113712e-02,6.368479331263514256e-04,1.589725404777571219e-03,9.706763145661310250e-04,5.530399295954838146e-02,1.151450405953957645e-01,4.243150292302637350e-02,3.703191235681820015e-02,1.801268841570363710e-02
3.371235744018243052e-02,2.089150866682972993e-02,2.207678476417549752e-03,2.618972918814190215e-04,2.529060203826727273e-03,5.422918928786708143e-02,1.182724494147656402e-01,1.846231422208145442e-02,3.954727112285884305e-02,2.020160037405180353e-02
6.882576236051583807e-02,2.348747067662079052e-02,1.581351121130385607e-03,2.744007247797946789e-03,4.942973612858337674e-03,4.765546609329065347e-02,1.176561546469582914e-01,1.051705853649345310e-02,4.244390724328827441e-02,1.809861943837554055e-02
1.269205533859315282e-01,2.709036132749943412e-02,1.876740621287740010e-03,4.971093862949804709e-03,4.775808424550766380e-03,3.924640443410786633e-02,1.025836815279369957e-01,3.274785780529763934e-02,4.437119305010288339e-02,1.217743530296137161e-02
1.560906526523566651e-01,2.929260995287206668e-02,4.671732899809483489e-03,6.112641624788811220e-03,3.685079342365717332e-03,3.430268496945931833e-02,7.775654944220054821e-02,6.211140582401016019e-02,4.035009425707242886e-02,5.162139277170601191e-03
1.353853790744070640e-01,2.780958713460140661e-02,3.967992219861759921e-03,5.078711007489212885e-03,4.448666410530804222e-03,3.325627166445178223e-02,5.451208143550415747e-02,6.522825146196185864e-02,2.896180025985251039e-02,1.147297447622897979e-03
9.216022690555046581e-02,2.241234216285133488e-02,1.289782812038324554e-03,1.807908404764368288e-03,6.663309278682751427e-03,3.169565495194889837e-02,3.434851364740436341e-02,3.921021446668174898e-02,1.497184373608277143e-02,5.769935700788640133e-03
7.450778892802241427e-02,1.566184327706893545e-02,3.639574349719384982e-04,9.526298227427944416e-04,7.722250015687129494e-03,2.740946166840262793e-02,1.547600699359232869e-02,9.901169471752055418e-03,6.271312506370814444e-03,8.204186755785844096e-03
1.034428274969754757e-01,1.155880201238319860e-02,4.075429116496344676e-04,2.230970858246255999e-04,7.364743480057698438e-03,2.436456362712504167e-02,7.006750530288381740e-03,3.693016496679245829e-03,7.503644904478951223e-03,1.007784285970751183e-02
1.489242221841019231e-01,1.199436840262319871e-02,4.410714487541021050e-03,4.837301675460267160e-03,7.416067076274199775e-03,2.725101125334881275e-02,2.030149842258878803e-02,9.974037245948173119e-03,1.512760695752799443e-02,1.442366940958433180e-02
1.620451764368403824e-01,1.449430113200663242e-02,1.204809142272264717e-02,8.317779760176955209e-03,7.843327736762857952e-03,3.525007343745069355e-02,5.022806389426914819e-02,2.948582391960546945e-02,2.043927848583810408e-02,2.174758091716941927e-02
1.283479317696404887e-01,1.480412548805687227e-02,2.087082880206390587e-02,7.248247405143362632e-03,6.687323205066798837e-03,4.425695690244058067e-02,7.821387631299460408e-02,6.428074829079490071e-02,1.892801214565248760e-02,2.888125551677918693e-02
7.359398472770935229e-02,1.153618561710588117e-02,2.599736015549802479e-02,2.919707097816717084e-03,3.529540424656354633e-03,5.128732899100216930e-02,9.118830424533914958e-02,8.799212703152811677e-02,1.439356079988369543e-02,3.200697456929128826e-02
2.502497066462334996e-02,7.274855255360299956e-03,2.502240589790266645e-02,1.061584809185292955e-03,5.667970771779082305e-04,5.385144631043117108e-02,8.853340000470602544e-02,7.330214445383446964e-02,1.244148533039623160e-02,2.998877077852010742e-02
8.664980443382899050e-03,5.910621796648027511e-03,2.115718623195792306e-02,2.798120441008004281e-03,5.454764766153958385e-05,5.007558185695404340e-02,7.544803903827004832e-02,2.691360003212838609e-02,1.391224643591072209e-02,2.666124285662891530e-02
2.503845370713570981e-02,9.526776201727748042e-03,1.967814327315336315e-02,2.387273007159369971e-03,1.036318643889830825e-03,4.277892102523176560e-02,6.054828431262097854e-02,1.585231708704822745e-02,1.785543050736214041e-02,2.924859856370903496e-02
2.289770255166303711e-02,1.633965463323444264e-02,2.157671894129375295e-02,2.999527407172508046e-04,1.235432027088847941e-03,3.903978726089619988e-02,5.834841935693303033e-02,3.246528420391441017e-02,2.580886830345769517e-02,4.033139160005431295e-02
1.113774251938426212e-02,2.147784856693268907e-02,2.297414975892567851e-02,2.217576761430142644e-03,5.618441949474647836e-04,4.234687929307197340e-02,8.066733226677960666e-02,3.406498060676554224e-02,3.737539643338923245e-02,5.306042145805405646e-02
4.204196083159632280e-03,2.164391932045878555e-02,2.110692465580232477e-02,2.918469052685659579e-03,2.691336426118596040e-03,4.809763118200594684e-02,1.195424535817658507e-01,4.230313727536395146e-02,4.562970329982666412e-02,5.921107874653527142e-02
8.108163366389255569e-03,1.818563864926711279e-02,1.737473900235915122e-02,1.083064736572058456e-03,3.375618034992337087e-03,4.988698884445678244e-02,1.494200994962857354e-01,6.187922077392055825e-02,4.341485324948395758e-02,5.871245701975520703e-02
2.126701643847718134e-02,1.384457059254146256e-02,1.334879774180030079e-02,1.231989876183116252e-03,2.931109784158995001e-03,4.762204675160179590e-02,1.537886559304721401e-01,8.233287061418644026e-02,3.225767566969088562e-02,5.630082028448345211e-02
3.933955228398482856e-02,9.244780647371050181e-03,8.122090623863627637e-03,1.997461440844373447e-03,2.574762048312153294e-03,4.539747630723610372e-02,1.400786182997630636e-01,9.465218914526452032e-02,2.043802717884016240e-02,5.333527972859771621e-02
4.698998851262204540e-02,4.891242661271326397e-03,1.446077032804275828e-03,1.568475320390569708e-03,2.595340590565339053e-03,4.360813837142527016e-02,1.240975507971934511e-01,9.866920320374544806e-02,1.394721810556178582e-02,4.836311394613177633e-02
2.384404801870460694e-02,2.708851176028941390e-03,4.614361774079549575e-03,1.270839436732244506e-03,2.576808367408802911e-03,3.831832457021126098e-02,1.111754211026462352e-01,9.841485889694621958e-02,1.276919034146885984e-02,4.206837751473954667e-02
2.244119700492964303e-02,2.646370779921211266e-03,8.894269255180178857e-03,1.381801375649110986e-03,2.389613488198958323e-03,2.737544174375153294e-02,9.598110306755319732e-02,9.388297038502912972e-02,1.387341613669392480e-02,3.666545762409770953e-02
5.000036047358605296e-02,1.368035670181169542e-03,1.246507535812529585e-02,1.434270448103142125e-03,2.221794192857182073e-03,1.276828413279119945e-02,7.205777367777353726e-02,7.977825548266540001e-02,1.390809543870644843e-02,3.225076863924550979e-02
3.157204622476032091e-02,3.062448368991545385e-03,1.564984567902118207e-02,1.302548268825200325e-03,2.136484198693808061e-03,2.487899529953172071e-03,3.869435348191652829e-02,5.458859571499340840e-02,1.022332240000189789e-02,2.705102295988582109e-02
9.605963283649602419e-03,8.293003309558651462e-03,1.703194133826889042e-02,1.197909989886315751e-03,2.047501548568565755e-03,1.673855762684760620e-02,1.543641849956597402e-03,2.636463266062008537e-02,2.967859276505725209e-03,2.016791910240776226e-02
3.383563615242896755e-02,1.146153201832202269e-02,1.624369073525850846e-02,1.181339913404897725e-03,1.925001762949352319e-03,2.947252244875150223e-02,3.271946848036770550e-02,3.936432208525582344e-03,4.368875161855241378e-03,1.190670730222903248e-02
3.702819011785679626e-02,1.294550486646910484e-02,1.487503682096426132e-02,1.155158802236943855e-03,1.809542571484807748e-03,4.075175275461354746e-02,6.198375052750992875e-02,1.414823214635121604e-02,8.921059683747140784e-03,2.553443370797879239e-03
4.541331905528267487e-02,1.443284061529585480e-02,1.411317269639210739e-02,1.089849618869232492e-03,1.716017362188077509e-03,5.055257430296515586e-02,8.790633218509594227e-02,3.589520742011774457e-02,1.156733635562539643e-02,7.049275306171692845e-03
7.043113325699829064e-02,1.580218839661121435e-02,1.362843284424023090e-02,1.030883694079286683e-03,1.625890969751801925e-03,5.789621962653269255e-02,1.104410043797596774e-01,6.232056053244906801e-02,1.435402381293241804e-02,1.486351838616955384e-02
9.313952396216050589e-02,1.597321334062177731e-02,1.290082792857856833e-02,9.926600944029201866e-04,1.532085860154813782e-03,6.157740988478781208e-02,1.260527158248015700e-01,8.338353889554649123e-02,1.693236135654545976e-02,1.976815349137997849e-02
9.057577683696776960e-02,1.511409477515206039e-02,1.206449587201027622e-02,9.540151450509696141e-04,1.443170824267857224e-03,6.188451516995016610e-02,1.328802209534932777e-01,8.909922357241145674e-02,1.701850540876848408e-02,2.297392081088279331e-02
6.041420672640613471e-02,1.426073200060659629e-02,1.136367781594585687e-02,9.078329364509361279e-04,1.362402567960585217e-03,5.980787249865687077e-02,1.343990246235875208e-01,7.958207305584977242e-02,1.296052544493600869e-02,2.535343341864210176e-02
1.835480174033479739e-02,1.376781898184309579e-02,1.074049575557751643e-02,8.637615680466261209e-04,1.285519676464557054e-03,5.467007860915196193e-02,1.332292113664074185e-01,6.043977689292576866e-02,5.759051059760242168e-03,2.540794470480311693e-02
1.929464609540653200e-02,1.329358574889530700e-02,1.008101210030283058e-02,8.250254064205632832e-04,1.210543757611852282e-03,4.525266990661845623e-02,1.236296332010374810e-01,3.424260805062639967e-02,5.883178169297923529e-04,2.216746924429884025e-02
4.585216161874499513e-02,1.267325312623162649e-02,9.411527361085832502e-03,7.868799305905722517e-04,1.138948734463718013e-03,3.363159418791047267e-02,9.851787143049568762e-02,3.315966533386008157e-03,1.718532973314625774e-03,1.797474162813139653e-02
6.052580075695530859e-02,1.205497666158530067e-02,8.785967372883425955e-03,7.474613125974438523e-04,1.071103956680502945e-03,2.494410288687392424e-02,6.463658873029595742e-02,2.546802965703490879e-02,3.684425447243806946e-03,1.599181951659772033e-02
6.430048461092342793e-02,1.151272832043971107e-02,8.192621182418369230e-03,7.086539487910537049e-04,1.005691302122990434e-03,2.235839018671110373e-02,4.059692535215279202e-02,4.874467063764299085e-02,1.378397095363912035e-02,1.661165615153602226e-02
6.209271868321526722e-02,1.097426614835519260e-02,7.605760506839172666e-03,6.710325051515522157e-04,9.418539979043371625e-04,2.460749480098535155e-02,3.650621071120156019e-02,7.325690510583696136e-02,2.551536080000075743e-02,1.835764117614290675e-02
5.741595281128894501e-02,1.040091946822214140e-02,7.029981603968666129e-03,6.334055867840629331e-04,8.795172405517599507e-04,2.884722393481270811e-02,4.493470410731977699e-02,1.024525229813595117e-01,3.530644878498460232e-02,2.080256674397621894e-02
4.313554076062321718e-02,9.822816232790961694e-03,6.476622715669119040e-03,5.951898796775388027e-04,8.184053489020094111e-04,3.306891539252188039e-02,5.460879208914179439e-02,1.236419207384696212e-01,4.017533431034096825e-02,2.431450565142818931e-02
1.307161115059424575e-02,9.254354994968355327e-03,5.942761757286956631e-03,5.566635489566884760e-04,7.579010188431454208e-04,3.546507427021489828e-02,6.275749171345715305e-02,1.226329646929324169e-01,3.993032785295840686e-02,2.776920959363891189e-02
1.668331269953352014e-02,8.678791830693829631e-03,5.422052357093565776e-03,5.178674613306382757e-04,6.975282726852179323e-04,3.473670130567722836e-02,7.032902133174101511e-02,1.045575613318711350e-01,3.674615464124215275e-02,2.897246617442914007e-02
1.942391313305597347e-02,8.089812901668019807e-03,4.914740916066470851e-03,4.784817649503352813e-04,6.370416598121795854e-04,3.174043075961630045e-02,7.415218233812348458e-02,8.623856984535112347e-02,3.246745211671145381e-02,2.745466749467534093e-02
3.327038185273296748e-03,7.495093587179651670e-03,4.422764361820543180e-03,4.383461699667022733e-04,5.762074313174828360e-04,2.860703528204635443e-02,7.035604583405778711e-02,7.311564063791821388e-02,2.816429657252982055e-02,2.503793592052190251e-02
1.565049114095542690e-02,6.892348633032921619e-03,3.945046745605489472e-03,3.975298387941917462e-04,5.147742393651337945e-04,2.621772221702833514e-02,6.205452923664449283e-02,5.538173346009855891e-02,2.513790359089169979e-02,2.339553878361198130e-02
6.774275673452536534e-03,6.276337848536624534e-03,3.479780653847611496e-03,3.560926771823150162e-04,4.526073552597874609e-04,2.401079655124612258e-02,5.703938165566566076e-02,2.555611931334648632e-02,2.405112222184159487e-02,2.233098994779583041e-02
3.962278999489574072e-02,5.660191231728655542e-03,3.026696251170055835e-03,3.140519690306670477e-04,3.897093507452718754e-04,2.159306151317822928e-02,5.655878171964719148e-02,6.341223981080609112e-03,2.392325496981154154e-02,2.076508745058645161e-02
3.978148982221587499e-02,5.053561148610396375e-03,2.586054007966089550e-03,2.714941935661102429e-04,3.261168359069160525e-04,1.920388205821082703e-02,5.242727354539540585e-02,1.978915214382280865e-02,2.327841755074979563e-02,1.861384292754942812e-02
5.467603607919924169e-03,4.430456790327676718e-03,2.157596846100464337e-03,2.285906372168505524e-04,2.618951897257756163e-04,1.702695744395665151e-02,3.943908066788054390e-02,9.213027480733090857e-03,2.166602438610812364e-02,1.696630425954286439e-02
2.087625114162015502e-02,3.778640356649629745e-03,1.741028945711893278e-03,1.855420674425301507e-04,1.972819005165670197e-04,1.495203141619374891e-02,2.462606574014448990e-02,5.078384836371022809e-03,1.970141382793023227e-02,1.642749294177502789e-02
1.010010540518406150e-02,3.162984447629480118e-03,1.336524800481232039e-03,1.425658977114076394e-04,1.326790237374751962e-04,1.289082720946054493e-02,1.829690687789780473e-02,9.391482253449867038e-04,1.802035534011776560e-02,1.623748013199501419e-02
2.355251358166880402e-02,2.619670379193875243e-03,9.445161346519228120e-04,9.991553235985816306e-05,6.837050570778296595e-05,1.089294686771438009e-02,2.127071978847750594e-02,1.950404306061079285e-02,1.639212911295062289e-02,1.552061217586553528e-02
5.354935563218430478e-02,2.020797770383967080e-03,5.654481301733734616e-04,5.787882556858935210e-05,4.519931987097687261e-06,8.999605270237239635e-03,2.679804285823276372e-02,3.894842138778268487e-02,1.430530419428464352e-02,1.443632800993988052e-02
7.371034680240938497e-02,1.297302456250321338e-03,1.998658634358945309e-04,1.676004161249328595e-05,5.826791354885904085e-05,7.187623864131126653e-03,3.031044119009512761e-02,5.037972326358122754e-02,1.242071706881184637e-02,1.353049582049053491e-02
9.311970048727130633e-02,7.351498047999845131e-04,1.514880663592973672e-04,2.312954607161459117e-05,1.189620318839201905e-04,5.437268029924415685e-03,3.184845980433812646e-02,6.136923060358879384e-02,1.177837410748843947e-02,1.283412261334620184e-02
1.145499916457472095e-01,5.130923646083230660e-04,4.877370820313498348e-04,6.147390548271350710e-05,1.773318405901555604e-04,3.759326376831864658e-03,3.217815382425920356e-02,7.781329190031675835e-02,1.081022511036129445e-02,1.209315564058151271e-02
1.216278878258745810e-01,3.727807155528206282e-06,8.079473828305111559e-04,9.795886056303334947e-05,2.339835793473106571e-04,2.163686918392720114e-03,3.087390028164468253e-02,9.217256128860647213e-02,5.845547455711948628e-03,1.126841452856398341e-02
9.040632871480561161e-02,1.475531000760210015e-03,1.111134551833690672e-03,1.322822300153106499e-04,2.877862539542524827e-04,6.462666064338674736e-04,2.687212544413393467e-02,9.078614061726619777e-02,3.428512806778755227e-03,1.046196464075938373e-02
2.423386758442248184e-02,3.174590637705464961e-03,1.396267315098170727e-03,1.641618038045994485e-04,3.357701720169658220e-04,7.964568808353461420e-04,1.913927364892699379e-02,7.255139427268755825e-02,1.166531286747628585e-02,9.680647440998516040e-03
3.470293122548386011e-02,3.582336858692961121e-03,1.662307238533229214e-03,1.933412018194152965e-04,3.786627238998876662e-04,2.161184932427546654e-03,8.507787593863285966e-03,5.437237557927063897e-02,1.336561022366949611e-02,8.866628918785127503e-03
4.907033878709377711e-02,2.696193293641466551e-03,1.908252182210697957e-03,2.195960115108537016e-04,4.212913102455923616e-04,3.444577209839125558e-03,7.314210918611969287e-04,5.222634924624919295e-02,8.773377578610594071e-03,8.008831794972304241e-03
2.806783463825596875e-02,2.022194155154091559e-03,2.133163770975742869e-03,2.427399658870092985e-04,4.608128501253864334e-04,4.646329115003521720e-03,4.179101091762949839e-03,6.267345631733893530e-02,2.784953707757177686e-03,7.130213751832740858e-03
5.375640567894449454e-03,2.305573912164800288e-03,2.336192507197843576e-03,2.626298150748602078e-04,4.855842217765869002e-04,5.766108535785926734e-03,2.932365439100700390e-03,7.075950567380927259e-02,3.782259147154759353e-04,6.235346326977966522e-03
6.207726259125387162e-03,2.859208727169929541e-03,2.516608750141636347e-03,2.791687961141302342e-04,5.003040402702369329e-04,6.802158881747105007e-03,2.239735854151912904e-03,7.009449451552487997e-02,2.482715610991803514e-04,5.315744239740458239e-03
1.578594108601326720e-02,3.051519137457089914e-03,2.673832141648853356e-03,2.923091754251395122e-04,5.291108289981718204e-04,7.752803500690642544e-03,4.080457883636097460e-03,6.599830942422860169e-02,1.145887131557262210e-03,4.374770760541726866e-03
2.820496471796700433e-02,3.057580106319077087e-03,2.807454469329573928e-03,3.020537986573791525e-04,5.619943993833259035e-04,8.617208497910958456e-03,5.313438669954991846e-03,6.412245004922491332e-02,2.200653755890099109e-03,3.425262270205400687e-03
4.222865242255272045e-02,3.160450117813164150e-03,2.917258413314346554e-03,3.084563511781003554e-04,5.467940125893544414e-04,9.394778544259751313e-03,3.876389197600200141e-03,6.633808197057235179e-02,2.861076049189581819e-03,2.476791970041647157e-03
6.229129642891444163e-02,3.288935619455460660e-03,3.003233707904266140e-03,3.116203258908938891e-04,5.034545059003882805e-04,1.008488123330752474e-02,2.317921339687523900e-03,7.407975536020212914e-02,3.582826243442968801e-03,1.536340213977939939e-03
8.802058765573680943e-02,3.313448974046723141e-03,3.065588891324216858e-03,3.116968510980529065e-04,5.442361505407184797e-04,1.068721110418843420e-02,3.601633494985680400e-03,8.531241903794520298e-02,4.385401472737993425e-03,6.156145613544568469e-04
1.017589679584978979e-01,3.269100494331922662e-03,3.104757364475184932e-03,3.088814390853807925e-04,6.302425065572154865e-04,1.120200093903053924e-02,6.876069169336064546e-03,9.139340449684324463e-02,5.068352164622005190e-03,2.696066095286830944e-04
8.856248725749667206e-02,3.221174860751547554e-03,3.121398231665479389e-03,3.034096835499746334e-04,5.189908306535251196e-04,1.162992269409184563e-02,9.396558760339648181e-03,8.643433447567948347e-02,5.621415269096427698e-03,1.107052974883499311e-03
5.861590050175730787e-02,3.159064196694796357e-03,3.116392342371166087e-03,2.955520154889841513e-04,2.790991568813382616e-04,1.197204497239827067e-02,1.066953260082368141e-02,7.573219245449575032e-02,6.138059646680710246e-03,1.888328762100264938e-03
3.062376454272590365e-02,3.057787038824568305e-03,3.090833316724095597e-03,2.856076787010799881e-04,4.742473451373036258e-04,1.222992386704120985e-02,1.262987479572958045e-02,6.711168878284438921e-02,6.624629983885934464e-03,2.598038633128940764e-03
7.381701624293054813e-03,2.927861103170917474e-03,3.046013538597471069e-03,2.738980793404721388e-04,1.228074059183380641e-03,1.240565551465995162e-02,1.607066892395113758e-02,6.034569158037039055e-02,7.038211861441301918e-03,3.213624633825503795e-03
1.391182043117355702e-02,2.786973711105794355e-03,2.983405578704149876e-03,2.607596647499557121e-04,1.671387113533781641e-03,1.250185089946704090e-02,1.899408682247390179e-02,5.235701839677277258e-02,7.376372181032002720e-03,3.727719056126044348e-03
2.453077662447350829e-02,2.637053636518400801e-03,2.904639589922652920e-03,2.465365087297324387e-04,1.166531856634992490e-03,1.252161102583592908e-02,1.967887876484067031e-02,4.565999830636912477e-02,7.660558340659678889e-03,4.150240167731107134e-03
1.435258111554698832e-02,2.477156984077518581e-03,2.811477148031340384e-03,2.315727937035722244e-04,3.524420684032331759e-04,1.246852250307631770e-02,1.932030520770187942e-02,4.564633379684323450e-02,7.893900749574970371e-03,4.462678941481964742e-03
1.457591908342745560e-02,2.312290635938693464e-03,2.705782109078441484e-03,2.162053774916374710e-04,9.956213264670546166e-05,1.234663990917070527e-02,1.956735778523725072e-02,5.487995375519296587e-02,8.068484746430286403e-03,4.613368950146337980e-03
5.011045932419699173e-02,2.147219729823199828e-03,2.589489203335393602e-03,2.007566245473584780e-04,2.854523759950372466e-04,1.216044399244271476e-02,1.967629109605373641e-02,7.123672271048701876e-02,8.185205835027051929e-03,4.615429762468105032e-03
7.123800966399269907e-02,1.986258036082547401e-03,2.464571133102163008e-03,1.855276730105731348e-04,3.475537281072332623e-04,1.191478681910445106e-02,1.871351926704754517e-02,8.613549729258833387e-02,8.250608258231146089e-03,4.560311504660958040e-03
5.463850559561226478e-02,1.836440308966924475e-03,2.333004938071423992e-03,1.707923008794770547e-04,2.182676391547435247e-04,1.161483389955726697e-02,1.839199626552286138e-02,8.785598872716196550e-02,8.267543274296696929e-03,4.409801947755554244e-03
1.047890757816429940e-03,1.698758139845097173e-03,2.196738407902178777e-03,1.567915438403027714e-04,1.409743772215321504e-04,1.126601150008158490e-02,2.059993446430603142e-02,7.459804698859293093e-02,8.236522326011228023e-03,3.959221527855702472e-03
5.515635205071557634e-02,1.565412574694268269e-03,2.057657333610812215e-03,1.437291910466707715e-04,1.553282393320486057e-04,1.087394922232724423e-02,2.371188564135805546e-02,6.013501359216828768e-02,8.160087840311918903e-03,3.276941633968768336e-03
8.078093959018375902e-02,1.442572966791369656e-03,1.917554364030599201e-03,1.317682482784368614e-04,1.496727932681418476e-04,1.044439077911763630e-02,2.456896025854117191e-02,5.699618673527075130e-02,8.042206386255943557e-03,2.853140558972677709e-03
7.371385051259193855e-02,1.354655907998658431e-03,1.778100182023486034e-03,1.210284445900052940e-04,1.045023725446981715e-04,9.983094177395278671e-03,2.272970026174386815e-02,5.841983979258823234e-02,7.886181792438435104e-03,2.824698954956792948e-03
4.948384201753248945e-02,1.293695428735906457e-03,1.640817654463820954e-03,1.115848624262088379e-04,7.224554203371730482e-05,9.495790752039087734e-03,1.968091959990195955e-02,4.897510661827209066e-02,7.694875302325304006e-03,2.502393861777644363e-03
2.365956921268169699e-02,1.209750604081524707e-03,1.507059537505303984e-03,1.034677186602504540e-04,6.300641617014298378e-05,8.988166482854080194e-03,1.595282217378581405e-02,2.914071171123428297e-02,7.471642016889146892e-03,1.248311151055893050e-03
1.315466314752104099e-02,1.119739544932326063e-03,1.377990228689572865e-03,9.666322817846110366e-05,5.256806015649923675e-05,8.465718593848588908e-03,1.244314051463650192e-02,1.283236764677499198e-02,7.220191735139724204e-03,6.861524747182041854e-04
2.526668068389513466e-02,1.130505254424018710e-03,1.254571953738552008e-03,9.111550331387645459e-05,3.598674501108445811e-05,7.933565893315482412e-03,1.198831244057304082e-02,1.844820932972700018e-03,6.944098091883164382e-03,2.352054406068952459e-03
4.238134728333195489e-02,1.206615235648525507e-03,1.137555664768283119e-03,8.672956043147310922e-05,2.450344097558543950e-05,7.396535115125228016e-03,1.581289104984014149e-02,1.604149396261399935e-02,6.646804887348166380e-03,2.131265112114256489e-03
4.321682927003511754e-02,1.112441547304712439e-03,1.027476811676121538e-03,8.337537699023198057e-05,2.041547260431843247e-05,6.859369195973376993e-03,2.073200211441260377e-02,4.240970583259878052e-02,6.331802071659019086e-03,2.154958589735245667e-03
3.501708289912528610e-02,9.030147915485740254e-04,9.246560303547147726e-04,8.089260673181964951e-05,1.822269557444376254e-05,6.326368864134543184e-03,2.339789362513907539e-02,6.767808900385399729e-02,6.002570970657573890e-03,1.114751890882988844e-02
4.159041364913003413e-02,1.119206957489241299e-03,8.292046700171696195e-04,7.909575154659991046e-05,1.641738220050105424e-05,5.800782131891953075e-03,2.490583858120211380e-02,9.613494673598824147e-02,5.662448310435239628e-03,2.145774153673174825e-02
6.688492050058543470e-02,1.903958235235498914e-03,7.410349619825356291e-04,7.778024534875623529e-05,1.710348007191822865e-05,5.285423998049505918e-03,2.751025732818382016e-02,1.390581035492468032e-01,5.314599418356147180e-03,2.725910606879573816e-02
9.006676049370858361e-02,2.427169513693876353e-03,6.598745240825057640e-04,7.672945971278799548e-05,2.048523042920982968e-05,4.783895799528667912e-03,2.953239038944561329e-02,1.811154352579349702e-01,4.962033907714501896e-03,2.583626725166709645e-02
9.106665351078566117e-02,2.000198758958286315e-03,5.852847988938344841e-04,7.572118307376486321e-05,2.499354412722230650e-05,4.299223769634553591e-03,2.788673135245233609e-02,1.901207457003873669e-01,4.607574827496675046e-03,2.074141441707277878e-02
6.767752840297416861e-02,1.165989110840996842e-03,5.166829264815325220e-04,7.453300757794247759e-05,2.988486642510435829e-05,3.831181458765947016e-03,2.323928424288400352e-02,1.647704843273837261e-01,4.253812266392978034e-03,1.798324482566715857e-02
3.114208415071015312e-02,8.902428912946511131e-04,4.533664591400075579e-04,7.294917620784762509e-05,3.523117336996912615e-05,3.379121605723862682e-03,1.899827985584545686e-02,1.380637528617052190e-01,3.903084210641861833e-03,1.933825062936707709e-02
5.760536579432372004e-03,1.247520057867134487e-03,3.945402735690611493e-04,7.076963531377314679e-05,4.072070805961991815e-05,2.947794282168874312e-03,1.761115903505937677e-02,1.282688586625609917e-01,3.557471281139826681e-03,2.137742397574478662e-02
3.537237425640907262e-02,1.464676980164862511e-03,3.393450197840181307e-04,6.781533934780551213e-05,4.566569283899206042e-05,2.541507315508171379e-03,1.982758131687879094e-02,1.189315087954570249e-01,3.218785618180904952e-03,2.129342075302611062e-02
5.390471880049294007e-02,1.024502298131968600e-03,2.868863919338721612e-04,6.392756198668455095e-05,4.958113693828450851e-05,2.151633502576015544e-03,2.480381224211385474e-02,9.421352038357276582e-02,2.888560256160905507e-03,2.043256391043230327e-02
5.811926202903545946e-02,6.221539525111739570e-04,2.362644268963309748e-04,5.897340429406210181e-05,5.220452560114514386e-05,1.768866801152994654e-03,2.982027437726768315e-02,6.514335005794257005e-02,2.568048472379093165e-03,2.034123712753798871e-02
4.769692037986127814e-02,1.590695573741773101e-03,1.866020925790154309e-04,5.286219581073309601e-05,5.323994164445099489e-05,1.410356166116850289e-03,3.172115440081162141e-02,5.105292348069237485e-02,2.258230270317971959e-03,1.890631800899116033e-02
2.879762478680257878e-02,3.751966936225170114e-03,1.370725971606048376e-04,4.554651443585784533e-05,5.235894987616678621e-05,1.094391569289455317e-03,2.930551163561815817e-02,5.642403996629512947e-02,1.959821374230450927e-03,1.381400497132271449e-02
7.442951831636099129e-03,4.865920141660373677e-03,8.692478918441272156e-05,3.699681408446160865e-05,4.933166790667215462e-05,7.819577853790211572e-04,2.434373381396716038e-02,7.558856104269984222e-02,1.673285696481232546e-03,7.182762952634612341e-03
1.852828752368382639e-02,3.502492121039417917e-03,3.550576291798881339e-05,2.720526008852945687e-05,4.403695733229430600e-05,4.294505034656151757e-04,2.003209391205716672e-02,1.033264901165182464e-01,1.398853006784433507e-03,2.708004663345205554e-03
5.078429109246294926e-02,1.154988693272947101e-03,1.771993406036908767e-05,1.624359157388314157e-05,3.640773634592053636e-05,1.151918479566798638e-04,1.760088540593017503e-02,1.290664608475467490e-01,1.136540817513993686e-03,1.607886419513837942e-04
7.894393631220793239e-02,2.042991546042898367e-05,7.315433655539994775e-05,4.256851304193745469e-06,2.642952011285682303e-05,6.951251092323024530e-05,1.515513729461915628e-02,1.344636924346953866e-01,8.861789680421172221e-04,2.805544527203252501e-03
9.104246042711343356e-02,1.610411362118784246e-04,1.310535245806134386e-04,8.663089479204886856e-06,1.416733548598276971e-05,2.959867340903393328e-04,1.069378297850332935e-02,1.141597887497659974e-01,6.474365006467232286e-04,4.748883426444625022e-03
8.954368821254472810e-02,2.952766089058961058e-04,1.915200441353999341e-04,2.247323368840676349e-05,2.346048413356676502e-07,7.793335096259932076e-04,4.765596979900699193e-03,9.167827730220121096e-02,4.198506383670616180e-04,1.231317795050590035e-03
8.575470498318384094e-02,2.577668707520405517e-05,2.545008225229912382e-04,3.691791598234964752e-05,1.656945356365456052e-05,1.132174645993609848e-03,1.963455649336889181e-04,9.623678866663672171e-02,2.028572082465149480e-04,8.321305714006828683e-03
8.560185768378551774e-02,3.575044736257245478e-04,3.197878861445781597e-04,5.154246316646758370e-05,3.457420855440158382e-05,6.010361081405028423e-04,1.630801025436693849e-03,1.264800591771738092e-01,4.178376424302399778e-06,1.834725908185818807e-02
8.669051749691521203e-02,4.904001460348135760e-04,3.870208906428175989e-04,6.626573684560628963e-05,5.393077689472662448e-05,6.298425194887579239e-04,1.155512862044305762e-03,1.529722963194042606e-01,2.019305072779199869e-04,2.278745000149172417e-02
8.267420337068780156e-02,6.190053439642042871e-04,4.556970732028791673e-04,8.138148127832880725e-05,7.427375739510992539e-05,1.175038602504051202e-03,5.471280801343434558e-03,1.538320294256270981e-01,3.910837995517869436e-04,2.062810403125180103e-02
7.076531892676314606e-02,8.381005528754655043e-04,5.251904405657750827e-04,9.635273827498526920e-05,9.520262489120310102e-05,1.645062185387927210e-04,7.345658857507089343e-03,1.326059890418979925e-01,5.723046158621716319e-04,1.491238769621783776e-02
5.623366302935613181e-02,1.053073141813657678e-03,5.947674926460987804e-04,1.097957098005555458e-04,1.162922796470815506e-04,1.532027225119193944e-03,5.156343396131407054e-03,1.016879110374221684e-01,7.462141892122212301e-04,8.399819176175368773e-03
4.271405324263428255e-02,1.213559899078072313e-03,6.635942126944622925e-04,1.220728201512170203e-04,1.371026131501438064e-04,2.529176982327402314e-03,6.289145560007312983e-04,6.359945996622187736e-02,9.133651736495282088e-04,1.878201178226890627e-03
2.482139081792561486e-02,1.358522369301086051e-03,7.307599762071136139e-04,1.354137596812287573e-04,1.571895410271713757e-04,2.642586099974949913e-03,8.635048993572549958e-03,1.769985982172418010e-02,1.074222482368878675e-03,4.198514089645834571e-03
2.706627772579949312e-03,1.507578122785001654e-03,7.953287349284945658e-04,1.483993728236734227e-04,1.761168296768628086e-04,2.626020082644528551e-03,1.463094922139742717e-02,2.248360248951262325e-02,1.229146102678575683e-03,8.356918079595692522e-03
8.926737060903045320e-03,1.638673961503390357e-03,8.563612052739261486e-04,1.555769088175138284e-04,1.934671578415357227e-04,2.867486282133649162e-03,1.311677190044101271e-02,3.679431729897104236e-02,1.378375308139681349e-03,9.565769722485663318e-03
7.847103394597624779e-04,1.738793688703888819e-03,9.128825721426508076e-04,1.592467283298261503e-04,2.088523116988121725e-04,3.151624944326257820e-03,4.969508810515588758e-03,2.723918230654102240e-02,1.522020288490462869e-03,9.395976486348253665e-03
1.595739483445514362e-02,1.815120056802001615e-03,9.639132155055071555e-04,1.706062201865005286e-04,2.219228594620270675e-04,3.305963560702082291e-03,1.308982396879723731e-03,2.032019668451782307e-02,1.660063421694899736e-03,1.060425071724591453e-02
2.558847355740470619e-02,1.871501458303607111e-03,1.008617913956082104e-03,1.846201857487839799e-04,2.323769988426753041e-04,3.422346221498128588e-03,4.221958067982713582e-04,3.281776465386912478e-02,1.792357897872756244e-03,1.321883992882337891e-02
2.586693753845648036e-02,1.902995843951424144e-03,1.046321978424892118e-03,1.769321002111978801e-04,2.399680861602989106e-04,3.581411299687004002e-03,7.301027538559923084e-03,5.408931677342460054e-02,1.918618820727339145e-03,1.435790240520948106e-02
2.249634975144061341e-02,1.906864096890158525e-03,1.076267337104274508e-03,1.574592004520891295e-04,2.445106998546121174e-04,3.738113909668009261e-03,1.309721165968373222e-02,6.963657023082178710e-02,2.038432804157017195e-03,1.275842032485031106e-02
1.611204205102351183e-02,1.885281485079824768e-03,1.097640587917394443e-03,1.783977862595887472e-04,2.458852290793948794e-04,3.847845046704277509e-03,1.581187745095180217e-02,8.241821708334987062e-02,2.151296749496787140e-03,1.104053272414008344e-02
3.177409605823903593e-03,1.840226695705206696e-03,1.110156351525208411e-03,2.199674835293552303e-04,2.440408714342973096e-04,3.930917669342490206e-03,1.763327541164379925e-02,1.007345310834009966e-01,2.256629819094139316e-03,1.197741488076718014e-02
1.482479711130746738e-02,1.772134401847975330e-03,1.114065594326815213e-03,1.701986530049203318e-04,2.389969148767979361e-04,4.015245007879443377e-03,2.100029106837207962e-02,1.204711335879120743e-01,2.353733352544049723e-03,1.467118929245958547e-02
3.229918967678934577e-02,1.682238182315510307e-03,1.108953028268107885e-03,6.839875563829660892e-05,2.308422882340491872e-04,4.085881084551459125e-03,2.627926367364756891e-02,1.320780197907136244e-01,2.441816410100571856e-03,1.638665090251295933e-02
4.871288318864003264e-02,1.573178696498524166e-03,1.093719914547903928e-03,1.575732984965730441e-04,2.197334310606738144e-04,4.109052910305013850e-03,3.096575193238960272e-02,1.374408102392800923e-01,2.520142511886976772e-03,1.648786636357545826e-02
6.663339516216530700e-02,1.447846405911591911e-03,1.069172071398373069e-03,3.697274690828943056e-04,2.058905436601126651e-04,4.097999505339833953e-03,3.106457353969929377e-02,1.467828669344499737e-01,2.588046074892542785e-03,1.653815793279758348e-02
8.091164930814201406e-02,1.309000461168562373e-03,1.038132015974416438e-03,1.418914418230076508e-04,1.895923058566928476e-04,4.108473576164415296e-03,2.530311229396335626e-02,1.593227325008556017e-01,2.644691549943327218e-03,1.748385540931199009e-02
8.267451438895632998e-02,1.159711252798151454e-03,9.999103462973563637e-04,6.487922591650306138e-04,1.711692042339893536e-04,4.118638448078334839e-03,1.703009970044518095e-02,1.599509032347387061e-01,2.689107188081712573e-03,1.835346001233410795e-02
7.575655885747067941e-02,1.003439469538985884e-03,9.499052130655031949e-04,1.132296380385685490e-03,1.509956461479521604e-04,4.014669112691831784e-03,1.088043950022279070e-02,1.426380432519445407e-01,2.720776615994345213e-03,1.782838669546749424e-02
7.590942200189307321e-02,8.437175285760144597e-04,8.913703850296491671e-04,6.700957770707118141e-04,1.294810605781476982e-04,3.837048857978437883e-03,9.542810375371730755e-03,1.263529730741544954e-01,2.739657673389142133e-03,1.653917007014483326e-02
8.920807610260765574e-02,6.839916301298696200e-04,8.365381407793915682e-04,9.976250901913733080e-05,1.070602064896718052e-04,3.830314235766713472e-03,1.298030590210995025e-02,1.317481177406279735e-01,2.744992344090199394e-03,1.683700930302049065e-02
1.020567828860309278e-01,5.276501359708913978e-04,7.814667786440850561e-04,3.077176448336272447e-04,8.418293016141441894e-05,3.927000594343669701e-03,1.751453421451894255e-02,1.475593091843510063e-01,2.735303780596734513e-03,1.932068034520723412e-02
9.896502824494692041e-02,3.779801160209165980e-04,7.029277298207466974e-04,7.707046042852484802e-05,6.130362587085123123e-05,3.564895878410334271e-03,1.766497571999682895e-02,1.424722226491754451e-01,2.710999850261273676e-03,2.050770502007430440e-02
8.268535601668844381e-02,2.380397673877645550e-04,6.119758270890933482e-04,2.879972441378077897e-05,3.887065821609550509e-05,2.622760347600383395e-03,1.222174018280515473e-02,1.105872713895580117e-01,2.674501725231359043e-03,1.634217214552728670e-02
6.978433793173664801e-02,1.105702192458399551e-04,5.619297302432394326e-04,5.846760934504480743e-05,1.731600268649460339e-05,1.972504550412461193e-03,5.827697096224854212e-03,7.994167301840519879e-02,2.624732188101564119e-03,8.274248056753513020e-03
7.117232742402659906e-02,2.043404741959423988e-06,5.340918672593810562e-04,9.618006549582334139e-05,2.954645566196439606e-06,2.254463886933361777e-03,2.669521866686595975e-03,7.329053875717607414e-02,2.556732053489778507e-03,2.857915922450549907e-03
8.392485849484075666e-02,9.781701722612974517e-05,4.175126660892694986e-04,4.528323480052277476e-05,2.157105788467291276e-05,2.832560081777497560e-03,2.501859447679407808e-03,8.634362453299181117e-02,2.473444755058188706e-03,3.642002887705538504e-03
9.888944424908771569e-02,1.752219260437211249e-04,2.524354457728097967e-04,1.793382044517271645e-05,3.820673569504299882e-05,2.839471506609156197e-03,3.946642634009216860e-03,1.059879684841495556e-01,2.386854883321870829e-03,6.585355999449803502e-03
1.074973322243211182e-01,2.332209286412329960e-04,2.826981010896408996e-04,3.402902961092537444e-05,5.258605841295086890e-05,2.400846405363030785e-03,6.948978430456274544e-03,1.228458474840192216e-01,2.292850036322369514e-03,6.350177300263297117e-03
1.006614626607643947e-01,2.712829667735424831e-04,4.410181392857086160e-04,4.141671459194555083e-05,6.449015117499572679e-05,2.082406766040910580e-03,1.024880231555577378e-02,1.241304503376958746e-01,2.168120567406558747e-03,3.792767759754055515e-03
7.193462749871960826e-02,2.893883215151021545e-04,1.650044329715777880e-04,3.015051356725892800e-05,7.376134038808348364e-05,1.954865377987813867e-03,1.008297026715446014e-02,9.860043681349828226e-02,2.023740420637770709e-03,2.935945121149338959e-03
2.906418896019014736e-02,2.880255234283372618e-04,6.677656254991067887e-04,2.448582088573715890e-05,8.030610067024105054e-05,1.777882203760713540e-03,3.715751761267710972e-03,5.214954621429621767e-02,1.913155741601115303e-03,3.251854061244002694e-03
6.524094674379128309e-03,2.681743769240098373e-04,1.186980392268171310e-03,2.928780358551925233e-05,8.409643437059833053e-05,1.514684296119868509e-03,6.717532420683404795e-03,3.623993865845163628e-03,1.817910366044403611e-03,2.257266249583479711e-04
2.124225161058623454e-02,2.312749256229690959e-04,7.539837727323496323e-04,3.312499541018347552e-05,8.516966353394672467e-05,1.279582777404028333e-03,1.500576441474962136e-02,3.352091270101269227e-02,1.627412768460464922e-03,7.221283388342360221e-03
2.272830123596255442e-02,1.791858629148389216e-04,6.844544637440227054e-06,3.340539163777944015e-05,8.362665303748159575e-05,1.094482469007330289e-03,1.604733056668700836e-02,5.670798945719517786e-02,1.382380715811109715e-03,1.439795941314329572e-02
2.537227155140535373e-02,1.141338100407390344e-04,1.847064487213682254e-04,3.524046651355008854e-05,7.962852173631902828e-05,9.090648252150273969e-04,1.038248941868640668e-02,6.882552522234847148e-02,1.327239710246859395e-03,1.691851225797912431e-02
3.338812631753815263e-02,3.865351761904938606e-05,5.634032937791729444e-05,3.966764926977752056e-05,7.339193484719129241e-05,7.149952685047924637e-04,2.839475380701997429e-03,7.695798269314758910e-02,1.395401804182393526e-03,1.607116587211989203e-02
4.336799243892158762e-02,4.447965749553988444e-05,1.670450947689145556e-04,4.404526579810253816e-05,6.518310459184384180e-05,5.378926577352673936e-04,3.187837213040617488e-03,9.045338644688843965e-02,1.025268252056212677e-03,1.593026701033409959e-02
5.122453799041767897e-02,1.323227059792635315e-04,7.960189016237870317e-05,4.757958795755472649e-05,5.531065652435229534e-05,3.837480563492283968e-04,8.347999821587145583e-03,1.102160201249951232e-01,9.529485807111524615e-05,1.723847948120279389e-02
5.213625220148718209e-02,2.218414234750404270e-04,3.735598698169507309e-05,5.121518798216421461e-05,4.411754526804722394e-05,2.420039544572395555e-04,1.377483760149219270e-02,1.223840930528244525e-01,5.232565599376513051e-04,1.743579970450073041e-02
4.432279081713866309e-02,3.099887258520781235e-04,8.009414530600995018e-05,5.505343913658125447e-05,3.197222497116741216e-05,1.106239330716554366e-04,1.715961407902210148e-02,1.129440876427791063e-01,1.907243911929695909e-04,1.547711625472409161e-02
3.514648840549574466e-02,3.937829110214625516e-04,9.645101820795834999e-05,5.838008017532542420e-05,1.925929616580432719e-05,5.040071185951548564e-06,1.460701953876830834e-02,8.904836989883348208e-02,4.558652402002622006e-04,1.304935745456599176e-02
3.432432330252491171e-02,4.703837939097684916e-04,6.735818559910197929e-05,6.088179465137727502e-05,6.369861529613992464e-06,1.038949296564466510e-04,6.171239646607920223e-03,7.420081196849473426e-02,5.478417093199586469e-04,1.137668326978084378e-02
