6.186327545681271495e-02,1.503454237426453226e-02,7.696282556791270244e-04,2.961187668334484650e-04,1.519175105697902683e-03,7.231399539129514261e-05,4.156527379933365506e-04,1.019140149586544516e-02,2.214104443416826853e-03,1.916884297708524448e-02
2.955201899705490326e-02,4.665596754142251404e-03,1.165486383296438725e-04,1.432213963797131185e-03,1.023851401137572262e-03,7.359984423439904801e-05,5.348092109510596374e-03,3.750914690722030511e-03,1.257205586325495488e-03,1.723890951268738231e-02
1.042075524356114724e-02,5.091874727839748246e-03,1.395600604682403854e-03,7.101519182741456229e-03,2.136069728561463101e-04,7.323182538653852608e-05,1.095260802880820492e-02,9.385175815723990900e-03,4.688337406050941021e-03,1.776807004461885414e-02
3.069692423346155954e-02,8.069747824100732478e-03,9.824335381669502439e-04,1.484961505889323234e-02,4.139611876904521182e-05,7.121698176107547527e-05,1.492938910552298222e-02,9.952514859284371934e-03,4.789790788672211239e-03,1.643834381070793937e-02
4.855839721982616736e-02,1.288566743046200454e-02,9.934921089916280354e-03,2.114150208230356626e-02,1.362822726076566029e-04,6.760228495871280251e-05,1.376292787715886409e-02,4.615745903036469477e-03,2.049744270362027082e-03,8.153313317600666826e-03
8.738981711425695964e-02,2.713570973889770435e-02,1.873630807170809792e-02,2.153419129078195174e-02,1.841286828765941483e-04,6.247351139106296957e-05,5.477622518534664559e-03,9.307595680134100186e-03,2.669653794060617737e-03,6.312801855898293041e-03
1.399028500602436387e-01,4.591603634000115258e-02,1.752875123690658329e-02,1.453185966821691003e-02,3.475441551333980625e-05,5.595316361444889805e-05,6.472040654162762238e-03,2.641794616211505520e-02,1.000649672305268210e-02,1.995394086841369152e-02
1.713648078218533155e-01,5.686652975140960020e-02,7.623002714811122002e-03,5.221472533616330382e-03,6.809246393440720568e-05,4.819748668280526865e-05,1.534554156962640581e-02,3.483072620236873224e-02,1.724651384799852361e-02,2.854779040018192923e-02
1.544741247822598862e-01,5.238191621971818174e-02,1.271019281226322580e-03,1.999394822357030820e-03,8.424157712719023056e-05,3.939265164376329424e-05,1.737342688589674916e-02,2.773503714176988114e-02,1.502582856357865919e-02,3.483124387874388800e-02
9.509811063596235181e-02,3.430544336906261177e-02,4.890976741930946371e-03,7.133948828668124770e-03,1.246979539567110178e-04,2.975019888007767076e-05,1.397595882086978894e-02,8.468067831807785106e-03,4.641371503875827385e-03,4.138121531624101845e-02
2.051183189257294384e-02,8.874985026338598135e-03,1.090124031200185792e-02,1.330830900130399418e-02,2.081970878903880275e-04,1.950185233161401459e-05,7.974465197663550484e-03,1.504626412994110318e-02,2.814476523304222221e-03,4.668108123007529142e-02
4.499534514673241004e-02,1.707248849779589503e-02,9.699238678582345480e-03,1.253277536958945226e-02,2.814411343955478635e-04,8.893831267557180287e-06,1.098169767961925791e-03,3.685699973923434181e-02,2.966210299582391820e-04,4.992232628161477614e-02
8.415800370127252128e-02,3.513433110994975545e-02,2.086503522978070107e-03,5.556572023375839532e-03,3.333796101256107538e-04,1.819201173787728999e-06,3.981747538478869024e-03,5.343034121791730151e-02,1.132959073076521272e-02,5.105890874303639637e-02
8.565761147467011727e-02,3.885127452066046427e-02,4.567634142819024072e-03,8.601604647288122948e-04,3.872298505317882844e-04,1.238040431224936359e-05,3.838363289758403921e-03,6.071136928185948828e-02,2.287306049488447429e-02,4.595825059104544780e-02
5.596305002611674795e-02,3.044181444967459377e-02,6.756595933313620621e-03,3.127550379057227655e-03,4.469079947361597849e-04,2.253708723659283883e-05,1.456780694802895740e-03,5.436652996331715892e-02,3.012979581308856958e-02,3.113782585391543928e-02
2.055093352413331700e-02,1.833758513778372887e-02,6.746746480067671026e-03,3.229005397525285329e-03,5.001434713700959357e-04,3.204694146845144128e-05,8.352106420515046162e-03,3.428449226517636672e-02,3.291240099608722797e-02,1.241538668523754774e-02
1.343527367873297539e-03,8.179244393741475633e-03,7.217811460666540696e-03,3.666343867983370367e-03,5.436333498224382331e-04,4.068402542240907003e-05,1.473187841772121212e-02,8.393515736314130157e-03,3.369455746023596737e-02,7.424649975819121216e-04
1.778398596692513153e-03,1.421591536541997941e-03,8.273148388877885756e-03,4.481791987940357720e-03,5.819215475684043565e-04,4.824435295450521652e-05,1.978665259512020491e-02,9.716554909589949010e-03,3.464655097283397822e-02,8.098756101530518725e-03
1.817546589203474991e-02,3.773577771166901568e-04,9.096781758529274078e-03,5.399199207645794148e-03,6.156330934787097777e-04,5.455094777922681634e-05,1.954345351394109337e-02,1.112531839592132039e-02,3.596839042304673939e-02,1.674688432277645148e-02
4.868287744728824751e-02,7.488735285543115031e-03,9.635300983867221489e-03,6.895011217659370931e-03,6.418771666113280401e-04,5.945823843461164638e-05,9.273668318394313187e-03,5.606612972250384769e-04,3.689254868242475283e-02,2.701694056994083729e-02
8.449097188566950800e-02,2.053202492942690291e-02,1.017387383894474868e-02,7.983174006623836028e-03,6.597783400248705349e-04,6.285568447554021896e-05,9.149948180880728560e-03,1.096779524085698086e-02,3.763477765265536845e-02,2.943611479733747663e-02
1.117622058308726102e-01,3.460704159062864826e-02,1.075634894775247610e-02,6.541213659976658108e-03,6.703671209431869438e-04,6.467054328913826209e-05,2.716653463768452237e-02,2.184927636770141526e-02,3.912196919645638538e-02,1.878271130652623896e-02
1.278484261886894124e-01,4.708880970183147718e-02,1.138854532346709157e-02,3.453481554144813368e-03,6.739946226220676437e-04,6.486970789870015366e-05,3.587111201102971547e-02,3.584580007735092139e-02,4.075841698072323049e-02,4.273633589799989869e-03
1.382511239028759442e-01,5.519494960571804526e-02,1.199675427550060680e-02,2.936237085838261807e-03,6.703523682927713155e-04,6.346056884271256355e-05,3.061477239269608588e-02,4.462915478067711744e-02,4.038973817322018961e-02,2.872018716467995012e-05
1.407241219933835774e-01,5.333804661301375094e-02,1.221723930406171110e-02,6.853579885238573685e-03,6.596773520513928186e-04,6.049087712866554905e-05,1.534927830033572770e-02,3.673328376333553913e-02,3.770870186456436873e-02,8.983092874165503686e-03
1.306496088028748503e-01,4.048410063648745505e-02,1.192018425185948673e-02,1.195023951222726026e-02,6.427459568381784730e-04,5.604760978239128210e-05,4.460197933849123844e-03,2.474446027542107074e-02,3.582417612033944598e-02,2.299319147269850150e-02
1.126773691989152587e-01,2.534569575342805400e-02,1.168409234265546486e-02,1.455663951558164304e-02,6.202925521663147767e-04,5.025486404171808071e-05,1.045804773846442312e-02,3.475769828415001955e-02,3.779820252329701286e-02,3.429896299593539200e-02
8.889956749389453516e-02,1.590415796427297260e-02,1.216557188710104716e-02,1.510206622321942117e-02,5.929830330466095544e-04,4.327083017606812534e-05,2.706226772596930993e-02,6.437472650144179798e-02,4.336134851664684431e-02,4.136372434899048683e-02
5.097354235387503013e-02,8.803254570890196168e-03,1.329468185499092792e-02,1.607160434529357126e-02,5.616599022345543715e-04,3.528391566258326658e-05,3.573191850223617766e-02,8.205224694247144346e-02,4.995777813644933923e-02,4.387026301282321433e-02
4.799244673118118788e-03,1.391180676005288747e-03,1.419302800965978502e-02,1.782445190302090962e-02,5.273268220759337469e-04,2.650811445374265070e-05,3.025172516006406631e-02,7.398767519633091261e-02,5.473862294719517019e-02,4.038750590645945326e-02
1.900047909922618003e-02,8.677075251110761764e-03,1.377584969703910672e-02,1.887796793234651493e-02,4.909995665402696599e-04,1.717773381233472384e-05,2.190164272605425039e-02,6.016498217869657716e-02,5.596704327390987499e-02,3.220516847881695066e-02
7.392463727621681815e-03,4.137612202541258652e-03,1.238924730632747113e-02,1.945075376674640366e-02,4.536748820663816803e-04,7.541607202750236146e-06,1.984390241855081560e-02,5.701344164696813682e-02,5.550143059112828264e-02,2.265098810753847502e-02
8.372230076193021980e-03,7.833168370080606513e-03,1.235986325671998426e-02,2.158837384628748551e-02,4.163617767927672831e-04,2.143065385360824151e-06,1.978966181380071090e-02,5.462326486164929829e-02,5.662771576569320536e-02,1.235616929904782835e-02
7.681126982640330142e-04,1.584275379338601769e-02,1.379794026117453498e-02,2.434667939994780705e-02,3.800577181279510904e-04,1.161709886623480011e-05,1.364976843162658653e-02,3.963418306162964228e-02,5.546842715123295048e-02,1.934579551658131575e-03
1.228416283605782838e-02,1.760314502772242565e-02,1.049566098535972651e-02,2.235662675364212190e-02,3.456952295991839877e-04,2.062576967284129604e-05,7.287270797000703054e-04,1.595218570564577859e-02,4.355862391792450494e-02,2.792167389940777497e-03
9.668135921459763971e-03,1.613228673076276196e-02,3.980199980955424766e-03,1.318023660782871066e-02,3.141151747266624026e-04,2.892516907280271967e-05,1.165664081440877242e-02,4.461129760951515651e-03,2.500117839242781137e-02,3.085616638815977773e-03
1.251225759985203322e-02,8.806254549515210583e-03,2.527609208011928968e-02,2.663150458880931062e-03,2.860564042162142386e-04,3.628830667236077333e-05,1.389844466472661688e-02,1.431486708651141630e-02,1.348618817367483805e-02,1.346840049102900408e-02
4.625569953546304625e-02,5.535737941834277011e-03,4.048441303129759333e-02,2.853353324871308987e-03,2.621361625082473091e-04,4.251081341514628567e-05,2.450705942612654235e-03,1.207374497350849687e-02,2.171143045385007329e-03,1.633540484222202605e-02
8.792087599078882154e-02,1.744345920282672907e-02,4.293579837758479401e-02,5.820830154960638866e-03,2.428265861320531805e-04,4.741610291499818015e-05,1.466749981008603002e-02,2.286473523512430259e-03,3.679735292286930720e-02,1.050287419655385017e-02
8.857698742731331953e-02,1.740841533777646999e-02,3.740203436458115760e-02,1.174449825032021499e-02,2.284400716252195102e-04,5.085986298042419055e-05,2.394141408926678954e-02,4.957041993361239324e-03,1.060053232771131226e-01,8.780704542892368500e-03
3.528017803228920835e-02,8.215955976448297698e-03,2.977719985707629607e-02,1.827577391767509427e-02,2.191217901156663800e-04,5.273376537965781651e-05,1.952301457775164686e-02,1.921159522448713172e-03,1.648510646301716842e-01,1.977410102687564286e-02
3.112015519355997017e-02,1.055142651665011682e-03,2.010321533111778664e-02,1.788774658423206848e-02,2.148438407622809928e-04,5.296830086831815241e-05,7.533274941479121620e-03,9.597346750076573424e-03,1.761832438179474769e-01,3.469633724408269226e-02
6.081454805098273492e-02,6.084368976766800843e-03,7.514421815899339704e-03,8.067503104308235834e-03,2.154021445024613835e-04,5.153466779605826340e-05,2.186006385422707959e-03,2.103673726352666556e-02,1.452790717229096029e-01,3.931732549794943188e-02
4.944687940899366446e-02,8.012910843147849974e-03,5.147032039192369138e-03,7.088267219518388368e-03,2.204188884394466615e-04,4.844566570604717982e-05,5.089052374175359258e-03,2.571429578553562773e-02,1.001672915086548599e-01,3.129129408265731577e-02
3.626395029602237641e-02,9.374594468924109594e-03,1.395242303786633879e-02,2.210961724937140702e-02,2.293501068548328345e-04,4.375556967813926015e-05,3.556462262048340744e-03,2.478856309231212973e-02,5.762951925687993110e-02,1.766220689442376396e-02
4.953724581034379959e-02,1.174969254482894840e-02,1.769882340337700435e-02,3.376998770459661847e-02,2.414969920585307629e-04,3.755898614806464473e-05,3.215795546978114303e-03,2.560018760732141879e-02,1.851800997550647615e-02,2.662041817484243900e-03
7.411490923783509155e-02,1.398357606191489959e-02,1.853902879531693290e-02,4.249576483994672166e-02,2.560208737031125490e-04,2.998871594883628278e-05,7.984425710198923831e-03,3.305189570867630294e-02,1.983666686802215001e-02,1.320259995757825169e-02
7.772850532278775815e-02,1.243670122363185228e-02,1.891407554525983623e-02,4.953563594738633752e-02,2.719621388743160683e-04,2.121267475269361590e-05,1.653597845897452831e-02,4.341459709755245144e-02,5.145352587716530562e-02,2.744513472022060488e-02
4.871813658720819395e-02,4.062196885987778491e-03,1.634817877425976534e-02,4.979124716560127256e-02,2.882625999809006407e-04,1.142994434120372185e-05,2.324449942163850022e-02,4.908421974356856621e-02,5.681099865459194459e-02,3.691865177896799105e-02
2.476408590179444199e-03,1.204367397441332733e-02,4.263918122648580750e-03,3.328411259202167238e-02,3.037905241845167189e-04,8.660496243341103083e-07,2.412756646733324115e-02,4.738798982341838051e-02,1.924340548333650092e-02,4.192389661287888869e-02
6.391865819237588231e-02,3.409418148980301183e-02,1.784465769001100655e-02,3.246681802631930062e-04,3.173677800421477219e-04,1.023242446495259303e-05,2.187326187475559930e-02,4.136126785159645325e-02,4.845499435971411389e-02,4.467993711005256718e-02
1.248037140172369996e-01,5.408823489432575821e-02,3.905619582083993263e-02,3.505404442694492334e-02,3.277986021209010120e-04,2.160374563204849844e-05,2.238205595004903042e-02,3.386996002669202116e-02,1.077946284940818900e-01,4.608253403639673423e-02
1.595468422614111925e-01,5.854683152428340198e-02,4.708602980147756634e-02,5.253366490633242653e-02,3.338992864909663357e-04,3.297733260067145050e-05,2.577065863784362698e-02,2.449214979425831315e-02,1.297788777711032793e-01,4.433166368113413552e-02
1.349920937392663223e-01,4.085950886602533749e-02,4.034344645720820688e-02,4.811635579278090297e-02,3.345280536369568615e-04,4.408028561094021051e-05,2.568381108393343742e-02,1.293886986142425352e-02,1.148763287634028546e-01,3.423147493717338535e-02
4.885609683111215296e-02,1.076588613214845419e-02,2.639501900817578864e-02,3.067871275018765193e-02,3.286143729618432887e-04,5.464398942448458877e-05,1.986407252676366392e-02,3.858255322561940370e-03,8.005310132552405367e-02,1.239436129453167640e-02
5.498698792348132025e-02,1.489470824887400083e-02,1.188571475902576620e-02,1.106771112710324897e-02,3.151870742888199174e-04,6.441062712305018736e-05,1.456805359754431012e-02,3.655193300179774858e-03,3.936597286228932235e-02,1.241118396495975371e-02
1.234421960712718258e-01,2.736579916780431873e-02,2.971394263815001994e-03,7.577754077311498263e-03,2.934005644561803400e-04,7.313944485249544930e-05,1.450065146765370724e-02,1.093767490237356615e-02,2.595640181741091547e-03,2.211362968687078170e-02
1.365325058556441928e-01,2.753688748711830003e-02,2.016426630445081192e-02,2.895714418710870069e-02,2.625584964989517364e-04,8.061261345997267362e-05,1.616116845831292240e-02,1.646289956084980369e-02,4.482561578936199165e-02,1.009673561091452287e-02
1.086824263674169566e-01,1.871543315542438177e-02,3.500196561967256620e-02,5.191836297692158098e-02,2.221343105945772635e-04,8.664054256441052447e-05,1.564895875633193212e-02,1.583340067162887152e-02,7.897958484702406745e-02,8.205968102515460647e-03
6.237066732861172580e-02,3.897639190345668098e-03,3.644462781405378299e-02,6.371108757766338893e-02,1.717881420096082040e-04,9.106651576165403260e-05,1.516109174972041403e-02,1.542971552802678385e-02,8.943367696915290044e-02,1.356295554602354042e-02
9.971487729724221385e-03,1.343316354273224253e-02,2.169143200942550212e-02,5.386718422735966433e-02,1.113796668808266622e-04,9.377053208013341680e-05,1.746633988597122433e-02,2.147483713290907620e-02,7.081765610773456399e-02,5.190320140363728456e-03
4.513894197513172724e-02,3.048056118535303824e-02,4.420087018241470461e-03,3.175162181519890214e-02,4.097654969646477422e-05,9.467225807452837242e-05,2.046534364753684054e-02,2.896205797838916768e-02,3.972012673705947738e-02,4.018598661984913896e-03
1.020658558118237580e-01,4.639729226337845763e-02,7.418489545466941046e-04,1.699328489866348130e-02,3.914173411836407708e-05,9.373301660636491591e-05,2.028304790802284291e-02,2.673128346468340438e-02,1.900996748200063646e-02,8.386839559323629179e-03
1.594280720255328854e-01,6.053622563393377259e-02,3.682812097034492138e-03,1.385071216961053162e-02,1.284848186036397606e-04,9.095676188491312424e-05,1.520871483614808645e-02,1.059189439300083947e-02,1.372574704190115957e-02,1.375253351370275823e-02
2.047736243932826716e-01,6.852230806402515029e-02,5.917349622207422437e-03,1.007920625181518183e-02,2.263571238441724673e-04,8.639001515532095902e-05,5.562228951024173265e-03,1.316094791935399841e-02,1.253887572146572711e-02,2.218494849421177514e-02
2.024866841518500604e-01,6.080608726369102907e-02,5.289002485314730356e-03,9.876208817440213644e-04,3.318681838133274889e-04,8.012076091686906305e-05,6.464340892634980532e-03,3.506628071446501321e-02,1.064438575535590382e-02,2.439381139874771329e-02
1.199440360905493219e-01,3.084618468597112584e-02,1.176341852000808118e-02,2.176814888109458810e-03,4.439473932492458670e-04,7.227632910770176780e-05,1.632848541281458135e-02,4.832812206445811359e-02,1.658451094144109197e-02,1.351868307665227836e-02
1.733274483411271008e-02,1.159617586243460660e-02,2.638827239849541109e-02,7.150614159993178010e-03,5.613628433227463082e-04,6.302031367570215569e-05,1.978062317618736743e-02,4.980125288146595997e-02,3.211122976477173707e-02,2.373349208493248132e-04
1.275284247642394508e-01,4.277591810289621543e-02,3.486564755536145088e-02,1.583033142424064565e-02,6.827438472505287194e-04,5.254860175323272507e-05,1.713332056430694542e-02,4.245749891537360654e-02,4.010059626501276397e-02,1.015553736924151677e-03
1.513273738938886726e-01,4.655422296764075846e-02,2.606128195452466628e-02,7.260984840463441739e-03,8.066066465504396739e-04,4.108460967886538498e-05,1.326926776060288402e-02,3.629578773321262553e-02,2.363108736881792613e-02,2.046696604468112649e-02
1.022550118882205594e-01,2.771261062053650623e-02,8.745723078592239005e-03,1.524649184483611343e-02,9.313826425222629553e-04,2.887384181677515508e-05,1.269966498481188422e-02,3.939008299303035227e-02,1.107661025820924627e-02,4.410333871797143118e-02
2.821750928428214816e-02,1.955041012960625872e-03,1.670107066464848592e-04,3.487301945642489603e-02,1.055448474033720977e-03,1.617790502463619729e-05,1.527359351235518109e-02,4.705517481767375332e-02,4.128262038068669648e-02,5.904900708528315612e-02
4.214081879456890722e-02,1.918784105458543748e-02,1.285028754757097658e-03,4.830558454202477092e-02,1.177157358914423212e-03,3.268125291913766908e-06,1.691102873262189527e-02,4.524620100779494503e-02,5.535206527111539293e-02,6.265035315775210889e-02
1.018835937602051989e-01,3.279672777372226455e-02,3.872156010157695293e-03,6.995202248619364349e-02,1.294871000225604864e-03,9.581076831013101027e-06,1.438058900493010758e-02,2.606478338742772988e-02,6.663617771018745528e-02,5.566864417021286787e-02
1.434548101565454314e-01,4.055775103254725261e-02,2.250381840509698556e-02,1.050964198679822659e-01,1.406991032379920591e-03,2.209888912290153571e-05,9.296404095386991140e-03,1.970796109972771694e-03,9.479559059620706885e-02,3.933574455781951168e-02
1.499096574067547150e-01,4.118921171322605795e-02,4.094809360286227884e-02,1.347876244724264538e-01,1.511989157493815556e-03,3.402472373331738760e-05,6.768718755396268064e-03,2.013801256570518783e-02,1.348251226722643747e-01,1.849686324933894760e-02
1.034310061293594318e-01,2.776518526805570736e-02,4.425830983637227267e-02,1.371759576415512438e-01,1.608435815622496264e-03,4.511458298821078216e-05,9.432686148297878340e-03,1.817713922097632245e-02,1.551800221771237054e-01,9.016266691027080169e-04
8.053577277992513689e-03,2.018414865372786943e-03,3.401145061455727869e-02,1.118228027703659921e-01,1.695026924283793033e-03,5.514701737477552685e-05,1.369417914498337503e-02,5.779261746170620898e-03,1.320236389011134326e-01,1.619194004903477466e-02
9.281247538218323490e-02,3.506854761111750235e-02,1.957633851576374637e-02,7.316395225294436422e-02,1.770606837988283238e-03,6.392852781432908319e-05,1.350732283633921185e-02,9.633080975425100528e-05,7.594687482140013990e-02,2.691635040549823082e-02
1.397376442140742803e-01,5.122358526040786397e-02,6.050215187888827173e-03,3.198441586859348401e-02,1.834186457984502772e-03,7.129827768667552771e-05,7.217235867724184836e-03,4.712602534601186000e-03,1.790501208756564017e-02,3.211877951837367046e-02
1.092183725119206250e-01,4.343335758734184066e-02,1.726794756607197929e-03,3.683269579788333095e-03,1.884958607196117334e-03,7.713199676614876333e-05,9.399664423233365738e-04,9.270292240588982186e-03,2.323119057154270431e-02,2.901407741027624623e-02
3.230904684986998787e-02,2.436838794844112949e-02,3.051826030560833916e-03,1.833271559019874694e-02,1.922311456205345751e-03,8.134497886606078458e-05,4.775278785418018805e-03,5.433660444457172334e-03,4.848180606989185848e-02,1.550172573361475493e-02
3.935980687342423984e-02,1.177979251752850690e-02,1.908770684180560381e-02,1.429576115994054750e-03,1.945834241839452345e-03,8.389409708919193112e-05,7.150875505398015652e-04,5.585793700568499401e-03,5.910608131391021508e-02,3.041584873517415473e-03
7.600078848537288045e-02,9.814795096531573823e-03,3.329778268470894725e-02,4.412181459856273635e-02,1.955312512039415057e-03,8.477878461014984812e-05,8.528736697374984452e-03,1.657947563504049218e-02,4.973642623402631247e-02,1.627213015507398761e-02
8.368280865296288951e-02,7.261732676738441236e-03,3.395899796103744872e-02,7.574140774190067649e-02,1.950724534143460616e-03,8.404095428512009720e-05,1.428085288713443202e-02,1.952463370723283437e-02,2.663541509768389479e-02,2.306616381311130462e-02
8.599967539585330611e-02,4.925405990766397631e-03,2.430800352623263896e-02,7.382996361281959907e-02,1.932244855185997383e-03,8.176385647556922787e-05,9.595165575267083219e-03,1.180403825699101808e-02,9.850415811261323262e-03,3.176987902354263399e-02
8.779080154431478933e-02,1.854969953950584560e-02,1.765800866429837260e-02,4.839856188144125299e-02,1.900230468386198248e-03,7.806990064540871705e-05,2.902034573595395524e-03,1.119035629211547877e-03,1.001643484653510878e-02,4.214450809279773891e-02
6.039960824007593876e-02,1.697360735917346347e-02,1.951519610020995346e-02,2.255685387204861905e-02,1.855176678389926529e-03,7.311749190293496817e-05,1.361571953106633336e-02,1.303542598017996997e-02,2.388207650069298915e-02,4.129444894241602465e-02
1.954060767187588629e-02,2.253645621980100971e-03,2.186593303523414258e-02,6.672494290911586655e-03,1.797695633183122232e-03,6.709695807863722754e-05,1.633029025539142060e-02,2.425860819228434218e-02,4.713858696255502495e-02,2.171980659348160189e-02
1.204881404644344706e-01,2.212634593355117946e-02,1.725005546649725774e-02,8.977574681925531985e-04,1.728547696453142752e-03,6.022566555451502423e-05,1.408719972525438249e-02,3.698056061114887716e-02,6.615672924270531163e-02,7.561344031576058833e-03
1.742326593395061574e-01,2.584616184476855316e-02,9.757228320532209884e-03,7.855939062671287582e-03,1.648614868585494397e-03,5.274244232924855735e-05,1.433655828512663682e-02,4.760042700585629533e-02,5.402178788471299203e-02,3.062920684205433508e-02
1.505208527833175880e-01,1.428542831393205849e-02,8.268041816693556811e-03,2.721274479568139976e-02,1.558750744627446965e-03,4.490144421220253315e-05,1.861202343449066404e-02,4.944041364118461485e-02,4.888549790531618311e-03,3.984517899566496213e-02
8.841931198242790335e-02,8.385201165466231975e-04,1.547712163646548442e-02,4.559319352111639717e-02,1.459743964899565521e-03,3.696561415254109509e-05,1.894707641667226633e-02,4.092366240300270019e-02,4.634689618550115464e-02,4.006292897185634305e-02
4.546524697576207613e-02,3.784692245006090160e-03,2.520969169402154791e-02,4.597464014343227018e-02,1.352543492104925056e-03,2.919989517227557243e-05,7.847157786267724977e-03,2.747257170867491161e-02,6.159103681511312461e-02,3.956108452397700398e-02
3.737022303667584394e-02,1.893089862950760255e-03,2.629861814921414381e-02,2.524394000938923188e-02,1.238245912459720426e-03,2.186436391723068658e-05,9.595069085573970993e-03,1.640489092001206142e-02,3.661965571742426678e-02,3.971444223236321458e-02
3.603956229822559421e-02,1.182893235766407578e-02,1.207310647762508196e-02,4.246307996638542907e-03,1.117517385446589956e-03,1.520745429651142229e-05,1.979968076716035266e-02,1.005108239442563736e-02,9.135239886084507710e-03,3.590332571164044084e-02
1.047054287284811432e-02,1.746671693361034894e-02,9.943721913767888596e-03,2.781540148654213299e-02,9.905115599093642243e-04,9.459438977791605495e-06,1.713706464205866017e-02,2.968228574066700699e-03,5.313472234825154100e-02,2.589229060221531070e-02
3.898230933959857120e-02,1.585248924582122881e-02,2.384157353598991350e-02,4.004719369912506516e-02,8.580127266685159525e-04,4.826330673487163852e-06,9.323476540431953341e-03,1.065668163167804959e-02,7.501046210811020132e-02,1.312796252003309121e-02
8.217216744144228979e-02,1.170946378227763658e-02,2.499319803061941792e-02,4.572515627193639992e-02,7.215589798951278951e-04,1.484355324145884342e-06,5.500018692101248455e-03,2.618770572664670671e-02,6.719431458209003394e-02,3.205116024521954821e-03
9.336397244928895667e-02,7.861913274729953952e-03,2.589181686926899859e-02,5.042088277971147614e-02,5.809315123828684728e-04,4.248643091352711297e-07,6.073124377860443512e-03,3.120430064067991963e-02,4.503121932720408060e-02,1.465716078897021449e-03
7.880323408141802488e-02,1.381891488155009579e-03,3.732787162450582064e-02,5.198907639950357817e-02,4.337648461935405880e-04,7.982931683558337112e-07,6.484249124823582115e-03,1.925243151778372602e-02,3.243935734466233539e-02,1.232604106975610132e-02
6.308048108318684011e-02,6.453722809655743770e-03,5.218829588974050609e-02,4.567746010835024156e-02,2.808503838335317678e-04,4.254648668393594860e-07,4.681476542730449511e-03,5.171811019045080733e-03,3.964794552222573182e-02,3.412683146674991286e-02
5.717690867630040308e-02,8.618678213808423499e-03,5.562820045622910575e-02,3.538882353883410214e-02,1.270733885871301464e-04,3.264127822193954167e-06,1.312659688391891325e-03,3.261478798731646395e-02,6.048869741265581329e-02,5.581165222566338707e-02
5.122027541349349899e-02,5.203864708191693542e-03,4.756456568517782729e-02,3.317120356672881298e-02,2.990735974213976385e-05,7.690762722596972093e-06,2.811408023091055159e-03,5.252347712689476450e-02,8.306599145243087623e-02,6.690073150192282769e-02
3.297922263381709851e-02,4.666223093919098786e-03,4.629104290237699704e-02,4.712371737531657889e-02,2.019583040049775433e-04,1.363390709270521414e-05,5.461312707615946158e-03,5.608782275051345939e-02,9.790228428270957017e-02,6.824173804755144512e-02
5.225936083146561287e-03,9.161195994059349174e-03,6.450270594632129262e-02,7.219943754396444813e-02,3.863409696012706286e-04,2.097878623814878647e-05,2.891605885499826025e-03,4.429020088377291081e-02,1.016492230430067201e-01,6.431926193761924870e-02
1.700602488298467996e-02,1.071827266328325388e-02,8.720324097190171320e-02,9.300985901808281331e-02,5.601425793438582785e-04,2.956960079381258877e-05,4.714400965374621923e-03,3.047654363345008582e-02,9.703531390421597791e-02,5.239118755657343890e-02
2.674736467096151815e-02,3.482531631700890463e-03,8.683038849066769538e-02,9.712732873284343760e-02,7.316184050880710117e-04,3.921283269193720229e-05,1.097234747566067960e-02,2.748399204457932857e-02,8.887960934092134502e-02,3.113049598805238405e-02
3.634392191560359420e-02,9.695194659729584191e-03,6.121287363016390815e-02,8.636327684537563332e-02,9.533705766009940982e-04,4.968149256046081681e-05,1.139249314271404030e-02,3.201136213104684852e-02,8.109672274856050134e-02,1.031073084954671308e-02
5.975398461652573628e-02,2.218826913793515293e-02,3.905081282273435705e-02,7.179556001611139826e-02,1.212962350229467544e-03,6.072020823561667181e-05,1.039256438730287550e-02,2.739510715815891839e-02,7.600637182330270691e-02,8.496644176896194119e-04
8.964270454808054289e-02,2.859105936316045857e-02,3.909573743220698394e-02,5.831111120116949653e-02,1.401699030662615633e-03,7.205103316240379072e-05,1.390432601705738486e-02,5.745039628830756959e-03,7.128344960921964568e-02,4.622780923481663480e-03
1.057509611655305798e-01,2.751147130666327031e-02,4.013837904132362688e-02,4.197093535361984956e-02,1.547314741265880646e-03,8.337983547496114834e-05,1.856031864709586227e-02,1.839129271789738049e-02,6.067307921321412473e-02,5.762990996333163495e-03
1.009839355241767128e-01,2.282744653106546368e-02,7.548703278987134967e-03,2.311085495899559486e-02,1.889521038896788910e-03,9.440311389801009346e-05,1.665133898920865413e-02,2.601094415313691052e-02,4.519194888742113919e-02,5.534424277583251117e-03
8.257505555951402676e-02,1.809443119888750132e-02,5.996737272396451823e-02,6.947940901064418931e-03,2.388833736528638788e-03,1.048150756736958441e-04,8.957810755488916296e-03,1.997826287416708604e-02,3.365111763592103233e-02,9.392340120589457581e-03
5.511287047658011001e-02,1.021827874793251184e-02,1.278505088627362174e-01,1.317814335313383101e-02,2.493719973739518848e-03,1.143148048762402319e-04,3.261749474196697952e-03,1.878603721489000358e-02,1.987491000556041582e-02,2.396100935660167019e-02
2.464538627529550691e-02,3.918011965085214758e-03,1.642317460671295359e-01,5.042597858361257818e-02,2.024070334875040667e-03,1.226133468807809757e-04,2.203379314696691550e-03,2.828140679557319265e-02,2.107603270814417673e-02,4.140385719087266020e-02
9.250146302383369101e-03,1.642758367094477798e-02,1.621968855176221802e-01,9.266152782891652617e-02,1.826917234271706368e-03,1.294405362588555797e-04,1.642198557789822022e-03,3.717749657643813765e-02,9.160257180608684380e-02,4.107991090999506961e-02
1.745245381856578432e-02,1.516396214643930124e-02,1.276141984288478581e-01,1.019905269228330580e-01,2.664896231915552232e-03,1.345514010097013089e-04,8.025202990061583008e-04,3.755663321179231184e-02,1.463814003981672718e-01,1.565556144994641533e-02
2.862021503865561783e-02,1.359264220573065673e-03,6.864049370046339249e-02,5.945835362735447244e-02,3.954189307917637015e-03,1.377319861456849273e-04,3.746668285833454435e-03,3.137844445094837426e-02,1.371528075605271679e-01,1.193724024424925277e-02
2.395430389617432543e-02,1.087136533318139135e-02,2.281383884444565871e-03,1.015172178632704238e-02,4.562451879125989374e-03,1.388044538914494580e-04,6.547348909089753706e-03,1.995070213343236656e-02,7.231008740894806497e-02,1.264277902649468301e-02
1.552292879928963455e-02,1.162039408333639424e-02,4.917627238596402467e-02,6.789410905190527978e-02,4.489540230211541000e-03,1.376313347864369465e-04,8.729539938833618187e-03,5.432945741245554308e-03,6.157263533454644666e-03,8.430014183985206841e-03
1.554603183813662096e-02,1.657394018228907934e-03,7.787535563329293919e-02,9.961889532156571747e-02,4.862406651495652238e-03,1.341188235842928514e-04,7.493320318512157116e-03,2.020327294818128391e-03,2.833533508166879988e-02,1.819698785520553960e-02
1.195733962786298468e-02,1.236413008584590252e-02,9.214370507742723759e-02,1.153210911236033226e-01,6.061758981871200221e-03,1.282190376960313009e-04,2.175429495997509115e-03,3.138418985549797612e-03,4.739563943602968787e-02,5.520451662852944412e-03
1.551957102712555117e-03,1.968495333000761655e-02,9.374924198840012268e-02,1.183720962640517627e-01,6.564445373819121840e-03,1.199311830897618311e-04,1.995481182476613585e-03,9.070866152812174718e-03,6.649958190172342021e-02,4.907875849727737737e-03
4.524951134825035831e-04,1.289772534553835712e-02,7.200497959710913665e-02,9.445663269140845697e-02,4.757638126180466047e-03,1.093015977773628363e-04,5.385044225218609025e-04,3.866669318183738567e-03,5.639817151032412712e-02,1.377695683951813332e-03
9.252250976911104152e-04,8.513091788442706280e-04,2.709530500765960567e-02,3.910346607515292894e-02,1.369325905556849788e-03,9.642266631619612655e-05,3.270379182555135412e-03,3.556360645204207499e-03,1.832621817857985058e-02,8.554506284416275169e-04
2.824703429087749990e-02,2.183628472583199745e-04,1.910269157857746869e-02,2.156549390853401693e-02,1.651607594652879920e-03,8.143062939945853421e-05,2.963619830036983392e-03,2.842765613553357995e-03,1.365062976459298361e-01,2.745981697339404393e-02
8.387363099516384479e-02,1.113755889291973694e-02,4.221973770970791767e-02,5.278621743332449767e-02,3.649917395181757028e-03,6.450234872966266009e-05,2.811507485441524633e-03,2.037036272306983961e-02,2.286029211401617300e-01,5.850165825329781133e-02
1.207746902031381631e-01,1.800096085790684267e-02,3.313938044446461395e-02,4.207907525961713385e-02,4.428866295870657020e-03,4.585110703657662210e-05,9.791832981839965547e-03,3.119423723236466189e-02,2.416354446300841841e-01,5.225122418691649506e-02
1.106002007317491292e-01,1.476968819770497869e-02,1.452336063790636220e-03,1.677624704639075343e-05,2.686185363639621241e-03,2.572152766827725688e-05,1.293738428977638140e-02,2.585843880156115521e-02,1.808769692744817692e-01,1.347019943089989083e-02
7.201027999901200849e-02,1.200947138747587850e-02,4.306251776066625375e-02,5.501014653032705592e-02,2.077174446615274919e-03,4.383732515565094170e-06,1.007213615651899458e-02,1.129800139150778822e-02,9.479104263424800725e-02,2.030123302819868830e-02
3.938590203078969065e-02,1.761584022794573934e-02,7.020711842679308590e-02,1.032315071282952079e-01,7.543949027659912002e-03,1.787308248423339529e-05,2.987124618656020365e-03,4.183510533377313330e-04,3.040648852562024065e-02,3.694175747969222212e-02
2.428310856378482208e-02,2.454829591552838697e-02,7.551046250531379123e-02,1.269311300150620381e-01,1.045703783108777908e-02,4.074748600903686996e-05,3.734972174320338144e-03,1.789379773277510396e-03,2.271932555414751462e-03,4.942733541340361969e-02
1.653239398521899606e-02,2.207339492890175031e-02,7.302273959415703231e-02,1.246758358807636968e-01,1.018200526239341520e-02,6.393297474794405982e-05,5.932674454188792239e-03,8.390508543570486880e-03,4.634476106076838506e-03,5.325660406680982756e-02
1.779539760687240749e-02,1.238051885223822625e-02,8.182544877406526529e-02,1.203340293390217641e-01,9.730882478493121587e-03,8.712531143172867580e-05,3.606794163072558467e-03,2.281018775968463377e-02,8.939745585147431187e-03,3.602163234846573331e-02
4.763390032003406160e-02,8.779378331666561411e-03,9.912896420732826563e-02,1.332133754611625753e-01,1.187425725214667598e-02,1.100296906084861963e-04,1.648619501558325510e-03,2.636143810283619188e-02,9.052878569219286603e-03,1.866847443850375848e-02
9.374356968204521079e-02,1.581951814378214013e-02,9.075345448171592833e-02,1.322761041294784057e-01,1.356953702635014559e-02,1.323674959152018767e-04,4.761838168291753805e-03,9.700743974709727380e-03,1.319180267182368249e-02,3.868463217724002479e-02
9.377669378303957193e-02,1.933826452347344252e-02,2.008437952403300045e-02,5.631909203964966665e-02,7.759500526895812475e-03,1.538828354188974325e-04,1.129809166200225826e-02,1.706808877077262143e-02,6.216987693967838957e-02,9.223719720792665500e-02
1.630127190159459671e-02,5.892863929521466662e-03,1.037696946301687323e-01,1.006483531551768673e-01,6.866102235566690082e-03,1.743488295165303943e-04,1.498448451224456725e-02,3.358542511856433405e-02,1.149716124722338917e-01,1.280278591362976337e-01
7.439617753261977551e-02,1.411591286475494082e-02,2.201209585305742011e-01,2.614523647358022451e-01,2.213584786665996618e-02,1.935727437424052371e-04,1.356659882611930754e-02,3.368915579586303360e-02,1.488103786694192632e-01,1.052730198033641901e-01
9.326698617715524497e-02,1.864704458328831846e-02,2.717991920108382975e-01,3.440245854939792958e-01,2.910698206595158793e-02,2.113995277378156600e-04,1.195972123442987957e-02,3.133306249710783586e-02,1.610825118239797571e-01,3.862443090485925129e-02
4.533728373705479125e-02,6.790470644896987214e-03,2.508826721491834166e-01,3.310126840816427496e-01,2.603076164348305452e-02,2.277152684687995163e-04,1.448650664483049598e-02,3.727812920448005107e-02,1.463358444999850461e-01,2.164006246276913362e-02
2.241515677303426365e-03,3.109750558332007031e-04,1.839833319166331305e-01,2.507774005035482423e-01,1.622619824723262744e-02,2.424511763113977461e-04,1.821446297513405060e-02,4.029052694213305919e-02,8.431517725370274441e-02,4.558773212014844561e-02
1.016025693457434792e-02,7.316476019097922605e-03,1.031005470403131008e-01,1.390644972681533142e-01,4.059213700990761849e-03,2.555846118451547255e-04,1.826976092160518053e-02,2.393654178766010596e-02,1.995040069974023805e-02,4.736731269323969651e-02
3.448673686087298101e-02,1.550807268215285278e-02,4.117772543799005230e-02,3.699906158689621888e-02,5.232891627746131050e-03,2.671355309272391808e-04,1.593672270672347527e-02,5.664570525631810495e-03,1.144441911143205398e-01,4.806162057445927116e-02
8.602424738618660860e-02,1.221773035316651643e-02,1.828650825814095299e-02,1.997254777578910678e-02,7.760931373880149489e-03,2.771656363327035504e-04,1.603200740712830419e-02,2.593984250568767691e-02,1.566839371531442704e-01,3.732536728328927911e-02
9.770058565741010503e-02,6.721022029383648400e-03,1.824576573230656668e-02,3.275813232509620226e-02,5.207557188459962724e-03,2.857838499305259813e-04,1.879173720074154078e-02,2.761771642599481283e-02,1.673592228504712232e-01,1.435078300578770429e-03
7.288019826160017749e-03,1.155333869915071456e-02,1.123960009208954669e-02,3.021419858047150533e-02,2.645901713176359964e-03,2.931426810209865450e-04,1.982941269605537071e-02,2.141445977667730954e-02,1.874279199296267628e-01,5.047371054763617748e-02
1.380966132016226422e-01,2.098926996927084551e-02,8.579375361068997813e-04,2.924067814367303786e-02,1.778181165838556201e-03,2.994175032534197953e-04,1.753749208637854495e-02,1.714141222566757314e-02,2.066562576201705637e-01,7.970600977121707065e-02
2.285100165631718527e-01,2.115363959934070046e-02,2.032618731185587696e-03,3.106090574220569944e-02,5.324158157056914191e-04,3.048016889794287368e-04,1.577267951397238327e-02,1.295814522345906453e-02,1.849956281089138732e-01,8.788439978661460872e-02
2.236639109012743543e-01,1.093551048345328333e-02,1.055505200312178461e-02,4.338202335307200092e-02,1.222755919134134320e-03,3.095358143607378036e-04,1.750394266993270109e-02,7.660035212034355286e-03,1.295844574854538300e-01,8.555923992888976592e-02
1.726341300405443424e-01,1.943599996578552602e-04,5.797836348782809714e-03,7.070464990234001657e-02,5.450489842551582958e-04,3.139014105566487927e-04,1.955513104915517289e-02,8.931679608791435326e-03,9.570606717225652038e-02,6.329620748442167655e-02
1.173737022879425967e-01,8.088720009292185709e-03,5.014860650147315302e-02,9.570262811690047333e-02,3.708407946634553233e-03,3.181389791437966232e-04,1.748312076179588462e-02,2.224077922226670376e-02,1.114423269746449841e-01,1.578979310028320870e-02
5.339161124761813287e-02,1.619830102132529398e-02,9.465117751458136663e-02,1.033629873170617552e-01,9.025426466831375227e-03,3.224381808068974811e-04,1.324610428363382289e-02,4.100800442105872329e-02,1.475860249456966700e-01,2.702706823365419453e-02
1.612243579945180777e-02,2.599472353464016630e-02,1.230093167615177452e-01,1.090632244457577643e-01,1.284497588753609996e-02,3.270906056730470222e-04,1.284349803118482389e-02,5.395167574414706790e-02,1.694550354637011369e-01,3.293538480581229000e-02
5.925069620453218139e-02,3.328802255416961342e-02,1.470341415145262343e-01,1.301298385602000229e-01,1.477721919682508170e-02,3.324921555223811476e-04,1.725206589991179137e-02,5.449230768349899029e-02,1.809060789285388271e-01,1.458715105627539019e-02
5.863748564628932375e-02,3.156278634155039453e-02,1.749893991314239727e-01,1.443662714009233405e-01,1.472138406178510189e-02,3.387943567037691246e-04,2.136905117408835833e-02,4.053957407767174587e-02,2.001981148003523781e-01,1.046858711559758848e-02
3.067948630686516062e-02,1.639672816459160354e-02,1.871632805929849264e-01,1.132547862738369909e-01,1.182793858901109475e-02,3.458683180926577262e-04,2.207798974249240362e-02,1.560817713494002876e-02,2.162633522837475730e-01,3.272997360461418759e-02
3.018131755497090521e-03,7.917157653018208271e-03,1.624301061401165758e-01,4.063429933387958243e-02,6.724922657471784845e-03,3.540277835630925877e-04,2.135466843563399095e-02,8.267479981977160497e-03,1.961544561797920472e-01,6.249992698204472757e-02
7.280564220769822348e-04,2.686487997605088718e-02,1.163135672469280540e-01,2.513462270281559621e-02,2.383524647669895292e-03,3.641060058233746058e-04,2.076804592019009660e-02,1.999309057401729359e-02,1.317279469988782981e-01,8.473908190452081324e-02
3.854933535558467683e-02,2.885946618788651219e-02,8.584281635352319917e-02,5.072251481170183401e-02,5.840660773736093114e-04,3.758968065579740216e-04,1.923573793261794743e-02,2.223371067201757381e-02,5.247270891859052294e-02,9.977433487427940506e-02
1.019216546633622544e-01,1.761850135133849471e-02,8.238348992314066532e-02,4.891297534992872925e-02,4.294559045683730872e-04,3.879355690855187315e-04,1.692289347272277894e-02,2.628487628632523998e-02,1.077952052818421241e-02,1.082255018822039644e-01
1.498450142333455914e-01,4.700248963394729196e-03,8.636078334999713890e-02,3.899630366278810517e-02,2.297321165712215389e-03,4.008116700102713802e-04,1.507287434599831333e-02,3.827748162124034598e-02,4.686151628329376928e-02,1.104425868477640627e-01
1.541186891582584373e-01,5.096250179405712594e-03,8.130665333057540689e-02,1.207188574505308788e-02,3.455650157692574491e-03,4.177147483601964767e-04,1.132600224382943228e-02,5.668866720922804969e-02,4.473972893666214312e-02,1.140900445096993676e-01
1.272683989683243144e-01,1.521796742492871612e-02,7.040233562942521672e-02,3.926923073248813484e-02,2.359775962556524657e-03,4.373704643744587761e-04,8.633396567807667850e-04,7.458302384604666158e-02,1.042788655907508910e-02,1.174047479925977994e-01
1.020332901251734814e-01,2.903432155806576556e-02,7.048643021013213661e-02,9.374105697752098398e-02,3.150288317578109213e-04,4.526887499525534815e-04,1.650969523235024106e-02,8.034746205253379125e-02,9.908859688364321516e-02,9.455380308655680910e-02
8.960936208818121029e-02,4.235831906407067082e-02,9.666111481592455645e-02,1.298930524380456641e-01,4.469840296275309072e-03,4.658177884939335460e-04,3.361613138122327565e-02,6.866283603901529586e-02,1.515840969183614440e-01,2.737588163091768736e-02
7.002264032867840104e-02,4.287908018467176396e-02,1.307179342708665315e-01,1.386871694770915042e-01,9.421335942824736118e-03,4.914305269887878427e-04,4.205422076427681177e-02,5.138603230984264969e-02,1.041855035694051329e-01,5.347030824239690922e-02
2.761566803336577836e-02,2.264249445755255052e-02,1.167873980537511847e-01,9.338034167501858829e-02,9.325642539699929151e-03,5.246762939282389147e-04,4.144200186812080355e-02,4.295586843052429105e-02,3.664720181075806910e-02,8.856070509712561656e-02
1.683722430190805197e-02,7.155269564809795847e-03,2.665134060808482114e-02,2.940859528610409446e-02,1.546367733195854388e-03,5.333384156545299551e-04,4.012198139937121766e-02,3.930425278551093193e-02,2.029405170151618587e-01,5.454776297681813990e-02
2.602039134861644509e-02,2.433011166586695334e-02,8.896035221860124076e-02,1.832920684463105743e-01,1.813072950550233611e-02,5.259670768609737632e-04,4.303468441073345085e-02,2.808450117552591108e-02,3.240857691682552666e-01,1.064389374071753741e-02
7.676163065223891996e-03,2.123402212527145810e-02,1.538047318071517344e-01,2.732301205659680154e-01,2.801463610298720111e-02,5.702825849973648664e-04,4.309394431189310370e-02,1.176285409788119414e-02,3.680538895052523074e-01,5.448108715337535851e-02
5.432248716876916794e-02,1.070349962482069692e-02,1.457433238208111215e-01,2.547444196986148324e-01,2.571804526463653331e-02,6.506559583240503070e-04,3.224465781682078758e-02,2.206078948706946107e-03,3.425361122514362644e-01,6.829828576674268348e-02
8.232620566118974137e-02,5.227352522170421699e-03,9.145772454544140451e-02,1.631268262377004175e-01,1.619820766412420621e-02,6.313531480554272638e-04,1.670399840137749489e-02,5.764978203843997701e-05,2.714812260525586440e-01,8.195552702503121345e-02
8.204704940896100085e-02,3.298256953450172824e-03,2.219415451304700485e-02,5.836787204124312817e-02,6.471704000093295162e-03,5.135843261137577236e-04,1.089146668928685051e-02,4.239657791397638369e-03,1.798009206740416033e-01,1.042789645936192944e-01
5.260462338297827029e-02,3.241431109266131537e-04,2.974875380103734340e-02,1.314046549089141827e-02,7.163748722394085037e-04,3.256306141057810225e-04,1.841536093332048901e-02,1.410133522603105281e-02,9.833299818072109566e-02,1.022102762326848602e-01
9.234109670850469687e-03,1.424495243566433964e-03,3.519419046586506894e-02,3.067230962482975221e-02,3.546100999666012893e-04,6.052101100004188359e-04,2.902958278607668807e-02,2.364687166452585781e-02,5.421984889478453917e-02,5.467147240553385523e-02
9.187786086740473701e-02,1.420949297113790685e-02,7.320093578659480314e-03,1.567645555852248060e-02,3.051570279231957412e-03,3.233884201121583601e-03,3.391490538949965688e-02,2.865678287260309959e-02,4.293615060297562708e-02,8.865333763687480856e-03
1.580101799226123205e-01,3.348057152473385423e-02,3.937566993445611348e-03,1.094740890399254103e-02,4.320556445986693458e-03,6.640511163087809733e-03,3.442072453498782464e-02,3.212321758732127747e-02,3.630954594509809563e-02,4.756306012805226052e-02
1.718295491047835966e-01,4.388067951385771215e-02,1.330302694087209109e-02,2.225703325873045618e-02,3.097868593594906017e-03,7.838845280227791160e-03,3.439088652003681468e-02,3.782548899335193976e-02,2.603070664980891569e-02,5.417845820380885052e-02
1.336796795565551588e-01,3.895618131731848344e-02,9.502849658582215517e-03,1.402069174167807665e-02,2.640854603633109848e-03,5.381252612332208807e-03,3.276089087909164060e-02,4.341260151549185958e-02,3.272073341874455477e-02,4.305262379643796933e-02
7.617618346995408407e-02,2.737180879313804577e-02,4.801458777402820011e-02,3.000282816199035391e-02,4.944460548041743411e-03,1.537375532201127465e-03,2.668489423375870404e-02,4.228442843891424413e-02,6.684531398230682264e-02,2.742674431205316746e-02
3.082887926219258709e-02,1.755799061471425421e-02,1.227388466587367305e-01,8.403599163746160172e-02,7.940621740519654415e-03,6.661110198393090619e-04,1.611080658532591803e-02,3.002360318355899380e-02,1.057757224677869090e-01,2.006522955827523547e-02
8.241917090126000059e-03,8.110360859505503714e-03,1.619934567908501433e-01,1.211684935192136048e-01,8.995080558098047727e-03,8.609897981554989884e-04,4.059662830679960921e-03,8.564559943265038361e-03,1.224640787460514885e-01,2.446552241320533450e-02
3.174160840654977576e-03,2.529503645634026496e-03,1.553002412081837813e-01,1.346211363203669853e-01,7.979294009925988473e-03,5.462519597465617226e-04,4.520193043946244688e-03,1.206512867523809943e-02,1.205434628445856832e-01,2.526637392739895793e-02
3.304237787797212680e-03,9.892066022618413793e-03,1.165126670411748971e-01,1.203855019339799132e-01,5.920639753938999883e-03,5.702893339184221836e-04,6.054857892023450192e-03,1.606549383680338713e-02,1.218608707199041602e-01,1.859447522255739532e-02
4.251793089063726251e-03,1.241758643405106895e-02,5.660525682646876111e-02,8.022571040318308977e-02,3.200240011054228308e-03,6.940958553660970046e-04,2.412203036715747113e-03,7.049591475495340168e-03,1.310793923822700935e-01,3.562985694474950227e-02
2.020748674595744879e-02,1.473401940758202293e-02,1.503943094915878315e-03,3.818106885522520866e-02,2.769199703468439282e-04,6.559194319986064083e-04,6.862637169435595319e-04,4.906334829761699323e-02,1.366203366917688733e-01,9.455651114245645916e-02
2.722802342418209620e-02,1.720821609720080483e-02,5.723105689309947695e-03,1.949530547221897323e-02,1.897780269516214421e-03,5.723221481691474159e-04,8.754466172005105282e-04,8.502712506874850196e-02,1.351607188634031398e-01,1.505964746916385877e-01
9.027977211503116634e-03,1.317839866742080875e-02,5.017722956667999834e-02,2.426299313230651997e-02,2.817106984192178053e-03,5.617930923890110395e-04,7.124400339367346208e-03,9.506297835619541281e-02,1.307041463665475078e-01,1.424278051441126569e-01
2.675194683854600561e-02,8.256466629269847667e-04,1.366138318230949722e-01,4.829445575004424895e-02,1.673231534678342684e-03,5.709411521950036100e-04,1.450819967641592961e-02,8.244060654298612789e-02,1.211880178602524338e-01,7.378246397735557793e-02
5.786139478298044786e-02,1.189748791700371601e-02,2.111702224162002040e-01,1.006886887709879802e-01,3.217446135159533413e-03,5.443141705380740662e-04,1.834726539024147257e-02,6.390710523670725673e-02,1.048138953234950127e-01,7.839746984228193605e-03
7.606718566687355187e-02,1.810657422567669289e-02,2.535474639100855909e-01,1.702475425866405989e-01,1.111837005449218749e-02,5.067481705402187816e-04,1.651539279272932342e-02,4.780980502081465938e-02,8.842731032387615708e-02,9.672531525025085744e-03
9.065704445103771325e-02,2.020387917117439855e-02,2.589509272318055721e-01,2.121802340892254002e-01,1.726782463281997110e-02,4.849785499988289823e-04,8.578076119950990563e-03,3.400812393915847442e-02,7.811318373807973892e-02,1.145732596703918568e-02
1.050450139194369914e-01,2.371431083028835429e-02,2.293293250731897048e-01,1.990991266149295669e-01,1.792531889609889559e-02,4.681702661869124762e-04,7.543276740590607737e-03,2.832084182022110222e-02,6.892795465784506970e-02,4.010949589986696068e-02
1.066691291496981026e-01,2.828483908965174348e-02,1.735026988709287843e-01,1.498357151704682866e-01,1.434123815876624589e-02,4.441280225399840535e-04,3.090149168350794090e-02,3.728617639850423382e-02,5.003904330318740407e-02,6.280938579160638691e-02
8.579289027404156387e-02,2.924599873949793732e-02,1.007033163269437648e-01,8.991765976496977897e-02,9.523137654214792677e-03,4.182077891102440833e-04,5.109551314930198956e-02,5.022258624686936485e-02,1.798569151401318428e-02,7.788963566232069702e-02
5.157482100490263371e-02,2.534532357313633300e-02,2.031941843352060365e-02,2.390832743216193823e-02,4.332909364953383725e-03,3.965835136810144938e-04,5.555498265170098759e-02,4.555441244126883643e-02,1.877652173292150561e-02,7.865834378967588580e-02
1.784299072768912031e-02,1.964888110049172604e-02,4.526214745209121426e-02,3.823659529689319575e-02,1.447172506572929045e-03,3.771794115654750613e-04,4.295518475369725087e-02,1.809554714399330341e-02,4.909479762388067881e-02,6.349032622025803374e-02
1.172684027645178040e-02,1.430577381095391593e-02,6.356608087089812842e-02,6.675119016605399191e-02,6.765808387048516392e-03,3.573874336507173576e-04,2.357757159523826349e-02,1.309265192531260114e-02,6.761940547546799185e-02,4.503625667145290390e-02
2.506310537820084783e-02,9.949514277714590488e-03,2.180601109957029313e-02,4.594600015248400532e-02,9.661760812642375407e-03,3.384016565572317060e-04,7.909056354415949092e-03,2.788642864053381132e-02,7.336884210516204929e-02,3.536212976017366616e-02
3.580234320529762301e-03,7.624270358847601639e-03,5.300934154433811774e-02,5.318469744078138661e-04,9.250987881458854270e-03,3.216530982426015861e-04,1.083649350832034544e-03,2.673709850191757081e-02,6.896574924857981626e-02,3.873268153193199642e-02
6.703411824163175992e-02,5.648510745251461053e-03,1.137605412435895025e-01,2.858219241031814337e-02,6.998680405889585142e-03,3.067335832781910515e-04,5.909355601622276119e-03,2.356651396777265442e-02,6.407063401597004604e-02,5.965405069537815796e-02
1.074620887021983384e-01,1.048091126618053408e-03,1.296727933392352039e-01,2.304043635386525748e-02,5.891138609415222036e-03,2.930382619766538259e-04,8.725301777701132203e-03,2.428242426021363920e-02,7.143880800191469704e-02,9.399566177444440562e-02
8.387726647287327419e-02,1.350143452389796807e-02,1.002930630977863780e-01,7.222214878320836438e-03,7.517902419931781106e-03,2.807578552564089021e-04,9.695629225794285058e-03,2.346608101644951511e-02,9.528363422157677676e-02,1.178172842722386010e-01
2.601732864584322194e-02,2.564130217302528977e-02,4.433729122382006060e-02,4.439643360417295376e-02,1.021281703341295373e-02,2.701232245381387760e-04,1.069687843314498163e-02,2.120286617610630739e-02,1.256054005262892959e-01,1.083751688913895117e-01
7.613754167804312467e-03,3.093184947505906585e-02,1.661400686453547507e-02,7.731279270790375469e-02,1.131617551829620406e-02,2.609345426020824523e-04,1.641664341596430626e-02,2.791720839760504502e-02,1.465018802536591225e-01,6.780842918067724046e-02
3.054736427779298699e-03,2.705310604143109851e-02,6.993655769024656466e-02,1.023686030685117127e-01,1.054059766663530823e-02,2.529136642101081477e-04,2.770980575588804368e-02,4.495907485942147314e-02,1.519806921649913267e-01,1.431671462649326473e-02
2.994999477868276819e-02,1.587870385919699923e-02,1.144417364561286787e-01,1.207391588716166947e-01,9.523189532019270265e-03,2.459345522651431291e-04,3.722360904202471482e-02,5.471845460630373609e-02,1.508255692476692389e-01,3.445299620188729123e-02
3.095959774922214802e-02,4.878477568332805284e-03,1.495057305878573495e-01,1.349000181549439847e-01,9.102445819751604078e-03,2.398678665164796623e-04,3.774305979851037135e-02,4.339481847258035846e-02,1.521052860039464605e-01,6.454850889933200220e-02
1.187364073790560942e-02,3.735113571240513200e-03,1.641792036959134060e-01,1.446158774319968865e-01,8.803953539876289286e-03,2.344788777010122253e-04,3.225736900706058230e-02,2.227126336817406363e-02,1.523829494762520276e-01,7.082585938358770816e-02
7.258109346140655116e-02,1.254314241459423933e-02,1.449617225823237598e-01,1.459085458800622737e-01,8.253574998697889645e-03,2.295074453865275416e-04,2.907314887503540876e-02,1.152281034464989681e-02,1.431610521590019891e-01,6.422854411896139482e-02
1.045830044178318458e-01,1.932094009841019838e-02,9.401898769522508414e-02,1.343411465008193528e-01,7.656916800855447652e-03,2.247257850417828831e-04,2.989783330695805486e-02,1.348755259637537257e-02,1.227362210136120346e-01,6.300416234491713896e-02
9.533388716824039988e-02,1.598724537648507985e-02,3.370559948624336777e-02,1.116275107434345909e-01,7.189333275835635591e-03,2.199110251255915376e-04,3.046616355304471169e-02,1.866992857411746073e-02,9.601232103140436291e-02,7.273296034409934552e-02
8.056489389186095862e-02,9.784901088588246476e-03,7.085531375356658029e-03,8.900452814189846462e-02,6.756531099893422175e-03,2.148272074405142102e-04,3.054499390946277537e-02,2.893372149564019460e-02,7.022849902576557002e-02,7.983587956824640675e-02
9.010769080601493952e-02,1.223005412359406442e-02,1.105154618555211944e-02,7.768071645537667769e-02,6.274785472787062710e-03,2.092471582845295509e-04,3.442067376674141921e-02,5.430050990278392775e-02,5.160534979998918775e-02,6.995480524576355719e-02
1.067042702583120145e-01,2.379874335792498546e-02,1.835729227107403896e-02,7.640047515729468663e-02,5.786697452985442060e-03,2.029700581519225844e-04,4.128766636550142144e-02,8.804602385468789094e-02,4.129978426013066611e-02,5.062892520356936793e-02
9.840608419142343744e-02,3.539887214366868595e-02,6.423775203199784400e-02,7.739343428999714836e-02,5.331564135458178970e-03,1.958197101979518696e-04,4.335104002598090533e-02,1.031569778700974077e-01,3.743477046789669971e-02,4.365175633624771706e-02
6.423196174476872300e-02,3.885106789688617945e-02,1.122237274970908499e-01,8.085359886906842708e-02,4.889624993449560864e-03,1.876438106929925330e-04,3.608731035252071839e-02,8.061550649093082721e-02,4.091219266716558667e-02,5.249648467366556381e-02
2.893656107561612054e-02,3.223807936223019310e-02,1.565100253878155268e-01,9.183252062828144158e-02,4.442103265917879060e-03,1.783213162046871382e-04,2.456309205218732555e-02,3.196120685339459699e-02,5.358386130143573400e-02,5.493984870637846907e-02
1.463103914800827077e-02,2.066603011885037242e-02,1.931281607588200555e-01,1.079317831893501778e-01,3.998069854560579346e-03,1.677683345125683041e-04,1.652360228919033669e-02,1.267801062990935729e-02,7.373428073945129113e-02,3.435314958649517830e-02
2.893392839662026900e-02,1.375052747666833525e-02,2.143930343635022662e-01,1.211381491979749980e-01,3.566675466395345575e-03,1.559389750866124703e-04,1.262454523869854101e-02,3.342491049260321728e-02,9.662719532893303265e-02,2.794984435351209433e-04
6.606112230068367230e-02,1.725116645660828771e-02,2.101046832325858815e-01,1.257917819578771301e-01,3.144243583300639685e-03,1.428255034338967724e-04,6.454233668029543333e-03,3.238955703544067755e-02,1.128964233545537432e-01,2.735262311539437066e-02
1.133552662384383347e-01,2.604829716047716084e-02,1.725889478794924992e-01,1.168326586569478076e-01,2.727119170880858579e-03,1.284594591274206368e-04,5.870697631311778270e-03,2.169395565125945696e-02,1.078682884638299255e-01,3.720189463672834984e-02
1.573640981831779528e-01,2.894102979412480417e-02,1.070265253542036082e-01,8.966622343383887084e-02,2.317866556107359838e-03,1.129116951706768185e-04,1.853830243981157561e-02,7.734436254605338464e-03,7.523710068476216484e-02,2.668512896385511618e-02
1.794521994992201996e-01,2.035493248048515086e-02,3.890249588518962520e-02,5.010151776484923769e-02,1.919319121501747959e-03,9.629054232182022478e-05,2.176174877884687678e-02,1.253616690186179494e-02,3.039763581445157486e-02,1.363953943595177035e-03
1.576982832469083495e-01,4.813558674455805340e-03,1.970826840377923675e-03,1.551422849044855994e-02,1.531588199083440014e-03,7.873908457676993735e-05,1.339308809580951401e-02,4.454676979945583482e-02,2.808379809428579454e-03,3.847628424180055823e-02
9.363257376309581936e-02,8.898947622861246021e-03,1.078759395441417079e-02,9.833926977315769757e-04,1.154790319380948494e-03,6.043200301977820065e-05,2.847587380901536389e-04,8.455631456279122382e-02,1.658368856983256576e-02,7.385240608889499792e-02
2.631896422823213136e-02,1.523142242544854585e-02,6.446268453229538758e-03,1.778589948944777482e-03,7.904531524018739872e-04,4.157163480496227755e-05,1.056170162755151395e-02,1.126960423258420163e-01,1.945901786422545368e-02,9.655284583950492217e-02
6.607581488224992944e-03,1.505617364328029097e-02,1.818056534230998167e-03,2.312893059368293161e-03,4.402229061081096469e-04,2.238315986598948424e-05,1.690132924717349314e-02,1.045292353327380852e-01,1.764472138791082709e-02,9.483741583757439308e-02
1.409927115719460979e-02,1.462591700735834006e-02,2.286201084625399949e-02,5.060496624364153526e-03,1.051535145451577575e-04,3.109235410031217545e-06,1.834217223356215953e-02,5.607528926153897142e-02,9.107220590322985879e-03,6.588815045963961059e-02
3.197276433091135461e-02,1.998194740491304397e-02,5.215125656402393867e-02,8.760198019579723550e-03,2.137364623478211221e-04,1.599570040338977480e-05,1.452999501004248115e-02,8.522311991884527066e-03,6.418531223217604012e-03,2.878577207407781446e-02
6.541695280930452661e-02,2.927390908163158764e-02,6.245541029451353449e-02,1.776249305328395436e-02,5.151658231857746909e-04,3.467140970333002599e-05,7.457850658180290027e-03,5.868325935310185482e-02,2.280402986444374225e-02,1.120888238095356718e-02
7.936413277533985178e-02,3.342516515968772112e-02,4.291544227782467802e-02,3.134718769200989935e-02,7.978903540864415835e-04,5.265801934370186170e-05,1.393289201889891769e-03,8.096101497596211449e-02,3.442026662493907763e-02,1.850269589810115550e-02
4.907277611028713904e-02,2.846243769541644680e-02,2.012672099372960280e-02,4.505972753590656299e-02,1.060888326923320945e-03,6.970217713104427952e-05,9.480640353238265275e-04,8.014501640141379057e-02,4.197520123139424769e-02,3.206034755754944010e-02
5.084047564627783289e-04,2.203477608744792288e-02,1.921050417398981885e-02,5.556907497127738793e-02,1.303263465255530967e-03,8.556303175741379044e-05,2.919480116553615622e-04,6.650094772892478634e-02,4.914095891018482876e-02,3.935832374601598571e-02
1.834238868655311411e-02,2.173692713204838922e-02,2.645858268701194171e-02,5.832474031865073072e-02,1.524195561167621159e-03,1.000179139955312930e-04,3.836061006568444558e-03,4.876504045419130517e-02,5.423195948078755879e-02,4.620839211807266367e-02
1.560851734617176370e-02,2.393801817322012762e-02,1.301084124131471169e-02,4.411988327944234289e-02,1.723020647002102088e-03,1.128675946993221244e-04,7.156337159325299076e-03,3.559422661761554169e-02,4.762774741700508824e-02,5.848970322078109185e-02
6.854533370281176707e-02,2.120381773687411014e-02,2.083792253272987588e-02,8.529834187411947100e-03,1.899286217478625199e-03,1.239409868502047804e-04,6.798911355018925212e-03,3.321690530885110237e-02,2.204880015369878321e-02,7.148383123996651656e-02
9.263117025152652062e-02,1.275083376468192850e-02,4.745155908610217826e-02,3.560791203319144116e-02,2.052740472824416285e-03,1.330991772292695571e-04,2.645543198051293881e-03,3.646775173470344356e-02,1.438492910588271695e-02,8.097879089999034108e-02
7.378958847278556388e-02,1.110885592005619047e-03,4.819688864317998866e-02,6.590728055145578246e-02,2.183326764264948393e-03,1.402386988636210481e-04,1.159538354664643896e-03,3.013198820549502568e-02,4.223193237752660700e-02,9.124866870801230656e-02
3.526227647807472776e-02,1.246589505167734584e-02,2.660544708160181293e-02,7.164894268658512921e-02,2.291202801874888534e-03,1.452939719978071996e-04,2.942152526411851571e-03,8.936711892119714867e-03,4.976700645766356235e-02,1.061882975270084933e-01
5.345838933014058700e-03,2.298006721625541274e-02,7.301619914705626858e-03,5.907338174466640612e-02,2.376751165527889436e-03,1.482388572571625269e-04,6.229506664074375456e-03,9.141752235194334011e-03,4.161378221156740442e-02,1.167076715425241634e-01
4.616667814013529839e-03,2.124006510488646651e-02,4.174116300799667750e-02,3.909219791994172910e-02,2.440571346338695890e-03,1.490872869066008847e-04,1.221733039924895875e-02,2.100884747492647118e-03,2.832159113490597541e-02,1.035122357417498640e-01
4.950312470430964264e-04,6.005832392587659441e-03,5.740906946984370568e-02,2.086721185554760855e-02,2.483468829145838320e-03,1.478929641529499691e-04,1.617178613883850716e-02,2.565050544334118374e-02,1.498751876420596242e-02,5.860677960708733647e-02
3.474081127733463954e-03,1.030731147194843995e-02,4.186486911714783210e-02,1.292368240189340281e-02,2.506446109759593623e-03,1.447481422045484201e-04,1.543709129747105994e-02,4.468989401489560642e-02,1.102299739603108735e-03,4.094603064117201610e-04
2.672247599923779915e-04,1.514658101776840925e-02,6.801661777694174328e-03,1.817896813981685969e-02,2.510688732153111644e-03,1.397815155910792800e-04,1.374391031278393745e-02,3.290462642597649645e-02,1.286967147937336312e-02,4.304513505743082918e-02
6.638119107288582149e-03,9.050047145543686777e-03,2.635589659671921936e-02,3.090875505930512981e-02,2.497544414161042246e-03,1.331552772361313584e-04,1.365493202814052273e-02,3.413503893113984701e-03,1.823477459666282205e-02,6.320470143033883603e-02
1.416453303259020829e-02,3.958680936188230465e-04,4.879464078876800254e-02,4.545953130398169839e-02,2.468499068038364740e-03,1.250614146419161941e-04,1.235946865225995978e-02,4.142798342319225363e-02,5.507049790677209442e-04,7.154177725719101932e-02
3.003913956636138777e-02,9.510704624338530561e-03,6.013440256379171123e-02,6.116703973721208248e-02,2.425151381506267072e-03,1.157173360381132733e-04,8.668713483819982107e-03,6.662225160817825120e-02,4.802590352266678658e-02,7.537942633832266093e-02
4.618649648003676084e-02,1.618212505674178001e-02,5.955199168258536180e-02,7.559604781792589323e-02,2.369185009550944018e-03,1.053609324429322547e-04,7.174773969046396686e-03,8.240830437102264483e-02,1.030158977310699775e-01,6.866035462800780531e-02
3.790240994818330766e-02,1.592959009395961481e-02,5.317858495821502218e-02,8.280943397952426899e-02,2.302338494813832397e-03,9.424519431679985015e-05,1.187620600553379591e-02,9.738931043548634814e-02,1.349825628407620159e-01,4.669285003265342959e-02
1.907264336931481508e-03,9.448028964642007574e-03,5.082067335723628593e-02,8.005488144888348034e-02,2.226374361471987039e-03,8.263251140054486774e-05,2.036280977644945589e-02,1.077395367644293500e-01,1.342056836842975553e-01,1.655763057980007627e-02
3.195987367059620332e-02,6.205102695528005516e-03,4.751297736179072029e-02,6.864233839872711795e-02,2.143048365544414011e-03,7.078879102784455912e-05,2.667990978499336016e-02,9.865019492175483573e-02,1.144120401664566883e-01,9.090882610431404859e-03
3.845278999072981874e-02,1.212108373334538393e-02,3.156094478331449016e-02,5.112408232439023814e-02,2.054079220725422202e-03,5.897753362737415562e-05,2.733800612626443444e-02,6.424757288606265659e-02,9.037156498996209986e-02,1.801286220051684026e-02
2.622531777964593955e-02,1.973906845713070332e-02,1.391616356566193619e-02,3.380451150572718472e-02,1.961119356696067531e-03,4.745400430846725552e-05,2.366532219663720904e-02,1.722361232928039040e-02,6.588306410143375536e-02,3.746999736305611957e-04
2.529485700357784334e-02,1.675521462044515103e-02,2.007406049229163228e-02,2.536232354124631772e-02,1.865727659069392561e-03,3.645963633714398614e-05,2.016550292813071299e-02,2.577340411637974935e-02,4.039171919150526952e-02,4.335197282946363223e-02
5.342770939556042847e-02,6.744388451232626817e-04,4.963902943186479511e-02,2.647175131815495547e-02,1.769344894099123249e-03,2.621679601223169634e-05,2.073642243205156901e-02,5.897999310516329613e-02,1.569704184546093576e-02,8.267306935633590703e-02
9.270856309116477789e-02,1.761923639979976267e-02,7.351281668454093254e-02,2.728068589476579514e-02,1.673272010480286731e-03,1.692402913046657252e-05,2.500192230758029391e-02,8.315595709010950576e-02,4.495830090809565735e-03,8.553502850372804445e-02
1.024797029899895268e-01,2.336721763118192186e-02,7.320206147276622777e-02,1.998631693996127251e-02,1.578651685481939366e-03,8.751897144123379482e-06,2.874859737357763137e-02,9.779680492004061421e-02,1.616152546661740047e-02,5.699363527994399936e-02
6.435818402949003425e-02,1.182595665263281269e-02,5.719927805469168097e-02,8.137657001189678094e-03,1.486454130132222173e-03,1.839496561378709747e-06,2.846170829431356186e-02,1.027456462281890054e-01,1.666211640377153122e-02,3.956566343942437974e-02
1.014153746983989177e-02,6.679878964073963227e-03,3.982920272650935373e-02,7.881827454937206934e-04,1.397467619262996461e-03,3.708261530605168332e-06,2.351816510749531186e-02,9.751078737517342165e-02,7.530799375381971514e-03,5.729820919837770588e-02
7.438959331869171229e-03,1.767175485704376367e-02,2.624235017117053717e-02,2.382092706109105798e-03,1.312292629909094562e-03,7.822553316154203965e-06,1.441585735675289352e-02,7.876723465547706693e-02,6.740353642348383828e-03,8.378217145346313066e-02
2.532656071236642423e-02,1.697691659399169425e-02,1.557859185476820341e-02,1.000764941840903179e-02,1.231339259748359671e-03,1.047168660464140654e-05,2.860265884847217922e-03,4.854547911406494054e-02,2.390462640222800611e-02,8.203172568480450455e-02
6.604155158257635216e-02,1.006500155213719411e-02,1.918139133133068067e-03,1.820560896019023100e-02,1.154830621980519308e-03,1.166126923704519742e-05,6.549565395733483557e-03,1.980339397296480841e-02,4.363847238109763715e-02,5.126087236010692244e-02
7.090835154170854748e-02,1.006854050237213213e-03,2.132394487208924549e-02,2.568998589063733323e-02,1.082812991381874217e-03,1.143350381831716807e-05,9.166181964296405554e-03,3.700036015085192073e-03,6.175858113130149041e-02,1.677312782207249914e-02
5.037792382314744410e-02,9.090145476556437537e-03,4.433098064495065438e-02,3.503691430532605844e-02,1.015166661123753688e-03,9.865631582736032284e-06,5.224385552456058124e-03,2.099567216412462703e-03,7.106418347828342974e-02,2.265546002910599939e-03
4.710107696041277575e-02,1.585325694780737038e-02,4.198416639336053496e-02,4.446302646297856792e-02,9.516150716742039547e-04,7.067568061845030532e-06,9.268405889078586320e-04,5.422887824618466759e-03,6.873486939171113974e-02,1.046092947199952355e-04
7.043457301259702097e-02,1.442157554850443876e-02,7.802944809456573844e-03,4.648435993738603278e-02,8.917441108075212317e-04,3.178791952081305407e-06,5.642118356099904558e-03,5.967244519282387076e-03,5.819636187137078309e-02,2.029361472335356603e-02
8.384421671332345505e-02,7.536146151099252545e-03,2.997807732046291543e-02,3.849895129527357296e-02,8.350358943125195778e-04,1.635434261060945846e-06,7.848578953880202408e-03,5.984544277293098700e-03,4.491034883222198848e-02,4.675322647414590499e-02
5.995029156489830452e-02,3.874378342836683458e-03,4.186224372386280340e-02,2.749835803242775198e-02,7.808902817867530155e-04,7.188418167066797876e-06,8.171776310833234538e-03,3.664746707099860584e-02,3.407124575340243766e-02,7.213480583184098127e-02
2.063719387954699933e-02,8.968226232557895833e-03,3.011513552317776274e-02,2.154423205823787629e-02,7.286225738363787553e-04,1.327685913495707278e-05,8.293043457881177360e-03,7.275592992683366234e-02,2.939514937796276067e-02,9.837401275887927565e-02
3.957923619202535076e-03,1.965494203309558693e-02,1.845981087847180929e-02,2.343541060425904238e-02,6.774923910065918211e-04,1.968602091206134267e-05,9.183213070548897419e-03,8.610908976011841243e-02,2.998584618733008550e-02,1.186201939380090442e-01
7.543056829441260706e-03,2.607094091294362773e-02,2.525024591921866401e-02,3.233194061425581634e-02,6.267879113935003431e-04,2.619513069059995627e-05,9.343788726378667725e-03,6.320418470576542880e-02,3.047251433707982848e-02,1.147212857262871200e-01
5.653590741864053699e-03,2.052224965639482673e-02,4.997980969960873210e-02,4.392942807292430502e-02,5.758466384432850849e-04,3.258287571111714029e-05,7.240963557903863299e-03,2.084495068363837605e-02,2.698723169983596737e-02,8.642791176336914183e-02
4.804811547565496221e-02,5.724071889697089285e-03,7.159920239142886222e-02,5.029235816616031696e-02,5.239559478095571782e-04,3.863286702883400825e-05,4.414798093740464335e-03,1.770317477961962788e-02,2.034807828126386497e-02,5.788199733955094045e-02
8.444025846776562205e-02,7.799256429968919047e-03,6.530985181230225534e-02,4.586602836940036065e-02,4.703837193174606295e-04,4.413894170101563172e-05,2.782393108510789522e-03,4.737561754163787525e-02,1.098023463320812500e-02,4.192660394344748659e-02
7.921973207745158785e-02,1.280345563932205541e-02,3.530935874257978141e-02,3.250605120348689508e-02,4.146648785102841853e-04,4.891017930154968618e-05,6.087207254466709284e-04,6.871702047307774730e-02,3.779544536952267504e-03,2.373217293748935974e-02
4.822260065738905033e-02,1.261436276037049622e-02,1.777448062598299336e-02,1.601006531914818745e-02,3.566107910704700780e-04,5.277551620380204302e-05,4.885750107624297831e-03,6.918596990048085649e-02,2.110294135539409616e-02,6.893855375888355980e-03
4.226526425413737464e-02,1.620956599988776156e-02,3.493918081424476907e-02,7.499684484348831393e-04,2.957572757321795011e-04,5.558785129825965658e-05,1.211559478052410752e-02,3.856505645752014710e-02,2.777908319897316389e-02,3.151846119584455347e-02
7.635511331561145587e-02,2.459608848408295287e-02,6.393422235457384140e-02,1.146801256831560430e-02,2.313808249875834531e-04,5.722754946949181051e-05,1.633202495927624232e-02,7.599013104894192239e-03,1.487901479599220214e-02,2.980371788133991812e-02
1.017075196628048350e-01,2.650562730864919336e-02,6.957591797034158587e-02,2.116854500657719407e-02,1.637183626233878401e-04,5.760526393424555437e-05,1.628922193696982421e-02,3.850689971396943634e-02,6.976886477591575514e-03,1.283500199957932249e-02
7.143365495509955421e-02,1.335648314065914638e-02,4.913872242194411433e-02,2.966614372837138996e-02,9.399383638025466531e-05,5.666401507817597679e-05,1.548824285754629888e-02,3.968102100438311575e-02,1.903437940657618996e-02,7.156301227456527900e-03
6.565642835725574687e-03,8.100603514704806177e-03,2.576796800223460360e-02,3.438278440834124233e-02,2.183166812571752670e-05,5.438048132317415231e-05,1.548482462557731164e-02,2.544155344789064341e-02,1.741492646827895105e-02,1.475444862152783948e-02
3.904201565411231922e-02,2.497113238001890528e-02,1.395965320621935651e-02,2.879316058863625599e-02,5.486184605816503044e-05,5.076547638174571612e-05,1.351055953914077727e-02,1.863619201470944481e-02,1.284532472639140881e-02,1.411899178843578628e-02
5.005592366483510580e-02,3.161262529140469041e-02,8.040241584027368188e-03,1.247948641768035355e-02,1.343840718276237975e-04,4.586360656179066749e-05,9.674520313886946637e-03,2.091035033752194211e-02,1.119994545803831842e-02,1.463531694234481220e-03
4.351436742913446926e-02,2.883262919224417395e-02,6.143295955569801244e-03,2.985409673438913208e-03,2.108569480309331503e-04,3.975212111856536045e-05,9.569266610299631895e-03,1.036933178802132080e-02,7.067409948805868265e-03,1.227676597880040903e-02
2.196942105546797336e-02,1.983284925943112897e-02,3.609123791488894062e-02,5.751314632004763186e-03,2.860231884972059039e-04,3.253898755717201053e-05,1.487549420916148973e-02,2.666523522443442831e-02,3.544600735778174680e-03,1.546705085474521122e-03
2.040079226984009564e-02,1.027592348388138566e-02,6.936770475638441569e-02,2.718351666737615999e-03,3.704032558133813261e-04,2.436024182828748451e-05,1.831382309027087402e-02,6.872808750894705832e-02,1.480335540855566220e-02,2.342130112489883634e-02
6.592514138974669979e-02,3.824471978781817608e-03,7.734603080620013060e-02,1.342691687130806097e-02,4.581820053493507487e-04,1.537668011495517805e-05,1.384990520644834022e-02,7.556484067397734039e-02,1.932142036153671263e-02,4.238159920303364442e-02
8.648334571143256877e-02,2.029213041113623120e-03,4.656423374939328702e-02,2.322294941826463441e-02,5.241389723848636573e-04,5.769973994929765329e-06,6.174357076821971636e-03,3.424955461869119699e-02,1.870732112067590575e-02,4.290886937543654522e-02
7.820855301211927790e-02,8.837912557151673607e-03,8.788405902593792243e-04,3.256607539826640585e-02,5.772647498087994352e-04,4.261696161289089958e-06,3.972546386686647522e-03,2.099706784588606379e-02,2.051890974530561074e-02,3.099038616655458087e-02
5.989733792493840553e-02,1.084800301233068871e-02,2.287958883475389379e-02,3.638857985082331881e-02,6.687892882595272877e-04,1.450838392521727147e-05,7.876179360627681009e-03,4.490473182849222256e-02,2.765844460106129873e-02,2.531063695568304059e-02
4.123757145196141338e-02,3.167031265461328106e-03,1.481775099242515700e-02,2.935635927666173373e-02,7.779502737095447384e-04,2.475338181672336458e-05,1.085042544848847587e-02,2.887994467277273797e-02,3.574664969136977927e-02,3.631655367013440078e-02
8.877545497534682431e-03,9.943364755554743445e-03,4.646912494534299366e-03,1.634112073714521010e-02,7.918051488363690368e-04,3.477836920912698738e-05,8.012700558711064597e-03,8.176301457162304942e-04,3.951115264444037684e-02,5.279877651250802773e-02
4.604081330761698038e-02,2.106334074500966491e-02,1.535876922648929735e-02,7.198445144680395633e-03,7.487219638684705419e-04,4.436858107848476717e-05,1.307943772868609168e-03,2.245000331862434875e-02,3.790590377696431701e-02,5.747370071080240561e-02
9.687139654820982326e-02,2.754271318561899579e-02,2.066688074267049313e-02,4.097007273461740831e-03,8.908240628457127046e-04,5.331787573546797264e-05,3.688000982010243393e-03,3.528991841093036957e-02,3.323087056321131355e-02,5.015575112819333631e-02
1.061075120080730710e-01,3.023063285223046015e-02,3.501275068283307007e-02,2.302845565429163539e-03,1.149314117843793772e-03,6.143358272342141590e-05,2.602498295970072199e-03,4.124858778801590575e-02,2.701907406036700016e-02,4.453431121353534222e-02
7.917671554043750892e-02,3.062841362981805551e-02,5.179299358402271458e-02,5.154358648651411606e-04,9.605199368533630724e-04,6.854101787462041026e-05,3.562650937266687544e-03,3.336551126958709618e-02,1.780000987834666829e-02,4.770181338259965598e-02
5.475716758048182475e-02,2.971707235508031994e-02,4.444117720209370126e-02,2.192901358300755957e-03,2.009999221903662706e-04,7.448756093553790753e-05,8.025144454172763314e-03,1.023461237786332106e-02,4.576117854895080279e-03,5.374563858155797375e-02
3.943028359844773234e-02,2.448357933521862206e-02,1.023363162004368131e-02,7.512394942263428237e-03,2.596693041467720278e-04,7.914620198832216348e-05,5.570217980438918991e-03,1.189454620591793438e-02,8.243247550054809414e-03,5.473540183784392915e-02
4.722301658688430985e-04,9.310646160330823817e-03,1.513225621071432984e-02,1.167469134679955008e-02,2.167322864873434760e-04,8.241847584235555883e-05,3.498516757291692154e-04,1.560149577394867940e-02,1.347602935904399293e-02,4.979598584098381825e-02
7.166059615268297045e-02,1.294008784986524010e-02,6.159642406638477993e-03,1.247616523382537312e-02,9.920065676583609930e-04,8.423671833146292713e-05,1.939611641270841489e-03,7.854827975239234844e-03,9.198492657228437425e-03,4.235716613873002218e-02
1.267071469336893130e-01,2.715804589058432722e-02,1.809310590686929315e-02,1.315063398657636412e-02,1.196600460582564847e-03,8.456559467353387321e-05,3.326391998633168069e-03,1.383148582666878651e-02,3.311534423264582763e-04,3.382652518481579079e-02
1.255942453310452400e-01,2.201255239361446514e-02,2.943689805043811503e-02,1.584087352054841871e-02,9.539823809577924673e-04,8.340286734276119648e-05,1.096691800792106396e-02,4.209016376675429882e-02,8.035952211539944268e-03,2.456594258625966268e-02
8.811469624761077146e-02,5.328222410472342394e-03,3.319935604759668979e-02,1.808049686060315270e-02,8.278562316018047611e-04,8.077938886061362467e-05,1.500119497994501817e-02,7.011750174304161309e-02,1.534290295331828050e-02,1.737002976106928262e-02
6.105786635097359971e-02,4.898999558391242334e-03,5.028437187855884505e-02,1.819779161829956915e-02,8.870575349489092949e-04,7.675832310746652206e-05,1.274768347262508240e-02,7.147628878868475533e-02,2.271115465561680813e-02,1.358439360200458176e-02
5.812150662676514312e-02,1.593342043625375643e-03,7.297945490915079547e-02,1.922166510721312616e-02,8.895091738242253288e-04,7.143361676700997411e-05,6.571330496786630289e-03,4.691465579877232561e-02,2.825190237926764741e-02,1.022997041477533009e-02
5.576465286096169566e-02,6.649699650471370578e-03,6.782111689186016978e-02,2.378201670081180052e-02,7.968988436223216169e-04,6.492775992163089479e-05,2.628285176520796414e-03,1.838803982395586026e-02,2.831372731437383633e-02,7.857639937492378462e-03
3.609336075319275611e-02,1.021251912005290488e-02,2.474613571325303546e-02,2.861953003929504705e-02,7.222357647240077502e-04,5.738889121708329994e-05,6.243040534457791439e-03,3.703255636154632359e-03,2.334894753687486238e-02,1.555507438104082769e-02
1.294692190628162452e-02,1.086343508302868056e-02,2.238322742280201075e-02,2.891821719861506837e-02,6.863611113054173809e-04,4.898731803297426109e-05,1.698245645041346341e-02,3.273184801569811730e-02,1.888736158958977812e-02,4.027209249450095646e-02
1.132997324556316542e-02,1.631738418810753030e-02,3.750181188873365906e-02,2.575379451262647945e-02,6.381371134202341346e-04,3.991153539040855243e-05,2.811713572603945568e-02,7.642443448984678755e-02,1.886360591260033415e-02,7.205230097095344233e-02
2.826774668418885472e-02,2.557695238665125964e-02,2.124870479040175120e-02,2.376389478155023494e-02,5.686796039516494282e-04,3.036383860020772888e-05,3.147293080383461311e-02,1.071197268737103664e-01,2.137116928323784179e-02,8.371878236092694658e-02
2.735585088349228033e-02,2.715904903487273425e-02,7.091222393849344087e-03,2.363179269337958507e-02,5.033303967438890105e-04,2.055563365392199893e-05,2.438005734043299788e-02,8.429351507595034265e-02,2.304897129697061620e-02,5.219267142616380861e-02
1.828964756421996157e-02,1.507902042848401937e-02,3.881863328106745226e-02,2.302742750208878336e-02,4.480412901412850635e-04,1.070255588917259757e-05,1.272765239554272954e-02,8.576482432335517936e-03,2.380284694090056830e-02,1.307083369427890739e-02
9.082040116039045985e-02,8.787664964835699768e-04,6.619892236726354628e-02,2.234504319272372086e-02,3.924438110792687669e-04,1.019511383002392487e-06,5.341562207783990754e-03,7.023871627909533677e-02,2.480521442106050842e-02,7.024778458425313954e-02
1.507408298509613220e-01,7.008160315878649016e-03,6.952230046702026489e-02,2.253938929188569265e-02,3.349621986922252798e-04,8.284243234495081596e-06,4.959075043688101168e-03,1.074445139226100771e-01,2.558122793049021071e-02,8.511244151923658130e-02
1.769039273636414666e-01,1.307140527629031216e-03,3.902491159893706207e-02,2.029388331520137062e-02,2.816556031139772842e-04,1.700986831261952563e-05,8.374352193883051812e-03,1.029432687079389896e-01,2.548987481328205892e-02,6.454780385577725543e-02
1.665945114239552882e-01,8.449960830160328784e-03,4.598942112449678869e-03,1.310661834836968770e-02,2.344205544435589035e-04,2.497344593180639687e-05,1.418378704916344914e-02,7.803299779766603717e-02,2.516786187653331092e-02,4.065998112783557328e-02
1.214907992717561835e-01,1.645064361904780004e-02,2.991990550489539644e-02,6.400469435084135163e-03,1.913681792194986452e-04,3.201011839295553465e-05,2.221817374591541355e-02,4.189300836170021386e-02,2.491778471510062987e-02,3.153640201811035160e-02
5.410417267998302027e-02,2.392870366713184538e-02,2.754000945507393411e-02,7.309985591220119483e-03,1.523362159103757731e-04,3.797776597765359829e-05,2.649520554971941319e-02,6.125606629674281919e-04,2.374870915505918750e-02,2.997056442162970846e-02
9.290210881586644098e-03,3.444172975957859872e-02,1.270435880781754442e-02,1.299019259828875644e-02,1.187673687270680129e-04,4.276014067543719796e-05,2.069178287023668711e-02,3.316877874028896500e-02,2.042567580445314723e-02,2.261090351089051903e-02
4.145058889078995223e-02,4.482924962875616676e-02,5.703540515901404928e-04,1.336574403536321641e-02,9.111910895110507500e-05,4.626938561431286778e-05,1.086810998538503478e-02,4.424160841758324053e-02,1.433147364431803378e-02,5.648122804373347655e-03
2.393029600482306229e-02,4.344605731811418403e-02,1.781894653594636238e-02,5.247948356575001840e-03,6.888602379618392673e-05,4.844788453556360158e-05,9.798022200506214044e-03,4.437800558100156445e-02,6.509947801137803101e-03,1.781844786216632212e-02
4.186787491935545225e-02,2.289004913314390821e-02,4.786744486024763906e-02,4.736432319313550049e-03,5.181475287771962891e-05,4.926940147653356922e-05,1.745082356510973057e-02,4.942954324374725095e-02,5.777911520099413348e-04,4.492523299658918168e-02
1.231938443358672336e-01,8.166582896884020532e-03,7.368869669392835720e-02,1.154483657331916227e-02,3.991485186169449017e-05,4.873948749250455695e-05,1.977819971133541049e-02,5.846421223203020212e-02,2.449510590444795716e-04,7.110397074584796917e-02
1.729525183612236061e-01,3.221996152625303256e-02,6.408901171510225647e-02,1.618139572245069768e-02,3.290098670277608463e-05,4.689514837044375640e-05,9.367855959917804551e-03,6.094916291438182837e-02,5.395169369611666800e-03,8.559148275755577850e-02
1.657309619525388078e-01,3.849427897958101336e-02,2.098358939616688790e-02,1.792650624040630775e-02,3.019612920777890968e-05,4.380378446448620895e-05,4.380367023585129103e-03,5.552899826878312378e-02,1.296247757473857967e-02,7.918844373646612145e-02
1.085678664736445115e-01,2.741695312661121542e-02,1.525464846050744901e-02,1.343600270571893018e-02,3.121158805678535134e-05,3.956143061763980884e-05,1.052711281955480416e-02,5.301830885965290452e-02,2.072251707070086463e-02,5.886179299217335348e-02
2.549913676892333683e-02,6.867692576552634522e-03,2.006173200474105703e-02,5.877352415478823838e-03,3.537092847802900727e-05,3.429034023860827533e-05,1.262781096421490036e-02,6.545503990214011913e-02,2.637430077959232802e-02,4.546404411629455938e-02
5.815827226577321984e-02,1.197725859388956010e-02,1.262708054301466681e-02,4.591017762387002675e-03,4.200379780469108248e-05,2.813597260805011577e-05,2.175161768343391103e-02,9.111423050433437032e-02,2.433226496428632021e-02,4.953118623222780431e-02
1.318291646934061923e-01,2.351105396418821936e-02,1.610941566519205267e-02,1.304344124210508535e-02,5.036011914328226155e-05,2.126345605363953056e-05,3.844292689413736364e-02,1.076857647298224280e-01,1.000860708837970903e-02,5.383057097949475039e-02
2.059773571836304440e-01,3.474044463166974656e-02,2.289814271031825541e-02,2.471067122529984131e-02,5.968792358447448318e-05,1.385361145167298795e-05,4.970609122853935496e-02,9.076481219253132449e-02,1.191819099655672468e-02,3.091151828570399065e-02
2.789486833513347697e-01,5.194208890962759284e-02,1.859844659299146954e-02,3.134487079617722521e-02,6.925612369551880948e-05,6.098630320321236629e-06,4.387937117054569597e-02,4.324417116153466550e-02,3.000928348926133402e-02,2.046327365085368055e-02
3.020137010909821895e-01,6.082579119361907621e-02,1.366935267122237375e-02,2.932227733665503447e-02,7.834685209655671003e-05,1.802490650605473621e-06,2.516069329048820427e-02,6.266280695259166152e-03,3.792544059356212777e-02,6.892031838230858187e-02
2.246055479789664522e-01,3.999125034076130708e-02,2.704655807109064905e-02,2.005049361567038876e-02,8.627260029766006756e-05,9.648651600399296650e-06,1.259908071971655406e-02,3.500197301000580047e-02,3.797359575668877996e-02,8.459881502332970704e-02
7.734565991324267309e-02,3.868814688040311724e-03,5.421300602025439647e-02,1.014090509803058059e-02,9.240616092694677237e-05,1.724137830735102144e-05,2.240157149420528987e-02,4.251961278159169244e-02,3.379801477370772411e-02,6.690745668631549459e-02
4.442389897146122035e-02,3.783860713575096235e-02,7.276025513409946355e-02,7.648613537738695005e-03,9.619660781150940086e-05,2.438946794773541761e-05,4.986908848458947857e-02,3.897174279625513493e-02,2.654786748598450541e-02,3.818880577681341842e-02
8.429486659660738457e-02,4.258378536697173672e-02,6.875348480690311737e-02,1.239577362445625983e-02,9.717703701382938769e-05,3.091344434570649722e-05,7.374463575993805975e-02,3.194856646697305513e-02,1.760997180704050244e-02,2.484831347882605554e-02
6.598465338674601444e-02,2.864342429394359235e-02,4.434594644313961248e-02,1.466721496086675035e-02,9.497647518072531393e-05,3.664972013089313688e-05,7.952918356675478528e-02,2.468119587875839543e-02,9.426591539243757076e-03,4.021381765002537967e-02
3.987609204383888578e-02,1.400465949448727321e-02,1.430028970108175590e-02,8.306084230994437156e-03,8.933088553528310913e-05,4.145437044443287347e-05,7.053881329290795366e-02,1.653558576029831584e-02,3.801461564485563664e-03,7.116262362907373185e-02
2.822427711481493434e-02,4.814797348374900976e-03,2.487881602582947462e-03,1.408963096530114686e-03,8.008638702641920556e-05,4.520643222955972746e-05,5.548151483765523251e-02,2.239047051028857441e-03,1.669932324716416356e-03,8.905275069102619456e-02
1.738067596349620811e-02,2.040457796395115514e-03,2.209119423796890302e-02,6.783776666237401227e-03,6.720128777659793023e-05,4.781065448304611890e-05,3.722374523080266423e-02,2.251689038860272413e-02,3.169228258465844709e-03,8.162472229912359767e-02
9.942578235382304452e-03,8.608986902802904378e-03,5.480700412401776078e-02,6.423467551499224305e-03,5.075172457570457354e-05,4.919963785854588370e-05,1.794940474838915834e-02,4.967178520089739202e-02,7.523030698140659861e-03,6.084250704693961592e-02
3.599745241820283270e-02,1.002634637219133526e-02,6.762109757117941433e-02,2.436701511404117722e-03,3.092823489276292736e-05,4.933531639475605151e-05,4.332641337382843807e-03,6.118141925821692084e-02,1.406560768227166185e-02,3.914862909381384287e-02
2.547025634224014609e-02,4.003169767403881758e-04,4.962038639666208756e-02,2.441541063368584882e-03,8.017287017791106861e-06,4.820974955290983747e-05,3.172020617809795731e-04,5.205703325968162598e-02,2.203871749754793621e-02,1.955409291924815884e-02
1.408069708911071499e-02,1.480576100314181381e-02,1.812798551462052252e-02,4.394179166220684579e-03,1.760569667379211975e-05,4.584520882996700330e-05,1.177067573375062230e-03,4.105890924905557932e-02,2.866436721935986670e-02,9.356283564771210662e-03
3.307428780622555242e-02,2.168985165664375284e-02,7.142083817842398430e-03,2.324161428522862095e-03,4.546003178885024725e-05,4.229355959279753170e-05,8.955278874499201028e-04,4.557636971502782020e-02,3.016098132075465538e-02,1.981640497798667355e-02
1.025620266776136949e-02,1.696272630899043482e-02,2.434146236399831881e-02,3.472050949822715667e-05,7.497559056600620615e-05,3.763495507637451960e-05,7.711723803734832350e-05,5.839573027877294903e-02,2.575432296139131688e-02,4.597294563787875099e-02
2.113017013828454721e-02,1.208535839872929181e-02,4.518117427441829814e-02,4.139753023668746139e-04,1.055655142282207923e-04,3.197587533080000822e-05,5.490943074858384114e-04,6.551051116718263623e-02,1.864005628218523905e-02,6.176441052268280552e-02
2.205551554140339904e-02,1.439791518207142809e-02,7.463818975871842898e-02,2.113351138093924175e-03,1.366372294343591522e-04,2.544655892532915912e-05,1.400840827601223647e-03,7.053024688044058632e-02,1.263787565152946386e-02,4.427229721353532349e-02
1.280467614959002534e-02,1.770423692243669814e-02,9.676942272921591759e-02,3.328925796186144731e-03,1.674851089980485290e-04,1.819788908027005365e-05,8.602462732951022747e-03,8.146395303589899772e-02,9.478973352555869827e-03,3.612456907147445703e-04
6.124325556395573272e-02,1.602290702433860001e-02,8.774786564523794075e-02,3.452335377738564338e-03,1.973152693626599615e-04,1.039780828567439671e-05,1.601693034310548019e-02,9.110790443634303459e-02,9.115666251981598481e-03,3.729572418761274710e-02
9.387048084961065186e-02,1.395272355805745636e-02,4.602968542767033738e-02,2.756933399694305037e-03,2.255285120159387208e-04,2.227346100225059391e-06,1.803131484221748640e-02,8.991556004765165200e-02,1.074520858528928147e-02,4.503462628935482603e-02
9.504057933152651461e-02,1.847999551189228457e-02,2.090745917605375988e-03,4.871932437020194163e-03,2.517284116230575244e-04,6.123646532813788530e-06,1.728269863549253271e-02,8.273963610839898952e-02,1.277063865624853203e-02,3.371995142028624826e-02
7.394776192179151886e-02,2.867504147630117739e-02,3.282870855070964961e-02,1.393582362255951258e-02,2.751702949183513873e-04,1.446095665414268334e-05,2.004242535589518745e-02,8.074068196091122029e-02,1.294071541500660567e-02,3.254949827747869590e-02
4.432779355436143598e-02,3.622867352454731127e-02,4.536736264410094754e-02,2.553947166445661235e-02,2.947806527868798016e-04,2.259055840340633796e-05,2.732093925676496587e-02,8.589183193958119245e-02,1.001282185630299193e-02,5.368240814762943736e-02
3.334326247330743429e-04,3.266903869591354648e-02,4.452308963081219595e-02,2.880208900870986216e-02,3.103822246370717452e-04,3.032314621118567668e-05,3.434324241933305738e-02,8.329931074095087151e-02,5.321959005827308492e-03,8.291622858363219273e-02
6.583813663393849047e-02,1.723711969420373136e-02,2.514951268542740814e-02,2.077027684113840617e-02,3.227278972492348460e-04,3.747854710629501052e-05,3.594262195935515186e-02,5.029002794965505702e-02,1.715834129582986551e-03,1.013063479197482686e-01
1.195590132358954200e-01,7.905818367835579707e-04,8.268339999220749095e-03,9.785526511082073484e-03,3.309232313096864683e-04,4.388991029830424363e-05,3.117822359939844551e-02,1.365375733454279004e-02,6.431231436651581139e-04,1.024952386147995886e-01
1.141738525426218842e-01,1.101705386633173786e-02,2.596045189549651619e-02,2.870546434518374268e-03,3.323184635190826121e-04,4.940757765043271891e-05,2.361462126038002887e-02,8.078386550637738084e-02,8.591016471882384660e-04,8.428010732944631045e-02
5.300027299244262913e-02,1.275902112346459678e-02,3.837593598906347513e-03,2.189677548917758586e-04,3.280348208394119006e-04,5.390254631337257840e-05,1.691650129705390623e-02,1.391336411292593833e-01,2.647886038215996676e-04,3.790547946658970324e-02
1.059394778960358330e-02,1.143040489281522444e-02,4.007713002072988556e-02,1.031648730680631478e-04,3.233563982810367440e-04,5.726944446293840134e-05,1.161175649353592999e-02,2.090362811305129243e-01,1.568061360791769224e-03,3.660266027400590344e-02
4.288315810510066883e-02,7.696649432980377098e-03,6.629298708477304736e-02,4.842860453612019521e-03,3.159473541605539813e-04,5.942895254498592298e-05,7.018441850468421644e-03,2.884572626649992699e-01,3.490788787844041185e-03,1.118316359403380283e-01
5.161737637019916947e-02,3.731646687455134406e-04,6.280201065570491237e-02,9.751658066293418525e-03,2.947085987966921060e-04,6.032961541100628511e-05,3.281284453797769091e-03,3.280858972000919582e-01,4.902624662680667676e-03,1.499792066644512478e-01
4.209453042573813031e-02,4.763182730276831547e-03,4.719949665484279161e-02,7.799500311276329374e-03,2.649047324800478040e-04,5.994900492460479623e-05,6.242493848911557369e-04,2.941253790636936261e-01,6.215123914995372353e-03,1.372810391076248193e-01
1.119669811433266979e-02,2.435998820884069903e-03,2.803429556945524065e-02,2.595407364021334981e-04,2.512469175826400778e-04,5.829420770336537241e-05,7.997851435598769994e-04,2.150800092062660207e-01,7.308368272137343025e-03,9.093205193765828420e-02
1.725338848775373468e-02,1.432375843523667636e-03,2.958824424451464083e-03,6.563131402514616082e-03,2.442889073088636768e-04,5.540162828386585163e-05,6.287340299770830324e-04,1.408218134569711455e-01,7.529634113077422752e-03,3.979286052987045935e-02
1.193323515449227351e-02,7.264155521686122691e-05,3.672479017693953962e-02,7.302178602335981754e-03,1.924100899459387003e-04,5.133611380016959606e-05,8.908058460643519805e-04,8.885571647024791131e-02,7.377270430445743293e-03,6.649631388747970911e-03
1.319954734345709507e-02,1.785786727109840363e-03,3.920839973902090492e-02,4.987639827564983863e-03,1.160571122549695921e-04,4.618942188537183979e-05,3.204269834114976782e-03,4.794163683337172854e-02,8.146841974962307220e-03,2.394250942214728659e-03
1.828204957374197220e-02,3.065263083667578436e-03,3.296523557584933074e-03,1.000519460801250083e-03,1.279402685222637759e-04,4.007806858445544157e-05,5.920056623987262831e-03,7.521851726099884616e-03,9.870797466035093060e-03,1.623022030152607847e-03
7.159861933086847591e-04,8.729982126735558526e-03,5.626333751624045670e-02,5.358952683044905518e-03,1.895492624346443121e-04,3.314060726098909100e-05,7.140354975785957042e-03,3.223562778311810789e-02,1.142483022877155245e-02,1.120322585631828433e-02
1.190352879202525270e-02,6.456427299626350466e-03,7.660635922249367513e-02,1.137098777469475186e-02,5.871317350425315205e-05,2.553440246749009030e-05,4.504544956745168416e-03,6.285706186893906533e-02,1.214368730251638370e-02,3.207918047364662767e-02
1.885350378301138552e-02,1.046286654558985793e-03,6.045994417319798531e-02,1.192460141353884721e-02,1.957209984950515906e-04,1.743197423548259697e-05,3.807455665914450272e-04,6.753091145861096767e-02,1.177409146866069227e-02,4.231414249297772712e-02
3.976387062954876012e-02,6.153492455447426290e-03,3.229150140985319328e-02,5.692102373513814595e-03,9.933700104842197050e-06,9.016997967417573009e-06,6.219964851575286117e-04,3.051115701913515929e-02,1.009498552082552930e-02,2.213411179926367406e-02
5.795499008124154611e-02,8.833415960502674635e-03,6.586397251240233390e-03,4.012382841751805512e-03,7.397600098145884918e-04,4.800528605733120921e-07,5.125209383977369360e-03,4.089894280241381658e-02,7.952115994556044343e-03,2.568025904081969180e-02
3.171392255267978938e-02,1.304077331659042605e-02,1.824279740086798274e-02,1.314443715394873410e-02,1.184119018406442139e-03,7.985782609563851799e-06,6.490725787836684919e-03,1.118014015174774445e-01,7.056397235276598394e-03,8.183400111060551430e-02
3.263921039849432965e-02,1.670993380038351614e-02,4.099860201915217495e-02,1.892113086355183896e-02,6.853451373040414735e-04,1.618938629501432449e-05,9.576167104505929964e-04,1.520797383953666759e-01,7.749122738689238898e-03,1.276431964112944850e-01
7.720873900708068172e-02,1.279307225607875451e-02,5.451234585533531324e-02,1.983147160150925889e-02,1.178630501649397813e-04,2.394599623894693038e-05,6.757336320527599326e-03,1.689183649343678484e-01,8.479456157394867771e-03,1.544232381498006346e-01
6.939455494358955090e-02,1.198091475828133926e-03,5.936948783648451911e-02,1.672388733735009556e-02,3.553828038824808255e-04,3.108146134761235752e-05,1.120605107833820384e-02,1.875504180573163149e-01,7.969669840661931098e-03,1.607100592943621897e-01
2.973726992122010387e-02,1.784403710299044266e-02,6.348966221602750371e-02,1.325308478767929336e-02,1.500545619121901146e-04,3.743624112696875949e-05,1.148416673712228560e-02,2.035634026286068099e-01,6.537368244047381260e-03,1.433509667783490482e-01
1.298985903459570421e-02,2.535620250864085642e-02,6.305003673088271920e-02,1.270526588531141129e-02,6.490804181001399715e-05,4.286906268126432565e-05,8.451854779545034391e-03,1.849796853852650746e-01,5.045041582580104926e-03,9.778950720200967062e-02
4.091643569350953552e-02,1.944520725106307912e-02,3.996649465057020012e-02,1.449676955796929192e-02,1.680714195094738957e-04,4.726015120612940936e-05,2.825419264509673300e-03,1.227956367996042852e-01,3.709456745616282556e-03,2.905547673385248247e-02
3.131371624976975881e-02,7.569001979030228963e-03,9.931816085749634385e-03,1.569437015699705687e-02,2.167407509929288566e-04,5.051396015061378295e-05,4.257033122778188135e-03,4.367141291136494158e-02,2.305656792512305025e-03,4.656783319694391549e-02
2.757719425400235666e-02,1.238678155715574117e-03,6.055237096152146087e-02,1.506599751304508149e-02,1.718714236781312152e-04,5.256133884020292588e-05,1.210861038273310618e-02,3.034800709535049462e-02,7.907310176583754423e-04,1.131920991515095454e-01
1.071943886691490572e-01,6.042928722513559760e-03,8.218623697177436516e-02,1.358950135509312540e-02,1.457488647801425568e-04,5.336108837756783674e-05,2.041634724621811323e-02,9.702895178179482549e-02,6.868212683049645115e-04,1.624508543441149366e-01
1.549040607863806096e-01,8.527842913843178968e-03,7.281643739168369711e-02,1.243158299201342978e-02,1.585126435419649191e-04,5.290087076951921220e-05,2.680321084211241892e-02,1.457985408156801665e-01,2.057320131036558843e-03,1.912608725667318821e-01
1.385624911774243906e-01,4.562219989381335709e-03,5.085039597811032153e-02,1.220700636155919346e-02,1.583586149082148590e-04,5.119745114255777103e-05,2.692948420834352999e-02,1.538608044440729072e-01,3.341961909328747347e-03,1.980666554594327777e-01
6.780763237680650923e-02,1.040629343103140377e-02,2.955874903766985556e-02,1.234857647762236527e-02,1.357835841895670527e-04,4.829626826350461071e-05,1.896375085375885672e-02,1.214340541937265205e-01,4.528822097224877510e-03,1.809783444771449479e-01
1.634122319237400062e-02,3.067148636500358072e-02,1.071751805224643861e-02,1.049680625443259741e-02,1.155686108950664144e-04,4.427034402447523623e-05,6.915944849039462258e-03,8.182612373462265498e-02,5.566709694013456493e-03,1.421545983040965466e-01
7.032332494430305891e-02,4.213259160506446777e-02,6.330814448314698445e-03,5.528198509280503846e-03,1.031725078314470678e-04,3.921855772998432378e-05,2.358551507853087238e-03,6.530123783828357953e-02,6.424088925885100901e-03,9.588903790646730041e-02
8.323326616380306853e-02,3.700258189869050363e-02,2.083177733730968290e-02,1.045983042307461683e-03,8.780944816216246338e-05,3.326332559183906983e-05,5.733756725462087547e-03,7.194780206017012403e-02,7.093556649142730014e-03,6.305012795967293582e-02
8.368992903650000759e-02,2.359853276171500897e-02,3.256192502855269344e-02,1.558926617736635257e-03,6.756801726568600636e-05,2.654773946269764614e-05,5.694251072847419937e-03,8.618913159724830853e-02,7.565052379393828047e-03,5.042031378042182571e-02
9.704539381347186688e-02,1.602842350115555453e-02,4.123125269616351174e-02,5.654593898232629194e-03,4.825756614802593006e-05,1.923223121164258979e-05,5.397294168938918807e-03,1.001666396665097658e-01,7.824021907749072538e-03,4.217686841721774577e-02
1.101795693952864336e-01,1.635869283705315008e-02,4.515111066860148098e-02,7.843156824658345516e-03,3.161284772607620043e-05,1.149083998365667335e-05,4.761719845465342896e-03,1.140936129982197400e-01,7.864357422127273012e-03,1.941975149802972062e-02
1.043395065631695373e-01,1.662024359638046567e-02,4.368741928637429744e-02,6.512410316685002601e-03,1.567138753995640037e-05,3.507168643543163615e-06,2.694329838608806177e-03,1.256183613096045482e-01,7.689655257083597567e-03,1.550689532099578521e-02
9.872746788003790297e-02,1.571997849502877048e-02,3.953307293039021869e-02,5.094334579440609918e-03,2.836634645923889618e-07,4.529877221563089596e-06,4.401901593074134238e-04,1.279105722499826736e-01,7.307228029146736921e-03,4.306475725848216835e-02
