2.506121602545252972e-02,3.347521143749618289e-02,3.746761801384727864e-02,7.949497286174971147e-06,2.827688249752657542e-04,2.278674241337932233e-04,5.065626249572583589e-02,2.114047357634672025e-02,6.946879133739002066e-03,1.630753772454569539e-01
6.810662395386996026e-02,3.684477552041070386e-02,3.956241487895397618e-02,6.454230168727475062e-05,4.320446044494092862e-06,2.619455484811456197e-04,2.834660958201435862e-02,1.543929549571862805e-02,6.716040434393272598e-03,1.261516775760671283e-01
1.080732921758925102e-01,4.011291334038916828e-02,4.137308145883963895e-02,4.819333338131428536e-05,7.510754157223156497e-04,1.051416121446696996e-03,1.165478788902495066e-02,1.278496449365517512e-02,6.223252556154889800e-03,8.364632776088765098e-02
1.123079035347232524e-01,4.387296882153934180e-02,4.482931912192454627e-02,5.584145534098267777e-04,1.236345398820320974e-03,3.470327882760729362e-04,3.027952057546812355e-03,1.318458202162220427e-02,5.718390355898041351e-03,6.294917958581203177e-02
9.392149081199221983e-02,4.769030484464004127e-02,4.637860261878651996e-02,1.219474711254149232e-03,1.036120643777892290e-03,1.089309363895336067e-03,2.103913234139174679e-02,8.102493975349064209e-03,5.472120803402976547e-03,4.811511565133658186e-02
8.718774957848086926e-02,4.671229958065159504e-02,3.731868428786303676e-02,1.443739125202910846e-03,1.964589462828750786e-04,1.076395846009899245e-03,7.751334693871778092e-02,6.155768793833534328e-03,4.479552427462361874e-03,1.587374172174551429e-03
9.710105700471770296e-02,3.289205701455079345e-02,1.382845219743816280e-02,1.054519298579928432e-03,9.103157704022552020e-04,1.625112062961914228e-04,1.408574780324860221e-01,2.011415343069145392e-02,2.544472132127988551e-03,8.224932566373220622e-02
1.039671106500310166e-01,3.925549212074596131e-03,1.775059317016798935e-02,4.471364166613888726e-04,1.712275420921026414e-03,5.601308397020766895e-04,1.693347123819585465e-01,2.321212741232855231e-02,2.690727290914389763e-03,1.485415921236880044e-01
9.817676080730147747e-02,2.915322747030965264e-02,4.526801789510860596e-02,5.069196308399647008e-05,1.846931434824022715e-03,1.990234487933777272e-04,1.582231459053460021e-01,1.799897979317462149e-02,7.905374993060347230e-03,1.921334476007064418e-01
8.147112914810107631e-02,4.798154339607309249e-02,5.740757363087927584e-02,5.343240632299251771e-04,1.424658401477918706e-03,5.956596164653461204e-04,1.358634647040194710e-01,1.613368846041075139e-02,1.581092915800158538e-02,2.500295367561558013e-01
5.362661811156477221e-02,4.442729371014282613e-02,5.202626201325841887e-02,9.662634981832182854e-04,8.599408455319659588e-04,2.295976959211981411e-04,1.168860520858617524e-01,2.391333638620692092e-02,2.068172550901275705e-02,3.231460212921452579e-01
2.513474839406537598e-02,3.024908468385707067e-02,4.116169273070795914e-02,9.222623324242991069e-04,4.533375547442881578e-04,2.641466700659627189e-04,9.254406842074298922e-02,3.641573270227970588e-02,2.030285857626065726e-02,3.566455942307628635e-01
2.341476097856005911e-02,2.367570351769113235e-02,3.944445004780842978e-02,4.374488722444038781e-04,8.811707023383437008e-05,1.067632943837310174e-03,6.193086399537851838e-02,4.496230475165444163e-02,1.651878456111167265e-02,3.214120906429196456e-01
5.981940119817071022e-02,2.730185406709683196e-02,4.655393111444087323e-02,2.465495444075403025e-04,4.200007998152039930e-04,1.569699603570022875e-03,4.130223326416729984e-02,4.648496138957908946e-02,1.067815875013417883e-02,2.570814267924175223e-01
1.057428960433866583e-01,2.685992139733517012e-02,5.025763406315514326e-02,5.522458674904534223e-04,8.741092642464858876e-04,1.186790059928845373e-03,3.913027033408316563e-02,4.312250687736510213e-02,4.056678074227769090e-03,2.116565748213677101e-01
1.227787879370988572e-01,1.165719883361829648e-02,4.417030512790709462e-02,5.288500346481837160e-04,1.110232365158043836e-03,5.501563551347061435e-04,4.378607329368851969e-02,3.550528431747915908e-02,7.312215748638841405e-04,1.840337897830680580e-01
1.031376596879795965e-01,1.315211777710352178e-02,3.142915602053925062e-02,2.702000701668240195e-04,1.266804505319371697e-03,8.499190583930270998e-05,4.220913028409537665e-02,2.281522891380625279e-02,3.535350875048906636e-03,1.535447149662275135e-01
6.458671043326459638e-02,3.694744009480283725e-02,1.354260254444376345e-02,9.447615423858047971e-04,1.133669675664855572e-03,3.802552116073472290e-04,3.707651646247352162e-02,9.793201874724464379e-03,8.128027718788960118e-03,1.317024296396452632e-01
2.223418579815136797e-02,5.735717069985735855e-02,1.151289424464919595e-02,4.575241810440537778e-04,2.863650197956573145e-04,6.547282862180811742e-04,3.838932182608893046e-02,5.568991140520038012e-03,6.676184924494301363e-03,1.467603444513679856e-01
1.555649984456016627e-02,7.601366721660662851e-02,3.738672030048365014e-02,9.331880136464525089e-04,7.845140195520841717e-04,4.266872826692822166e-04,4.551821928866211370e-02,1.140404708440061719e-02,2.195665165095108447e-03,1.916628140020918136e-01
3.728383438736804917e-02,8.512512366591697133e-02,4.595710406160654488e-02,2.061374718563261776e-03,1.011397767848273063e-03,7.454433456598443734e-05,4.659419045796777542e-02,1.654137986739021363e-02,1.038382951031717981e-02,2.227942244665901406e-01
3.794416651551165559e-02,7.159620895617184455e-02,2.511147995621368020e-02,2.007370403772391031e-03,3.536000901585708515e-04,6.596103462323339630e-04,3.670068406823633750e-02,1.201367150180042073e-02,8.658044566521153063e-03,2.098625461586649532e-01
3.283558212862656978e-02,3.724487531709733817e-02,1.253480235848023795e-02,7.337990804224755765e-04,1.722402513334459623e-04,1.285965408892837582e-03,2.858017261120847016e-02,3.343732370209381247e-03,2.590785978417145877e-03,1.640316415671307926e-01
4.009906055093905713e-02,1.881264829392500972e-03,3.707163712626646013e-02,6.419005890502269343e-04,7.242834994960895543e-05,1.432926072265804183e-03,3.665261615333499645e-02,3.219673013783774188e-03,1.304309887429190226e-02,1.160921684697611977e-01
5.171094604914586168e-02,1.702815471865485458e-02,3.014446839276010981e-02,6.033312874023894585e-04,8.167516041592137602e-04,9.329866959138295073e-04,5.393073408653425299e-02,1.440660409371165990e-02,1.383707766540201965e-02,8.149211502365763526e-02
4.338623168804287000e-02,1.715558229777926214e-02,3.905493819159658840e-03,8.475791443783416363e-04,1.478938434815416916e-03,6.760285641771848547e-04,5.580857308310899906e-02,2.582937774594764452e-02,6.467336264891553749e-03,4.955500105812048195e-02
1.372884010171974284e-02,6.895288630038663019e-03,1.141255592095532026e-02,1.802248293291067432e-03,1.654638054205176964e-03,9.503859153000429952e-04,2.871755264400233446e-02,2.571207385027931766e-02,1.290097171364475159e-03,4.126189775019436373e-03
9.679799878033520238e-03,5.150135638539582450e-05,2.849700606799049525e-04,8.860468284003402209e-04,1.286957704000070511e-03,7.629263408452954896e-04,1.216225391336915249e-02,1.500659325946922425e-02,4.655440518015675766e-03,4.839571585001504334e-02
8.475502410993608279e-03,9.961231268778481321e-03,2.229583398200488120e-02,8.456188177494503152e-04,7.287185172792078015e-04,2.126173236678520289e-05,3.816896238631203864e-02,6.105035772167635363e-03,4.290793566162560621e-03,8.275171596777194938e-02
4.272344655851981199e-03,3.795008557919540837e-02,3.417026944090765378e-02,1.471424929865933423e-03,3.399025244220263116e-04,2.620502631598036814e-04,3.723789989648481485e-02,8.656865122024985301e-03,2.748096041837093471e-03,8.763030786681030859e-02
9.115987268101928553e-03,6.936667396574672240e-02,3.631274142753593975e-02,8.025947622486205666e-04,3.812531125174918552e-05,1.067188798791466784e-04,2.232834559774473510e-02,1.835259757567839212e-02,2.316417320071920225e-03,7.604947955912690072e-02
8.052378106157352666e-03,8.624051355556383580e-02,4.407602952675031965e-02,1.262636379431661686e-04,6.295560941568953623e-04,6.214338272577794072e-05,1.090689513911333348e-02,2.216379090892623208e-02,5.037892145560546667e-03,6.188602775674350437e-02
1.551410601155083467e-02,8.241250060264415644e-02,5.591500802521653241e-02,2.775120832669556088e-05,1.018397580176500471e-03,8.505229322142077771e-04,7.694464703628852917e-03,1.406822131212856833e-02,1.151644304183179444e-02,4.899913119770336889e-02
3.707230471909097463e-02,6.329099773306066934e-02,5.345000445652473009e-02,3.079564823394031906e-04,7.471002813454325191e-04,1.210999809524631720e-03,1.060041830262659947e-02,1.835909071800668211e-03,1.948844545014373139e-02,4.173020699038838127e-02
6.756249014633365635e-02,3.426623100141066441e-02,3.089000392241421714e-02,9.775741466573324798e-04,8.229727554045647409e-05,9.237552456432440891e-04,2.000342332966902753e-02,3.020527327105915986e-03,2.511588583851417575e-02,4.484569190793244453e-02
9.607697006839334419e-02,1.663405725085025186e-03,3.216806019763141650e-03,1.360126249035012360e-03,4.828335195655914544e-04,8.106322513128132656e-04,3.570858675018813433e-02,8.517773380680767475e-04,2.617351054441307071e-02,5.958588472450349754e-02
1.063546182527329576e-01,3.350841422178624240e-02,1.504847815131263658e-02,9.601138758949898534e-04,7.266862603102420453e-04,1.159535350657083831e-03,5.372332899653787380e-02,3.801954684662569445e-03,2.435210514942366331e-02,8.993577355524966233e-02
8.992517069585445610e-02,4.183838385710618446e-02,2.191785009253704661e-02,2.397164627516740090e-04,5.678954259007229022e-04,1.181912660319910970e-03,6.947063979414133672e-02,2.803033354081609432e-03,2.473822113433140832e-02,1.343322464819200202e-01
6.422303346570519544e-02,1.906871264178148714e-02,2.062616041848221865e-02,1.137227580790784538e-04,2.095537158135698131e-04,3.068591838698032101e-04,7.971149082864768809e-02,1.773376073227143912e-02,3.134637608499356298e-02,1.695221914257666052e-01
5.821524220730688731e-02,1.545547497572001550e-02,1.495264225497769731e-02,2.840518083946745598e-04,4.245109986566095151e-05,7.904966861150316670e-04,8.337062248857496360e-02,3.297336809604894947e-02,4.147868249605382585e-02,1.717130608804549874e-01
7.431173794058090754e-02,3.279535732530369091e-02,9.722888793973736427e-03,9.021396468674811736e-04,1.806767850591190476e-05,1.076245212037334285e-03,8.249285744028765632e-02,4.109096902259500722e-02,4.665285471338370682e-02,1.533058170133309306e-01
8.322220938538901769e-02,2.642410847648682046e-02,6.859564382032366965e-03,1.647450673462146032e-03,1.006184917764331519e-04,4.706539961480216226e-04,7.809778576832754338e-02,3.946632430164750960e-02,4.248060016064007099e-02,1.505532178988850667e-01
6.406533103472657198e-02,1.619665193236647163e-02,3.712421254026194647e-03,1.532644661672459335e-03,3.175088571928711784e-05,2.996451534426080882e-04,6.841988441747692828e-02,3.147331095323250422e-02,3.560783517751552746e-02,1.797281960430744119e-01
3.206550988590653462e-02,2.083377770990618716e-02,1.650070675648680676e-03,6.810278860675004695e-04,7.567830519815358509e-04,5.589777838165643862e-04,5.704681692039868107e-02,2.363685293496280149e-02,3.583310854643290827e-02,2.242247115494956367e-01
1.359060804657609943e-02,3.866813075995169380e-02,6.765887451567701577e-03,2.730366291194714088e-04,1.382658574998552395e-03,2.323433068288428588e-04,5.309379609410302958e-02,1.884334664028535986e-02,4.294886706093507117e-02,2.504420598794985797e-01
8.762511965027914088e-03,5.589497581466397469e-02,6.161978274086521955e-03,5.570389927880421395e-04,9.189725745221046915e-04,1.466511180400135572e-07,5.689096519654260331e-02,1.352142710448378873e-02,4.743834755650569446e-02,2.296973498160771177e-01
1.709194475296993421e-04,6.074477707613309269e-02,3.822545627411381205e-03,6.365887246462431821e-04,4.826984384407274550e-04,4.699707629471001381e-04,6.056448924506929732e-02,3.965273096423443944e-03,4.265776272833284033e-02,1.699210942013646419e-01
1.033419795455242304e-02,4.767502778995091894e-02,1.752842014591108125e-02,3.086708098830056408e-04,1.660598740987061749e-03,1.161071486027697754e-03,6.712452842804991771e-02,7.433721636516401991e-03,3.023627817626559425e-02,1.248591863886638065e-01
2.232009150888518770e-03,2.032258554967493122e-02,2.012851294543390249e-02,3.503474688951004122e-04,1.620441520223547425e-03,1.286460867153721129e-03,8.620751966358049245e-02,1.609246254140218185e-02,1.642728929654235087e-02,1.443443365600200479e-01
2.507862420981935014e-02,4.976226661487850866e-03,3.789727049039742432e-03,1.035680450825435988e-03,3.605336294982273201e-04,1.131476332148669862e-03,1.057730430105727759e-01,2.170653449480953318e-02,9.737171864727306447e-03,2.172925105676687396e-01
4.340362298735205709e-02,8.648214551401207234e-03,1.916780280113565896e-02,1.676742741008526404e-03,9.147160898832931795e-04,1.335527218784678073e-03,9.791006225371726157e-02,2.599369687703711670e-02,1.679029723020724132e-02,2.774898672695109703e-01
3.534585079781364658e-02,1.257461102443362816e-02,2.902286587019381123e-02,1.424512308694820964e-03,7.884019565631926853e-04,1.399503489890268834e-03,6.263067107209596696e-02,2.815271715249797330e-02,3.175256934622686100e-02,2.585095920314234297e-01
1.678354609046008028e-02,4.068678398135480712e-02,2.211246998865764452e-02,1.900752327168379592e-04,5.771694946768371340e-04,4.842447765473398258e-04,3.263507488993178801e-02,2.721470779312417515e-02,3.610131096743505325e-02,1.444690216021924656e-01
6.225449674515295267e-03,5.390403683565124504e-02,1.273705378085817838e-02,9.049092905838341952e-04,1.481052306441018240e-03,7.523751267905228564e-04,2.114348806927777644e-02,2.453786280896475339e-02,1.931809884275398348e-02,1.527731330556173460e-02
1.938865497048419470e-03,4.494542106519298919e-02,1.300904974286971882e-02,6.894024833240867912e-04,9.208317942022907314e-04,8.253959061722637800e-04,2.586930164287872674e-03,2.025856024225938454e-02,6.028272043401659321e-03,1.425709974301205829e-01
1.578125604315567393e-02,2.303424622300236091e-02,1.759762291868790379e-02,2.980293054100148801e-04,2.395794469024650850e-04,3.507678032598701701e-04,3.727522444397187579e-02,1.143224218314158915e-02,1.862965932430409727e-02,1.960507415344713011e-01
2.261809530065780199e-02,3.855384117501021828e-03,1.042004119961831288e-02,6.297904603445252754e-04,5.522115329429212825e-04,1.492119113578783398e-03,7.302821691924868408e-02,2.759277900726684295e-03,9.825543262172147657e-03,1.941490386536279256e-01
8.004056947956847412e-03,3.720535587065358207e-03,1.505263957285035183e-02,1.927368121050041948e-04,2.693311815392606073e-04,1.706678667162121873e-03,8.244174959669599290e-02,1.696158063830946819e-02,1.527134373069673895e-02,1.661544711816740350e-01
1.943252319553975122e-02,5.716376533214177248e-03,4.459767392949014198e-02,2.386766859778526766e-04,9.624817813164314234e-04,8.103125540655440858e-04,7.812035579572548794e-02,2.469458325430375079e-02,4.380349614616431408e-02,1.084778223692131616e-01
3.637369757467992515e-02,1.552341515390442961e-02,5.593819750693104775e-02,7.220584997160605549e-04,3.079903944373951915e-04,1.196031631736085713e-03,7.743132032760090266e-02,2.567099015303093978e-02,5.522032750472313789e-02,1.255714949337680998e-02
2.734019688527279321e-02,3.493394714874825668e-02,4.372094886587864909e-02,1.484157169737573660e-03,8.338742422906675290e-04,3.485040025649421402e-03,7.615907571253949238e-02,2.422340963579941442e-02,3.293534722027320616e-02,8.910471912685374862e-02
5.586543403867491771e-03,4.826157981402726810e-02,2.658380199174039879e-02,1.618394248944035520e-03,5.964518311513437258e-04,4.203566637877102427e-03,6.418704707704386836e-02,2.295622075596200073e-02,1.397638763874961380e-02,1.421390435994679402e-01
4.613697608977039566e-02,4.207525294705269370e-02,2.506117219291573162e-02,4.240446310507194321e-04,6.173803436022403572e-04,2.465826223910050179e-03,3.956895063765923648e-02,2.310410272238756432e-02,5.411720019051325520e-02,1.350234307007599499e-01
7.377773200062552605e-02,2.467009002108173227e-02,3.878026007948189025e-02,8.549262199909012485e-04,6.088283965686242449e-04,1.467244806062357305e-04,5.965888482516227415e-03,2.749762796554190702e-02,6.512965257759044391e-02,1.085076941658780492e-01
7.497607217855922768e-02,1.551013229251643581e-02,5.336206082238874326e-02,6.509559208743707264e-04,6.530721700821335825e-04,1.501792240825141787e-03,2.591046948099738623e-02,3.530442606587726878e-02,5.118073700697302331e-02,8.691596867588473330e-02
5.171275432430244567e-02,2.163703510164216928e-02,6.266563417018441995e-02,3.591855077731841064e-04,8.957737062600602991e-04,1.534127469877379774e-03,4.460893795168757031e-02,3.670100594856807313e-02,2.799231356050917857e-02,4.750547778457971104e-02
2.446229860451256191e-02,3.695956292678711369e-02,7.002719017950681524e-02,5.125455347926990502e-04,4.153755412366881171e-04,1.397826187864171718e-03,5.131742083466547810e-02,2.243928831598477822e-02,3.381009416844564432e-03,1.832363537887938751e-02
1.997324376841701568e-02,5.603177931263397110e-02,7.088864127562370665e-02,2.104617168362529842e-05,1.345655003695025043e-03,1.182135761117925586e-03,4.988816283566119281e-02,1.501953344520045187e-03,2.110419996146785035e-02,7.608651984335781937e-02
4.462903518627373695e-02,7.291198352484423717e-02,5.321599601381262618e-02,1.591216311178976581e-04,9.027785520509588966e-04,5.092316362902873494e-04,3.393169418947972193e-02,1.762438960381420422e-02,3.655176756484952022e-02,1.060015435222038671e-01
7.492789544540502666e-02,7.498861119746866311e-02,1.936586184338461372e-02,8.007647628531948175e-04,4.277511913773653757e-05,1.384190343646215582e-04,4.159677359410853155e-03,1.727148018347931385e-02,2.709154298508962069e-02,1.240000901349897489e-01
8.416950671763033520e-02,5.506476107440948925e-02,9.476771726680432995e-03,1.069464953085972128e-03,5.241013836741353384e-04,7.291331081996413853e-04,2.285003007635922484e-02,1.019280057544306485e-02,9.683122728561463499e-03,1.388583288213514622e-01
7.013390741073376178e-02,2.626682304781698812e-02,1.841162118519828333e-02,1.047745700227813333e-03,8.179550088884297984e-04,1.287339269787063541e-03,3.730575809441199348e-02,9.895978068264622840e-03,5.123788752509651073e-02,1.514384345231178097e-01
4.692347723110847080e-02,1.310197669199388189e-02,1.532860613582675939e-02,9.629933552482727345e-04,5.148141034937854217e-04,8.539015509552957180e-04,4.061766131167951488e-02,1.583600303997450068e-02,7.108706684795171316e-02,1.735822925460671629e-01
2.192411638176289604e-02,2.672105278605082374e-02,1.444878923559912362e-02,2.181457286724300046e-04,4.337681776010988239e-04,2.350071068656506821e-04,2.661635090293893585e-02,1.743645298507737543e-02,6.490003785108723611e-02,1.943997859151535279e-01
4.882809919199346954e-03,5.156621774570593203e-02,1.462279459376517043e-02,1.221313295561435482e-03,1.167845343097255071e-03,4.553257446307329100e-04,1.203462636320221449e-02,1.095731615115764536e-02,4.411099159866461311e-02,1.737010574196189705e-01
2.744275547021487321e-02,5.736453894640500956e-02,5.691344927709521273e-03,1.981399981589219636e-03,1.313627646324630254e-03,1.219184664111033637e-03,6.560374562475400351e-02,2.378393417515885927e-03,1.620525633730858853e-02,9.949295296822217860e-02
3.595439615211933060e-02,2.919442208992730631e-02,9.198097009020883563e-03,1.181698114447040510e-03,1.425510824011647602e-03,1.856438567308935040e-03,1.139293028907146649e-01,3.765715690869007176e-03,1.003304780846578023e-02,7.631051734851863194e-05
3.211080039238994183e-02,1.361641055220145190e-02,1.291879986559012899e-02,1.246779359462973924e-04,1.351512890476366932e-03,1.910231648534554266e-03,1.368103630105221569e-01,8.316170265576671231e-03,1.313637104521758053e-02,8.914721661041020984e-02
3.075327146112662516e-02,3.644845346652095253e-02,6.083981611949949722e-04,4.965484540974568787e-04,3.467327100346294399e-04,7.464220961919312142e-04,1.180696215388547243e-01,1.216910564169883940e-02,2.043455062264250971e-02,1.183199261012652659e-01
4.415277725955968346e-02,2.604158124207837932e-02,1.446098666030182917e-02,1.417906866225779501e-04,8.337672626260519970e-04,1.322621848254797519e-03,6.593433374127261049e-02,1.625142088962868228e-02,6.957417468364052171e-02,4.191752562628257850e-02
6.850345443495978182e-02,2.330525656330603539e-03,1.142742325016640401e-02,9.565960093170925490e-04,5.909090353446422826e-04,2.318264139593483042e-03,1.988765519205630203e-02,2.452940643244898647e-02,9.611733261180559207e-02,9.289314586930796924e-02
8.370993388349598496e-02,2.899350923684580056e-02,1.883679224890157360e-03,1.206408902036881997e-03,5.749407143830036204e-04,1.163005806154633658e-03,7.332854483994311404e-03,3.699533043784009045e-02,8.588297684524669184e-02,1.538515368831507579e-01
6.691921242143715476e-02,4.502280946376251147e-02,6.651673568395634686e-03,6.788340787156914215e-04,6.581016488065835656e-04,3.933003421543827534e-04,9.002611485398817268e-03,4.111908117263606000e-02,5.448135084273880019e-02,7.942919958261981939e-02
1.535302672374734730e-02,4.605421708916685591e-02,1.893209035491774097e-03,2.567101551246887836e-05,3.988433308732473284e-04,2.530283159134625757e-04,5.454262757583299565e-03,2.258976739983756601e-02,2.227664216306924488e-02,4.478463271409999918e-02
4.399888899679026827e-02,2.773953246920541488e-02,1.575337536841139169e-02,2.185777183594673069e-04,8.459475210226141554e-04,1.385336743762227837e-03,3.100412257640801014e-02,1.294170906834110277e-02,3.348582145109824451e-03,1.030794087788305530e-01
7.757020777884637841e-02,5.653206538654254043e-03,3.047449856762760728e-02,1.555316802354308483e-04,2.841467365607393616e-04,3.100636275073449626e-03,4.522746974110306711e-02,3.974726375926051353e-02,7.332753680744952610e-03,7.082208077885304709e-02
7.638659062508833253e-02,3.321643832629035675e-02,4.209735282744086343e-02,2.275582918667733092e-04,1.745725117071340578e-04,3.890077170164589048e-03,4.753346179608212291e-02,3.803138750994768114e-02,3.060874939670262668e-02,6.166482453511135803e-03
5.472939403254954011e-02,3.095192979297530303e-02,4.220017712307632535e-02,1.138669979005105395e-04,1.682176420940879880e-04,3.033617598160088472e-03,4.925382554629554460e-02,1.328964845665029509e-02,5.344482803261442483e-02,8.188972046645863478e-02
2.558814249476318650e-02,2.378503178194044283e-03,3.221669307154476081e-02,5.505561983421861322e-05,9.466619184925661925e-05,6.057680639457646088e-04,4.695268832708327650e-02,1.185011874427850317e-02,5.978727429290807416e-02,1.289472927305746197e-01
6.265966444662899801e-03,1.749183998587208744e-02,2.461568101759931820e-02,4.920066150606396994e-04,1.718327084196565860e-04,1.396637674580516715e-03,3.744784405024487173e-02,1.972523904324732791e-02,5.059267738459549690e-02,1.414279526725218117e-01
3.085858868183687792e-02,3.097176125483476136e-03,1.956772040125194512e-02,1.295800668397060953e-03,6.896248910459564299e-04,6.938090139318848180e-04,3.968014881663887300e-02,1.123707539094434896e-02,3.236107594521012848e-02,1.494033702659458285e-01
3.227889577714590508e-02,3.166842250452679003e-02,3.078582618957704381e-03,8.236652478882891147e-04,6.554960878945254119e-04,2.128972866138981093e-03,6.804029443841726199e-02,8.763883839308880298e-04,8.435886415337235170e-03,1.900831648311243627e-01
7.915450972713421185e-03,5.800306371561231994e-02,2.449814167774438251e-02,8.628744957972332577e-04,3.871188287697632010e-04,4.061621926195700498e-03,1.006597970272304077e-01,5.670399558810338076e-04,1.365687556447139558e-02,2.463365816194521274e-01
2.256392793176035388e-02,6.610088377338081689e-02,4.054934086852322872e-02,1.679677001372759408e-03,1.538356736161062286e-03,3.328608000926622755e-03,1.084400085875231179e-01,3.299978483517738287e-03,2.177687378537698087e-02,2.604996804779826647e-01
3.528963701063738551e-02,5.984267867812440717e-02,2.829996244560901986e-02,3.399437169916020435e-04,1.633031454103188061e-03,9.375784254707332987e-04,1.008932980910264149e-01,1.986492530174479697e-03,1.188505939234763345e-02,2.207114252892435902e-01
2.462812458665021575e-02,4.253572198651282138e-02,3.099169454114572911e-03,1.965713280979798465e-03,5.861380583881403965e-04,1.163336619890715639e-03,1.090096322014975916e-01,8.084852385541138955e-03,6.127330422661669829e-03,1.764594662631298050e-01
3.838306708670275336e-03,2.551111349764575639e-02,3.245817742025268460e-02,3.167038811086729088e-03,7.298670433769771778e-04,1.898327586118489464e-03,1.354248772612386686e-01,2.093215502868884387e-02,1.662313246795977736e-02,1.574575812510241313e-01
1.067706460431691248e-02,2.744433072372618604e-02,4.830785903930698288e-02,2.538019196894116761e-03,1.445309787844070888e-03,1.318245486483790325e-03,1.552854967685027288e-01,2.841093634070412932e-02,1.040650923630629700e-02,1.364756189432973776e-01
1.088803164678773215e-02,4.883256521940902706e-02,5.022847594865236659e-02,1.057285028966673934e-03,1.394343982034375621e-03,4.078613619926087165e-04,1.549168162259828008e-01,2.654150520963888607e-02,7.063052358475580168e-03,8.449513462787711093e-02
1.720111155345174954e-03,6.527539433501317045e-02,3.951104037342580838e-02,8.122203824983019926e-05,1.112054199967137808e-03,3.018572082154599495e-04,1.360914807779224633e-01,1.711639560689046102e-02,1.855170786599866922e-02,1.122430622001727857e-02
1.846124729478192464e-02,5.417312808214134329e-02,1.952614536027796194e-02,1.592091443075702877e-04,1.203628723837454374e-03,7.759747398835039863e-04,9.534747247189129249e-02,6.247185783937760778e-03,1.331200257875951587e-02,5.679829318650361780e-02
2.689027884091019574e-02,1.440736789104409346e-02,9.250582007696062136e-04,5.075554529499390864e-04,1.573045486848828958e-03,5.075902463476124858e-04,3.631200964457350494e-02,5.914590922604530919e-04,3.646260062461391654e-03,9.717954546421890549e-02
2.022399303573342230e-02,3.790347838131474800e-02,1.491219006942094173e-02,1.310811271883981525e-03,1.422116833147219145e-03,5.363650333568279523e-04,9.179811017736549603e-03,2.398509378742188711e-03,1.219531821087482468e-02,9.249092447088627655e-02
8.040284756351380804e-03,8.104193366580626778e-02,2.366654099454360352e-02,1.686541864115474222e-03,4.487358503004601614e-04,8.039666456640222813e-04,9.762086639437681304e-03,7.281862741712659230e-03,3.859623254709070028e-02,4.756874132124094823e-02
8.830075628377167737e-03,1.018632591842466018e-01,2.995260465360236046e-02,7.883057199270414794e-04,4.433348749576682558e-04,2.501307974979033195e-04,2.248846044651699877e-02,8.843149976455345201e-03,5.347433115287244382e-02,2.117943173236680812e-03
2.363260736925421046e-02,1.028292083849372401e-01,3.272889834876317738e-02,7.738397280384948489e-04,5.207131257086496665e-04,1.395483891922604447e-03,4.561457808653145152e-02,5.962296116122778669e-03,3.550050373867668502e-02,5.476218461608098678e-03
2.920899481805160763e-02,8.640111457915394810e-02,3.113401088600249722e-02,1.434978449827131221e-03,3.318847046615056961e-04,1.614795474470097792e-03,3.721928253122360614e-02,3.098901079986535016e-03,3.466012849588744060e-04,1.576283258562090339e-02
1.202894029325333666e-02,4.448080064740959211e-02,2.419000980441921370e-02,5.735938747687705039e-04,3.513479857881005725e-04,1.046758761023616367e-03,1.158348149364273744e-02,4.303966201835777473e-03,2.405555207497035025e-02,2.537411168776433634e-02
5.788247286089949310e-03,1.858795683083929243e-02,7.214260391196047895e-03,8.026699145947574542e-04,1.839744324072085881e-04,2.652116946846402217e-04,7.272757308021146269e-03,8.637522718878532998e-03,2.563395200528329615e-02,1.616462962393544131e-02
2.651624393506010757e-03,7.296183620191991348e-02,2.049811809549045849e-02,1.568684264119212706e-03,3.837807169667673023e-05,1.237552233775145074e-04,1.753701678298445754e-02,8.686850727254247576e-03,1.616733917689640310e-02,3.693514740559451781e-02
2.513026536207041417e-02,9.556541606970157809e-02,4.558541071620629548e-02,1.719265707344649202e-03,6.368411176529577668e-04,2.628239443123340851e-04,3.828723733186423922e-02,3.971023202420151561e-03,6.651511985641932363e-03,1.263169347516193974e-01
2.486311098667935357e-02,9.487965729241745749e-02,4.790489913527391092e-02,1.545356821643499015e-03,1.221368893374763075e-03,1.082350776194488393e-03,7.483959999509368077e-02,2.458546756630982516e-02,1.970031802320445016e-03,2.404026916156443427e-01
8.032353284180301575e-03,8.805588878099919470e-02,2.151677601399837672e-02,8.180963377321301671e-04,4.473888595992794046e-04,1.476007027021814574e-03,1.022335883586105582e-01,3.292663300435987733e-02,1.348535054800364258e-02,2.942170518004644797e-01
4.432765842513060328e-02,7.561185334048625695e-02,1.356492688656292869e-02,3.754515030565314430e-04,8.617753629259432670e-04,9.975709673305294036e-04,9.842543899905761839e-02,1.636706117870689176e-02,2.910027531688890931e-02,2.745751549775840017e-01
5.393992764483392099e-02,5.169571040446650084e-02,2.793435106941419277e-02,1.173274409331059257e-03,8.210963552880535350e-04,1.769832741568667467e-04,7.394242846949380943e-02,1.263235775957300550e-02,4.714776709621918555e-02,2.488399992205631017e-01
3.940682627913463104e-02,2.248420158046772824e-02,1.574004631577849422e-02,1.133450260739095284e-03,2.479917248871737014e-04,6.975155417732481500e-05,5.059793030968774696e-02,3.211630338498795006e-02,6.710110929315145356e-02,2.524501065657448473e-01
2.737573314541064118e-02,1.656014687568756628e-03,3.567168169558744550e-04,9.094041889805961959e-04,5.954535709863555473e-04,2.984331566008302516e-04,3.391808653350995156e-02,3.417307155166379729e-02,8.594375923197292155e-02,2.422340468097118893e-01
3.431295849648404589e-02,6.296139599363399265e-03,3.860780197179429322e-03,1.099117838098390967e-03,1.486872617202073497e-04,4.157358112758656899e-04,2.205924559735908050e-02,2.605750901627036653e-02,9.044293183815230175e-02,1.811092881301549218e-01
4.807778390873206770e-02,9.221028355797408066e-03,5.069646726395985598e-03,1.229603002672437044e-03,1.006090553089827882e-04,3.790998645478448103e-05,1.815482680189681175e-02,1.800250364818483176e-02,6.732724056296007786e-02,9.785764416596803850e-02
4.682533961176465337e-02,1.595105349655460275e-02,1.606685685063501123e-02,5.388574685056891130e-04,4.554758879078550952e-04,4.079217105960792657e-04,2.323913114708445887e-02,1.541869466199163527e-02,2.598860615957616221e-02,3.908698926484593938e-02
2.911754669308439999e-02,2.945007136075187756e-02,2.721905424364597786e-02,7.508609906885711132e-04,2.408411326662906256e-04,2.997356585085191732e-04,3.487632568375705067e-02,1.581512058215606142e-02,4.479115690571643799e-03,1.741680479532927567e-02
1.338524837576667362e-02,4.716952757829179915e-02,2.497839781916105784e-02,1.630758373858333561e-03,5.891379308026828627e-04,1.303934215050675267e-04,5.062070886219516286e-02,9.358356490876662201e-03,7.327120415788259192e-03,2.110138451750573005e-02
1.163661916942319505e-02,5.917990617732232783e-02,1.601281537800877675e-02,1.515574113626588608e-03,9.906024912325929466e-04,2.581351437522083733e-04,5.887719030578938972e-02,1.091971936391692918e-02,6.493142786191277369e-03,2.749796806947781003e-02
1.813054155276707866e-02,5.316127737621721000e-02,1.614454933286824795e-02,6.878354740562458948e-04,5.298596692873700290e-04,3.948213368553313415e-04,4.334724130492236677e-02,3.453538893318587599e-02,1.818904643068016899e-02,2.096388900997926685e-03
2.213705707566154812e-02,3.085228466096365946e-02,2.494683029109964062e-02,1.754929306862586030e-04,2.639763368354742482e-04,1.591325070134256897e-04,1.060775712833105650e-02,3.858389126116302387e-02,2.185175700557027631e-02,7.036719172259495170e-02
2.152345168811696866e-02,1.079962896539145983e-02,2.684070339337511074e-02,4.153432123934076956e-04,1.007753330969892672e-03,2.677563661310658027e-04,1.215210415202125360e-02,1.683878061181906527e-02,2.259901510304852465e-02,1.530654977131232497e-01
2.382022654146686083e-02,7.597206007276061275e-03,1.522889147689613851e-02,1.652981709413112112e-04,1.618485834816375335e-03,4.086553214434002820e-04,1.699557314732005886e-02,7.067044620183458165e-03,2.567057475872317612e-02,1.943393453028066098e-01
3.265744568987286045e-02,1.718808735280600089e-02,3.806593362147878135e-03,7.501144171106015595e-04,8.275049971015696702e-04,6.848604583948973701e-05,2.122139251851086136e-02,7.338979714129726523e-03,2.943574017840285689e-02,1.900991307050451107e-01
3.281221592201862686e-02,2.596062338317500773e-02,9.633901274187582631e-03,2.699860577736596084e-04,3.289582553310271178e-04,6.175518170440186336e-04,2.926377502286434118e-02,1.419045511194962257e-02,2.429157741091770781e-02,1.763790264118137996e-01
4.808083198911407632e-03,2.570591872446011464e-02,3.153646400988056181e-02,8.282893096488171776e-04,3.110134910334350078e-04,1.183747107750443735e-03,2.558301006530099703e-02,3.612237280227961755e-02,2.441632330225023979e-03,1.729494034898257371e-01
4.023805783850880474e-02,1.804781855221198814e-02,5.202475640713205562e-02,9.773277320977850121e-04,1.371253274328666132e-04,9.405772702244427066e-04,8.103666762708581009e-03,4.333085690338354945e-02,2.845256461281439608e-02,1.625885893767740342e-01
6.358907227816715246e-02,1.048752752812736472e-02,5.658394327897576376e-02,8.269944146101127663e-05,3.079299005507008229e-04,1.331916681458081091e-04,6.338394263843517146e-03,3.500433216425057059e-02,4.986717570602094973e-02,1.234043194984065367e-01
4.547370181828805369e-02,6.765913525018554808e-03,4.378220401536303541e-02,1.087345887531046031e-03,8.360869580578883303e-04,1.026590834505626462e-03,1.050917977203713952e-02,1.729880929791310570e-02,5.332665589308065862e-02,6.706230542040983456e-02
6.610622214999493929e-03,3.540832373819432274e-03,2.107444267046359662e-02,1.327201441714117398e-03,2.962556960650356225e-04,1.008280774229347154e-03,1.253146031327944179e-02,8.875920638218670437e-04,4.664702498601758229e-02,3.261865671343073397e-02
2.447625749244975585e-02,3.664986708294826895e-02,3.531382300899870135e-04,1.018417284773498596e-03,3.085965189074267503e-04,6.283555557176820870e-04,1.752099783047001563e-02,9.402569425572764039e-03,3.833043445558938916e-02,3.577777801991473272e-02
4.433420705882670787e-02,8.575767645851513354e-02,6.307861034609664637e-03,1.858609413936828552e-04,1.886146692905541107e-04,7.210633795454458308e-04,2.634389267501479823e-02,4.438787294671996467e-03,2.895326080295886062e-02,4.137607127717017608e-02
6.186219471066435605e-02,1.162584999470768349e-01,2.647347819857037710e-03,1.028757245956461730e-03,7.815802751250683789e-04,1.029654920701079251e-03,4.335930941472630057e-02,4.190360104277005178e-03,2.036281319295805969e-02,8.025360249300445351e-03
6.856351245883270107e-02,1.070595461412298804e-01,1.385960457387572578e-02,1.721963317717200822e-03,3.314995612276772519e-04,6.704155713240222145e-04,6.612817734571574402e-02,8.681145099569626336e-04,1.917345407608214009e-02,5.444603847868607904e-02
4.488033118812524702e-02,7.898244105936710890e-02,1.370183180271309850e-02,1.256253484561336512e-03,2.936299979337333196e-04,1.970413615588275410e-04,8.160044272574874802e-02,1.686104454225801838e-02,2.589513832571364860e-02,1.006108408563163858e-01
4.828865076149435609e-03,6.323149346416867544e-02,4.193849862778032539e-03,2.422929390515700008e-04,1.032139935943937755e-04,4.099181672859213360e-04,8.711913697437241588e-02,3.241295019438712038e-02,3.141769187343923520e-02,1.101849675192026895e-01
4.711374283857016482e-02,6.196012120969245779e-02,3.374857715853849926e-03,1.816621616017440543e-04,2.005627549832413926e-04,7.909644080031142971e-05,9.257921655616668799e-02,2.811312315717549512e-02,2.880814660623930157e-02,9.805916898278954630e-02
5.669204717209823385e-02,5.980407777317655466e-02,6.552411229534220796e-03,4.172483134266691132e-04,1.998830200820437316e-04,1.139115960617046201e-04,9.100198774606688135e-02,6.235852423729607019e-03,2.063189179127343856e-02,7.407988311649203739e-02
4.152236574888357179e-02,5.320971542465768866e-02,1.327592718778001710e-02,1.248136509502752439e-03,7.590136002033799493e-04,1.213592664984735996e-03,5.993883863858524147e-02,1.183375844083710791e-02,1.203586217403149888e-02,3.856801338459037165e-02
2.609526939415544866e-02,4.510662358263502897e-02,2.785092735672009545e-02,9.697055393315354458e-04,6.485576054426526278e-04,1.553309804796497570e-03,3.003001178430468685e-03,7.217253509817569967e-03,3.493432924538032378e-03,1.353885115157852682e-02
2.607645388678839909e-02,2.723373679793289828e-02,4.748819506826922054e-02,5.196210254342331202e-04,6.526154733836209024e-05,3.426443238674625465e-04,4.468602722617440182e-02,1.690885174606308883e-02,6.397397645153547752e-03,2.848348909150555386e-02
4.156539286434489389e-02,7.174583797480834843e-03,6.997865675256614848e-02,1.456335675546162854e-03,7.921286976005539448e-04,9.607807857343561055e-04,5.935743996272904721e-02,3.822216624899650583e-02,1.490396571549199890e-02,7.496999137430773730e-02
6.029112154061469497e-02,4.291615347763926697e-02,8.895030088569993998e-02,5.187877681979037722e-04,1.043572046378482858e-03,8.374987623187909883e-04,4.743789845978048370e-02,3.875923748668431285e-02,1.620199574032738649e-02,1.166972958068020066e-01
6.667488421011846800e-02,5.817958389323280716e-02,8.573191407143058995e-02,1.015377017229671715e-03,6.094644098840324136e-04,3.144984532305593892e-04,2.593692999174574201e-02,2.335716067555191136e-02,8.867973255421549711e-03,1.382520674477769607e-01
5.778927896405237907e-02,5.542340163240302986e-02,4.800342166112969711e-02,9.781080401956819548e-04,1.552058362617547249e-04,9.554068164634016685e-04,1.206755444503120056e-02,1.064506422192321861e-02,7.687281398544953785e-04,1.481114500040133508e-01
4.614612023477770997e-02,5.618998289212612240e-02,4.733653296095336610e-03,5.349002205386937979e-04,4.466267830663307888e-04,3.227845139315244582e-04,2.177399339271612541e-02,9.620466596758610670e-03,5.113248871006585358e-03,1.416464770110322513e-01
3.966821859847684956e-02,6.826032540610162125e-02,3.587046496271172058e-02,1.493635344689024386e-03,9.051239234853802082e-05,7.864818408231093877e-04,5.265215631288830411e-02,1.388982603354095742e-02,2.900445317592617762e-03,9.493466093255382987e-02
2.789411671777760129e-02,8.031374634235878551e-02,3.085236620397011076e-02,9.201148578823814322e-04,9.454824142202704004e-05,9.363549447187853245e-04,7.981761790224738140e-02,1.533398970804881675e-02,2.353792000913412959e-03,1.110612200066009086e-04
2.138313859361921660e-03,8.789883208910538592e-02,4.918970034343370101e-03,1.713272132205336852e-04,3.893266981427041351e-04,2.822295637783656238e-04,8.638017691985314106e-02,1.210768298564639071e-02,8.918569026445553535e-03,1.123539201538072962e-01
4.099175930288737058e-02,9.775026057525156020e-02,2.184582295212323180e-02,4.819607234631262394e-04,9.070670625479857873e-04,1.589833085250481068e-03,8.106939763587714398e-02,5.637362699375952912e-03,1.740882953013276127e-02,1.912774357824283400e-01
5.899464493048520164e-02,1.034375234516203279e-01,3.960172791389904301e-02,2.018897976470382274e-04,6.923856573468434132e-04,1.479841411824906394e-03,7.386444991849198949e-02,6.851109587784602216e-04,2.556179998067853107e-02,2.078085916758584950e-01
3.845895231757746197e-02,8.443102885359915488e-02,4.423441098349913808e-02,9.856224306626932413e-04,9.038421365111916979e-05,1.782723639250180406e-04,5.774429319990674603e-02,2.019929156754271191e-03,2.776012096647115929e-02,1.738227960120275195e-01
3.189019530130932610e-03,3.692485885069120288e-02,3.555582225259860951e-02,7.052130090029427043e-04,6.916233586414898124e-04,7.932463906204536815e-04,2.677964117966742663e-02,2.130113763996923336e-03,2.192919570972439239e-02,1.202723901516924987e-01
3.162564218714772335e-02,1.257788890717171336e-02,2.297496617383646550e-02,6.338054164253283367e-04,7.703444980232731836e-04,7.835601503331117218e-04,9.374914743002459722e-03,4.221549056780879265e-03,1.362752496088954698e-02,6.268217631067274365e-02
3.184554431737253444e-02,2.976552398232469934e-02,2.194310887309650071e-02,1.515827001617434241e-03,6.361245527548783918e-04,5.000599094647196433e-04,3.853343786028399359e-02,3.710310700270495754e-03,1.084331593141669471e-02,3.058593013471852615e-03
1.544087254025389329e-02,4.821578784024628181e-03,3.660211794102424115e-02,8.112539832447725544e-04,6.177953403221048915e-04,5.473715512784103464e-04,5.666720257984775994e-02,1.797299987905220248e-02,1.601371402257672702e-02,4.080707105908550764e-02
3.575216213246212339e-03,3.397126165331569581e-02,5.035433886332817827e-02,6.952417340524051029e-04,6.667850358484349316e-04,7.103875813414719641e-04,6.182028217772073120e-02,2.533948007377997275e-02,2.415824763108713469e-02,4.085946076789562925e-02
2.357933562161395463e-02,4.474522678126511416e-02,4.328303716334983703e-02,1.518098981735328508e-03,6.658864350587502838e-04,6.784759610023954977e-04,5.282880645440868328e-02,2.051203680841691412e-02,2.867237362031819711e-02,2.371162474270526940e-03
4.026446981407628967e-02,1.929528635651384452e-02,1.694112701696764631e-02,1.369362581596014023e-03,6.799206287758475598e-04,6.043753799716967794e-04,3.709003544281850445e-02,1.307150797100044629e-02,2.876946656700510654e-02,3.048830232884186878e-02
3.416467131288945108e-02,8.196717829332164640e-03,8.361252449866523814e-03,1.045914678113241993e-03,7.246421742914880941e-04,7.231135643594653563e-04,2.743178560639686347e-02,1.336971197234419935e-02,2.889877254814256918e-02,3.117344939170918136e-02
6.659748482845343626e-03,9.801262290807678107e-03,1.822737392891133137e-02,1.116862078834043393e-03,6.665158639582257185e-04,8.444444275867219645e-04,2.811362681642616199e-02,2.213989181028573616e-02,2.985655379375915658e-02,2.530466087093219407e-02
6.008866184285452383e-02,2.362640071985507018e-03,1.515240701580831788e-02,1.370427418892146030e-03,5.759634262843710576e-04,6.220318064229390541e-04,3.360739705815223022e-02,3.630195718788439829e-02,2.631704266768043407e-02,4.401622140702687175e-02
8.828517228127813476e-02,5.695929700167919919e-03,8.344008749483614040e-03,1.236219428410650911e-03,7.413871129690378058e-04,1.553429578544230478e-04,4.381113566889763972e-02,5.158287989967184906e-02,1.640253374873872419e-02,6.669035340034716597e-02
7.854475646891403984e-02,4.424970944564513703e-03,3.908519185315811363e-03,5.132488093257070406e-04,9.780549211786352271e-04,2.728672700773607457e-04,6.657828170076864061e-02,5.784549959302395100e-02,6.231077508946310239e-03,4.554558773889614415e-02
4.922534796179814376e-02,1.507027408970950874e-02,3.833046572815736793e-03,2.510268161498878034e-04,6.214800117380467250e-04,7.882134278388874295e-04,9.670233454558563313e-02,4.694390496914256639e-02,7.486988935372616578e-04,2.315396783476960166e-02
2.160796453916353707e-02,3.082864613635960191e-02,6.775166809638908869e-03,3.306793567797740828e-04,1.795378948006547538e-04,1.334977400090652877e-03,1.091403873480590730e-01,2.732825916948894429e-02,2.356488762888865694e-03,8.868355499914183648e-02
1.013482426150677908e-03,2.601778831821896509e-02,9.026368640636992999e-03,1.068871472281838765e-04,3.199075479262144628e-04,1.119506770741036245e-03,8.845953780063900429e-02,1.710900450906285147e-02,6.125742203602894086e-03,1.089199537919078725e-01
1.760864418887406538e-02,4.511433560967923612e-03,6.587690684873655396e-03,6.082552084000843900e-06,2.193107013201429771e-04,8.785460838795072498e-05,4.922411953837192711e-02,2.166376071768534237e-02,9.058366921230695881e-03,9.186661164187065465e-02
3.726861978269365577e-02,3.205898893481034378e-02,3.568236812964105560e-03,1.009246468765058339e-03,1.617022336601207705e-05,9.866723363231347764e-04,1.243365175269110778e-02,3.034644789468753101e-02,8.612954610551270054e-03,6.256104615595936558e-02
5.653434827987514899e-02,2.880725943650806059e-02,2.101373000734453253e-02,1.674245767508994714e-03,1.173740729086971291e-03,3.866640981117514127e-04,1.751038210197610259e-02,3.349844465355066025e-02,3.969175388786318377e-03,2.222892101104650270e-02
7.605507623526593097e-02,9.066819114625966972e-04,3.727758403762821554e-02,7.844329807575856593e-04,1.343352085575794195e-03,1.141810275227813894e-03,3.772581162448241515e-02,2.886413110070379720e-02,4.150349141081233727e-03,3.087122507638562913e-02
9.790270040189653911e-02,3.236622274596395732e-02,3.889237709282832023e-02,6.691341757551813986e-04,1.065097667056532499e-04,2.188118998062020364e-03,3.710714497747355511e-02,1.337713873082106014e-02,1.097902136679245085e-02,6.794881966871936518e-02
1.128752718131688093e-01,4.622874348322788401e-02,2.180023817945573802e-02,7.125912250092441419e-04,1.108210008743439881e-03,2.091198442945571122e-03,2.056929291875580004e-02,1.567252807083129376e-02,8.625535678512097348e-03,5.583158491734797196e-02
1.001570157675460843e-01,3.519146553217692569e-02,1.956902654347733497e-03,6.492152423202746016e-04,2.168843997581094063e-04,1.103420186783891444e-03,1.350227267086214801e-02,4.995808841068538619e-02,4.536188690550954986e-03,1.650521834793841104e-03
5.421620855681276441e-02,2.729518411647614221e-03,1.835146317263620930e-02,1.608956026859273197e-03,1.165948876675103156e-03,9.942865945973127255e-05,2.354139475152433603e-02,7.224159322331155653e-02,1.968778463542728008e-02,5.739368010150454336e-02
4.495073920253733063e-03,3.438870923551577002e-02,2.495752876965779896e-02,1.435509059449530762e-03,1.324864566108023990e-03,7.980601192598109697e-04,2.864752178617739967e-02,7.138563604102404758e-02,2.717688616940482083e-02,9.564229092707526858e-02
1.009609894776594685e-02,5.315822469825669250e-02,2.523849086348426557e-02,1.171984325680478943e-03,6.990710732761325598e-04,7.627060741628541741e-04,1.846982587376919810e-02,5.063948844782711206e-02,2.583118162070052043e-02,1.103202047388013585e-01
1.320890361539018773e-02,4.540136411992554133e-02,2.109457919613574525e-02,1.417976673952755845e-03,3.230079438410341842e-04,4.880909177989391137e-04,1.313349465954225664e-02,2.357108537663363257e-02,2.126450491566774306e-02,1.067942275502027499e-01
3.610325915795398882e-02,2.816918300824974852e-02,1.621016361413860421e-02,1.325901543613263768e-03,1.032582973179458637e-04,5.585882117645547297e-04,2.630025327610022515e-02,5.400466297774642217e-03,1.964589536964612970e-02,9.269797931154719062e-02
2.637352771105614183e-02,2.209812935494464073e-02,1.352326377373721036e-02,4.216929452706381183e-04,9.370610163487148002e-04,8.294311012710315397e-04,4.339240325711208462e-02,3.852187192032688334e-03,2.254042776526013481e-02,7.751194351454446241e-02
3.767252578342611662e-03,2.396342215470490672e-02,7.397618079661823914e-03,1.767349504560150315e-04,1.145437676479029278e-03,6.106200319821307888e-04,4.907748977973595134e-02,1.342013950441672994e-02,2.479592103372656176e-02,6.440818802204761884e-02
2.152175817957331302e-02,1.798213872025846219e-02,7.443473834745101964e-03,4.602754091367517743e-04,4.044007091415819809e-05,1.876477344880163474e-04,4.701408864154776879e-02,2.074423857537108229e-02,2.018174058927624595e-02,4.866646044408272365e-02
2.208493850857166929e-02,7.683638138267839465e-03,2.086468922132987333e-02,1.291321957686895070e-03,1.286973007871377878e-03,6.765468174809278774e-04,4.377162559242167572e-02,1.847553993376424911e-02,1.024022412205987179e-02,2.883447468834889754e-02
2.784903472743472524e-02,1.035011932139297090e-02,1.666798869838558017e-02,7.540833750057609379e-04,9.841472566487808899e-04,2.419910623160815156e-04,3.565442947884976677e-02,1.088932999391531778e-02,3.202801884760361241e-03,1.385936654963761290e-02
4.758305922694403001e-02,2.378290416890608411e-02,4.354092790062352725e-03,8.675094644187194420e-04,7.976597240099482814e-05,5.566611965974535559e-04,1.668075931329985120e-02,4.865442251114133164e-03,3.839914855123956715e-03,1.840466435220153643e-02
6.393540429423319460e-02,2.634245516603380202e-02,2.308071774878067695e-02,1.901706177298861759e-03,1.945351639884136891e-04,8.930112465295119524e-04,1.164405586447973297e-02,1.090138253059360837e-03,8.829142603221061536e-03,4.760199253923763640e-02
5.914824773548977427e-02,8.608781551240795443e-03,2.321570790716480023e-02,1.582484599044241182e-03,2.290648773922474121e-04,6.276375713027480645e-04,3.712587252527910220e-02,3.896644671841316410e-03,1.207968449760301807e-02,7.989624799189168347e-02
3.424328696944304445e-02,1.713434608352269739e-02,8.028734173854849832e-03,7.577754197029453864e-04,1.721012173586393044e-04,1.226305403729468656e-05,4.141845572065976089e-02,1.100176472057036621e-02,1.095168885722300547e-02,7.852338469765465789e-02
4.345362287129214685e-03,3.618743416585204487e-02,2.521267519110220734e-03,3.908758882833220615e-04,8.213216139774698506e-04,7.539385933244625903e-04,1.791702770964302346e-02,1.513047435616281938e-02,6.906061188576208265e-03,3.668434389400355294e-02
1.676343558551454671e-02,4.275558986148769725e-02,7.810524347443479481e-03,2.561135963725818306e-04,3.926635916258426270e-04,1.020518306056791228e-03,1.505568100779948112e-02,9.652495390814115964e-03,1.968827813464787101e-03,5.201942672635081512e-03
2.980018006866597818e-02,3.455406184947553555e-02,3.273832327537784526e-02,3.163099706142081711e-04,4.331900034472834383e-04,3.949417247317401139e-04,3.379469784785504860e-02,4.001620841831838617e-03,3.644211127549330104e-03,1.079279681528817238e-02
4.333714062009921125e-02,1.122872125450291234e-02,5.157997782523674607e-02,1.031133333571980200e-03,7.577313024263027368e-05,3.260212230576830161e-04,4.022466460541059691e-02,1.722295257434141441e-02,8.382226458129849594e-03,1.818256865923314255e-03
4.914604788677713609e-02,1.937207660384022978e-02,5.429380310110368257e-02,1.040798220553961059e-03,1.128409160184319290e-03,1.427858228344551766e-04,5.412208952364465364e-02,2.670724268557214676e-02,6.160598166408452758e-03,3.196507172728782487e-02
2.327134165896869306e-02,4.385836193488703433e-02,4.649849783206178033e-02,3.835748523257875549e-04,1.364718308155790606e-03,1.320034494678833581e-03,7.667776988556444795e-02,3.521281970698818264e-02,7.059768246143211835e-03,1.115612743945549323e-01
3.456473935541168330e-02,5.687250274094302754e-02,3.506139907823611901e-02,2.080812123424264541e-04,1.169316076104807511e-04,1.294207620375197954e-03,8.597694864462843145e-02,3.942285830019427034e-02,2.421625689242784887e-02,1.856429351723566934e-01
8.666484115347272699e-02,6.514430236587866185e-02,2.402692445101782537e-02,5.526721245236380746e-04,1.089656862928506040e-03,9.360703616612841465e-05,7.018838771208237015e-02,3.183603338070651462e-02,3.284120833727244976e-02,1.932374294424633043e-01
9.931451164314114566e-02,7.548664968690994848e-02,1.854528736407703646e-02,8.688091598920352765e-04,9.720372985276751589e-04,8.469127559920060959e-04,4.163507096126116414e-02,1.500276737783451039e-02,2.957515743435517111e-02,1.283205296516107263e-01
7.661556927006156481e-02,8.517206508602395698e-02,1.904258995099899349e-02,8.990212852109591901e-04,3.125622096472662967e-04,2.068685940843624591e-04,1.386306384723385091e-02,5.146892778646179568e-04,2.133161937066002656e-02,3.190210604563196300e-02
4.233017953991986826e-02,8.535578862761725172e-02,1.732352708043737033e-02,3.685266972396849215e-04,5.831664182455046155e-04,3.656582088779004782e-04,1.450067183065380239e-02,1.214367961522958700e-02,1.374310076741163712e-02,5.730201929985117432e-02
1.228637080473005821e-02,6.935964245262750405e-02,6.753432327292490170e-03,1.455011137731616021e-04,1.637662674095772923e-03,1.222764752193555046e-04,4.643477468851647805e-02,2.625575646886762690e-02,6.649046652486690148e-03,1.257240934626968898e-01
8.821413232412219849e-03,3.776874165906336095e-02,1.014816005233148792e-02,1.530405809597500458e-04,1.978618782493237870e-03,2.163631062486781517e-05,7.194830060895730794e-02,4.255726840996498089e-02,4.759593236155312650e-04,1.698880875293370396e-01
2.485439125511222300e-02,1.555136537974560664e-03,2.730732407406812751e-02,9.897870282531389795e-04,8.903020913780038386e-04,1.975548061361845657e-04,7.631839867541695410e-02,5.037808799452475617e-02,6.186843404471248191e-03,1.832861844901254034e-01
4.407249753662758479e-02,3.845805520092305391e-02,4.117006503336807788e-02,1.301592107437310637e-03,6.316748879032381674e-04,2.859912228312300100e-05,5.940270337763277342e-02,4.473429489097709155e-02,9.634785728988785880e-03,1.650510328725668385e-01
6.137351500999651405e-02,6.777286119724663938e-02,5.080800715753755470e-02,8.350174799657192597e-04,1.152559732520465775e-03,6.654989931837701879e-04,3.925731683969185815e-02,3.381367503206659381e-02,1.052097558041050970e-02,1.275929666913794280e-01
5.392593521931805800e-02,9.196195640828290496e-02,5.657056254712850007e-02,3.095641458700889226e-04,5.084814061121274058e-04,9.215508174031341497e-04,3.188404487907606916e-02,2.325769328423857654e-02,7.806932840308782560e-03,8.497178922433398784e-02
1.329111275912921858e-02,1.122452630834949172e-01,5.666738971487100124e-02,1.009431906978957194e-04,2.735149772641037717e-04,8.367301185595245501e-04,3.383238676297935232e-02,5.750953035853358097e-03,1.603877964302352242e-03,4.181320138229480121e-02
3.214689141726832095e-02,1.179312245038983686e-01,4.601896729128280433e-02,7.924647129239538066e-04,4.869383212883699515e-04,8.783777735915271638e-04,3.388281868699684340e-02,2.309797992762516877e-02,5.716497282174704681e-03,1.986978454294581475e-03
4.773057688179669494e-02,9.664664880120925339e-02,2.512786434458740698e-02,1.256100738888152931e-03,2.956724333949330846e-04,7.266343078229051686e-04,3.251833220929585544e-02,4.945777156337936159e-02,1.170937415500197809e-02,2.374875618653353795e-02
3.218122714090709130e-02,5.737974793556339242e-02,5.528866548302875661e-03,6.284489800576607702e-04,5.307115044212480247e-05,3.389529881479705700e-05,3.564672381180467725e-02,5.460852681764809952e-02,1.471590122754801860e-02,3.384330459278649117e-02
9.455826520482123188e-03,2.729387700690544608e-02,2.734519205700330392e-03,5.089630467096799326e-04,6.220719711518818136e-05,5.018531518117433192e-04,3.885474391934187754e-02,3.842899915473483446e-02,1.327545045467254381e-02,5.097186919336035155e-02
4.338733050250098353e-03,2.189641455572999273e-02,2.389485226303396381e-03,8.614340668136341670e-04,5.332458181243547287e-04,1.479373009737362256e-04,3.328340892674020585e-02,1.946175605388256527e-02,8.045805449848994484e-03,1.001585270238104092e-01
9.843254401912788706e-03,3.192456230839870596e-02,7.945056325160393656e-04,3.420498015956185273e-04,9.931472742059274921e-04,6.509633089345991021e-04,1.892453305770724556e-02,1.233792933650972382e-02,2.838948523952826864e-03,1.720429973442872684e-01
1.360728071427179560e-02,3.835969441415413433e-02,1.378145166503737555e-03,3.007718152524186035e-04,6.731000440502697690e-04,1.012230964911847502e-03,1.427433738004549270e-03,1.315252590389673001e-02,6.383469706156539615e-04,2.261630400888103576e-01
2.292044766475364800e-02,2.884101838502768980e-02,7.858136813535311974e-03,7.556672019494838424e-04,1.109975476051132132e-04,6.922585874903864830e-04,1.546485309647020745e-02,1.098702416282305340e-02,3.222729516205398220e-04,2.336832789828433010e-01
4.021450327302153460e-02,4.532642192786622524e-03,2.289831208749532748e-02,1.047424903132553910e-03,3.759666769551321262e-04,5.179407358711791141e-05,2.838335160401646989e-02,6.435614633907505572e-03,7.603358591589390921e-04,2.038269548260519259e-01
5.225237710448012857e-02,2.046316721226419666e-02,3.938492782987831203e-02,1.245232133272194258e-03,1.283859978612938773e-04,7.893131271889072299e-04,3.398894130471728087e-02,8.406241821998334043e-03,3.355868345840598913e-03,1.671405718425754694e-01
3.905992944295921115e-02,3.129268119344132126e-02,4.679861655030619072e-02,1.482202737706336728e-03,2.602936331718410854e-05,9.603712226508717090e-04,3.276801549376421457e-02,1.650529654201184429e-02,6.870880325049488410e-03,1.424431719266940621e-01
2.089373441114616460e-03,2.699413954781407915e-02,4.554071500916909154e-02,1.416480000763005237e-03,1.117503110391760427e-04,4.538351749371439614e-04,2.812079258944407550e-02,1.937062063480476243e-02,1.102904565029664066e-02,1.237653451923527853e-01
3.373310920580605693e-02,1.856675561637353630e-02,4.218174160654350469e-02,4.300951140766230609e-04,1.292472648067333218e-04,6.386794580901795470e-05,2.480102684466572310e-02,1.009505596785177477e-02,1.534542695028384696e-02,1.000934637094703511e-01
5.193713394096043101e-02,1.516732008005884820e-02,3.682572776023864541e-02,8.892886436723186931e-04,9.888002386250767492e-05,3.922880593061650362e-04,3.068404751656966106e-02,6.859584892596207184e-03,1.803076139480506643e-02,8.123162550438443874e-02
5.856834321579905411e-02,1.964694209901004726e-02,2.939043513435597721e-02,9.228433933305822028e-04,7.523567605583926098e-05,6.776289335789001649e-04,5.083871600001714508e-02,2.351134120426022142e-02,1.673635233768580935e-02,8.723707838933138226e-02
6.092054148804468966e-02,3.346690340851846829e-02,2.929608088154861747e-02,5.139664384071491576e-04,7.315137584429279966e-05,1.142288337279786142e-04,7.665089917648007511e-02,3.484720395109994207e-02,1.071964384550154817e-02,1.137554598536982819e-01
5.379636066668768563e-02,5.590363274757059048e-02,4.276135195384248022e-02,1.520549163433532929e-03,7.938425876090630853e-05,4.237838962290431323e-04,9.160150520290612219e-02,3.820937663164764714e-02,2.208143267167923720e-03,1.318813647433912384e-01
3.272900023438995998e-02,8.044946936232423573e-02,5.812671933326042650e-02,7.382113916211386316e-04,3.725778016377264762e-05,1.400549084887019082e-04,9.054942468789825560e-02,3.396444084700604715e-02,4.629490514603803140e-03,1.244715396690596609e-01
5.057606040877992044e-03,9.849431266818267638e-02,5.849216800840406627e-02,8.755309529666775899e-04,5.255204704558880016e-05,9.188574138896407964e-04,8.201413549455989493e-02,2.803174599578594703e-02,6.485194452469780942e-03,9.808088729885335033e-02
1.925561252646202856e-02,1.045048927996410359e-01,4.312903075102500483e-02,1.670859444226980087e-03,1.353070970330671119e-04,4.768456363286742612e-04,6.996672305132413394e-02,2.746684781442287199e-02,3.263355648510822202e-03,5.788260746742935475e-02
3.999041343950828636e-02,9.737814830575643177e-02,2.538832404411653018e-02,1.462943797739970405e-03,1.928892082864075739e-05,6.193638770602514099e-04,4.821912822845344365e-02,3.198874843559375986e-02,1.891703591700575043e-03,1.051717024101856551e-03
6.218276315037649105e-02,8.094581158813529687e-02,1.466524716677766738e-02,1.234277201080838599e-03,1.530205051222448623e-04,6.765868757705106526e-04,1.841218897046261599e-02,3.544882203546038252e-02,5.291938286944375749e-03,5.476327797388026025e-02
8.003966682687227441e-02,6.089991588572319509e-02,8.882793006701937555e-03,1.461310800238803127e-03,1.268214225370192598e-04,3.890421700888085227e-04,7.036356013661254974e-04,3.438241275870641128e-02,5.970446732496666534e-03,6.701062324833875761e-02
7.508609981462796568e-02,3.909648317293401565e-02,1.647219550603888985e-03,1.570412659448798716e-03,7.334215825112333107e-04,9.776788479708947276e-04,7.427598836127132474e-03,2.814057512312713102e-02,5.806974067775413223e-03,1.696574948071929295e-02
3.942298642287975219e-02,1.569864485404612320e-02,9.375612838640155766e-03,8.786942608425819768e-04,1.076357383699172920e-03,3.173399254462744420e-04,3.542649914082539320e-02,1.615617311189417038e-02,6.525078903468965567e-03,5.542739467448001139e-02
5.955152441518697486e-03,2.832913224531513879e-03,2.143004771670610140e-02,4.577682261095565325e-04,1.022343628904546272e-03,5.322966957123316306e-04,5.804117277553041965e-02,3.709781744899618219e-03,8.039593585007354451e-03,9.097434603892910754e-02
3.042506921198838768e-02,5.536995879577813646e-03,3.084363977827437112e-02,1.523076693690095110e-03,7.538340133278044562e-04,5.736991164080160362e-04,5.752467067210002144e-02,1.118019806667346029e-03,9.640344965906631064e-03,7.374843560405029697e-02
2.774598900170958601e-02,9.162874171935892278e-03,3.603937120917744680e-02,1.463989106195285814e-03,2.912560247080282034e-04,3.400137245202197647e-04,3.711633360997047132e-02,9.532177581352640691e-03,1.075131024867014354e-02,3.337528713797886099e-02
1.572129871118540037e-02,2.608617778930232001e-02,3.711264717901203991e-02,3.413822410045174414e-04,3.054656706719711826e-04,5.936294334315693130e-04,1.067013492438312859e-02,1.918890265307150039e-02,1.062724454666669552e-02,1.736636735282355353e-03
6.082898332356662802e-03,2.654180641367284016e-02,3.501982220846510535e-02,7.430286091646910902e-04,7.121860061309266731e-04,7.218683820685563388e-04,1.330444634830546709e-02,2.487524105513566966e-02,9.276892185738183638e-03,2.980536948861575025e-02
6.797806277264291375e-03,8.256993681130203253e-03,3.184808763142032983e-02,7.832721223837839928e-04,5.157695049121769704e-04,2.122527839227406185e-04,3.424668928252748434e-02,2.862596827251086273e-02,8.077462465480475876e-03,6.034078785799851935e-02
2.711434344461984697e-02,1.396495730617275215e-02,2.981506458818897892e-02,8.809428768885684132e-05,3.286861992143220849e-04,1.501743586087567195e-03,5.256259186002991413e-02,2.758060499430131651e-02,7.825406298658972581e-03,9.329050713972469877e-02
4.533738701911907421e-02,2.719394268012162094e-02,2.907652949749126026e-02,2.885571675471241735e-04,1.088835737793521826e-03,1.534622545438497996e-03,6.537895268625126821e-02,1.566151016303768059e-02,7.624894531705866084e-03,1.161608682061947562e-01
5.119297776479068279e-02,3.281497754173570702e-02,2.806216581025205645e-02,7.292592444083382999e-05,8.857006839003683102e-04,2.429414500828242179e-04,6.806083665546128203e-02,2.797118318795374127e-03,6.920839945746872987e-03,1.153727372247642241e-01
4.868323447467218928e-02,3.842256103884782864e-02,2.624335043476211729e-02,7.866387816455117023e-05,3.594346671526888078e-05,8.418988418785581813e-04,5.945329957818900474e-02,1.506777222760157832e-02,6.367945590840903836e-03,9.209273868460868262e-02
4.995538126356610653e-02,4.495659659977469663e-02,2.460161644095247221e-02,2.144866075732353812e-04,2.675806078406366660e-04,8.371961446178385500e-04,4.608366481632637096e-02,1.619412513546408111e-02,5.965288958418604043e-03,6.678227456217153413e-02
5.639646280165500764e-02,4.777324264357437483e-02,2.338144436979930699e-02,4.117965413440314768e-04,1.019543970502136235e-04,3.813448407539598737e-04,3.716566170627033650e-02,1.352284038027085772e-02,5.031407713319228231e-03,5.999580925929178660e-02
5.361910621797536664e-02,4.667894573744725550e-02,2.171021151149158182e-02,4.334055693457392706e-05,1.167649145706636766e-04,3.897339127784139054e-04,3.397649834508099931e-02,1.454052359629370156e-02,4.113445031916995384e-03,7.002651808559373636e-02
3.139956946999677284e-02,4.777049127608348073e-02,1.944945736437240016e-02,5.656421405295978221e-04,3.103651568500705843e-04,8.514260020753822546e-04,3.022987082825701402e-02,1.732544191594681884e-02,4.179065256244051188e-03,7.970339947861937446e-02
2.876465369629792844e-03,5.388035665904603033e-02,1.747679779826255900e-02,1.909930278471393139e-04,7.555573867106577890e-05,8.513990168952525290e-04,2.414769882168828902e-02,1.620368356209278549e-02,4.468008990314363375e-03,8.108473531202620155e-02
9.917766449660459643e-03,5.754461908157209454e-02,1.626953001689705400e-02,6.896100924514240180e-04,9.270729182219171515e-04,2.209491673142499266e-04,2.244763854562157809e-02,1.264670948657185823e-02,3.676352386984558900e-03,8.119597487511479028e-02
6.867434372126852288e-03,4.827161802091824855e-02,1.547166059078278894e-02,9.272973921347941410e-04,1.238969878928248896e-03,1.485402291675753245e-03,3.027480265309385327e-02,1.390277317096601933e-02,2.355245948344116078e-03,8.718748535512688136e-02
5.959138068273043577e-03,2.680092711453848503e-02,1.459596756876361222e-02,6.109391303809967025e-04,5.372001792953859855e-05,1.462479439955720328e-03,4.329097891113479341e-02,1.983926585054104907e-02,1.953790390121813714e-03,9.678464499637495777e-02
9.227806438468086347e-03,6.659459927167176753e-03,1.338160913534670524e-02,6.353074886364210331e-04,1.351252015661919730e-03,2.161853790891987573e-04,5.167617670869186636e-02,1.811588409463468774e-02,2.442028210430448407e-03,1.024286045786880622e-01
1.481966649738338795e-03,1.857352174544614053e-03,1.167205585351465021e-02,9.139460760567699391e-04,1.293325094366313491e-03,7.479962807725106140e-04,4.930234298464312992e-02,5.430509913172397755e-04,2.737426249802305846e-03,9.949415797631668001e-02
1.095301325751259561e-02,3.958905250414820366e-03,9.560093803362170600e-03,6.939487475019786135e-04,1.276091028708399838e-05,7.167151021968527986e-04,3.870952920460714319e-02,2.441602272544310739e-02,2.658397066054332854e-03,9.023997144309436891e-02
3.485311441791313219e-03,1.018151538214951204e-02,7.584654882980993579e-03,7.608975720060444619e-06,9.838800283747427874e-04,3.982674326922266126e-04,2.714614344436171167e-02,2.866361008257713866e-02,2.794894217456035408e-03,7.967127849754340740e-02
5.061770961722771023e-02,1.895750484983475814e-02,6.192833779930753679e-03,4.235187729068841172e-04,9.481641447063502391e-04,4.037430791883631423e-04,1.745075417162194817e-02,6.193717404233223776e-03,3.100248503377574759e-03,6.775475281216142287e-02
9.133984839510325693e-02,1.962569745143045996e-02,5.082803778425336663e-03,1.945863736695399549e-04,5.989933267557158306e-04,5.007822513009405237e-04,5.735525628991262719e-03,1.969084871085950358e-02,3.069621948343705456e-03,4.975624412196331947e-02
9.281210909110874929e-02,9.507584886611408770e-03,3.721810070158892893e-03,1.263392610504398617e-04,5.828580824174459237e-04,4.272625215507731399e-04,1.079537408813343105e-02,2.356590183499382082e-02,2.751208245787214578e-03,2.561219968478916156e-02
6.736487636575788640e-02,4.195621232884375051e-03,2.402112497774713893e-03,1.223750684039278194e-04,7.882265146200778325e-04,3.888346928101874857e-04,2.790231030881549015e-02,9.634122288483554924e-03,2.421858022350606866e-03,3.861300057731557184e-03
4.297841368379684557e-02,1.704844380920376642e-02,1.986272627145638237e-03,8.647890261727320897e-04,8.308423338625625263e-04,4.997998943931082844e-04,3.758030833859502678e-02,1.421682186200321722e-03,1.764167765059476353e-03,6.512009232407311304e-03
2.379528887288511960e-02,2.881430406783212078e-02,2.453134722336987577e-03,1.476282972966324247e-03,5.697571747777676167e-04,4.029767440188970415e-04,3.438366310640896678e-02,6.542316266031729909e-03,2.699648232472797870e-04,4.646486599339388901e-03
1.212835228019867526e-03,3.393833141444996260e-02,2.444939402237057170e-03,1.287538025238493550e-03,1.449918576598680062e-04,1.829775201894085770e-04,1.921592323715682823e-02,9.959351484494076770e-03,1.720228192073045047e-03,3.791019634406573788e-03
1.549432633660251246e-02,2.425381481767823616e-02,8.009071872012987411e-04,1.355210184344376166e-04,3.646591104904407235e-04,9.256397743717503356e-04,4.854941299775698826e-04,2.175336782440162944e-03,3.033462059382947135e-03,1.387536390452275524e-02
7.063485978619189580e-03,2.798752865081922166e-03,1.781342251066288197e-03,9.852004590126929671e-04,9.970288687791008068e-04,1.216673197208993857e-03,1.571264540608399013e-02,5.403586415421485559e-03,3.009502990351013707e-03,2.468649204307355946e-02
2.222050528820382689e-02,1.538005077625672831e-02,3.277036642274416475e-03,7.774817793486874786e-04,1.361186407367750767e-03,8.528616010460345629e-04,2.315809244263443770e-02,3.220246489552905118e-04,2.279513436131032703e-03,3.652895159232636552e-02
4.451950442148327330e-02,1.897993573330620035e-02,2.763688939751850378e-03,3.682800909606641490e-04,9.197039746473316055e-04,2.166743618225585200e-04,2.668195038693900803e-02,1.594378968947426228e-02,1.596102436091697109e-03,4.715380814532969811e-02
4.267861828476338798e-02,1.035143804708758136e-02,1.743745197146835202e-03,7.639077431267068475e-04,1.709533193219010079e-04,2.235057185706999132e-04,3.054509685361673360e-02,2.940488988159439473e-02,8.207144911894552692e-04,5.177723515097523710e-02
2.209557186273594653e-02,1.678474922883984189e-03,2.250809262379260996e-03,1.676156757157603233e-05,6.735775736212555489e-05,4.653364274534803856e-04,3.303378314000730148e-02,3.286966886118263681e-02,1.471910225197728379e-05,4.732783687295603892e-02
7.450538710078141724e-03,1.207752539333323966e-02,4.088017125625358419e-03,5.218870054108798191e-04,2.913409913040498184e-04,6.220827307933008039e-04,3.017194586721186692e-02,2.542559612956797263e-02,5.836317144784097409e-06,3.652879360572470341e-02
3.602485253707927992e-02,1.981684388353165127e-02,5.239383852240293328e-03,2.934433561845886890e-05,5.749811498769874242e-05,3.300197080909754747e-04,2.416825326206222674e-02,1.531571235454406987e-02,1.199943997835197472e-03,2.611656553294914099e-02
4.600242171970092553e-02,2.366776348701070745e-02,4.766855306659815127e-03,6.464005634041459190e-04,3.082188584414499461e-05,4.895361652243632134e-04,2.007477202508755471e-02,1.747655289482595575e-02,2.522572427850687006e-03,1.968871312742116741e-02
2.776918555537463001e-02,2.287053315655229041e-02,3.794636862359026738e-03,5.123054650844718113e-04,9.481887950217009068e-04,8.419213968535090714e-04,1.351517311717466245e-02,3.715353806449899626e-02,2.705296608528317409e-03,1.370907678000003044e-02
3.238057307889884509e-03,1.971278365702759314e-02,3.644784025647750288e-03,6.066836515701713441e-05,2.220049653437531929e-03,1.250406079674784262e-04,5.573998891460161913e-03,5.982674129634570070e-02,1.882952937357761742e-03,2.873604082698075039e-03
2.747149306122325177e-02,1.753661283828980219e-02,4.255604789597416601e-03,1.935091335300004995e-04,2.230554948150927173e-03,4.949583617030921603e-04,3.358534765258720800e-02,6.631262311869269566e-02,1.971901201747814931e-03,1.176223553334763104e-02
4.678175054675706712e-02,1.679692921291251265e-02,4.641506002494414501e-03,5.326463362378549643e-05,9.699046760922370482e-04,7.679495444103646919e-05,5.212869989024182527e-02,5.348306076481164351e-02,5.058239030823943189e-03,2.355245925868960574e-02
6.859726685888128950e-02,1.553128552820636638e-02,4.305749591158190316e-03,3.091159125877091744e-04,4.089990335347651123e-05,8.284376540478712112e-04,5.076317433596078815e-02,3.490748159905600334e-02,1.022626711144390688e-02,2.831824228239053151e-02
8.247822967566335872e-02,1.298052656629469087e-02,3.805050790742311399e-03,7.004774013671362723e-04,2.844917239936485586e-06,3.221301008449920867e-04,3.740939153340974710e-02,2.508106546868038925e-02,1.325595993680251695e-02,2.697021423113084987e-02
7.446350731619118257e-02,1.000336493493672943e-02,3.838644026842825702e-03,6.437013597343256566e-04,2.853959175428093372e-04,7.992668280037454028e-04,2.338228898665575123e-02,2.585494543551722368e-02,1.160861952854735923e-02,2.094481563027609031e-02
5.019154670355466946e-02,6.469191619106818766e-03,4.330416005799929240e-03,5.204286735950027724e-04,1.893988895861112819e-04,8.633406967072551315e-04,1.106057692268729888e-02,2.683041345302075026e-02,8.001719148909952964e-03,1.189949537902998573e-02
2.594611908650530652e-02,2.093927586800156844e-03,4.692197447606290088e-03,7.817881353354166505e-04,1.685544245273215124e-04,1.396293127681891700e-04,8.516245104386907083e-04,1.807001517550391526e-02,6.565771334390476874e-03,6.626500910096875044e-03
8.008533019813775591e-03,1.668125544029301546e-04,4.298579823860894725e-03,7.873775486557880315e-04,3.497444736654651718e-04,6.686213702677791049e-04,1.083551460187589383e-02,1.206511226836704323e-03,7.509268897552131942e-03,1.374774484760794314e-02
6.265629148913501312e-03,2.656808125596708467e-03,2.892825094896578787e-03,3.176345349529368625e-05,1.103166896883258919e-04,7.217585573831807586e-05,1.708548799312277489e-02,1.320379572121842086e-02,7.923046645733596363e-03,3.169933134287403892e-02
1.729490330843616586e-02,5.806552034274030209e-03,1.383330913044485393e-03,1.061740312477833575e-03,5.309958370605028692e-04,7.189539376030527461e-04,1.982207377044561958e-02,1.800609073974601682e-02,5.950408945295255179e-03,4.651917844703314098e-02
2.583133822990260967e-02,2.175702570044690766e-04,1.297483573992244460e-03,1.432484295595981864e-03,8.592969509990385857e-04,9.512183123241092688e-04,1.928133982424801163e-02,1.639748929694579554e-02,2.683538371510887227e-03,4.575019746320087982e-02
3.887521431948590123e-02,1.352990369737541894e-02,2.506628543726516396e-03,9.341633847404635623e-04,7.215353618247621371e-04,8.914630149204321851e-04,1.604669503545076356e-02,1.643471470640363308e-02,1.208693332054294267e-03,3.134719764245446488e-02
5.901925560033441376e-02,2.332219763210314351e-02,3.046279589061119154e-03,8.031250552685510399e-06,5.530559841958781120e-04,7.309343936988133830e-04,1.262163904851559826e-02,2.256215743574991814e-02,3.541926093301082067e-03,1.738785587506164187e-02
7.162677467817428478e-02,2.072478715132750407e-02,2.086330462627482285e-03,4.536834499849598567e-04,5.642759317774602434e-04,2.014099318368379663e-04,1.010611215632005282e-02,3.361206923666866520e-02,7.579068286649104196e-03,1.613560104573413811e-02
5.754219431595962442e-02,1.002073903464436450e-02,1.139047453989934424e-03,2.148574460946254248e-04,6.785509570380213011e-04,4.823982728928272439e-04,5.801168610193706970e-03,4.303175693949948255e-02,8.813513626346443711e-03,2.574878759230911709e-02
1.881040846569623573e-02,1.253194934810062050e-04,1.443558288598618695e-03,1.141696017159358773e-03,7.701597689919277220e-04,6.251398329370616959e-04,1.180733916770653315e-03,4.004507580883195916e-02,5.875963120752602034e-03,3.331972986767956640e-02
2.169720628785668654e-02,5.088255184669786269e-03,2.199984294101033772e-03,9.494329383463968397e-04,6.093710114823618724e-04,2.527658631764847261e-04,5.439420906945072361e-03,2.006614437118192998e-02,1.857795581044477916e-03,3.120333109616392833e-02
4.603284006655566918e-02,6.710004552298325445e-03,2.296150360638485929e-03,2.009406066214727642e-05,5.253606058951735766e-05,2.934324461320643885e-04,1.346084527914546709e-03,4.059310031635738301e-03,4.228112908397707115e-04,2.406308401378860068e-02
5.285601571769954488e-02,6.283217371058069482e-03,1.934997614341318851e-03,1.976246051067531196e-04,6.263155547483786455e-04,1.159524620810899100e-03,9.157786253210915134e-03,1.221994538213095477e-02,1.476720563316101823e-03,1.707597477759577667e-02
4.590840965641431598e-02,3.879909240165600043e-03,1.732522803926047923e-03,3.579422328476753682e-04,9.364361766194173511e-04,1.886764447576022661e-03,1.881685974280516288e-02,1.053961315767623381e-03,2.738761129333114677e-03,7.701661796953094934e-03
2.731639637770340648e-02,1.281138717919604649e-04,1.681012428985088946e-03,4.771184159887329162e-05,6.506357783690683034e-04,1.336239965256997078e-03,2.366709974961760110e-02,1.315292291149102247e-02,3.940089692697885948e-03,4.563903437635505322e-03
2.643467777426185533e-03,1.709785149854863668e-03,1.629085408888307062e-03,1.002181179562879098e-03,1.471424605161303920e-05,1.856446937651219024e-04,2.660199386119015130e-02,1.834017287129976678e-02,4.110425542059025286e-03,1.106108697410746952e-02
2.045583952560545496e-02,1.232056207076928775e-03,1.653768964705372565e-03,9.113855628109230993e-04,5.884154406366316845e-04,1.216494251215552089e-03,3.261062151945985643e-02,2.238257516180635828e-02,3.424016342241032601e-03,5.308027588281624687e-03
4.045429136395638919e-02,7.033368629912724324e-03,1.520284813854020853e-03,2.564257562773722280e-04,7.509976678298289736e-04,8.823248000114950699e-04,4.238873429674244742e-02,3.873497135400705282e-02,2.875370805823417898e-03,6.887112739497667883e-03
6.198595941650827251e-02,1.133558237377847028e-02,7.520526093158399865e-04,3.776372291479328908e-04,5.840109001031261893e-04,1.415960010004933258e-04,5.148582731068621077e-02,6.332948545200944857e-02,2.939905593564484491e-03,1.636558194243624420e-02
8.624670640441491065e-02,1.285834419469906141e-02,3.145286570002661566e-04,7.679238213679596492e-04,4.239652706274073084e-04,5.430223157383436659e-04,5.504330609658694695e-02,7.567376697186181667e-02,3.316705313598860942e-03,2.183707739646784107e-02
1.043507297824939756e-01,1.303137733065700202e-02,5.393158765305739897e-04,1.107076279357249813e-03,5.447552455398814615e-04,1.175597186169456031e-05,5.248537970902270727e-02,6.423810771298718580e-02,3.542750157346156829e-03,2.552474102245454179e-02
1.038574900898875802e-01,1.183110996855702042e-02,1.455345181508838591e-04,3.451379484778497534e-05,8.011113149829656756e-04,6.280906980388419915e-04,4.679093280292108414e-02,4.191089671537474859e-02,3.429975327761470780e-03,2.605840656459702462e-02
8.258061356751605908e-02,7.400894077780102547e-03,7.558755265381399482e-05,1.202893540964269708e-03,6.045979069466165612e-04,8.598077696723005871e-04,3.894225842434671792e-02,3.035843625115895728e-02,3.283735395841731221e-03,2.318053026462829624e-02
5.056465411035673124e-02,6.070681368372243814e-04,1.126399036899745779e-03,1.488075873620724751e-03,2.245356829979592325e-04,8.908278387330529138e-04,2.585770523612431621e-02,3.574585747316447182e-02,3.688518220935942723e-03,2.249714565382190598e-02
1.755937797032108144e-02,8.927278245138805385e-03,4.084966881192351497e-04,1.148198558849211712e-03,7.954143806740098226e-04,6.385250900697835843e-04,7.731965865472098867e-03,4.598515878343205354e-02,4.538933143095784557e-03,2.761561152288055307e-02
1.271336092123984476e-02,1.226878487651226514e-02,4.325486034778095248e-03,2.994536990312828169e-04,2.447205238917563941e-04,1.231706740617531117e-04,5.495461708924960498e-03,4.722018709373831946e-02,4.866042518869538591e-03,3.251762146474505843e-02
3.508668022553688287e-02,8.498844396475784685e-03,9.086048160975235960e-03,8.468826478313521214e-04,7.756455253136935232e-04,6.610612795112350178e-04,4.007308246356994924e-03,3.889165204519717117e-02,4.396092549541854612e-03,2.969431488156155929e-02
4.030873152073619070e-02,3.586633894828986178e-03,8.048776668171149160e-03,1.423050440553883878e-03,8.254564531808923546e-04,7.775354081914555597e-05,5.378896245011644851e-03,3.304485036279425358e-02,4.034350619843519309e-03,2.214261544782235303e-02
2.310348546139281978e-02,7.459004595887795686e-03,2.161713310950962464e-03,1.017254028986110375e-03,2.202528996621579680e-04,9.214388836680071585e-04,4.217692414778352605e-03,3.757815396284266279e-02,3.884214109084999696e-03,1.884713143284063794e-02
9.837846301592116649e-03,2.102602138628000689e-02,2.210264374206834335e-03,2.551570004548895949e-04,8.947364157966820582e-04,8.368975207442547583e-04,1.308585374962865575e-02,4.336973896999468669e-02,2.690146852743723321e-03,2.073268806698298078e-02
3.828779919205618776e-02,3.296715285174337678e-02,3.033360712772355163e-03,2.819714887187252123e-04,2.172682462390845772e-04,1.604794422285648497e-04,3.162049433464149406e-02,3.554711312800164225e-02,2.206814087777414165e-04,1.911309896775333431e-02
3.975958604649750677e-02,3.491034409326494031e-02,4.018870186394178645e-03,5.004847949681082023e-04,8.648757598097183731e-04,4.623708927562236899e-04,3.577612134813668715e-02,1.387401624214215819e-02,2.223462128718661866e-03,7.620434948301999141e-03
1.251765401724231654e-02,3.235183915941011734e-02,4.868202656998870531e-03,3.355362527358378942e-04,8.101359591893298731e-04,1.649583400794829005e-04,2.574524697189416872e-02,8.278563321331859626e-03,4.764411445594434261e-03,8.933398495369143655e-03
1.812472202295027299e-02,3.403558566117827894e-02,1.263992984018008376e-03,2.913045081346713719e-05,2.713843687938101087e-04,1.558151315214956103e-04,1.409365566244818145e-02,2.154359035796681032e-02,9.480750997725453932e-03,1.774637110698179532e-02
2.690394147723575852e-02,3.886443597815310291e-02,1.602617635581835009e-02,1.424193945718283012e-04,7.756369433149544815e-04,9.944390016036568341e-04,1.673852161879859496e-02,2.658372544629860126e-02,1.610022483750245606e-02,1.019220729872591727e-02
1.332808812785594987e-02,4.030114491840854074e-02,3.001914924704709303e-02,1.161987200982801189e-04,3.388003525575313142e-05,1.796625936903575600e-03,4.427199300617487565e-02,2.582180138593589275e-02,2.002565156523699458e-02,8.594950501544044649e-03
7.905928450658156192e-03,3.649486643473270203e-02,3.446555412568870491e-02,4.031719523206354016e-04,6.990356392017342720e-04,1.334956721257747310e-03,9.016998253994848445e-02,1.939760807828890682e-02,1.753174916159248517e-02,2.506981063577719965e-02
2.524322118858355821e-02,3.055404114628631346e-02,3.111220057338458592e-02,7.187074848778698044e-04,2.537222955945820225e-04,4.532359607241435431e-04,1.301015610757396135e-01,1.004039299122720663e-02,1.069910537054038699e-02,3.142902244455461624e-02
2.929253675938484069e-02,2.639572045923621602e-02,2.560606677860285951e-02,6.138298781983688238e-04,7.332051159077716731e-04,4.346054080288292473e-05,1.427697592979862984e-01,6.653732062768950503e-03,4.293756690613401671e-03,2.956941169833899111e-02
1.033920154678872987e-02,2.655996476549312910e-02,1.856741302316597397e-02,5.842059882241484219e-04,9.713302464795555823e-04,2.689555007606826242e-04,1.292155271952222517e-01,1.925991713206541903e-02,9.479469101827844683e-05,2.435338200415157472e-02
2.951125161713304482e-02,2.921477269006308303e-02,8.466953346917447179e-03,9.500073297497432442e-04,3.938244992348042964e-04,2.765356814869471768e-04,1.057880757940275473e-01,4.780801218429046179e-02,2.752481173931043378e-03,2.035428727446107061e-02
7.011737354338037909e-02,2.826856204944236395e-02,2.013243845027950889e-03,7.953960242930166805e-04,3.778304364885567577e-05,8.997734011097257081e-05,8.423523649943530367e-02,7.709418332768411264e-02,4.331360905608944850e-03,2.158191104622326703e-02
8.927464882968874638e-02,2.095793057239869056e-02,7.869624988361060072e-03,2.574525693354765238e-04,8.915467895626491535e-05,4.849211234806827383e-04,6.637844489578717533e-02,8.782114368532613347e-02,4.274532896443010259e-03,2.703686409593015691e-02
