1.932623557515219734e-02,3.508151763465464611e-03,1.753593005544487257e-02,3.505613684212535133e-04,1.103951078920027131e-03,2.907368542684090934e-04,6.069366110249822810e-02,1.549226748505940290e-02,1.615721249504458931e-02,4.897348551221908375e-02
1.254465761414470110e-02,1.627180289426471927e-03,1.720697022750164104e-02,1.433204069149395183e-04,1.099400168780843194e-03,4.166646910623065213e-04,2.735920767574516813e-02,1.604066765159238572e-02,1.592974895113476869e-02,5.151652466064191201e-03
2.256885294784527485e-02,2.275339773081112610e-04,1.559976089364438663e-02,3.360766150149790336e-04,1.798501316210027602e-04,2.569407321166785230e-04,7.076753542566482057e-03,1.249998301302050231e-02,1.705383076056604316e-02,3.633703997780914075e-02
8.169740855190817455e-03,8.453415174452399723e-05,1.374584566607439662e-02,1.013008762764992365e-03,8.374415043706472106e-04,6.149152143833850172e-04,1.309866691903952343e-02,3.626761532128873131e-03,1.876798937044106552e-02,5.646448692901766264e-02
1.013912609924092628e-02,9.020418689960624107e-04,1.293238868467933879e-02,1.722990693840247825e-03,9.324281045792052244e-04,1.121248684157296173e-03,4.823671694805953952e-02,7.282030266716578611e-03,1.941514630575967224e-02,1.065898411117268962e-01
1.081921905574253009e-02,5.159614040555492859e-03,1.290912843460748083e-02,2.141929558279573494e-03,5.512479240796268809e-04,4.818058548822053621e-04,8.375785549930139795e-02,1.417531354544909750e-02,1.933284076358011624e-02,1.821869065428653456e-01
1.024872816795285510e-02,1.458990738745634050e-02,1.244605712474771038e-02,2.064476687612097888e-03,6.218840774329066146e-04,1.111228332288838230e-04,9.511004752533754047e-02,1.437611066300288967e-02,2.042399104177903407e-02,2.265498309203294869e-01
3.907398755073544089e-02,2.653329670639746618e-02,1.099736351397490562e-02,1.270404968782546306e-03,9.467604979065040536e-04,5.416385594391971096e-04,8.355650337647084480e-02,9.528339061786329778e-03,2.293407176647518919e-02,2.095111406869640813e-01
5.833396206415896595e-02,3.519347534883504602e-02,9.172816556315519995e-03,9.065691691496000884e-05,6.809327232033091743e-04,1.433246278777970109e-03,7.117577730771096345e-02,1.706482209562264511e-03,2.492338450054577825e-02,1.714643425957209644e-01
6.130070353406745498e-02,3.930743615565877175e-02,7.693479433969716529e-03,5.818434821705319821e-04,6.261550487656237390e-05,1.028212706364211183e-03,7.315589386369904246e-02,7.171678720742791745e-03,2.509754373590942361e-02,1.720044902022027367e-01
5.254964099843175557e-02,4.436797897516876754e-02,6.400757460908722621e-03,4.881993308992911822e-04,3.200776244372566682e-04,7.585904105773748460e-05,8.954695458602709990e-02,1.369117919469872539e-02,2.401206468504429870e-02,2.198095735661052819e-01
4.230514290759892354e-02,5.373443590269000314e-02,4.744540675279574661e-03,3.637618979804616796e-04,1.974215789036682538e-07,6.518966855597834831e-05,1.119213331959298952e-01,1.414941798455159223e-02,2.217509616957069954e-02,2.697265113460358132e-01
4.183265631233585441e-02,6.157552733470889050e-02,2.814404055102055682e-03,5.745534120347244814e-04,3.232635019871474860e-05,1.177006639862058709e-03,1.258296515400034732e-01,6.886150692326503155e-03,1.922324560214639863e-02,2.749454678611394920e-01
5.624968869935097898e-02,5.975985766225248852e-02,9.385909815987093221e-04,4.550800943914997841e-04,2.589754344236465172e-04,1.831088585386481940e-03,1.164364006936502022e-01,6.138016542419756291e-03,1.575113516512538850e-02,2.268137629791254495e-01
7.877056405229986014e-02,4.767484749825930124e-02,1.296784427435523001e-03,3.072959233708567363e-04,4.824519835027394940e-06,9.865916456186893564e-04,8.358606776552893192e-02,1.873624323355263174e-02,1.367790831868727006e-02,1.517120470716625535e-01
9.578350317576203587e-02,2.999607689626877099e-02,4.429765793546197074e-03,7.791198012371813040e-04,7.957038002984731431e-04,1.763447712299557571e-04,4.640659339457806065e-02,2.454086213465770522e-02,1.348468995476340831e-02,8.396867154924195220e-02
9.675848872985898241e-02,1.010005258808552818e-02,8.085418468121097907e-03,2.341959478429732745e-04,1.173871128157238887e-03,1.018223268729335400e-03,2.501730278641569119e-02,2.347391858260611600e-02,1.314296079687859303e-02,4.073147710822192652e-02
8.009771739291758619e-02,9.144335998273958252e-03,1.157227727835156809e-02,6.086275845627486152e-04,8.035329195381383724e-04,2.575502133939117522e-03,2.301898690886633111e-02,2.023316286582856061e-02,1.120803754460060822e-02,1.659829950255726702e-02
5.654990685739856582e-02,2.435823124649782317e-02,1.475753673179881764e-02,8.339271232236010684e-04,2.918410071268188154e-04,2.724124056835288722e-03,3.337155433763460549e-02,1.586025258708660332e-02,8.958791318184429128e-03,2.489162361876219587e-03
4.416969654759120290e-02,3.509605829298656499e-02,1.787281374745738199e-02,7.107749013407878768e-04,1.040161461138976618e-04,1.301722330814225354e-03,4.936572341998007873e-02,7.089705485684705093e-03,7.969570073790850639e-03,2.571521342484645034e-03
4.995030405993022837e-02,4.101804752294430784e-02,2.137536744468380295e-02,8.391120855258545584e-04,7.165504368601584425e-04,1.143932914277460852e-04,6.013571735350387026e-02,4.293348566530231364e-03,7.458513588098256673e-03,2.180390997096626898e-02
5.972478740599455882e-02,3.663253007050052551e-02,2.568255599088237195e-02,9.414456133271766535e-04,1.183403490881476498e-03,2.948155675712888250e-04,5.373774518418800855e-02,9.250925575415369986e-03,5.731890688455964881e-03,4.776065789086166025e-02
5.338482053061682775e-02,2.064826059756386112e-02,2.999736303811073937e-02,4.696756041834709589e-04,6.183541899528996509e-04,1.199791204850337830e-03,4.159074332962305054e-02,3.530013571475208115e-03,2.891400626541656364e-03,6.468488762782041712e-02
2.550658270455425508e-02,5.745756257263348078e-03,3.293574009842731992e-02,2.678298248153437107e-04,3.773671202207363410e-04,1.759927410192753134e-03,5.782044776466040842e-02,5.043645902785796886e-03,4.022218202519229398e-04,7.612189466891734757e-02
1.101824679256755909e-02,1.540779243429754586e-03,3.557572282219261667e-02,4.177927341750522962e-04,1.851764904949423820e-04,1.740212120695945521e-03,1.112984913988663283e-01,7.489575143288980559e-03,1.286729062689860375e-03,9.172875633435903509e-02
3.468843469753130071e-02,6.066220611016682335e-03,4.022254694010462400e-02,1.948797810393377130e-04,8.512577569255830963e-04,1.503408659750665255e-03,1.607892726184771970e-01,5.180554354090222829e-03,3.148981756568872570e-03,1.027543522394544218e-01
2.968080389316899576e-02,3.721093394063707677e-02,4.390597844938019106e-02,7.606048705813729530e-04,8.707409525333366590e-04,1.327664889626501039e-03,1.635548938612955694e-01,4.167182514832775547e-03,5.899892282762085778e-03,9.373988920932922742e-02
1.308388978430927163e-04,8.514102148325314312e-02,3.900109476238463463e-02,6.431960520794070433e-04,4.949923530634227700e-05,1.311590866174904869e-03,1.288662416327478466e-01,4.584906611520001007e-03,8.869308403046829645e-03,6.642128688989802632e-02
3.073533520526046739e-02,1.218197827025478130e-01,2.422960170489604423e-02,3.423223906893727735e-04,2.969793695056802889e-04,1.390814483335469937e-03,9.768035043832487552e-02,2.140449460073134535e-03,1.035735253199078845e-02,3.123305192953915177e-02
3.814164001950282740e-02,1.302672474935094582e-01,8.917711269128799148e-03,6.598856770357655870e-04,1.824275460449136649e-05,1.159258971900466390e-03,8.642597509625060681e-02,3.937789885117441713e-03,9.491301065633740361e-03,9.439502463473532778e-03
1.735569027068671610e-02,1.134004857294124841e-01,2.403564437050348130e-03,1.453030552226328371e-03,2.746087587365728350e-04,2.933693463409492224e-04,7.926343302668178992e-02,9.654329321525358110e-03,8.434815872830620301e-03,5.071096531465359158e-02
2.141947606858726760e-02,8.095768359384993007e-02,4.816955845534287919e-03,1.960836262953546613e-03,7.032318690729747346e-04,6.633607996369078955e-04,6.483070546207715668e-02,1.212686548322283037e-02,1.080640179946078597e-02,7.781195206657770536e-02
6.237370535494821816e-02,4.574032603193949748e-02,1.182812107570016882e-02,1.750141765237118226e-03,3.294548069710577054e-04,7.578907229292641910e-04,5.087157807240280660e-02,1.286069753905389433e-02,1.661495955559909310e-02,9.019799050109315874e-02
8.277434851291479156e-02,2.238138565220851306e-02,2.315779423079953464e-02,8.919387633920659213e-04,1.187072422646485011e-04,6.351159135293829247e-05,4.445327105975617477e-02,1.268016012669550066e-02,2.199179362308236949e-02,1.124972839828993487e-01
6.480518796087092470e-02,1.312088839639343960e-02,3.996775857549736410e-02,1.960850769169736080e-04,9.468528187127174468e-05,2.892214272699774702e-04,3.892321676246406070e-02,7.356780164654328630e-03,2.522220089240231194e-02,1.564891028633882408e-01
2.348336106719295033e-02,1.744946812767129898e-03,5.572574153068599739e-02,9.922737513543783503e-04,9.037696063302476336e-05,2.938302698694746106e-04,2.162980899689526809e-02,4.831762777604686233e-03,2.865545740910054040e-02,1.914025201978706847e-01
7.653166636509885906e-05,2.705857654893473185e-02,5.914622949984149614e-02,1.234614968603092245e-03,7.053614909113017873e-04,1.273670080262483692e-03,1.487179088680014652e-02,1.540419397073254128e-02,3.350865337057279403e-02,1.849334831150370173e-01
1.475501768654974635e-02,6.666956390777262209e-02,4.947416760326762974e-02,9.277288353649830845e-04,1.287108581892683042e-03,1.959157209363008266e-03,6.679072226857910022e-02,1.583153907195167590e-02,3.789187916209928869e-02,1.586465636880781405e-01
4.876514476183434893e-02,9.404932637512530835e-02,3.976454716626637992e-02,2.619754892790811837e-04,8.569442647047261288e-04,1.960323340489473348e-03,1.187365307946752768e-01,9.961479126419807428e-03,4.130802801163823562e-02,1.580722143133007629e-01
7.977838658806071792e-02,9.551336142011326857e-02,4.022475219498948540e-02,2.548515733695179918e-04,2.363097931906384726e-05,1.098282209548697309e-03,1.528749371275011648e-01,4.427613184886810237e-03,4.610683379861847675e-02,1.766540334879280194e-01
1.053587148000202089e-01,8.110715405983964787e-02,4.630496804542618555e-02,2.156371149235016731e-04,2.657456142754193330e-04,5.282472157410914677e-05,1.636598915101589724e-01,4.740447373557084634e-03,5.245140133258070769e-02,1.683001183685947921e-01
1.230815449447270338e-01,7.006163446098843950e-02,4.671005333705157553e-02,1.364805332139485818e-05,7.334939079798214216e-05,2.275672075136811229e-04,1.603489299524095968e-01,2.146819735202895596e-02,5.564547434313094759e-02,1.348707902388802393e-01
1.173259178863161195e-01,7.009782315966163468e-02,3.627213548604152349e-02,1.781519045117402561e-04,3.237647581437253560e-04,1.827216746114580705e-03,1.510754632007002274e-01,3.510244421281483174e-02,5.138050920598066784e-02,1.292636365057806824e-01
8.089041501541648083e-02,7.766785605539362758e-02,1.957739080824596328e-02,5.751028486341968476e-04,1.276830918448948728e-05,3.121614165180651261e-03,1.330603970355440646e-01,3.299247794538719136e-02,4.228810376638975077e-02,1.628565577926265051e-01
3.311194724134362832e-02,8.648842803724308970e-02,6.645373001733501789e-03,5.419194318733277626e-04,6.256157010764934554e-04,2.591699240887937895e-03,1.076802357939286164e-01,2.078570697239450968e-02,3.673479292132746099e-02,1.875693328797601311e-01
4.961051053290936076e-03,8.800211961007915751e-02,3.755655727240992357e-03,1.470953447622738784e-04,1.034201089027162812e-03,9.426558343646641988e-04,9.476603675738920485e-02,1.476328305618771104e-02,4.022200124037461633e-02,1.848521565530644173e-01
8.911341455228764113e-03,7.709483881103074143e-02,6.392870769522478874e-03,2.244404901387365221e-04,1.059278430951636442e-03,2.454562309788246247e-04,1.144909956415493396e-01,1.813676899679639992e-02,4.875270510175089278e-02,1.938663643167861661e-01
2.591859362533606784e-02,6.157182148428625573e-02,4.854290953182092971e-03,7.887634518803191301e-04,5.871589413294690763e-04,1.460994083461560327e-03,1.572609850257764286e-01,1.907545901805629551e-02,5.249220446625060127e-02,2.301500990218075249e-01
2.714048266201746218e-02,5.346801306117069524e-02,2.936352088701648169e-03,1.651113456919106777e-03,7.298529142359718846e-05,3.326197470715384127e-03,1.899702587905581774e-01,1.156033906697162550e-02,4.732573300036514025e-02,2.542605730652974794e-01
1.011989075743215116e-02,5.446339713462450965e-02,8.595248446319281657e-03,1.886484726796754845e-03,1.371603212923112728e-04,3.958368072751373805e-03,1.960327579994229630e-01,6.148627795542889636e-03,4.111307208248150130e-02,2.496867056371300519e-01
6.762257769288154696e-04,6.119203857345949932e-02,2.813325796437456550e-03,7.696330822210224526e-04,2.455445221402989802e-04,3.284178992903590520e-03,1.894658265508794848e-01,1.648631847893804875e-02,4.442481054461874107e-02,2.502742196145025799e-01
1.502896742207346717e-02,7.450779186292771916e-02,1.508870247818940372e-02,5.879467611676864958e-04,5.298271499625760970e-05,2.905225673683572030e-03,1.841896788988646727e-01,4.176654125659363948e-02,5.445307673654798536e-02,2.541557418841151605e-01
3.854587034075062507e-02,9.190920196589551228e-02,3.585153810410746794e-02,4.551160958551146284e-04,9.098431444507855577e-04,3.528941579459470273e-03,1.765316183941588457e-01,6.635165684900745653e-02,5.471499081981095330e-02,2.039675996830141447e-01
4.886827767541557233e-02,1.026353239993003513e-01,4.718778807994525315e-02,9.044815380120978200e-04,9.364826264550675993e-04,4.056724312027069380e-03,1.650534811608260766e-01,7.493875015205730961e-02,3.655787086684957055e-02,9.556526793803554742e-02
4.229331908933966350e-02,1.005640527437784565e-01,4.458978478474090457e-02,1.641583630467898869e-03,9.933344456115024098e-05,3.651696087078707374e-03,1.566389310758575237e-01,6.690113595969224281e-02,1.411538275541500929e-02,2.940052289870258295e-03
3.067817066658893449e-02,9.180704702943560946e-02,3.686614245301550463e-02,1.128220629565387543e-03,3.379001070128001246e-04,3.183693830117874206e-03,1.487961170430414648e-01,5.531429178137744346e-02,6.956587048470615729e-03,3.973235846897826828e-02
2.544017306803570203e-02,8.182318968437365947e-02,3.618320378808840415e-02,3.234261095824337608e-04,1.769199416050811424e-04,3.816216095019467434e-03,1.349154634265497532e-01,5.162076697085199450e-02,1.409544738426150162e-02,6.965539595948494478e-02
2.683355922280709557e-02,6.396634451841590185e-02,3.929398641569738226e-02,2.430226477475249075e-04,5.278765703801425438e-05,5.027924978672095209e-03,1.227107668466851792e-01,5.397032837373818420e-02,1.984822704808959087e-02,9.587517171460954724e-02
2.274457277711762482e-02,2.867464101223891892e-02,2.754372682573673348e-02,6.628817280666381585e-04,2.309822062345240722e-05,5.061177758156101304e-03,1.238764985880296127e-01,5.247292335846835687e-02,1.860364055088926938e-02,8.394041896895722277e-02
4.691316271923187155e-03,1.977392988336999780e-02,8.086381818431105997e-03,5.028570946725796718e-04,3.379225301514144893e-05,3.355204994826679454e-03,1.380776943111579613e-01,4.185039977742183170e-02,1.517351238451093015e-02,4.058419865091354717e-02
1.669930812102250750e-02,6.044877366500546467e-02,5.323799317505627238e-02,4.710653075672029382e-04,3.921414909563630054e-04,1.436138935195079578e-03,1.611907087693904006e-01,2.534284746327173168e-02,7.734910176179059411e-03,1.556095701000376891e-02
2.895998438588037044e-02,6.964260319769059737e-02,8.719538737675161522e-02,1.305056971343555687e-03,8.404271608059198312e-04,8.440883683676947457e-04,1.875632338941679578e-01,9.617228132989166789e-03,8.159910954849570325e-03,2.874697449870990476e-02
3.998859936984357211e-02,3.788180887350531267e-02,1.018791668140049539e-01,1.218298804903772577e-03,5.308389691989507525e-04,1.381696784287968953e-03,1.958245158802910391e-01,5.930178604366754050e-05,2.442968071028258151e-02,6.319427886411348172e-02
5.942530088851105674e-02,2.359295542310396038e-02,1.021140895151857048e-01,8.896788117605353933e-04,2.028373897888481538e-04,2.214155103037617270e-03,1.590720678739519223e-01,3.016640353790377323e-03,2.799561769753036722e-02,1.086823133690410087e-01
7.574959335615370770e-02,8.988264731328861334e-02,9.666002819554241066e-02,1.094519893736849462e-03,5.038323022609694649e-04,3.470457092590373445e-03,7.670428287745861828e-02,6.000908581241321677e-03,1.773605872276923928e-02,1.639928252450379154e-01
7.455726600667009207e-02,1.377974817351569348e-01,8.762071369649888919e-02,1.143731584859799307e-03,3.630026957661406837e-04,5.484216266721251079e-03,2.415420548917091709e-02,1.720212960683879452e-02,3.303370875416173930e-03,2.134544254410975783e-01
5.855336861085080197e-02,1.613324219289307415e-01,6.765095265558804249e-02,1.018273784926932275e-04,2.206577900578984147e-04,7.169619163815549139e-03,1.162322003611657301e-01,3.244161566201402003e-02,3.880666323889984341e-03,2.303529925709215664e-01
3.629786856049139337e-02,1.737021530264690194e-01,3.667913651428526128e-02,1.222075453614483633e-03,1.656156828775634483e-04,6.984839559071405121e-03,1.809004916124349605e-01,3.761956615187534575e-02,4.453847182660787898e-03,1.989426118860373183e-01
1.305731704026851132e-02,1.863532482975275573e-01,1.617113311407951740e-02,1.231772439926502247e-03,2.939976508960038138e-04,5.680647358401739316e-03,2.018905326048547333e-01,3.093737778480902534e-02,2.494828680646354532e-02,1.284804511592594622e-01
4.207874350389485991e-03,1.851121172880990373e-01,2.703391320063436298e-02,4.366042853078748692e-05,8.955978524359746017e-04,5.896433118475046149e-03,1.798227788041560915e-01,2.676405015563775372e-02,4.121710210418308429e-02,5.382787245683310490e-02
1.221915607350071778e-02,1.416449761940211383e-01,5.618005151022391341e-02,8.546658398287515761e-04,1.732526375481360488e-03,8.021036185715571878e-03,1.472651962578473972e-01,2.978603413207319556e-02,4.401935001205835307e-02,1.715462792413751519e-02
1.753312045121069654e-02,5.338365701859135865e-02,6.949160764792687572e-02,9.685995325518191590e-04,1.917844108043580955e-03,8.790484122567577066e-03,1.421519794242364076e-01,2.534557610881064960e-02,4.617948258318992777e-02,2.863571522837634470e-02
2.301757256927310785e-02,4.524745343258015223e-02,5.693154588556366413e-02,8.605581577320361823e-04,1.010703522990893813e-03,5.861275873359489755e-03,1.631748667959004306e-01,6.342789718486088919e-03,6.265597999198176116e-02,4.705474880486909539e-02
1.923848136741200879e-02,1.165149305440638661e-01,3.931796888745174579e-02,5.780816074455280519e-04,2.804516946804339744e-04,1.708034372172795171e-03,1.678491538920298953e-01,9.966778437768454221e-03,8.379829530653465364e-02,2.846537326242976063e-02
2.249676000678251658e-03,1.465544017925465570e-01,3.304493020879899906e-02,1.004133636150144094e-05,9.640509795465017871e-04,6.478413506363607868e-05,1.261706046620282295e-01,6.056347289352812663e-03,8.656569178902441541e-02,7.079713090789920352e-03
1.410787873674755957e-02,1.409624748440485020e-01,3.374310522843865928e-02,2.561083449876577528e-04,9.374510098290162428e-04,2.361100441486440921e-04,7.075607816082886414e-02,1.032395605982364649e-02,6.737500325454476302e-02,2.530725019454466845e-03
1.703278491642698164e-02,1.194917665690033853e-01,3.319611577993140938e-02,1.428791852535132390e-04,7.566626433920290665e-04,3.865034673648219503e-03,6.415897610862351941e-02,1.882645857099854089e-02,4.503647226506921758e-02,6.886817410529146033e-02
1.431676639837045802e-02,1.154956231694274638e-01,3.288144685973477810e-02,2.540414795529310999e-04,6.878818333762388906e-04,1.149624871635580164e-02,1.071327991809838398e-01,1.394161445398220921e-02,3.493433290588403295e-02,1.288864029722219251e-01
2.406339097491186005e-02,1.521144480693901180e-01,4.031723208599714836e-02,5.717225897421925659e-04,6.800272892728444337e-04,1.823204352877055151e-02,1.304564677893980951e-01,7.590366725766361372e-03,3.901625529434701173e-02,1.280019006465072384e-01
5.048621999615886258e-02,2.114790390928453501e-01,5.921494100966771812e-02,1.623828243525809447e-03,7.949784618302699942e-04,2.035563861685937836e-02,1.005283699850818419e-01,1.094608232475740260e-02,5.513649460681548098e-02,8.195656284744572140e-02
7.653099900201770778e-02,2.465672976884218381e-01,8.137372150780332325e-02,1.925640308648721545e-03,9.125429380174395659e-04,1.930683669284705486e-02,6.790608035238152040e-02,2.250539465822950363e-02,7.484561140839161852e-02,3.333577868479441209e-02
8.306827036690593580e-02,2.286067531262679087e-01,8.929140093811022139e-02,1.268080873386994009e-03,5.890153943919651828e-04,1.796051433200159669e-02,8.092822629026552583e-02,3.178917272008388584e-02,7.707643411536312106e-02,7.824154214365244137e-03
7.265032561977655123e-02,1.679594397670773342e-01,7.074228998580274486e-02,2.651083504914497299e-04,8.247609467530256518e-05,1.677982256055335353e-02,1.155775060575234131e-01,3.112343807231764126e-02,4.659613232046212750e-02,4.864618612317333363e-02
6.300406845808376177e-02,8.785041677971069940e-02,2.994014729739889052e-02,4.012373515197321396e-05,3.478024138761879615e-04,1.462347621332007151e-02,1.239087016997410529e-01,2.383352150000771913e-02,2.678038497068791282e-04,8.187749910851896407e-02
5.755841541620778518e-02,2.960448681380191058e-03,1.360055097344181792e-02,6.007009048665285129e-04,1.198741903923180522e-04,1.089168769908134202e-02,1.030689461885349323e-01,1.888758898659423022e-02,2.300014376957728451e-02,1.064057685022941346e-01
4.116211979208941885e-02,6.368241508657436489e-02,3.605581300164655001e-02,1.011230742597862440e-03,1.163627894905130256e-04,6.344518633521666062e-03,8.393683379235293562e-02,1.832620424188226987e-02,6.222732784056746527e-03,1.389768567039014746e-01
9.583648429280671940e-03,7.458610687355780866e-02,2.819693879997210717e-02,3.771303540993655953e-04,3.414754670168644092e-04,2.649088934131873380e-03,8.021712283767735985e-02,1.989131538492390494e-02,2.484432327214090158e-02,1.663393251661826056e-01
1.460216590616690395e-02,2.021253018102844162e-02,6.382765636831795944e-03,3.146878564655082870e-04,9.975250638411899313e-05,7.661200417527500375e-04,7.828926779532090208e-02,3.321601764265799672e-02,3.526053820929682392e-02,1.348120137391447260e-01
6.182851179527978913e-03,5.296895272058887300e-02,3.713094940062682328e-03,1.148398752362580512e-06,5.315054766348551070e-04,3.052418657657732411e-04,6.492027987979659409e-02,7.366298270006933768e-02,2.120580632536818444e-02,4.092966363734872742e-02
3.009151354693309979e-02,8.773774464545454344e-02,7.113076653316576480e-03,7.454974843577318955e-04,8.803554574380624553e-04,2.232108153078485660e-03,4.523299512892980934e-02,1.317521078695720604e-01,3.731848781961366601e-03,2.755540505244194471e-02
6.046514759219381863e-02,7.576368264609273373e-02,2.949542247086431659e-02,1.001660179627665960e-03,8.475181960878720808e-04,4.505159363328319587e-03,4.172381470320474239e-02,1.715474483605553269e-01,1.661071741811486445e-03,1.193069518271714508e-02
5.515774066835003181e-02,4.864130302666247463e-02,5.227385052405807142e-02,8.777231333087367289e-04,6.457890708279061687e-04,4.151126251327444741e-03,8.184780924832085747e-02,1.715496743373518262e-01,5.475746101847480188e-03,2.242241812409595525e-02
1.498870909818650690e-02,2.515934917094400300e-02,7.178580881861280905e-02,6.600067744716582281e-04,1.558990193703375341e-04,3.148137761724541586e-04,1.686731819064515858e-01,1.467280278987061481e-01,1.775940201054891296e-02,1.189815722736708818e-02
3.426233745109953654e-02,5.845211927997182033e-05,8.855474442631060261e-02,1.241196508857716672e-04,5.651365156837185374e-04,5.776632927925400007e-03,2.611974756680888188e-01,1.199483231276920331e-01,2.436184841502966880e-02,9.834258869504534928e-02
6.837593840964191483e-02,1.865344426843575099e-02,1.003893483827867777e-01,5.994194576730439011e-04,8.610051255217188605e-04,7.712218925788398051e-03,3.069118185107060359e-01,9.058149940105834907e-02,1.638182339325597661e-02,1.691703974886711592e-01
8.279238937847756274e-02,1.124361969141387738e-03,9.760388617761210639e-02,7.798347834769831345e-04,3.234773596552904871e-04,5.547467238726217116e-03,2.962943389421899831e-01,4.530514565881874067e-02,3.680023350714565177e-03,2.120878573239533549e-01
8.658298600331673645e-02,5.688952712670185263e-02,6.912149112194357348e-02,2.767470751617576619e-04,3.301262142457056254e-04,2.345373600520755508e-03,2.637769848927758454e-01,9.119637521082876383e-03,1.987039191832450438e-02,2.462933816339687998e-01
8.458903288447205959e-02,1.193897440497405926e-01,2.077389164189509183e-02,8.693471472612294927e-05,6.811585628937887494e-05,4.839652494468417009e-04,2.363489118859597726e-01,4.195518482875320448e-02,1.688662241458558852e-02,2.535233415890705277e-01
7.048163240197838353e-02,1.579170235989932058e-01,1.894818741910705637e-02,5.720528264414188847e-05,8.935768885161340241e-04,2.420643745299475881e-04,2.054733194274516173e-01,3.402097268275906805e-02,6.741351762846754109e-04,2.114729850404565292e-01
3.639772286874817797e-02,1.757988313492517551e-01,2.326534697929211887e-02,2.771520084799045553e-05,1.346392035759375137e-03,1.327802013288360752e-03,1.535180923801316155e-01,3.605979282707885356e-03,9.904086530445620901e-03,1.591979285353411766e-01
1.383103341544011239e-02,1.739217667221936714e-01,6.787460725957861901e-03,2.913762358524532733e-04,7.924759407405508388e-04,3.054266864501116886e-03,8.477641455520618097e-02,1.502699059314594257e-02,5.029544900195303224e-03,1.603339153646698989e-01
6.273422202608831821e-02,1.352271397759340910e-01,4.679691008430284654e-02,1.097468363577732147e-05,5.642916436785809444e-05,3.548451133687002216e-03,1.689500640132677450e-02,8.689576905841576299e-03,3.665015036311778523e-02,2.130714042594220037e-01
9.109911317545854592e-02,5.950123595005237659e-02,7.003131543053953134e-02,8.044139580461669463e-04,2.899084747005877742e-04,1.128012869366534126e-03,4.154613247102217216e-02,9.338809787858962097e-03,6.419648645621144067e-02,2.525733608341287351e-01
9.072597211214013246e-02,1.636831872347187244e-02,6.123696898958166240e-02,7.665565600350460586e-04,1.338063086824800075e-04,3.223240041046954510e-03,8.639104147637136077e-02,2.134633762678072449e-02,6.950858139093649135e-02,2.461478259610519193e-01
6.532571187919776479e-02,5.019497026255342886e-02,2.575166841274217217e-02,9.264659445283754760e-05,2.977036995947944411e-04,6.371543665553354094e-03,1.067056757087956331e-01,2.297169537094261374e-02,4.658936602649931674e-02,2.293902960343956743e-01
2.360628800566289681e-02,3.325113215938234335e-02,9.694736902769477901e-03,4.977930337104477998e-04,3.047161377022625846e-04,6.760780015643679149e-03,1.029593143174939163e-01,2.257704120285302166e-02,9.405490222224423616e-03,2.286176067331515682e-01
2.323621768719079037e-02,1.180952514415282116e-02,1.968748799662816198e-02,3.402031430297522353e-04,7.649655870671656513e-04,6.139909883307237068e-03,1.013392041033197855e-01,2.924226013253123160e-02,1.385166872520591369e-02,2.116362290858055106e-01
6.007647452629356899e-02,5.816434986455522316e-02,6.556664859762671022e-03,3.468851091593913344e-04,2.705637019462808638e-04,6.235713817921666527e-03,1.230505884895053137e-01,4.388818115612919818e-02,7.607390666911326843e-03,1.515731775932776526e-01
7.423423920569689749e-02,8.832495190779682259e-02,7.724606483106473409e-03,3.389495691104948516e-04,3.690093642574663701e-04,5.723698727801667177e-03,1.556032206411914476e-01,5.989857140165445043e-02,1.391370764880421954e-02,7.884396177887416368e-02
6.630659402949612424e-02,9.300295659846188889e-02,1.329920119680583906e-02,9.572025674241812240e-05,1.165467356846113667e-04,3.089082808063232585e-03,1.767585058229893258e-01,6.824199085259710640e-02,2.708812579719917929e-02,3.209254078012341999e-02
4.782586738043530933e-02,7.291426289838946750e-02,2.163904299089159863e-02,3.795494328004214994e-04,6.852788040625678234e-04,2.510163995221190657e-04,1.811723154718132833e-01,6.496689964202422007e-02,3.007325175832201158e-02,6.611336375779710076e-03
3.011440253867591482e-02,4.052511413080187030e-02,4.333561028693855288e-02,1.359310038049991402e-03,1.176292979519065474e-03,1.366316941408675205e-04,1.638370591876199545e-01,5.896312296358612037e-02,3.758386434528147163e-02,2.190682811472942706e-02
2.289778951601540574e-02,1.282153904082912292e-02,6.782798428003651570e-02,1.646332497808988826e-03,1.003372016794767171e-03,1.155124631818467548e-03,1.159240193804244590e-01,6.556159711796520628e-02,4.678297425080787247e-02,5.937366484096812114e-02
3.510751715536670342e-02,7.217242634546896813e-04,6.962450815046836161e-02,3.789800035405712177e-04,6.014481856022434864e-05,1.877949442839790080e-03,5.999155514672244865e-02,8.430046940754100382e-02,3.309892300704458251e-02,9.818664967892193340e-02
6.342133912234186599e-02,4.829891865679441544e-03,3.451599928794751165e-02,1.006878964884858106e-03,1.310953876206348481e-03,2.005996824702494137e-03,4.444419902057777233e-02,9.325219014541771823e-02,9.077575382136035542e-03,1.383444639519223474e-01
8.388397300997063599e-02,1.224040248477614723e-02,2.206127348091825938e-02,7.277427035677122005e-04,1.985351100194565968e-03,2.270389260861587800e-03,7.747412500073307118e-02,7.691372903347239165e-02,4.669150276809102412e-02,1.861916263414789274e-01
6.757052381041601941e-02,3.019482922271759379e-02,6.767689464891733786e-02,4.885542524470716953e-04,1.276590769993037619e-03,1.690974538851382387e-03,1.091413880693987704e-01,4.813843248968316391e-02,4.892429211089811825e-02,2.349534913048069995e-01
1.052242607031408234e-02,5.576898164058569779e-02,8.272592777599178937e-02,5.507228285465853076e-04,1.790677455882730179e-05,2.292291333703000574e-04,1.010617713114958516e-01,3.020176699734062470e-02,2.684072961895928033e-02,2.592331792657941447e-01
5.522890031532005223e-02,8.180288910514521561e-02,7.110161837533342244e-02,6.357035956107224672e-04,8.193998641539085390e-04,1.383161944328839890e-03,7.353615896415849340e-02,2.947549208881947158e-02,1.053070231875175011e-02,2.383417079758854140e-01
8.799992612380114210e-02,1.020916493727916236e-01,4.624691877092312886e-02,1.300065362165068973e-03,1.031724451832256211e-03,7.515382566760980734e-05,6.307325870128094314e-02,3.657129369470745600e-02,5.517971419201904947e-03,1.801755142221353190e-01
7.566681017742687976e-02,1.147604652452534485e-01,1.933347011888822062e-02,7.256508550044563337e-04,7.704279158582929199e-04,2.940023681173338163e-03,7.063568613285735320e-02,4.219924622046947182e-02,2.616437814785848269e-03,1.127916769393865204e-01
4.473647287788096866e-02,1.220723418798183718e-01,7.906774039009396501e-04,7.217209910263881452e-05,1.778460490228283360e-04,4.927038306263870071e-03,7.698076516041066353e-02,4.363137905976103431e-02,1.226705334540758446e-02,5.859387595680404931e-02
3.025624916812321569e-02,1.197359246319192466e-01,3.713422917882636728e-04,1.475011239981381423e-04,1.283549142992520750e-03,5.342214561877521584e-03,8.092972593151089022e-02,4.531744385218400284e-02,3.734822788052276701e-03,3.104711060609491313e-02
4.003687961603601825e-02,9.444103662219563433e-02,1.746092464097366570e-02,2.456703651844204341e-04,1.340354884123444142e-03,4.641966976046125841e-03,9.428747094176838373e-02,5.474378109398540110e-02,2.558944225820922874e-02,4.798396660495526933e-02
5.038844433447967064e-02,4.732039229830542482e-02,3.617955541965594407e-02,3.077826264916317268e-04,2.404190862903548697e-04,3.445770535998655092e-03,1.134394735635360779e-01,6.764844452874954617e-02,4.888837141154565857e-02,1.129202110551925931e-01
3.689270504476970663e-02,5.923503180611705381e-03,3.929082708620273284e-02,4.266047350490957923e-05,8.504150578749679291e-04,2.777516453003308315e-03,1.196708925168797344e-01,6.374821041536671284e-02,4.355754261137869537e-02,1.786864656435540877e-01
4.177589455547364369e-03,6.202552541447437298e-03,2.686926779047365058e-02,2.657964258384898511e-04,1.121671109105577737e-03,3.318493076924111228e-03,1.043903788162648949e-01,3.234227587622871825e-02,2.027116509756629603e-02,1.796056493178455060e-01
2.250060400501611643e-02,5.673889124274961518e-03,1.451685582306697780e-02,1.089083626423303225e-03,6.283098426730088096e-04,3.951583099169308881e-03,7.907822141429435292e-02,6.483115949288061584e-03,5.152547268222992805e-03,1.127106762544116542e-01
3.186949531163200261e-02,2.767275931788917148e-02,1.374599163394281398e-02,1.619325871547504540e-03,2.001147234304471545e-04,2.922387086362214937e-03,5.851249015020561911e-02,2.351194057921927871e-02,4.774207743241777949e-03,3.219492298598086027e-02
3.649276437081408475e-02,5.658033167943639363e-02,2.050494324778264627e-02,1.325010271293105982e-03,5.937541881406992487e-04,5.722980235466367015e-04,4.482917015987614162e-02,1.582384363604374955e-02,4.152343366525802076e-03,3.192494913068523454e-02
4.205208205888257694e-02,8.493727048358691578e-02,2.355653216572822437e-02,5.257622391375152762e-04,6.366097166782788052e-06,1.015079367187716108e-03,3.443601133536640380e-02,5.944352274460083102e-03,7.077761739941525708e-03,8.029673156787553445e-02
2.832365120954564303e-02,9.522988688725116113e-02,1.824478357227431874e-02,7.726096332183387139e-05,9.211834565352076476e-04,9.595901918627186035e-04,3.232708911615145286e-02,1.084918643550809164e-02,2.317006369394920134e-02,9.359514762027679180e-02
1.762838614927778047e-02,8.319902424002348362e-02,7.990214347046662932e-03,2.760522113470940606e-04,9.191153451405748367e-04,1.837222626094881786e-04,4.783218847559611575e-02,2.268490134479850609e-02,3.636194832587605341e-02,5.684792639823484095e-02
6.602970909980679370e-02,6.428788157396614356e-02,2.859101105316595899e-03,1.547619733814022645e-03,5.291057074188472258e-05,5.489661026443308760e-04,7.809512246776038891e-02,2.062884620188591700e-02,4.623472347327711035e-02,8.872637671547910221e-03
7.277358724905429177e-02,5.068372470854143330e-02,1.005199968211927322e-02,2.381325717080702217e-03,4.387050820666902034e-04,1.214161611443924198e-03,1.079992259637480440e-01,1.882763810598454650e-03,5.002264010644523473e-02,5.440162965659516014e-03
3.558187236518713797e-02,4.304940816609394150e-02,8.283669667611959220e-03,1.667746058413629518e-03,5.451640365851703724e-05,1.641754965868741801e-03,1.290136386886647224e-01,2.563734361893111810e-02,3.806787106738939580e-02,8.746360925026756480e-03
6.841329072104989674e-03,4.357192499593692814e-02,1.669045636614847504e-03,1.397388185781354335e-04,3.836150455165374985e-04,1.625191588852843878e-03,1.437391589869392028e-01,2.569010349224325890e-02,8.583076311646170922e-03,5.447151123027393210e-02
2.836184205967519356e-02,5.499093908331309510e-02,9.836151062624582178e-03,7.209623191993635690e-04,6.201040826915048590e-05,1.364213265473860313e-03,1.465408872140881169e-01,1.455791498215953418e-03,2.300298520900775912e-02,1.339455914331920683e-01
3.980695574963749594e-02,6.915675045796179643e-02,7.957255256583849537e-03,6.436968583551577012e-04,8.036602689701905075e-04,9.842224750064817226e-04,1.215018105174184709e-01,2.187883349453472945e-02,3.904743636085286629e-02,1.825555524898131443e-01
5.513076705732437161e-02,7.340691109667613068e-02,2.223584729621112029e-03,4.332370697552182567e-04,1.223051337513773613e-03,3.282102751791284023e-04,7.042339686017026756e-02,2.491247899850555086e-02,3.779583309676469438e-02,1.739739482780849611e-01
6.282278636339856670e-02,6.610685480199771091e-02,1.375555909677653697e-02,5.535866813721430696e-04,6.105321841131455211e-04,4.882130625419869798e-04,1.909708762415041061e-02,1.577935478423850291e-02,2.970165747882688723e-02,1.436220353563768259e-01
5.021493553582625363e-02,5.749871655426755379e-02,2.127526546446172756e-02,7.491272616209782844e-04,2.239318918142246221e-04,9.765593113831503832e-04,1.338557317994763969e-02,1.250258141169162743e-02,2.139840639638686953e-02,1.133003287188432545e-01
3.016677007515847914e-02,5.535008083221201747e-02,2.320588012896459759e-02,7.357449981058738651e-04,2.053187336184937139e-04,8.192385425961517306e-04,3.024554189479409724e-02,1.713458095114039903e-02,1.110812738408971205e-02,6.265836113748798897e-02
1.621240488191818749e-02,5.163122416462383180e-02,2.166301690685473735e-02,6.575139748683367499e-04,1.078313780576201943e-04,2.251568321126601454e-04,4.282085832538652659e-02,2.097218164839027149e-02,2.331298682354309218e-03,8.330262001234252020e-03
3.449347468313742129e-03,3.041079587395146416e-02,1.999765099160411702e-02,8.130743064577326731e-04,3.677625090190774241e-04,2.563158568184672114e-04,5.820291493809824634e-02,2.230660446047294174e-02,1.431471162234223410e-02,5.177497545044217053e-02
3.650544390201796580e-02,6.589331783254822467e-03,2.025590142241434979e-02,1.075485566007277878e-03,9.541493267731488521e-04,2.889929772177751385e-04,7.157301975393297322e-02,2.318447197794161474e-02,2.070948494052128955e-02,2.808638751590646077e-02
5.816891074302256437e-02,3.559141354895969944e-02,2.378460731951932347e-02,9.023869468704699736e-04,4.620247719032024420e-04,6.606888182467377955e-05,6.527259846941986521e-02,2.102630192185879140e-02,2.323025849950734883e-02,4.793452933582539183e-02
4.653671337232634375e-02,3.933375028192725997e-02,3.060806869805092131e-02,2.167138881729393531e-04,3.265148529272334779e-04,4.074504057512046997e-05,3.536599116417681737e-02,1.841051314630063121e-02,2.516350061971386887e-02,1.261042356351097238e-01
2.310134030061202978e-02,2.429095351247147205e-02,3.574585292265304581e-02,2.273297278588237952e-04,9.111778011872027569e-05,2.480765671871480390e-05,1.198142955915991459e-02,2.763169811686296343e-02,2.654390055148311833e-02,1.678060989204830378e-01
2.354994301165599588e-02,3.037199619157998284e-03,3.197292415672318977e-02,1.388163666480490735e-04,1.216351383517713745e-03,2.513374022327701993e-05,2.285193911743266248e-02,5.029677365257853583e-02,2.726649763886571792e-02,1.717093384779794785e-01
4.559116907777124167e-02,2.216443455136558882e-02,2.001543459505249201e-02,9.542952473901376419e-04,1.290724081844355116e-03,1.388839931603912396e-04,5.032040810621400684e-02,6.580808786041335290e-02,3.044801688073872636e-02,1.533581111557375254e-01
5.898709972315455824e-02,4.750728698528360050e-02,9.210411571023504468e-03,1.499167987781625409e-03,1.583273442443966506e-04,1.855707576649437245e-04,6.188808831657998527e-02,5.606697115655701058e-02,3.727299990815192282e-02,1.073887914219534556e-01
5.419678448061237414e-02,5.582651552243992482e-02,5.426459598612659238e-03,1.257404071513150597e-03,4.746679680503644388e-04,8.547332584580457542e-05,6.780705302486182695e-02,2.984540497376906784e-02,4.125987256513966028e-02,1.910982920602311008e-02
4.665389288264976120e-02,3.629795144561719089e-02,6.885333837841396513e-03,1.651593721131943521e-04,2.975654244904412933e-04,1.434480824919170646e-04,1.020579499647091687e-01,7.818751143351154384e-03,3.460762949941634942e-02,8.455969764838405789e-02
3.989141769676927268e-02,8.029643037292956420e-03,1.155514068797641736e-02,9.374394797604422916e-04,1.177843628155471030e-03,7.321664348178814853e-04,1.529026571523919853e-01,4.865620183389860777e-03,1.995878799881170562e-02,1.385057392675281274e-01
1.834349265470885948e-02,7.702852459020984900e-04,1.742598487045999775e-02,9.140691142856240342e-04,6.105227314196241470e-04,2.102103572698777421e-03,1.622596883476989937e-01,1.592190862706777815e-02,8.901368046515265378e-03,1.100378651652060003e-01
2.180218631394242532e-02,1.496252733239328281e-02,1.797144662722350433e-02,1.359337209892909489e-04,1.003296543823471157e-03,2.649341971392570050e-03,1.046896909654164431e-01,2.565501543031243475e-02,8.183370755325523188e-03,3.565255041830454885e-02
6.132983000373626314e-02,2.477830072437779349e-02,9.524395381511403802e-03,1.095560670039282068e-03,2.001176419131629920e-03,2.077064871426659992e-03,2.892716927551113384e-02,2.664735392610124293e-02,1.388217193531379560e-02,2.248886154055639366e-02
8.393449591337651117e-02,1.959107675724396092e-02,9.923059143309798189e-05,1.389052586090955494e-03,1.670124454192766991e-03,1.379266587887204715e-03,5.102049592817002946e-04,2.182093721291328975e-02,1.946120611026648517e-02,3.614588960586916783e-02
9.457662049703677298e-02,1.727635216725900008e-02,2.964023418850752351e-04,1.026814766116933807e-03,8.387111165789086498e-04,1.064091207323476177e-03,1.988124468842140252e-02,2.609526004642972324e-02,2.310512106266879653e-02,2.411802451511149345e-02
1.032097044810409148e-01,3.212001155240132994e-02,9.544881871764585718e-03,3.323454115584117437e-06,4.495151012341533792e-04,6.791716310778188066e-04,4.168849340992311636e-02,4.244177145479018087e-02,2.601883376017309971e-02,1.551832885208052903e-02
1.054596488195424370e-01,5.288272546019570641e-02,2.318794475861226875e-02,1.116458106621818656e-03,3.196994484883125174e-04,1.214233884056768493e-04,3.728109972470361466e-02,4.982789382553985680e-02,2.855166716035816704e-02,7.632506603197176075e-03
9.220290098017583369e-02,6.396358389196542260e-02,3.663604208443362042e-02,1.190614030720251642e-03,2.184692255493432252e-04,1.313547176298425164e-04,2.750893933611308489e-02,2.947506898712990570e-02,2.985446378775257620e-02,2.291735101535367913e-02
6.711762913431142119e-02,6.788278218157360600e-02,4.589481697820745748e-02,1.393893671615949268e-04,9.627832885302488883e-04,1.259891400687447593e-05,3.846444651889051325e-02,6.061047955882666385e-03,2.881654585125865281e-02,7.047791261991684375e-02
4.132278273290603682e-02,6.908994495522241541e-02,4.192325508013811791e-02,8.980977362864359451e-04,1.052812753401518014e-03,9.270933605102382345e-05,6.452588509608918332e-02,2.722044657662551354e-02,2.448808383508628908e-02,9.723525695307055905e-02
1.850691862701768498e-02,5.442960840030477976e-02,1.867856554275440853e-02,1.114175965986775830e-03,3.249720307703622560e-04,7.503814052988645625e-05,8.044822079250874003e-02,2.570062723202896915e-02,1.699278299316010071e-02,8.622076276590531774e-02
2.967580841947182156e-03,1.359543686986226622e-02,1.488239857619937274e-02,5.826885002325416299e-04,4.648428792357767745e-04,8.110373901414074825e-05,7.144606731333659477e-02,2.072242978273720546e-02,8.357526680091221724e-03,6.481219487380879274e-02
1.757904092385314740e-02,3.630818297285078738e-02,3.933790001892947807e-02,2.459078635898079160e-04,6.617456165020301319e-04,7.956419950851776495e-05,4.893007941373896108e-02,2.833640276211489561e-02,2.553302308447564280e-03,6.717360125877197552e-02
1.305188255810276268e-02,7.109427754711621084e-02,4.330109230824986249e-02,6.719541804235250760e-04,2.805132048816645607e-04,1.818132083087345896e-05,3.978948492602638748e-02,4.255077508029235511e-02,4.273426185882915271e-03,9.381774731194689187e-02
1.235535432324556468e-02,9.240257901471318758e-02,3.408019773262153940e-02,1.913699693867251513e-04,3.013070544720436363e-04,1.375339118740484512e-04,5.401229039252093689e-02,5.020439625953155433e-02,1.334358536962845614e-02,1.133485833038567481e-01
3.788218475805999602e-02,1.190197024103983037e-01,2.896739256081177355e-02,6.859243995181564871e-04,8.016534829944829948e-04,6.747460787333911655e-04,6.912592706597232850e-02,4.698178133200511808e-02,1.850618872859897263e-02,9.654495351172118212e-02
3.642653130923571153e-02,1.531171852973734204e-01,3.655128939324525650e-02,8.695567589889686326e-04,1.155918668287421415e-03,1.426685129567237384e-03,5.884576296033773579e-02,3.284286368009897705e-02,5.061413519257581227e-03,4.677682553646619890e-02
4.788925030169030768e-03,1.722287736653047296e-01,4.793982959855350862e-02,1.612618951156261923e-05,1.164661691918636747e-03,1.837277312944112471e-03,2.632786642270584440e-02,9.342958043336322543e-03,2.575840593553921365e-02,5.554035891125469124e-03
3.312772959774173270e-02,1.558582755644752349e-01,4.839966384752836942e-02,1.244854163184472111e-03,3.752058451269069160e-04,1.479099315910863870e-03,3.897920559540231020e-03,1.073457282141086766e-02,5.389094638710840296e-02,3.657572649339289883e-02
5.524555063572544888e-02,1.130464504470010817e-01,3.506394644953877288e-02,2.163567874277416876e-03,1.058343293639309483e-03,6.276926940779958223e-04,1.399236437939615184e-02,8.586448874636302617e-03,6.276975293512433718e-02,4.704782725054615367e-02
5.998983350645338553e-02,7.707013691896782981e-02,1.741997831691814019e-02,2.241436798394777670e-03,1.865641117069139236e-03,2.401630109306120717e-04,3.785544680232169265e-03,1.563182882821887235e-02,5.553032421962607323e-02,4.955882338925053643e-02
5.503072680690577340e-02,6.981593984681144782e-02,2.411954425795037257e-03,1.198688923051552347e-03,1.041251972732345826e-03,7.949105602424947747e-04,1.273050387286185463e-02,3.698666267835037241e-02,4.460343371836951454e-02,5.038882492402213531e-02
4.526738441941945135e-02,7.945045682064959258e-02,1.082059068697059992e-02,4.090960425130622585e-04,5.922555757158062730e-04,1.535881714221340498e-03,1.828383666476314159e-02,3.442364122133624582e-02,3.532041960300338207e-02,4.369414029597176730e-02
3.688673905856601487e-02,8.111766872511715076e-02,1.932889169302863183e-02,1.056617470074741215e-03,1.273649629906359673e-03,1.645181886493548391e-03,8.470546844355830718e-03,1.459507971815506011e-02,2.592495824622301909e-02,1.961059379796581056e-02
3.612097992062564267e-02,6.752010488535706290e-02,1.195688239533503408e-02,6.809601257994699205e-05,5.572429187210184258e-04,1.451310534083570265e-03,7.030662092825758387e-03,1.515483359851451349e-04,1.695239875971133250e-02,1.797912719298731810e-02
3.738648505914730913e-02,4.635387766597879461e-02,1.481851612575677858e-02,1.095081714140716317e-03,3.543604770457447193e-04,1.549195352952870662e-03,2.019822044698850461e-02,2.222591795623263342e-03,1.326207009221101046e-02,4.847292828226892891e-02
2.825958065284379581e-02,2.260115979814433795e-02,4.563505578952885972e-02,9.491628964326731316e-04,4.362240967696233234e-04,1.551899432262764025e-03,2.904584404689125945e-02,1.677524678593860299e-02,1.719895032276198138e-02,5.963196687719731631e-02
1.113442618904535684e-02,9.679720208588676877e-04,6.086829989676711961e-02,3.488044290383342954e-04,1.351478675881680679e-05,8.280692315188748886e-04,2.948017109109382639e-02,3.186853948002528469e-02,2.418104084787797703e-02,6.488033591933001221e-02
2.926269362796864171e-03,6.754078337616896410e-03,5.727739738743036629e-02,7.685635268108850565e-04,2.099599972821124418e-05,9.124792740295749132e-05,1.796555318138296983e-02,3.681218676199347201e-02,2.772580142237857440e-02,8.391479363532919344e-02
9.001838217898192399e-03,5.528821717769858909e-03,4.672049287394280243e-02,1.527438549776208819e-03,7.753696257920561236e-04,7.056293664936958950e-05,1.812257842482472084e-04,2.657005416163573178e-02,2.695925865853682213e-02,1.150567610800554003e-01
1.588332662416715862e-02,2.655541848773830538e-02,3.902310140837975116e-02,1.019673201915880087e-03,1.645626508382529510e-03,8.121870155997624975e-04,1.242733512207375851e-02,8.563716757446980868e-03,2.593725586053914275e-02,1.352902475956510586e-01
1.392278295569886193e-02,4.137316022788033176e-02,3.322237498898636399e-02,4.853909990747831216e-04,1.717702955730541570e-03,1.252262693773975415e-03,1.323421041940520126e-02,2.175622568382483326e-03,2.680729744218427954e-02,1.225545367706766114e-01
7.339689681892540632e-03,4.724592478379194271e-02,2.378256875406144916e-02,1.442307265639887134e-03,7.814676115106847449e-04,6.773141932093717198e-04,4.203344886049815467e-03,1.692293935545005059e-03,2.742800554421017528e-02,7.383175327637940544e-02
1.626599310747702583e-03,4.587923821178309380e-02,9.108978293394388859e-03,1.421716684915150155e-03,4.245755596269554601e-04,1.018345198513034036e-04,9.080335081978436335e-03,3.246026025377889840e-04,2.531826770366275500e-02,8.122880202012129972e-03
1.581521580501700150e-02,3.214763909130671088e-02,7.743219990148937637e-03,1.160467913384754428e-03,1.119589757414391016e-03,4.353669984693598369e-04,2.321050631446845702e-02,2.874822066548979836e-03,2.063830472356571744e-02,4.089381071242589871e-02
2.717294864943543137e-02,3.958704597851670469e-03,2.318087243071163470e-02,1.108892389896010654e-03,1.260736908782120018e-03,5.108024497033201343e-04,3.646063668569169552e-02,2.173440782241929225e-03,1.505740428528861558e-02,4.587243100617236641e-02
2.255046811032883347e-02,2.629901048489956955e-02,3.513311825490541412e-02,1.240194210825124521e-03,1.055228339349365951e-03,3.250769452738299574e-04,4.517288662394478710e-02,2.637594087336715167e-03,9.737280692347440730e-03,1.569525792863417368e-02
8.584159382840508487e-03,4.495712526273060172e-02,4.247209423713242671e-02,1.482660556345826624e-03,3.579677159117836279e-04,3.189078859902356056e-04,4.562219669733202920e-02,5.828750204291311028e-04,4.677991852649132989e-03,5.852925120645729659e-03
6.416573790092257312e-03,5.586254498249899197e-02,4.491276857431693997e-02,1.434276055063226935e-03,8.270353668385696652e-04,7.691069637709708855e-04,3.985866459169231518e-02,1.226406118967279975e-02,8.624224087365149616e-04,1.070311542937679543e-02
1.936167171136339224e-02,7.132007302477207100e-02,4.390574451221950641e-02,5.626941312108249505e-04,1.840554831393846668e-03,1.908376692455203459e-04,3.496145714145817290e-02,2.517576463523726188e-02,7.207575031864069462e-03,4.386358048923963415e-02
2.723198174003185063e-02,8.848597954364476048e-02,4.236401792587103643e-02,7.275911229676115506e-04,1.913553291011394798e-03,8.344255910790209819e-04,3.437506907032115977e-02,2.881412983417241946e-02,1.317357154396740782e-02,4.964843068621422467e-02
1.474694060417515613e-02,9.183676604736548676e-02,4.218821294611067169e-02,1.328659825780871247e-03,9.603245753740037886e-04,9.371742434205695450e-04,3.434267779381691699e-02,2.567593289993926053e-02,1.663456836817806678e-02,1.497097769476109924e-02
1.044253223203425555e-02,7.767858081754892841e-02,4.237495992833800046e-02,9.747618932894521609e-04,3.133745512655217820e-04,4.189758200569002945e-05,3.203019617252154255e-02,2.262751517339233256e-02,1.672559985277439001e-02,3.083484448416737647e-02
3.039746761807710779e-02,5.823797864383861711e-02,4.107411124854921936e-02,2.954004141688744054e-04,1.027289361042408233e-03,5.400001818101516846e-04,3.175019530393442813e-02,2.443733823206657371e-02,1.518502517437932825e-02,4.901319285340446225e-02
3.705407506916115479e-02,4.223721050485224754e-02,3.885934512367539978e-02,3.428949222790499520e-04,9.401810240558380535e-04,3.707615638137744729e-05,3.790296133420864577e-02,3.498968759516148802e-02,1.472628885188944324e-02,2.624220709467593379e-02
3.473254903875732519e-02,2.925782922514525569e-02,3.750015910917908757e-02,6.323426415627133668e-04,6.284665386898669612e-04,9.209572288845831872e-04,4.629495777460977679e-02,5.384538103861888358e-02,1.596754720664027294e-02,1.908396916530381501e-02
2.688731498255547345e-02,2.176202248029733555e-02,3.652379942796585288e-02,4.036618024773601393e-05,7.327208452881425055e-04,1.342334315477628544e-03,4.786690155651825151e-02,7.062947971353845944e-02,1.691500996639819232e-02,5.918070578164855849e-02
9.855410899473213138e-03,2.641137792714752519e-02,3.486023226123911856e-02,9.000620175709599623e-04,1.057699653239658599e-03,8.843106072619949434e-04,3.911617034127834458e-02,7.276833478524019627e-02,1.607734855499519389e-02,8.350299668602641223e-02
1.390720652028902202e-02,4.328982125155467209e-02,3.453779875002820077e-02,8.244837726839767929e-04,7.792243334442395782e-04,1.732684161016774960e-05,2.604484971220543191e-02,6.069163554802591010e-02,1.490810645808732411e-02,1.011499649322546712e-01
2.476629784599529774e-02,6.228539319159232673e-02,3.648021038805035476e-02,5.726152475439687001e-05,1.464279266352888176e-04,3.439149141039261936e-04,1.687673837811002123e-02,4.609155168632302069e-02,1.529854687597027169e-02,1.183846938094770124e-01
4.967230041948092999e-03,7.061593197314254555e-02,3.364546069971830616e-02,2.407776070561968304e-04,5.352882370943079201e-04,1.740521553134110645e-04,1.059830432346193195e-02,3.247150064742499592e-02,1.543212107047287063e-02,1.215801378143710615e-01
3.219462529274134954e-02,6.416450201361777184e-02,1.824525776066323463e-02,2.310788974860463493e-04,1.721346793255392371e-04,8.583233810646693227e-04,2.656351844676048228e-03,9.315093124801360203e-03,1.173403371005892273e-02,8.752128380595482204e-02
5.260020859989118780e-02,5.096590764871963136e-02,3.105273492838202948e-03,3.316479896555882918e-05,7.371989589466517931e-04,9.773195511009978836e-04,2.634698887859997229e-02,2.728826035710920847e-02,5.219661723650539237e-03,9.150328656295749624e-03
4.449747865716181805e-02,3.757402164166617764e-02,1.459181002362624872e-02,7.404615574112861660e-04,1.564749722572738829e-04,7.945427452974062254e-04,5.033858025988501017e-02,6.073706242044149550e-02,9.212632950922882433e-04,9.106914356708917246e-02
3.005625477271563206e-02,1.501505825846021283e-02,1.518886426379731022e-02,8.661544266166400739e-04,5.523413541057859560e-04,7.901131012448886146e-04,6.379825634731166317e-02,7.156948537000913657e-02,2.408907378264569469e-04,1.748023420866419153e-01
2.760781478334889752e-02,2.834452825236022724e-02,2.111897405607558037e-02,2.483598183814262911e-04,1.503987284156943992e-04,7.081147190722207434e-04,6.467114493027278921e-02,5.900013347486177118e-02,3.142056665423900719e-03,2.141402223263716986e-01
2.544136861575451922e-02,8.086049023011770975e-02,3.789425344411310320e-02,3.883988215800264271e-04,7.652733061389151246e-04,1.410725562028515784e-04,5.198923181988002185e-02,3.509022155915731550e-02,1.005171037856549335e-02,2.035526261799035508e-01
5.324525742826665721e-03,1.122268639071921648e-01,4.963526435218442584e-02,9.768907211003404704e-04,9.942942361441458547e-04,6.396554469161608043e-04,2.374650705817739002e-02,7.159149410681317147e-03,1.671811783788885661e-02,1.555014864798961727e-01
2.643197357614593748e-02,1.078485987087106635e-01,4.680670703270560506e-02,1.394693920931355064e-03,6.627182666029287185e-04,1.016983046840926269e-03,1.062195699267248078e-02,2.308460373225777393e-02,1.923473125488825083e-02,9.422327476280492609e-02
4.655837252218994471e-02,8.217283894852195347e-02,4.350883383206278349e-02,8.783069500737613385e-04,6.386460054431171863e-04,7.400740065919043931e-04,3.117015485179107717e-02,4.810418202440482766e-02,1.880496904226272581e-02,4.323482733591281491e-02
4.206369757129946318e-02,5.532260590240763859e-02,5.306659254200422893e-02,1.911753918588191274e-04,9.386948400853300850e-04,8.722960052163009135e-05,3.095249199126951997e-02,5.316263544121654222e-02,1.722871485118072227e-02,6.790268796565692225e-03
1.758761887314987810e-02,3.516692040756191906e-02,6.580985304793490753e-02,1.079205344715033203e-04,8.113710891828745941e-04,4.189310764757763319e-04,2.660409289501467628e-02,2.975443293108390869e-02,1.331917840426179687e-02,2.623638400511288382e-02
1.483032631320299610e-02,2.425687020167209898e-02,6.566571663961426331e-02,1.132313781989937674e-03,9.926085998493864378e-05,4.974434543934206504e-04,3.459249794240281534e-02,1.259463972556241693e-02,6.497210937227050967e-03,5.300906665624471187e-02
4.277787474636819687e-02,2.479255104671922172e-02,5.268584081060025820e-02,1.331887245354378439e-03,4.597902780776019207e-04,3.435083848466873057e-04,4.485609246755667412e-02,5.153257935892260194e-02,3.616921076688908851e-04,4.799398247670760842e-02
5.855409206376710474e-02,3.372033170458595130e-02,3.726443333392764901e-02,1.779287223416171795e-04,4.860899989601345978e-04,2.616611591707655444e-04,2.998015915265131101e-02,6.995342176924772282e-02,4.037675132507523301e-03,3.621503199533080905e-03
6.430664985904423203e-02,4.500612894235370837e-02,2.511068931929540810e-02,1.223903188721793328e-03,4.900199249542488934e-04,2.822630416695226952e-04,1.915605491742001024e-02,6.684185628023496528e-02,4.361423343185850086e-03,7.645585197046159132e-02
6.594417424235743397e-02,5.409266095026641491e-02,1.662834926639926783e-02,3.643139562390163076e-04,6.443566446542315891e-04,2.934354453924155337e-04,7.570076722041792217e-02,5.013199460232802690e-02,3.144639865348490201e-03,1.256381320505382537e-01
6.195907602259859148e-02,5.527831267204554033e-02,1.161653638957535310e-02,9.754257954266163169e-04,3.032576839892179394e-04,2.710141316068186276e-04,1.018966877739863608e-01,2.603816893642347391e-02,1.499547300033829324e-03,1.312549580220427059e-01
4.557288730114876507e-02,4.543803676533216679e-02,8.422232193572531250e-03,1.141743990724297490e-03,4.315319479644731671e-04,2.431260453328830124e-04,8.707111904577298500e-02,5.993834037454934087e-05,4.551028228456366603e-04,1.066552487501407215e-01
1.580229272537393703e-02,3.310745881049330375e-02,3.534882439215602731e-03,5.397792839048132837e-04,2.404151399441985444e-04,2.314215274673646458e-04,5.065433181100611332e-02,2.118651894599182101e-02,2.016551600294963584e-03,6.922256593671621827e-02
1.886376298467059773e-02,3.139843231913092697e-02,4.538428766848425638e-03,4.817243534745528887e-05,1.140194619814478795e-03,2.723584917396211871e-04,1.261670142657180665e-02,3.522413123487767861e-02,1.716625443698307531e-03,2.311359913393128129e-02
4.684318301256827632e-02,4.104010043580696293e-02,1.294416042901812801e-02,5.197338722466901106e-04,1.939031898512675418e-03,3.359013630466365307e-04,2.335388212380944128e-02,4.753579055551130500e-02,6.189352508454276907e-04,3.032071221625373680e-02
6.345867726955904675e-02,4.999854826473755509e-02,1.767291214770819185e-02,1.167376977682588668e-03,1.062647389751510910e-03,2.973274034932249510e-04,5.810586590544052077e-02,6.187501963047667419e-02,2.997114722849479433e-03,8.244137144958324503e-02
7.339079255178965200e-02,4.777845687130217317e-02,1.828020536116225017e-02,1.101919460014651620e-03,1.300381969373122059e-04,2.075033959675920707e-04,8.585575262354558368e-02,7.288491084097496742e-02,3.734625708674183669e-03,1.232647869244988537e-01
7.907412125411505954e-02,3.320319782297544847e-02,1.763967201537842630e-02,3.660165396760326362e-04,2.540290002624049693e-04,3.552999121969298638e-04,1.019774736892704453e-01,7.001223915295283484e-02,3.591004260271046539e-03,1.527570450337119856e-01
7.353678415298760263e-02,1.128385852147218218e-02,1.741976190313027778e-02,5.141825680040465929e-05,7.498027533801941008e-05,6.502826477022431500e-04,1.119708914850664483e-01,4.938741081164609026e-02,4.192342430579207649e-03,1.805200882078862590e-01
5.450362460178790475e-02,1.166362069537001112e-02,1.663983405600199389e-02,3.020808854709558164e-04,7.834426884123854443e-05,4.177586853709397505e-04,1.238175987743757450e-01,2.250061725458607845e-02,5.711362353442188053e-03,2.074618438940654397e-01
3.509729102305033516e-02,3.062557558932065688e-02,1.470602526831355644e-02,2.471526235832785957e-04,1.724278651886446123e-04,4.260428003933045427e-04,1.351280796682725327e-01,7.255051338186323771e-03,7.058347417426246752e-03,2.130048538071444841e-01
2.823935951461423871e-02,4.378263202731823983e-02,1.265204556230009429e-02,3.069460376766976569e-05,3.196254601743731927e-04,7.683131218998036881e-04,1.354996954441285428e-01,8.490825545894644180e-03,7.205308903789267062e-03,1.786493589280221950e-01
3.211429404829881790e-02,5.307704734537280200e-02,1.128580342156704046e-02,4.655833291625415069e-04,2.077611002706699597e-04,4.147081408117532226e-05,1.201266705303212917e-01,1.730930010080051346e-02,6.155463327053925515e-03,1.208972992761978144e-01
4.108562685001942993e-02,6.130119966496351547e-02,1.072845449358565337e-02,9.806844342622198299e-04,7.957711906372658692e-04,5.472779978977852225e-04,9.195762438248823722e-02,2.884140881881788049e-02,5.213873943657247774e-03,7.470600234334456857e-02
5.616545996750376551e-02,6.884404264639434889e-02,1.105379015702340727e-02,4.858043530352568976e-04,1.071625009359183716e-04,6.708395019557948061e-06,4.968291463924234819e-02,4.370796032634560735e-02,5.415120415645401607e-03,4.698296376111580491e-02
7.311446067426598250e-02,7.435926130266688749e-02,1.119965365057924711e-02,3.451902164037236559e-04,1.239368348038315856e-03,6.599291712118926078e-04,1.287470198750481458e-02,5.173476817544975931e-02,5.691955550716255863e-03,1.652967523637085406e-02
7.453578684224303197e-02,7.522301425973368372e-02,8.978712554844931956e-03,3.434818549572665226e-05,1.392958484468555464e-03,2.568287794845917427e-04,8.797405182593695527e-02,3.624455145447686572e-02,4.440832968049687746e-03,2.410958447280382722e-02
4.985774202874001387e-02,6.574625308654249989e-02,4.497841189927902217e-03,1.111609252582584570e-03,2.439008215578047976e-04,6.208250733229269194e-04,1.472025620312040761e-01,1.165413195220268462e-04,2.525220610471541269e-03,5.762399312581876348e-02
1.498745302171329390e-02,4.246175841481100721e-02,1.392003196539602899e-03,1.316770188542941986e-03,7.989009265620507835e-04,8.697767847596298398e-04,1.642386154394623321e-01,3.372953259462361381e-02,2.213520037045776240e-03,6.690483592235953181e-02
3.554887895352480589e-03,1.436032489214641474e-02,2.196181688477604095e-03,6.487942262654099548e-06,1.107714899992272208e-03,6.264668571541876906e-04,1.372091526731405997e-01,4.961216387623737512e-02,3.444731766185864675e-03,4.617711923977574351e-02
1.372420017078758610e-03,2.075682568506337627e-03,4.919120355234222162e-03,1.336955442316841705e-03,7.872176285091973726e-04,5.465239754437007866e-04,8.686251591273519423e-02,5.410398831563877770e-02,3.952206990269652512e-03,3.097842676602707845e-03
1.714387513587766962e-02,1.789734062845342068e-03,6.523992923551991119e-03,1.190075471606741580e-03,2.678534593209482180e-04,6.045209998375781742e-04,4.427789944075011946e-02,5.374651929744100887e-02,3.034526542535777652e-03,2.637220654270079623e-02
3.265906204295490611e-02,4.826449871845209759e-03,6.839978460424919575e-03,1.263843288788798331e-04,1.437856058343138640e-03,5.440696279313093778e-04,3.522980511588263280e-02,4.108969865252837250e-02,2.294273291354299513e-03,5.760878214588411803e-03
4.213641782325292656e-02,8.132537195645529737e-03,6.908673507772938004e-03,3.328202237421030800e-04,1.302524654120157128e-03,5.624044330824614583e-04,5.861551249259269736e-02,1.188401772476539026e-02,2.491351365092134632e-03,9.708229860960794488e-02
3.452922264532742175e-02,8.483586215790272361e-03,6.763731310629784305e-03,2.087343832305916537e-04,5.252817682952854112e-05,7.300024984475038609e-04,8.421847885137868917e-02,1.617425083230610364e-02,2.609637871403523279e-03,1.799116941368191225e-01
1.259063901183594047e-03,8.915552821367746586e-03,6.505199608905722422e-03,1.073061141075725691e-03,7.499754856547639643e-04,5.025282729733138989e-04,8.428196533880179253e-02,1.839390680050431368e-02,2.286676601369159404e-03,1.974430760974847932e-01
4.534089165660654119e-02,9.670775467638111772e-03,6.574931113304833402e-03,1.532501354333318027e-03,1.176607899189557210e-04,3.097167973200234546e-04,5.932003724434662534e-02,4.274164451830951561e-03,2.428153077146376695e-03,1.615243271367264311e-01
7.907904484186949190e-02,1.153825148894835340e-02,6.370154664912372824e-03,1.154769505972975041e-03,4.490264492300480108e-04,8.343893625560225812e-04,2.642243023260321122e-02,2.431878328538928519e-02,3.224125398491214847e-03,1.150057488660853056e-01
8.698490059054404810e-02,1.609758027419990259e-02,5.128999824747687217e-03,1.762574699444038157e-04,2.180173858927723094e-04,3.939239490710304400e-04,3.375746213778857245e-03,2.269172059108985270e-02,3.717781052264119111e-03,7.516344528346692588e-02
7.680689298676543486e-02,2.089784094372800632e-02,3.819917982782051850e-03,5.713177980086654468e-04,4.040519731449331372e-05,3.508056890959587748e-04,2.727355781150499550e-02,8.011818075848020984e-03,3.389472744203090790e-03,3.558312197162395024e-02
6.000536028987062814e-02,2.037107680115688227e-02,3.894955146758577805e-03,7.594165453666612900e-04,2.207302974937318881e-04,4.978495857672146510e-04,4.213723878828930236e-02,9.967811979983197488e-04,2.749411005767154765e-03,4.911079472158465589e-03
4.141989889588754831e-02,1.287716669915798043e-02,4.784390101659076466e-03,7.407510518029881107e-04,5.444007894962498887e-05,2.313682682999870430e-04,4.478742296888547220e-02,5.017074752517053718e-03,2.336533081295963463e-03,3.672415804683557689e-02
2.416800620085722204e-02,3.077365203585358516e-03,4.777995883291359484e-03,5.127068368226797611e-04,5.451505853881138475e-04,1.651382538004098641e-04,3.716728217076674390e-02,2.419724505779970863e-02,2.035356924125745429e-03,5.333430797794366796e-02
