2.580741570841777952e-02,1.447107371322042769e-04,3.981002729826279250e-03,1.553022407823654010e-03,3.441921362285501967e-04,8.436842849243717836e-04,5.980794469510878307e-03,1.722319101744366988e-03,7.517577551684636022e-04,1.556954364096150255e-02
7.443290611307172566e-02,5.628553285609245787e-04,4.421894363120828543e-03,7.377823366483714836e-04,2.704063146189703069e-04,2.760715329022592603e-05,5.088140105416345468e-03,7.596366497627520149e-04,2.051641052325216524e-03,4.288364585849185201e-02
1.121229198116966419e-01,1.741769398008318794e-03,6.321327101267774397e-03,5.626575346761762079e-04,1.721923575295618313e-04,4.122939551313401126e-04,4.434711176389004132e-03,1.296741296182989285e-04,2.999336411424043721e-03,4.646473600540718812e-02
1.150663372557336889e-01,2.491320129804284501e-03,7.748700381288393078e-03,2.518699364059956013e-04,9.547503204473001834e-05,3.600934168515733565e-04,4.430528415015646398e-03,2.810790345534113985e-04,3.343533927981768347e-03,3.288810323373907857e-02
9.840781484308816496e-02,2.634207532299063723e-03,7.675306638204570583e-03,1.267770478491895940e-03,2.771333587978800289e-05,1.043267690900072679e-03,4.821335902901132710e-03,9.610951068885075117e-04,3.691191339395232321e-03,1.635447307456230903e-02
9.210208107990347504e-02,3.100147045090071145e-03,7.444646938520489698e-03,1.716301633579204447e-03,6.013218819156650332e-05,3.337249822399251703e-04,4.798880247843155880e-03,4.514436500539040914e-04,4.121128551596705755e-03,3.973561596327516467e-04
1.013615047554344145e-01,4.139278248643389439e-03,8.328903585115111224e-03,4.626974081893167980e-04,1.641457365577373361e-04,9.221678362959724639e-04,3.802649977094556700e-03,2.240167854623369842e-03,4.185333786284501333e-03,1.635436799964311641e-02
1.066471601147997855e-01,4.495411991559041844e-03,9.854547664935653373e-03,7.748712379953186583e-04,2.437830397386273940e-04,1.209979844108068732e-03,2.214554050248084428e-03,5.402712476501975516e-03,4.094418292629756206e-03,3.026067856835244069e-02
9.531845482982116702e-02,3.714064205205390434e-03,1.097071850475923524e-02,5.797956145954948591e-04,2.851257046151759985e-04,6.833117785889703455e-04,1.169206591339945001e-03,6.583079267704183835e-03,4.483368631778440923e-03,3.886483874176410724e-02
7.567486393705344372e-02,3.455766996110150400e-03,1.110502086221026689e-02,5.401712258172034669e-04,3.532296525412660193e-04,2.490250919247115986e-04,1.118836960869678101e-03,5.691652092241362287e-03,5.073061203456655406e-03,4.618649297518948038e-02
5.930445022450050313e-02,4.721466718677526896e-03,1.030965315406665375e-02,1.207672197441762071e-03,4.789942714479642058e-04,1.632265699636604550e-04,9.817926783396708872e-04,4.204959128956234880e-03,5.024919799941708447e-03,5.063865267658923530e-02
4.620378753928068571e-02,5.879081625446250757e-03,9.597818859255126400e-03,9.305178463743030625e-04,5.247260552745067501e-04,7.954284059634162459e-04,3.079689052769766892e-04,2.432746850007497501e-03,4.416310769780947866e-03,3.877909665293101382e-02
3.382717239049672087e-02,5.475798002849111175e-03,1.007743048060109371e-02,5.856459690517403080e-04,4.124547666912936009e-04,9.384788639214769685e-04,2.115474796175913826e-03,1.739845450637516949e-04,4.078549337835645633e-03,5.742860633589762058e-03
2.613228103000226829e-02,4.887412752419404392e-03,1.115077274101900287e-02,1.051397233564063628e-03,4.291467196007857929e-04,1.875013883173794717e-05,3.147093918172038946e-03,1.086475696010366903e-03,4.367672662356550210e-03,2.857252826879671040e-02
2.357558700557500775e-02,5.891914388547889875e-03,1.133221220360558328e-02,1.622893458640043947e-03,7.586852816743640000e-04,1.265185216013018287e-03,3.502980912934580519e-03,1.540615567596165334e-04,4.986434114901842907e-03,4.021449000518451805e-02
1.652452578961110391e-02,7.479292450039757428e-03,1.073957522369335497e-02,1.015832338107326141e-03,7.590258504050478991e-04,1.989762532190519472e-03,4.469358578197281384e-03,2.289682360538539910e-03,5.511201734283722661e-03,2.966546903856798548e-02
6.553590760010642724e-04,7.564777713874489863e-03,1.059802372716829935e-02,1.605981511099428328e-04,2.772308825398805856e-04,2.218091061307821393e-03,6.393905127732071522e-03,2.294194330014070159e-03,5.531971491049598663e-03,1.499150654225846549e-02
9.368376462507151808e-03,6.370886540526109199e-03,1.091050298590778844e-02,1.436859059133467295e-04,1.581112966902588780e-03,2.163129221318788563e-03,7.906302838321995624e-03,5.596876601010172055e-05,4.797706245532798626e-03,4.102964428106163977e-03
6.741638378357392609e-03,5.686132498428517201e-03,1.071467018849797150e-02,8.034005679338606515e-04,1.596583582947638889e-03,1.344522051135313336e-03,7.932705487028087962e-03,1.717966230747073383e-03,3.727761120786543970e-03,9.980947647711176790e-03
5.002618447350701270e-02,6.044300791712274579e-03,9.808557269078851948e-03,8.230612180645767439e-04,3.664090073071812220e-04,1.356576534428178323e-04,7.495491309289456852e-03,1.374416993582916512e-03,3.300850247509487870e-03,2.675545480586197233e-02
9.773386392254850008e-02,6.608306877874595489e-03,8.700467375627967889e-03,1.904315569062264770e-04,5.018902686862770652e-04,8.142371890872270946e-04,8.246364638343097950e-03,3.706966903645642921e-04,3.879538982345765580e-03,2.786978146172532783e-02
1.245233639397147207e-01,6.642341871716910852e-03,7.688962861789443333e-03,7.620179973953587196e-04,3.553168314810173367e-04,8.185719012293944500e-05,1.016102914505804221e-02,2.400730261212721817e-03,4.502446415937782706e-03,2.687675966391296460e-04
1.249611644682056266e-01,5.876219074624539421e-03,6.762521237550317595e-03,5.974735824068281177e-04,1.038214999802762367e-04,1.178256688188974695e-03,1.190297274143873631e-02,4.211160629521947842e-03,3.829726765908648446e-03,4.059798018476212106e-02
1.125486097229808774e-01,4.442997320900446585e-03,5.638890205261647658e-03,4.344477058301228337e-04,2.006553412970981905e-04,1.141277786480268284e-03,1.205462979525073232e-02,5.165867679837983853e-03,1.749951689725951290e-03,6.549028644338181215e-02
9.888269545559297269e-02,2.922262215679346901e-03,3.868144630733696618e-03,4.357860165357612227e-04,4.658636629934775094e-05,6.775011799323274507e-04,9.174353063101679806e-03,4.487381049444943287e-03,2.643345293158983703e-04,6.322747588969472587e-02
8.102137771294477819e-02,1.932393405819038878e-03,1.649571778597604859e-03,5.573815847085367104e-04,7.964949644718341245e-04,7.217716489590025961e-04,2.943219050532736372e-03,2.354661244164550638e-03,8.799707511487554930e-04,4.553152641179483012e-02
5.259913750773850816e-02,1.699641184577781660e-03,1.305171082018274052e-04,8.232020699302330284e-04,1.179512269355577087e-03,6.187714446858683711e-04,3.815361945723591205e-03,2.400406075228186584e-04,6.840532398653803841e-04,2.710156783037117462e-02
1.834363772793283498e-02,1.824970251961675460e-03,1.436376797228411167e-03,6.187693979626761841e-04,9.882464707677343901e-04,3.400194939371611359e-04,6.413494802068917845e-03,3.245590590358384269e-04,1.213825848849434509e-03,1.189626874690909858e-02
1.252083533509034535e-02,1.373623522228976240e-03,3.305678149890394196e-03,4.872930646421765109e-04,9.977242851894074262e-04,1.560148223345860169e-03,2.496531034858087521e-03,7.590203906659178084e-04,2.731661796652053165e-03,4.970462987036172557e-03
3.885305461959036311e-02,6.018478192584752139e-05,5.903103734897356333e-03,1.593117209597728077e-03,1.262678463874747359e-03,2.250737885488658142e-03,5.852766110889447496e-03,2.197414569793154030e-03,4.329914469899789030e-03,2.580076626605120119e-02
6.011446293516993500e-02,1.557353196226793531e-03,8.166334982113816407e-03,1.691300865976235997e-03,1.039971386233809253e-03,2.157841163128819666e-03,1.411591713405452135e-02,2.894888096550504546e-03,5.553246236944626643e-03,3.874861067534554615e-02
6.770109834293022710e-02,2.081003707048042616e-03,9.649475602260985246e-03,1.133493461914257669e-03,3.857729815129792286e-04,1.314284276027883691e-03,1.916075007274143163e-02,3.007276141567444099e-03,6.567181395810969997e-03,2.571826441121047649e-02
6.048537489260236155e-02,1.971498636185750261e-03,1.088813736112978145e-02,7.118593041391899773e-04,3.339915605197128193e-05,4.870357578887028879e-04,2.127579361340404054e-02,3.070494694020011600e-03,7.263948692661575772e-03,1.127209939621239693e-02
5.593308784143628809e-02,2.414200810413744385e-03,1.221382372038331068e-02,4.856866298122259023e-04,8.821615382074811450e-05,8.700585390762627380e-04,2.232058840736186184e-02,2.723301584747162170e-03,7.452983990137823124e-03,4.511233648734208623e-02
6.989832433527215505e-02,3.890097612574729569e-03,1.364421845696562469e-02,4.460843928978505050e-04,1.793102269337588559e-04,2.329611492700076579e-03,2.268601054252038923e-02,1.098203517989630642e-03,7.843938976966148557e-03,5.426988126479358188e-02
9.830645942467490517e-02,5.571006136747404941e-03,1.531096250660948961e-02,9.111195076259594443e-04,1.829635869170747990e-04,3.476514371615555595e-03,2.180650240778779503e-02,1.699377960712962054e-03,9.386277518434255757e-03,4.403912071839925779e-02
1.272786814116890208e-01,6.208715613300829460e-03,1.716530281498860819e-02,1.482611586761782823e-03,1.033949405690864220e-05,3.866601069678151596e-03,2.096616113922138147e-02,4.059788366785053657e-03,1.132103424821199675e-02,3.007837924089206902e-02
1.444523723292639450e-01,5.751579112378612212e-03,1.894403507715445092e-02,1.256875791055974811e-03,4.599387009801288824e-04,4.194405572969677788e-03,2.255845835928908458e-02,4.017398810128463595e-03,1.196127467638170849e-02,1.708576037102478573e-02
1.370431299260195523e-01,5.661460092385617489e-03,2.066815949414042147e-02,5.971739093410931981e-04,5.233864217414916980e-04,4.390823092662180308e-03,2.611763408171192263e-02,1.094390659826913366e-03,1.174969672505323491e-02,2.649236339177596291e-03
1.009562091083918839e-01,7.144499095535689071e-03,2.249009184178599879e-02,8.535168547471095896e-04,4.025307088782117287e-04,3.866022453488064583e-03,2.827632917558927858e-02,3.001868519250952549e-03,1.265610631690138738e-02,1.074085601551432768e-02
5.631947648940800744e-02,9.655355262782213538e-03,2.414775524977936377e-02,2.000787966225854066e-03,1.377415398761150508e-03,3.491909148218852194e-03,2.803299229737014550e-02,5.832616750661484897e-03,1.451925753023271780e-02,1.808085790168592957e-02
3.272188755679636407e-02,1.155520525275529654e-02,2.544465994325054853e-02,2.556183769540085367e-03,9.861693333782046642e-04,4.685275148975280926e-03,2.854551692527776754e-02,6.326834801988891893e-03,1.549000123681062296e-02,2.029499421853146399e-02
3.570702655355802863e-02,1.172603900820213228e-02,2.708883733202438818e-02,2.182872090698733877e-03,2.259716145730670200e-04,6.294947631125430952e-03,3.089884303431058785e-02,5.210318751380659322e-03,1.558354907963224213e-02,2.252745892832602043e-02
4.720719910507879119e-02,1.060834612104435970e-02,2.976592637177752354e-02,2.252251487184529083e-03,6.359348053473648597e-04,5.258362694052255704e-03,2.983535400942510796e-02,3.803421106578804348e-03,1.607887926369469186e-02,2.628865558425664065e-02
5.852545236973805132e-02,1.010334011486726906e-02,3.253028196177060183e-02,3.358531489300345136e-03,3.559357359748574869e-04,1.470199436655054070e-03,2.049306649284502943e-02,2.967846793594617217e-03,1.658030617802764770e-02,2.822327656694187739e-02
7.978409915552149567e-02,1.173622580229140636e-02,3.391536023921061516e-02,4.408808994244805581e-03,7.009078280760282827e-04,6.500644982375205789e-04,6.826441756524120191e-03,2.972475871792514945e-03,1.622734023070404250e-02,2.573589022555318809e-02
1.134509679066701832e-01,1.456285619234178041e-02,3.444438816795881292e-02,4.584107327854750752e-03,1.659922337924428547e-03,2.243494819834562174e-03,2.073594251262730458e-03,3.706811762773266818e-03,1.617823861663350571e-02,2.040036517726867907e-02
1.420777651839989775e-01,1.628824137322205587e-02,3.582355507476756712e-02,4.267388680508978592e-03,2.190220922142212950e-03,6.970727694665236271e-03,2.948346569150368454e-03,4.798517216662722892e-03,1.796709647506302895e-02,1.552437411073332926e-02
1.521348769010161528e-01,1.652140672827566090e-02,3.803995865131894194e-02,3.914910982807277146e-03,2.139108271575383517e-03,7.029409184128372623e-03,1.505037105084908958e-03,5.699955703858492796e-03,2.102286000458055554e-02,1.257235778473946193e-02
1.520096896191992786e-01,1.699160984717158762e-02,3.965363567756398366e-02,3.499736180014178730e-03,2.133434549827672132e-03,7.566826194850283282e-04,5.718276377737058214e-03,5.780828056015324332e-03,2.365637896562288595e-02,1.110241294132533266e-02
1.567206626789309498e-01,1.874092310406729953e-02,4.047398197720115248e-02,2.864682933092620870e-03,2.346799090214952369e-03,6.802161763803785122e-03,1.887480547821115962e-02,4.646494999396844940e-03,2.519750775187728359e-02,1.070141433283525179e-02
1.668496735703100531e-01,2.061070318713626240e-02,4.182256200630278531e-02,1.940298288809734180e-03,2.512459018863528667e-03,1.042793233248686877e-02,3.682590785631243563e-02,2.718507456925249154e-03,2.624213483101413280e-02,1.131250763859867163e-02
1.678885030944971268e-01,1.989484651251855266e-02,4.434429784936322338e-02,1.159109956113752804e-03,2.579866360499332312e-03,9.857674151646317329e-03,4.931588375655603096e-02,9.696247655333890521e-04,2.740417267953253536e-02,1.268253351787391667e-02
1.467098339926324879e-01,1.460109676335256436e-02,4.681338649619914971e-02,1.294264024302841688e-03,2.653022294056519691e-03,7.272288876339035209e-03,4.719929200501499916e-02,4.116900227034817647e-04,2.834564077669667753e-02,1.486249647914988058e-02
1.104398393092058533e-01,6.566487996551385008e-03,4.737048216689681429e-02,1.998807364951356910e-03,2.665663083351366147e-03,3.177295377454274553e-03,3.156867623917260918e-02,2.215747143618947146e-03,2.881751538213795857e-02,1.803543308529665865e-02
8.373251842145999768e-02,8.865964921059839125e-04,4.579111241635878266e-02,1.720596890490108536e-03,2.599166165934799731e-03,2.485057122184055559e-03,1.418608868755373217e-02,4.656428169016064815e-03,3.030046930944831768e-02,2.092866974395021090e-02
7.766309016883421457e-02,5.827796865149131259e-04,4.432960693470994890e-02,3.804280242997397485e-05,2.677133178825076218e-03,7.522430078951332540e-03,7.688742110430937977e-03,6.773785851370062172e-03,3.339198592627960066e-02,2.102210270707375456e-02
7.096792897512492482e-02,3.832986946978792289e-03,4.622359963273433431e-02,1.512764571351329088e-03,2.855670744460463584e-03,9.121136724341701377e-03,1.598873791487060575e-02,7.652041279674993285e-03,3.279495420621089674e-02,1.720501451671749282e-02
3.987898288376823253e-02,7.321854368236124788e-03,5.244979656012627167e-02,1.579737810517034026e-03,2.573065040611934636e-03,7.189914603401580812e-03,3.300237902060255274e-02,7.242804495646645510e-03,2.035314406972435486e-02,1.058256813117165220e-02
3.001544770433028225e-04,9.919238711914451362e-03,5.792223806297600724e-02,4.335144180311217323e-04,1.700501285923282759e-03,3.468541132330950350e-03,4.887337243226695660e-02,6.150788764039152173e-03,3.890781705798962951e-03,1.645481556566071512e-03
1.384247704145818991e-02,1.184744620150932071e-02,5.289120194531950203e-02,8.033143873221431763e-04,1.126223521494782451e-03,1.425409713780419413e-03,5.735988961240828105e-02,5.263537448775189309e-03,2.870712603883954911e-02,1.119627524958603793e-02
1.262929858801308675e-02,1.161646823685798594e-02,3.352823659618148905e-02,1.143273492461986543e-03,1.484020325279731493e-03,7.542716697239531393e-03,5.815206140433194781e-02,5.062177082622653680e-03,4.318831008039767522e-02,2.792203300170186669e-02
6.320679884926760916e-02,6.163506868908338529e-03,7.697565446187546942e-03,3.255769901282865985e-04,2.091303498946598532e-03,1.352142751877444607e-02,5.396139365667980414e-02,5.215481846668787273e-03,4.749106936488706188e-02,4.377394888017751423e-02
1.947865527142637609e-01,5.032254041191017505e-03,1.784676679258746096e-02,1.007970325364071149e-03,2.101631777234227571e-03,1.705616728149388431e-02,4.658484626224135977e-02,5.512590593537880675e-03,4.971454104451112493e-02,5.299873511194426456e-02
3.396527694522418761e-01,1.794677046153517891e-02,4.840030952074279164e-02,2.365086329152866172e-03,1.746403742657805800e-03,1.649207856725591961e-02,3.497257241673833866e-02,6.469332983493549134e-03,5.518842483309460006e-02,5.408027803132880312e-02
4.060571877825971399e-01,2.787209782047333009e-02,8.743323587314687229e-02,4.061096001453812915e-03,1.552969589566674307e-03,1.169702406420579724e-02,1.832939855498498527e-02,8.161696442410305841e-03,6.159950296083677168e-02,4.923521229187894505e-02
3.775553280941132961e-01,3.448583894739370298e-02,1.217554133715707948e-01,5.777855133647794364e-03,1.321951725567731360e-03,5.000414181750630939e-03,2.304802991239713033e-03,9.366047631793324862e-03,6.382521516909998860e-02,4.186246385745590048e-02
3.023718304957281888e-01,4.137151251577121658e-02,1.347418336385954041e-01,6.104787345620226423e-03,6.444967199023877470e-04,4.625233451684406536e-06,3.602855660972456749e-03,8.574362061173592536e-03,6.043702206564301876e-02,3.607002167440329088e-02
2.177400714185806496e-01,4.968205312205714597e-02,1.261829392975027386e-01,4.918712667542440159e-03,3.159691413924146323e-04,2.789332625436009676e-03,1.401326425407061621e-03,5.436256525716532360e-03,5.376066791892577384e-02,3.462761107801502064e-02
1.305520245590043871e-01,5.465730759282187712e-02,1.079433938277003652e-01,4.064205706321837377e-03,9.832423421594525207e-04,6.539873256053287814e-03,6.441508349751297671e-03,1.005833861123689096e-03,4.627389237264877692e-02,3.612994105704724068e-02
5.744849159359285973e-02,5.169258895744042320e-02,8.715540936218846291e-02,4.434747345672597485e-03,8.767806835491806549e-04,1.182372211198646356e-02,2.247905397341441128e-03,3.187997607998694066e-03,3.926795771902445026e-02,3.743696961783642141e-02
3.582708015916735711e-02,4.300339651260268181e-02,6.382555739377324122e-02,4.803093673306776251e-03,1.495429202448230377e-04,1.428885259265579022e-02,9.199036028636508808e-03,5.886186048268127191e-03,3.274479639167045264e-02,3.793064306178847711e-02
7.727053672065453682e-02,3.384601077806467101e-02,4.140761464663061248e-02,4.517303135957661218e-03,1.479695743317014929e-04,1.179990560426645574e-02,1.985998689296111785e-02,6.096005219909764704e-03,2.565327194980098272e-02,3.830365299406511548e-02
1.364164073030792179e-01,2.597232763626443688e-02,2.817037795502030928e-02,4.874730824783065491e-03,8.226966628495389683e-04,8.517437724704040800e-03,2.511038059219215801e-02,3.821281905981718623e-03,1.826775740371251386e-02,3.816879867096823614e-02
1.565670991646467558e-01,1.959432868673761929e-02,2.570894231596038831e-02,6.622264499441540310e-03,2.069072620426375565e-03,7.988253843160387710e-03,2.825477155672061896e-02,1.014783071547132372e-03,1.289203390129387526e-02,3.778733758767143652e-02
1.349579593987251247e-01,1.722185124403457709e-02,2.765304519603764902e-02,8.022001327765270612e-03,1.421014098486679924e-03,7.836038664807993409e-03,3.693049421910543639e-02,1.912285331819244937e-04,9.840674254122246459e-03,3.777699896903200655e-02
1.088444935790837814e-01,1.987571144279244237e-02,3.349054070210392975e-02,6.914858728963620658e-03,1.629156134413169274e-03,5.228767037025807383e-03,5.003096661917037780e-02,1.600541927945889104e-04,5.728397340973728942e-03,3.531932818449696337e-02
8.521029977060790017e-02,2.209805512552633078e-02,4.880407622486314378e-02,3.624457505464308629e-03,4.592705540261555856e-03,1.585629069968484640e-03,4.961986708953615433e-02,4.903119589215435177e-04,1.709344431433789963e-03,2.829741389951783564e-02
2.875795459762367501e-02,1.551008147038302788e-02,6.721585443303335072e-02,4.621261454511140843e-04,4.502950748320907332e-03,2.321711802076932389e-03,1.820587223938171378e-02,9.901839947389042603e-04,1.039729452863902975e-02,2.573505407190075991e-02
7.410299357596067393e-02,2.417429755578510368e-03,7.004251190664245730e-02,1.024013092785146153e-03,1.525667583002593983e-03,9.552697230564033762e-03,3.462547431885265592e-02,5.088654767708889913e-04,1.736727099557707626e-02,4.258819031809406297e-02
1.783971320275163364e-01,2.468873274596279990e-02,5.074771833015074424e-02,1.393273782308097637e-03,1.399745725944954956e-03,2.033700111242026445e-02,7.726365302224613707e-02,3.640214217001699719e-04,2.195287942650095761e-02,7.786052657445764746e-02
2.252353128725123332e-01,4.051950207957554645e-02,2.406188380160442092e-02,2.172969879562943168e-03,2.517399415704364620e-03,2.818072293460751818e-02,8.996767333764074670e-02,1.216118915386296359e-05,2.442436527693057913e-02,1.092648695368699518e-01
2.020367778635878409e-01,4.491202810152918751e-02,5.043165302241536113e-03,3.592819160673956045e-03,2.644085682013310422e-03,2.777592065641101490e-02,8.029074296132032718e-02,1.909127879950808879e-03,2.474213390016858152e-02,1.167903023439353372e-01
1.448393707813514508e-01,4.142056625339588655e-02,6.817341613666163223e-03,3.845880823812819482e-03,2.558727308407650770e-03,2.185809878106750176e-02,6.410564561567265451e-02,4.290645569840480407e-03,2.277591364169352303e-02,1.016724709093276974e-01
9.685649922951544699e-02,3.546489035451068361e-02,1.645329495855555463e-02,1.528536909863007246e-03,2.001792171999477229e-03,1.617427426411010422e-02,4.458360763956305955e-02,6.093132991710270563e-03,1.713250359369336215e-02,7.764356808446530589e-02
8.005153745721128866e-02,2.896013077906452182e-02,1.887509163183324901e-02,1.878859373283132787e-03,1.490504706346018702e-03,1.227452633196481416e-02,1.565939110886291341e-02,6.375686550233555100e-03,5.919412770411965757e-03,5.483871842777247874e-02
9.597057588888363577e-02,2.264613039430659128e-02,6.681113367222561196e-03,3.738303600283384744e-03,1.957329401665808526e-03,8.622900834944657866e-03,1.749892095374742246e-02,4.852066322904405836e-03,8.114709804818648689e-03,3.755515603327875401e-02
1.314402079889984420e-01,1.812909278954467907e-02,1.370496295543131675e-02,3.821825359259138979e-03,2.587421654098194784e-03,5.020729412135428033e-03,3.110855604467295879e-02,2.768421935165832869e-03,1.645919290660468118e-02,2.814366387904152639e-02
1.592981583437649840e-01,1.563743566310225874e-02,2.476255482517061846e-02,3.961196207186619585e-03,1.980177816466088814e-03,2.790514667309743502e-03,7.928387741783025910e-03,1.257453565954905726e-03,1.300995888183474093e-02,2.627580084706954491e-02
1.524288210739186689e-01,1.378296183689875151e-02,1.820182469646704909e-02,4.634160719336071627e-03,7.315779142818155858e-04,2.488294588055319119e-03,3.491930133340846731e-02,8.052808771652158028e-04,1.685023331674111689e-03,2.815012780943053350e-02
1.097267927082405531e-01,1.204534250601580793e-02,4.031625748362564245e-03,4.797996029539344613e-03,1.318864312103838375e-04,3.429334490854790869e-03,6.195681295087153428e-02,4.849389031599597027e-03,7.221168610083762186e-03,2.962640022932951436e-02
5.586419420310148598e-02,1.120610529509074096e-02,4.570223172030942436e-03,5.075025088016537136e-03,1.425064690086852762e-04,4.618964756693378672e-03,6.020888524032823319e-02,9.647070408561733701e-03,7.808142449708685776e-03,2.845419988066363176e-02
8.466758814933528221e-03,1.177628138061941922e-02,7.301868961515724232e-03,7.016172923835030384e-03,5.652053083711244732e-04,5.276376100695457337e-03,4.408107738313815638e-02,1.286923950067123991e-02,3.391217502680049251e-03,2.320309583651030891e-02
3.432944328914443871e-02,1.283370758087181741e-02,1.066852254669191716e-02,8.384174295940573576e-03,7.076620122243689934e-05,4.866242204512138785e-03,2.508313365196865319e-02,1.393749028610853646e-02,7.020688100888741560e-04,1.216166997046322015e-02
6.683969081839813420e-02,1.273020087292462896e-02,1.362902249303684331e-02,4.662827280182774148e-03,2.116015167097933750e-03,2.426879284529428939e-03,1.015978062995211758e-03,1.327142191040576839e-02,2.599016457197075771e-03,5.310203418979439136e-03
6.376143893875907409e-02,1.117075049809316406e-02,1.025353270722773394e-02,2.698282464456574960e-03,4.963311081420634756e-03,3.821080399351841229e-03,2.545325475895996933e-02,1.085324782568821735e-02,7.595491768568519812e-03,2.588295956080618326e-02
1.214517805023613076e-02,8.772064255409878566e-03,2.272722141215488545e-03,6.023481628116688670e-03,7.030042483448555729e-03,1.352358633148225894e-02,3.990383702129885607e-02,7.114877217618257102e-03,1.177057470343285950e-02,4.277864017145595332e-02
5.866287221853890010e-02,4.410588272785395843e-03,2.239049871064635253e-03,2.491120387240396312e-03,7.522181402363891517e-03,2.053522423685945689e-02,3.308438116269660223e-02,3.414922319259884511e-03,8.107782740527393756e-03,5.281840073603840530e-02
9.663560258334898123e-02,3.696903954787135287e-03,5.597123764558423805e-04,1.379466224821361813e-03,5.985826413422432220e-03,1.713828662702860522e-02,1.121630428270262506e-02,8.171670072307905559e-04,9.589741211178977667e-03,6.140599416163871477e-02
7.860433203139835512e-02,1.506626620318657003e-02,3.221990304229768211e-03,1.660027234058820728e-04,2.738269156334243067e-03,3.932259975672340244e-03,1.294493470929563433e-02,5.649736764471612787e-04,3.654268971720765757e-02,7.560360335519969444e-02
2.670302604453268780e-02,2.848745294569631631e-02,5.898248841884503983e-03,4.701811290927802867e-03,9.838144167550486128e-04,9.511283967633349032e-03,2.981371380778381416e-02,1.187227446831155744e-03,5.753250692973992803e-02,9.342336639354328898e-02
3.477828218850202019e-02,4.301620989035708637e-02,7.185143783756284437e-03,8.219616685367381673e-03,4.330257030099778255e-03,1.555348673522986835e-02,3.402306262521512942e-02,1.739196796988873696e-03,6.321815541979274033e-02,1.052587347202373208e-01
1.099654710678159147e-01,5.379762207237968191e-02,7.327574696498912257e-03,1.188646872410389563e-02,7.111630667230878916e-03,1.449073141816858111e-02,2.306126217362661560e-02,2.777847698943748320e-03,5.808934015513179255e-02,1.064839385053035908e-01
1.955625308579046484e-01,5.260639385658157086e-02,8.162743600146389264e-03,1.734532704096315714e-02,8.631794473872236514e-03,9.128779267413017137e-03,2.160936523528259393e-03,4.270708137961134500e-03,4.854212512064465246e-02,1.043304495173258961e-01
2.452645654770135852e-01,3.684737941746929479e-02,1.267508326726953134e-02,2.158082109827157841e-02,8.002891855731499374e-03,7.360330319698310574e-04,3.262082930501929851e-02,5.600407045462376873e-03,3.489417438405284511e-02,1.087285429168792228e-01
2.045169059922442856e-01,1.389902873428393131e-02,1.913874868811228647e-02,2.207305390570364623e-02,5.572456378305523997e-03,7.990352923521385278e-03,4.933765812214368357e-02,6.071966962454499600e-03,2.037089800204913703e-02,1.180531880221471902e-01
7.906521923174666955e-02,4.601039535211755467e-03,2.028375422917626930e-02,2.210401264112616185e-02,2.587204900602156285e-03,1.266141027186124153e-02,3.872980490038187978e-02,5.456686228967784491e-03,1.473525715808411338e-02,1.198512501182533996e-01
4.096151178098883516e-02,9.450068332934142765e-03,1.292017663799430692e-02,2.522804288157689048e-02,2.116406519547903381e-04,1.201992673439026063e-02,1.228094100529291202e-02,4.083824642446277388e-03,2.129619250236078343e-02,1.072335029979089860e-01
4.925266704015263813e-02,1.912676220549280100e-03,4.582619689761830567e-03,2.843885890939189601e-02,2.550010055315403423e-03,8.677888965430613846e-03,2.693186432182653137e-03,2.494237450142261416e-03,3.028762921743790096e-02,8.879308782744659012e-02
5.887135658899490115e-02,2.179440159128566770e-02,5.568594767617103189e-03,2.641826229986759395e-02,3.864068454879641349e-03,4.874172548825858424e-03,6.126396572111532726e-03,1.201719002264260358e-03,3.074615971538055201e-02,7.892335804510899888e-02
1.690209536542527924e-01,3.474258282752377969e-02,1.648446715129317855e-02,1.956260509447128176e-02,3.933252188517655408e-03,1.558253508686691189e-03,2.710767865708775537e-02,5.767843262918651622e-04,2.096192436646502483e-02,8.315481752331344012e-02
1.814067212084358449e-01,2.918429753740736654e-02,2.894571654049787890e-02,1.247894732024451038e-02,3.859705035062234967e-03,9.871559225483946421e-04,4.596634315305969665e-02,5.403731936033224180e-04,4.296728145375744087e-03,9.853874044004491684e-02
1.153677760998294416e-01,7.306972857957128205e-03,3.760928401709871111e-02,6.579382211870064834e-03,4.928939164698630838e-03,5.617579345944445982e-03,6.325141505430788291e-02,5.844534104877902123e-04,1.701341663303989823e-02,1.240067563917144344e-01
5.166997133039620549e-02,1.808703542860505206e-02,4.446343368895325221e-02,4.869859477969918238e-04,6.643130502097205521e-03,1.376523244947021156e-02,8.831286042826276550e-02,4.523198526272569010e-04,3.914121603235903857e-02,1.577162337950383242e-01
3.048085536625052411e-02,3.619202319857971889e-02,5.024487889083481540e-02,9.032000966625599106e-03,7.572124165523627312e-03,2.006667663518124992e-02,1.222164933162563222e-01,4.476049413188040380e-04,5.359001758477145716e-02,1.837981196693264374e-01
3.635605871228726055e-02,4.630597499566795755e-02,4.982801400834728500e-02,1.610402610441858881e-02,7.929913594713443661e-03,2.204782477670464216e-02,1.503224750278465416e-01,6.480968731746139088e-04,5.361533632181057774e-02,1.812564761177039852e-01
3.609155227971888591e-02,5.187295807815051063e-02,3.912044584438728601e-02,1.939473992858255919e-02,8.745351064734450605e-03,2.321193325972691762e-02,1.558544158833478910e-01,2.178087963137619455e-04,4.178484697113320212e-02,1.533457378961677053e-01
1.241318906453349642e-02,4.911578912811905701e-02,2.036002996896740455e-02,1.799202964693500870e-02,8.635675245747100395e-03,2.677740711840525742e-02,1.419813663104468882e-01,1.732737645823214387e-03,2.661849333794438777e-02,1.276768933882165558e-01
1.621321361107110059e-02,3.040610400704522528e-02,2.264025367407240287e-04,1.155327637655032338e-02,5.219234944234432509e-03,2.973184446506388356e-02,1.304941697057514505e-01,4.608779818068509983e-03,1.504335723392898581e-02,1.198422417772083831e-01
2.026367219720595983e-02,1.286232853881277317e-03,1.429329135540127055e-02,3.694561551950271364e-03,4.216811384414887722e-05,2.777503578201167764e-02,1.324935951781409105e-01,6.515486870125175925e-03,1.191932519154180643e-02,1.187569956121611175e-01
1.278933013617444998e-02,1.754108507077438081e-02,1.343201433312038451e-02,2.472360352102386145e-03,2.330316697473570897e-03,2.285982500281476607e-02,1.323725948163534394e-01,6.350979798579532883e-03,2.092558395841801963e-02,1.126444034872959715e-01
3.225931705896928348e-02,1.342606364544923943e-02,2.074136046429697622e-03,1.103116103419807779e-02,7.238212110463018885e-04,1.980615927940005891e-02,1.102354880503834123e-01,4.892496296358636934e-03,3.957828760587572825e-02,1.049848980938644510e-01
6.053181645185807397e-02,1.467586077470939276e-03,1.824119016775886670e-02,2.081252139711778359e-02,1.343492766947922438e-03,1.817017375571746210e-02,6.999844805668446746e-02,3.341013051752350551e-03,5.645112372428875980e-02,9.875731719749193671e-02
2.872091345023592562e-02,5.676357117285348898e-03,2.020561731749388398e-02,2.059622076216100287e-02,1.212406216907871079e-03,1.382617119151096675e-02,3.568672181995603820e-02,1.905794628606762714e-03,5.844148174915807237e-02,8.814820998752591341e-02
6.901039838545328098e-02,5.439105360408514299e-03,9.492885967628365840e-03,1.034476935784416421e-02,2.736648676518488202e-04,6.742999817200743227e-03,2.720148381960770315e-02,5.644832937077632522e-04,4.222835277546309329e-02,7.605603087564589970e-02
1.382519216215681024e-01,1.788613847797692821e-02,7.584252743506147802e-04,3.979176690424342114e-04,1.135118542060192586e-03,1.553510230261240114e-03,4.854265834869991164e-02,7.880672907845670950e-05,1.879055657631935328e-02,8.267577528553851640e-02
9.582978393052807298e-02,1.798683689078687739e-02,2.981360650113360888e-03,1.643826060392913034e-03,4.441684781921496732e-03,1.714159134258341896e-03,9.370735603076246756e-02,2.724086949880568211e-04,5.217700169155845176e-03,1.218667138558652691e-01
3.343871502469125678e-02,3.687628295047247137e-03,1.216106977744443179e-02,2.174820241682443207e-03,9.243666203854845539e-03,7.283875069231614784e-03,1.496291356725942268e-01,8.769968179367347311e-04,1.011467069306887061e-02,1.751503027734999107e-01
1.588608923566088571e-01,1.909983460643168568e-02,2.119058494429063022e-02,6.094021824838122096e-03,1.448015035723221842e-02,1.614237297619883216e-02,1.921252088960501980e-01,9.577442208787897157e-04,2.787278273074236465e-02,2.042345042524866816e-01
2.272399899631974973e-01,4.156204805996142199e-02,2.800718514247479973e-02,8.277396962662001562e-03,1.872807154875438460e-02,2.331120555969247443e-02,1.987431334759994228e-01,5.645655475255883984e-04,4.731737275918440622e-02,1.925950805828209600e-01
2.590783508615466246e-01,5.431930877144899167e-02,3.336857607664325126e-02,1.028174630308170516e-02,1.968064966700609417e-02,2.235330197910184030e-02,1.752958618732386453e-01,1.496385677134337241e-04,6.292167692233144316e-02,1.595319678020388210e-01
2.897430843202526418e-01,5.241540041920375592e-02,3.777040910442026195e-02,1.239034500574062551e-02,1.600349245434726578e-02,1.186908965911168991e-02,1.443260298523950103e-01,7.176765286705897727e-05,7.642008919269882572e-02,1.210499872029886792e-01
2.989093286386109716e-01,3.927587315429687670e-02,4.187607622870442164e-02,1.325772088884339880e-02,9.647481867866720615e-03,2.471949210333385886e-03,9.483673318949369102e-02,3.228795531108957177e-04,9.014666798717664575e-02,5.501902764656042832e-02
2.353156206617633694e-01,2.349032453057824099e-02,4.585327784530263823e-02,1.276254480020172846e-02,4.483786954709850260e-03,1.461460234740131169e-02,1.279137203461715167e-02,1.287322913771384275e-04,1.025916737704291731e-01,6.463283828592798763e-02
1.125492802275477322e-01,1.394737793754920879e-02,4.923556586940975449e-02,1.213174360714562063e-02,2.531953336593697340e-03,2.215123001060370980e-02,1.663049056562849459e-01,1.454476456908413134e-03,1.121388752817649992e-01,2.069738290259830193e-01
2.245723725575982793e-02,1.811817358554100588e-02,5.378657403990919073e-02,1.219609817047304090e-02,2.805726769810417374e-03,2.340437498691571444e-02,2.799077599177248743e-01,4.033326509704149819e-03,1.211190234543533251e-01,2.988050844754340796e-01
3.210868600426789593e-02,3.805590628246571100e-02,6.222910547125523606e-02,1.331226748979262228e-02,3.233105092781265750e-03,1.748254595585057442e-02,2.896929920292700134e-01,5.921295108054919210e-03,1.303003725724763417e-01,3.078100475392050450e-01
1.189812968483263955e-01,6.584637626702125046e-02,7.155770028189803456e-02,1.592697039551827648e-02,2.249472504213274621e-03,8.077661803638072624e-03,2.238191813065911751e-01,6.015567003972698348e-03,1.326690752981624644e-01,2.723451986058688656e-01
2.166654886933304658e-01,8.868803685065038134e-02,7.339140994943493812e-02,2.038538372926628969e-02,5.619056769537013416e-04,1.041047445224494664e-03,1.511156174812549324e-01,4.839896690097925634e-03,1.218600789368155385e-01,2.393973202924182531e-01
2.697952575973918687e-01,9.857248052271916361e-02,6.385392416356944212e-02,2.620538011728118163e-02,3.922556011540364804e-03,1.836816417965693535e-03,1.069236750032079852e-01,3.699820998219546450e-03,1.032540408713549518e-01,2.137003247240590875e-01
2.505822742134763415e-01,9.287497950777560962e-02,4.769208979312423990e-02,3.062116755035172028e-02,6.007737833325625491e-03,1.585867243222372066e-03,9.004058159235260594e-02,3.301982754955492833e-03,8.452202945955786251e-02,1.797645046006119962e-01
1.804752082853734729e-01,7.134390621495449725e-02,3.105012950884682502e-02,2.914126631053037472e-02,7.182630338959102717e-03,3.004250021815791337e-03,8.931877160058096510e-02,3.238383581610576167e-03,6.128740372671825920e-02,1.353922992150612958e-01
1.262054007678889977e-01,4.117215432930738245e-02,1.629336066984034617e-02,2.076717632269121580e-02,9.917928831802315728e-03,1.267822227712814796e-02,9.083655638452010905e-02,2.811202214809332273e-03,2.884379601883084107e-02,9.135260202523728945e-02
1.301555852902637200e-01,1.988804326293096628e-02,5.629576011744290287e-03,1.135213511456424629e-02,1.481692746542816706e-02,2.196828939180885468e-02,8.196827752420463020e-02,2.120264386231866978e-03,8.674111801667211755e-04,6.683968136856195674e-02
1.628359577666288194e-01,2.152417598833633941e-02,3.111463808884686304e-03,7.714714851508474962e-03,1.876259777274808666e-02,2.271799184328525748e-02,5.925961429384880852e-02,1.845170592679996587e-03,3.470122107902223578e-03,8.445779228411570694e-02
1.708571195702802414e-01,3.765918696510790753e-02,8.362078147305065934e-03,9.360735359064847536e-03,1.888964780114198508e-02,1.338836444702578773e-02,2.795021153461777624e-02,2.173354694871020704e-03,1.238420938204212209e-02,1.429484389562184210e-01
1.420144972103353775e-01,4.049197212916156446e-02,1.285766846937864624e-02,1.003168091311098381e-02,1.660723629485128319e-02,1.450577260933086756e-03,4.169536017058484562e-03,2.620832553716524911e-03,2.407881602219741693e-02,2.046788653283194703e-01
1.014293790172986903e-01,1.223563906648221511e-02,8.870333236441171540e-03,6.674628912072238206e-03,1.501976605360665941e-02,3.796841030439398849e-03,1.407093611238840851e-02,2.981312096029393923e-03,1.532700962504875315e-02,2.307709430253786498e-01
6.986571505414371219e-02,3.449545363873869619e-02,1.827008331202562745e-03,2.054543160013635843e-03,1.386263078900065726e-02,1.506844411498901599e-04,6.301580489945719787e-02,3.767057857079408184e-03,9.478968997306361569e-03,2.139829861358427399e-01
4.824189047088985050e-02,7.427594755265522208e-02,1.504868613264336540e-02,1.773398576963040310e-03,1.067182855658919093e-02,7.599265592934263333e-03,1.116602787750216319e-01,5.117079345984225716e-03,4.156947140303342281e-02,1.705142097232505705e-01
3.326365535459951256e-02,9.610381773875573130e-02,3.205703227339810196e-02,6.388111375094370631e-03,5.942593358167453516e-03,1.106475201455599244e-02,1.183604217699666533e-01,5.884825670991802697e-03,7.789881287318654868e-02,1.239345479415077944e-01
1.974351360509455505e-02,1.017286556122840024e-01,5.044356215277619876e-02,1.107939313910898289e-02,2.711860743982817158e-03,7.660220988297816551e-03,9.478022052268290920e-02,4.938068123973115078e-03,1.091503015174111052e-01,9.987090832310097088e-02
2.312257425940545882e-02,9.314864794998241326e-02,5.821561013717787419e-02,1.075982553606410173e-02,1.603223493706167286e-03,2.221639421594723404e-04,8.170548822683827705e-02,2.924605715210442346e-03,1.177272969455341184e-01,1.116622984988839412e-01
1.349233849321681555e-01,7.743545108256262577e-02,4.967056010233703023e-02,4.501086606994387541e-03,8.697114485500560474e-04,4.260094152179269046e-03,9.061778524550283265e-02,1.468991353732710444e-03,9.929766267611637998e-02,1.480125365803023618e-01
2.903084562461695217e-01,6.927081597701174875e-02,3.581795939081981739e-02,3.770315337531489949e-04,9.385828728945958856e-04,1.782514764938538093e-03,1.126478648089376811e-01,1.104763137183321486e-03,7.155061645042094798e-02,1.888360380915683479e-01
3.926560217653114471e-01,7.477645900694976366e-02,2.774657310406209235e-02,6.067976390036967232e-03,4.376751661285138532e-03,1.940768062466702998e-02,1.561936682959066958e-01,1.146356525158601352e-03,5.290386192522832792e-02,2.255467202655468684e-01
3.872315236569394137e-01,8.404390181153423289e-02,2.402994456371576257e-02,1.923084918057699558e-02,1.132180948252436113e-02,4.005038086223478011e-02,2.235267547931077681e-01,7.480589282923778751e-04,4.686688729025302591e-02,2.521498613598422422e-01
3.322858985550152799e-01,8.692604989128396853e-02,2.587812964355453577e-02,3.201014911441982247e-02,1.867806564394002694e-02,5.361528243716495723e-02,2.754687989161370698e-01,8.624949712852298701e-04,5.358299562988969034e-02,2.514895298976068116e-01
3.093827774891384497e-01,8.405728604330671427e-02,4.640576828753800037e-02,3.996728728611383119e-02,2.372416950920329740e-02,5.752023139939117791e-02,2.680288246216841475e-01,3.971069504060554395e-03,7.930737927648320862e-02,2.099881273638599388e-01
3.104596310052246677e-01,7.811474629444201123e-02,8.898908823050044603e-02,4.240489308649108419e-02,2.547907641507068596e-02,5.434395426111855026e-02,2.059740776264978313e-01,7.453290758094168605e-03,1.237181174136671863e-01,1.389348482795029482e-01
2.786539077311155910e-01,6.729527728104882367e-02,1.315152213192456732e-01,3.931006744673679054e-02,2.330455032798901122e-02,4.538371426321846647e-02,1.271285216176962496e-01,9.458530747678538589e-03,1.698467080308313781e-01,6.759200674418919252e-02
2.277682471339702031e-01,5.185252589020677982e-02,1.476210507955545426e-01,3.178660482309163260e-02,1.753252557586612234e-02,3.177727886011454811e-02,5.468947824001640923e-02,9.344560644384540538e-03,1.966280713867416818e-01,1.695587760343788414e-02
2.354327592668380986e-01,3.675748808865499789e-02,1.339710690970182527e-01,2.225257185126410658e-02,1.121746073955749538e-02,1.850220043464479575e-02,6.002388117691577832e-03,7.954929523734657545e-03,1.972993270862841153e-01,8.225410889137923717e-03
3.208095659902878705e-01,2.610853931630091607e-02,1.077920688400232224e-01,1.329289112669338781e-02,8.477112512265584307e-03,1.201992572262367692e-02,4.093806321889442712e-02,6.217669967912753740e-03,1.830969569230802285e-01,4.598848787243196845e-04
4.081660616947585529e-01,2.349261443780380210e-02,8.643033166951871737e-02,8.247644826781046559e-03,1.064685572539955487e-02,1.434501519981528327e-02,3.075459515128147608e-02,4.524166445525036606e-03,1.716402340405594473e-01,5.784852641826727232e-02
4.241594172995601930e-01,3.468707192926882843e-02,7.512200683177928939e-02,1.028822108634455321e-02,1.528579331624194820e-02,2.158587445487513204e-02,1.852132127127775751e-02,2.985025114303733670e-03,1.705219214324737165e-01,1.479328704764240332e-01
3.743022330808707943e-01,5.856370793881585102e-02,6.886709343885964729e-02,1.728734819601297074e-02,1.877106787569141413e-02,2.781976837868918237e-02,7.015561491863693544e-02,1.333749628323980477e-03,1.704526197756034700e-01,2.118098297838305610e-01
3.116523968660577792e-01,7.901349732582350904e-02,6.140620231470926560e-02,2.034517749343042400e-02,1.878471637763216504e-02,2.907197833559328065e-02,8.983525748704078440e-02,6.971238599649870384e-04,1.551118063711186823e-01,2.038097774582243726e-01
2.650643486852151676e-01,7.797974634971277519e-02,5.142029069031733846e-02,1.238705866962305953e-02,1.476831116258699519e-02,2.431750870296630132e-02,7.390696074922624426e-02,2.415793163208691200e-03,1.170448437086808319e-01,1.400219481431247415e-01
2.121128988172972518e-01,5.539541158452583602e-02,4.081220084766131601e-02,2.220954815651458511e-03,7.836892557939824366e-03,1.507681012729390757e-02,4.251673816193878713e-02,2.707126569896803163e-03,6.521306603214958864e-02,7.068316387855735905e-02
1.241921215599805228e-01,3.009577847558131056e-02,3.156177917485795958e-02,1.045225363719410987e-02,5.129135637097311700e-04,5.009729386732809063e-03,1.488533302236001547e-02,1.563398666166814551e-03,2.024974705323106389e-02,2.603820838990796721e-02
3.310136803542081119e-02,2.266731461252868840e-02,2.648798958869039155e-02,3.984663762607838257e-03,5.163639920697795163e-03,2.120875938405913236e-03,4.622255103491072076e-03,6.857989553343715565e-05,4.392594095376546603e-04,3.227411989026514674e-03
1.118300133184084791e-02,3.752702203243615808e-02,2.826854916448105423e-02,1.183962994827088278e-02,9.590683077439751680e-03,5.969005619805270793e-03,2.244954029153655578e-02,1.426639926820111922e-03,3.598424939350999135e-03,1.469449602137959561e-02
6.600831597690648422e-02,5.939695027429745672e-02,3.512969131117465310e-02,2.326597205999075130e-02,1.430611576347432141e-02,9.901943788072905400e-03,4.460057288521792479e-02,1.927739902956783708e-03,1.979402547748975588e-02,4.126289226303555407e-02
1.126593788964901782e-01,6.909140800705546037e-02,4.100176126805735177e-02,2.179519254042205922e-02,1.902461284033608174e-02,1.651644042224946485e-02,7.065804492434617223e-02,1.105183042353315550e-03,3.779692452470148623e-02,7.887326471403256767e-02
8.171470889448591290e-02,6.101167536512052542e-02,4.103709064802556900e-02,1.118344448673567332e-02,2.170242278777018835e-02,2.449230669354504966e-02,9.620291421667628851e-02,3.840765839178267565e-04,5.253878321309590066e-02,1.204791457529306858e-01
4.495191043360040328e-03,4.136072195955683983e-02,3.452506000234159544e-02,2.146301133534793773e-04,2.134129456813408862e-02,3.081180110440824571e-02,1.178490429833301961e-01,6.795570776316973071e-04,5.643706964717205843e-02,1.584872756496492618e-01
8.912563022019795445e-02,1.608550028431579917e-02,2.276813296089910676e-02,7.966601681704110066e-03,1.914152460756175095e-02,3.392403999977242068e-02,1.349054580835626904e-01,1.359415938707288435e-03,4.130549037138020463e-02,1.902929027409042684e-01
1.532945282767516348e-01,1.117629515219207940e-02,6.882333150974162018e-03,1.441142304294995569e-02,1.696024009833712806e-02,3.393238838805410357e-02,1.473917083266065575e-01,4.580748958138900623e-03,9.307846755588367743e-03,2.153820047043083774e-01
2.046620289099606860e-01,3.466911677646604406e-02,1.142620943153061994e-02,1.512937009284890007e-02,1.567164176422842711e-02,3.190224553151292664e-02,1.544294182351151901e-01,6.360389197030680980e-03,2.485322072526047893e-02,2.316265877503058679e-01
2.421194518145960151e-01,4.903134890898344644e-02,2.809890099621779880e-02,2.334702863155583598e-03,1.496620432093189249e-02,2.960864937043778539e-02,1.556505503576780802e-01,4.955455634903592477e-03,4.518563107659166050e-02,2.370649744046030294e-01
2.616117025792285555e-01,5.545789783101877368e-02,3.786393713807750111e-02,2.372727037175465653e-02,1.421858285944006296e-02,2.827250045337583589e-02,1.531755133808845593e-01,1.226638215032564401e-03,4.744047609337614241e-02,2.340073600059811298e-01
2.758271338402376593e-01,6.074047302406240106e-02,3.906998037045100736e-02,5.142838756780225562e-02,1.337798104353396522e-02,2.745060808566690200e-02,1.502472061446332441e-01,1.987566129492770312e-03,4.103120787312540541e-02,2.291346475323491616e-01
3.055844121715530215e-01,6.987109788198501981e-02,3.641434167197089844e-02,6.796772811859176644e-02,1.282820277450423020e-02,2.613809749825714290e-02,1.475964876493857658e-01,2.720416425681325932e-03,3.831810274659586124e-02,2.273530749563541509e-01
3.483260087216210610e-01,8.123016121145541779e-02,3.615180036863215735e-02,6.852672581518093331e-02,1.259223464484315186e-02,2.429333162054081452e-02,1.428500482991601206e-01,1.806784720041487019e-03,4.383195525910045520e-02,2.251436372604163627e-01
3.645021956362845539e-01,8.912357026269437932e-02,3.940710194251215159e-02,5.614057622468113934e-02,1.238752689323575906e-02,2.256527340174832585e-02,1.342363217095763894e-01,1.081900166401704704e-03,5.496182321674367155e-02,2.136791216453501618e-01
3.119288709385741876e-01,8.993569998848621738e-02,4.300070061315968556e-02,3.716680640497525834e-02,1.222480507662853169e-02,2.127284404658402739e-02,1.230274543458399761e-01,5.744969635240355921e-04,6.831035781863883938e-02,1.911403181594021339e-01
1.958875360185824421e-01,8.481527779136069367e-02,4.522055154944028960e-02,1.715866012193691462e-02,1.201252641582712007e-02,2.009203421905795053e-02,1.114843788036748717e-01,7.028854210566075388e-04,8.021494627588358906e-02,1.673021248711777098e-01
6.824759366630450685e-02,7.726161370033456099e-02,4.741898690354067608e-02,7.605390559408287555e-04,1.112755271477147527e-02,1.845839410423793028e-02,1.006016995267537684e-01,2.176601527245295396e-03,8.546195132119849269e-02,1.518042232770503430e-01
2.384575278545672181e-02,7.030371349425283689e-02,5.127218560493735505e-02,1.446730136073696646e-02,9.437445902122905059e-03,1.635326091413713545e-02,9.092532309117909439e-02,2.265519806880731627e-03,8.274588242227974566e-02,1.433400066204175149e-01
6.827143624549206202e-02,6.568289281096502397e-02,5.689146525370034069e-02,2.248081259382755243e-02,7.877150338372105806e-03,1.455915510601898076e-02,8.333463296247387020e-02,8.809980254773944154e-04,7.861642491135446831e-02,1.355967212122356491e-01
7.048230350589007598e-02,6.328122655173386291e-02,6.247490004620848830e-02,2.665751487514273627e-02,7.125628437797984667e-03,1.369023080068510964e-02,7.762906572092628799e-02,4.979540655605642439e-04,8.045217262426324067e-02,1.281552841381792818e-01
3.612215168522707465e-02,6.125415990519615661e-02,6.514474133579216397e-02,3.137816557565897141e-02,6.743626167987350553e-03,1.333865093907763560e-02,7.203091351371780637e-02,7.767313064680898523e-04,8.858745835086750953e-02,1.249066579015988832e-01
2.156360541253900601e-02,5.817059364952716777e-02,6.361559886793261009e-02,3.746889248791170079e-02,6.141936944147375482e-03,1.260215681785279221e-02,6.525432895259111743e-02,1.965989045356381266e-04,9.830242782144096858e-02,1.248340039647601041e-01
8.129411714723121241e-02,5.432640306273921887e-02,5.966889754474084123e-02,4.105847390556247034e-02,5.378865970559785353e-03,1.104031652041475783e-02,5.776015073379904552e-02,2.043986727680368676e-04,1.050292449033911613e-01,1.205032020329404319e-01
1.316639339175628698e-01,5.033901206222177183e-02,5.579074679921033897e-02,4.023027259222021479e-02,4.706541499816981923e-03,9.055373109651158187e-03,5.036746911476088634e-02,3.826732729519208179e-04,1.059346543608321173e-01,1.061976561775945932e-01
1.730730942160973729e-01,4.607143029375601606e-02,5.256999456739364085e-02,3.774860262335229255e-02,4.110944748080304356e-03,7.590312412239684330e-03,4.305078792909059621e-02,1.659980474418453443e-03,1.010384130697939004e-01,8.447938773665650269e-02
1.953477506022744115e-01,4.143445145082939179e-02,4.935902679413027572e-02,3.581712556464043684e-02,3.495252860822859083e-03,7.095300182774806272e-03,3.571438440175493667e-02,2.321654592447448123e-03,9.375498049417160806e-02,6.347738717711229328e-02
1.745472769103818822e-01,3.689234846317085426e-02,4.588706515590101898e-02,3.332989461643100920e-02,2.858715003160885136e-03,6.872702770347004567e-03,2.895659331139884690e-02,1.419396137203191152e-03,8.728778326613929883e-02,4.940606319825612686e-02
1.059457430153241536e-01,3.288430680476973900e-02,4.226701472444723690e-02,2.963704058981241063e-02,2.208658149137106806e-03,6.051872689443727610e-03,2.312677720169252493e-02,4.198723700573394344e-04,8.127461034194745360e-02,4.288349123520064643e-02
2.297211441792115089e-02,2.927309743940743544e-02,3.863771790266100348e-02,2.657215488186880081e-02,1.564779172641615496e-03,4.814059873746993901e-03,1.746636494508727391e-02,1.470936790729350649e-03,7.421811234361996856e-02,4.059665857017025203e-02
3.273808158334232110e-02,2.558458244898012546e-02,3.536914770325221002e-02,2.527051154353787688e-02,1.014796338445508482e-03,3.907181953539860808e-03,1.143010412770773671e-02,7.004994612388372064e-04,6.693598285225163536e-02,3.829448308066878137e-02
4.888389350366871555e-02,2.183969991096084556e-02,3.266105369716326007e-02,2.416845793465639824e-02,5.228462025266159083e-04,3.319386233751664417e-03,5.860026786791818279e-03,9.955535657847106815e-04,6.096460934740862564e-02,3.302099199656498285e-02
4.014944655012540886e-02,1.846481879926914829e-02,2.983364745767282805e-02,2.162689146687773317e-02,1.378390760070238689e-04,2.282478996020507068e-03,1.379323857112448731e-03,1.624990287875130402e-03,5.568490387079577664e-02,2.468762602862139069e-02
2.206103450024614679e-02,1.520570966049994248e-02,2.601904833190830935e-02,1.849061194335904768e-02,8.948272855895237667e-04,6.442699900761756065e-04,2.816923186396608908e-03,4.556158254513139987e-04,4.965093275386887883e-02,1.573322904831470775e-02
1.338828427143341770e-04,1.148378403878973913e-02,2.158635994634545627e-02,1.663940891074197279e-02,1.188409138252758497e-03,6.531748252624673765e-04,7.192653484139761508e-03,9.700468845322736140e-04,4.329010427424649643e-02,8.231143120686183062e-03
2.452742899288582606e-02,7.769248454434746209e-03,1.801221781178525064e-02,1.609734972219013099e-02,8.952594343182577108e-04,9.637586737098462631e-04,1.108676159203507774e-02,9.150205953469357084e-04,3.793570406088413172e-02,1.695866380231305509e-03
4.709555682847292590e-02,4.965579222601389058e-03,1.605108600094302257e-02,1.501881217775666646e-02,8.778591934080514411e-04,9.081246444417549052e-04,1.458209004095708909e-02,2.678816225400081834e-04,3.311516621780762060e-02,5.427324880092886453e-03
6.387699564163794308e-02,2.865180109727802522e-03,1.447359704511204555e-02,1.251273494723147313e-02,1.765358622711564029e-03,1.337926259035208997e-03,1.846514206963906918e-02,1.160978511115881833e-03,2.730417053964385304e-02,1.318035037470715459e-02
7.361406685428972807e-02,5.534668856057960162e-04,1.136745492679377620e-02,1.012790994085849272e-02,2.921470791282189308e-03,2.240248839485812268e-03,2.208796319317141849e-02,1.465710010061039518e-03,2.102088103610076988e-02,2.029194964970084530e-02
7.721778222482231224e-02,2.358941666208307954e-03,6.842173648998003781e-03,9.537296680865867821e-03,3.488017053580296390e-03,3.102658031009501282e-03,2.418925963050413616e-02,1.655552416913165471e-03,1.625207608140014082e-02,2.607124303758372869e-02
