1.000931328391122845e-02,2.746491945864433168e-02,7.117936893899653138e-03,1.176859783570292570e-02,1.372198577713425963e-03,3.076695708497706634e-03,1.866356721036442623e-02,3.052935737788977505e-02,4.712766904770473997e-03,4.686502677711717330e-02
7.772746092670335463e-03,7.788922140236483223e-03,7.021237791330549316e-03,1.308225292740445266e-02,1.425807906535629839e-03,2.585859738533053537e-03,2.722670343387467023e-02,2.187053644471730063e-02,8.135365306197605770e-03,1.656041807711432223e-02
4.171264808265505789e-03,5.072342644691241881e-02,5.851979243544274366e-03,1.587591704399649375e-02,1.448871763995939225e-03,2.367208528929042478e-03,2.005403618629223589e-02,7.763201450835452259e-03,1.746813211717399700e-02,3.098379127638163991e-02
5.429303285386108749e-06,8.013053301934838779e-02,4.735924191939131118e-03,1.818857047862935256e-02,1.440195898239527046e-03,3.054850815778497285e-03,7.438514953500378717e-03,4.496018521683622579e-03,2.930415322296685970e-02,7.363576751198110115e-02
1.301923296024366968e-02,8.174071016498718478e-02,4.783205053832892580e-03,1.829066007981843336e-02,1.399375828361514810e-03,4.007343879192925944e-03,5.021270751936596742e-03,1.203815307640012516e-02,3.757850263605805319e-02,9.299988628241442901e-02
4.031161546132454310e-02,6.123595474783101456e-02,3.347891937527771970e-03,1.741931278277757122e-02,1.326610916392594606e-03,4.352820939200508464e-03,1.503916645004813729e-02,1.631780894138688126e-02,4.027243983436198937e-02,9.451067980469585184e-02
6.846962743256498896e-02,4.102266373168270835e-02,3.661125618372174095e-03,1.767274712443545753e-02,1.222758080596992843e-03,4.213371170663858523e-03,2.482336840994287322e-02,1.606889859031232839e-02,3.985272205016735653e-02,9.554538971804832359e-02
7.572694209135800991e-02,3.985363053405779898e-02,1.484208847552543828e-02,1.848642434698919215e-02,1.089746378828220473e-03,4.152334021578314369e-03,2.343256868653243244e-02,8.416486275079938795e-03,3.796117736560906952e-02,9.919450685390836242e-02
5.859113538552215839e-02,5.379167742821739512e-02,2.265203529789352674e-02,1.789439942333127115e-02,9.304320696557409447e-04,4.239335094270910848e-03,1.223690018727324920e-02,6.621150673284414458e-04,3.373063367127460133e-02,9.379437029530340864e-02
3.470279682837400237e-02,6.336257410028264814e-02,2.199942895793843833e-02,1.599268559954652308e-02,7.476119685841309996e-04,4.234143254529205112e-03,5.261800785037342278e-04,2.152963655385867897e-03,2.793655390405410180e-02,7.583716165774333218e-02
1.944400876650540996e-02,5.698155561940579372e-02,1.651744974556636908e-02,1.469116765837546329e-02,5.441554807098156459e-04,4.101038232041971134e-03,9.032353499868264746e-03,1.937288388888197543e-02,2.410603139085731178e-02,5.768353970164636496e-02
1.121621525157799094e-02,3.706594470014115683e-02,1.360005976996089654e-02,1.528355139200785091e-02,3.249125811132700346e-04,3.956482804865520467e-03,1.322470444345331952e-02,3.654259919599694290e-02,2.326862721875948975e-02,4.879961498106649698e-02
3.897030253888760388e-04,1.131288273445674175e-02,1.497691198357999597e-02,1.780124456859743381e-02,9.623300371291263898e-05,3.826134411074264604e-03,1.594564507598349515e-02,4.091899349098399030e-02,2.231661515727056261e-02,4.181700354088087324e-02
1.672176283845776268e-02,7.671361544692553019e-03,1.544671174048445339e-02,2.119924148649706894e-02,1.384098065429778405e-04,3.664564382678759703e-03,1.714691194024030307e-02,3.541431116753725183e-02,1.973566891669017651e-02,2.497329756317216709e-02
3.423547194126562443e-02,6.320961397416831155e-03,1.149323317888806956e-02,2.345287962491425862e-02,3.778280226087884055e-04,3.468104291184879225e-03,1.280990561062346489e-02,2.795208779020354542e-02,1.767617761529160711e-02,3.179712951500972967e-04
4.041711867287959420e-02,1.258050378579891534e-02,7.854122304635060073e-03,2.321455365741614818e-02,6.141058065820586198e-04,3.267421981098065590e-03,1.787370233715462062e-03,1.893514288850815103e-02,1.759426437621640013e-02,1.828497172591143222e-02
2.649666194646315212e-02,3.231180935076496952e-02,1.239459192386790747e-02,2.144706122382493765e-02,8.339899059810526984e-04,3.076466821077825011e-03,9.690567119259602819e-03,6.279655101881943292e-03,2.014587369053796179e-02,2.060880240391523358e-02
1.967262153201235122e-03,4.923032787854358244e-02,2.663517125353304441e-02,1.978191116725629140e-02,1.038548118510255244e-03,2.893860997273696618e-03,1.346264217106543475e-02,6.522487660529003445e-03,2.800377349743411043e-02,8.423355587711626319e-03
2.694359785049195433e-02,7.431003725627201295e-02,4.465696469789008638e-02,1.802191501599835141e-02,1.241083948269435877e-03,2.722012722122718175e-03,6.756814654038533277e-03,1.336847788695461059e-02,4.091305361897570880e-02,8.565562645932769600e-03
3.663062438674755117e-02,1.038653811190495407e-01,5.940236715930422712e-02,1.530313277948788450e-02,1.425459348540262421e-03,2.568882205321967090e-03,6.200810580758298399e-03,1.147233132281788581e-02,5.032397183520152112e-02,2.143241698566202003e-02
3.539060350862141546e-02,1.158478527604072800e-01,6.788268181899322073e-02,1.267838657325912749e-02,1.549796717205088274e-03,2.448563457931316519e-03,1.625430608773016303e-02,2.782410006275909398e-03,4.724299138773842277e-02,2.622742776540408494e-02
3.161229159651152143e-02,9.976982464499872805e-02,7.183896092894789809e-02,1.192011470030012767e-02,1.635903743363815348e-03,2.375237957778007173e-03,1.536676309119646561e-02,6.992600868450276827e-03,3.326215521237791545e-02,2.220479151601210607e-02
2.585308609503895322e-02,6.835418666475889804e-02,7.370225039605635131e-02,1.239227412874766183e-02,1.764112634561654279e-03,2.341609405391006059e-03,5.068051145142266761e-03,1.223034014566117163e-02,1.711301081899704868e-02,1.126214137632464314e-02
1.542817111363282458e-02,3.766889372238278050e-02,7.203902259648958806e-02,1.170096713988999504e-02,1.882412581524157361e-03,2.331353877203865953e-03,5.314573598200599686e-03,1.258394389828454939e-02,3.325627586091100402e-03,9.687454002067414673e-04
1.129456798263234413e-03,1.211822401253086559e-02,6.384495779874101162e-02,9.108104090446333262e-03,1.809769621596032160e-03,2.374053079255929611e-03,1.128330995638595485e-02,1.102096002332604401e-02,8.836677670848978178e-03,9.898429991520863933e-03
1.536808625611468110e-02,1.046976276557253990e-02,5.074237503611433303e-02,6.274961208724947823e-03,1.640070676324405967e-03,2.518990091197851819e-03,1.561403923925977141e-02,6.258044584518340780e-03,1.730828937667056727e-02,1.737006806597211905e-02
3.282769567005826283e-02,3.069938252617844879e-02,3.831528792870145944e-02,5.136145914649555694e-03,1.804218220438883521e-03,2.716762840471929636e-03,1.858777143996163256e-02,5.438270039257645135e-03,1.635018489599558700e-02,2.618334997426509381e-02
4.562261380780779918e-02,4.702286296711180591e-02,2.941955469509807686e-02,6.409077021596109452e-03,2.368398376315149472e-03,2.888776571584605185e-03,1.990533458894092403e-02,1.866924635472598168e-02,5.936883572339646600e-03,3.277641576664471618e-02
4.548618786699327315e-02,5.854716771216490756e-02,2.213954589634592462e-02,9.287913004410789514e-03,2.747905511964399399e-03,3.112854165120828003e-03,2.757791339873354869e-02,1.937414639111870174e-02,4.413978462015653859e-03,3.343217232847359166e-02
3.238192487575507900e-02,6.633862131043920252e-02,1.402314989528434877e-02,1.147222759205146318e-02,2.440286450435987398e-03,3.022620304276634438e-03,4.717230751881201778e-02,2.683851728761534744e-03,5.395469265418398157e-03,3.309969183149676780e-02
1.875855689021361378e-02,7.176293463884508839e-02,4.815406904929884872e-03,1.028902512874411979e-02,1.482376348794723882e-03,5.180609975785490469e-04,6.759642680701294370e-02,1.881414920158883813e-02,2.892290420750474010e-03,3.728808174715159823e-02
1.777835895929530743e-02,7.447181429254419449e-02,4.809025612976410707e-03,4.866335683033133803e-03,4.254460669558247335e-04,7.476648617928005440e-03,7.473863448535546239e-02,3.021619431247814583e-02,1.450928590440564263e-02,3.899004711113152749e-02
2.578062107127718564e-02,7.477910918861220557e-02,1.430518974206687957e-02,2.770109778638869726e-03,5.003052781064702952e-04,2.094972657862941706e-02,7.034783227655283522e-02,2.982215301014258524e-02,2.521385012959811989e-02,2.707868040587569497e-02
2.290140604775703012e-02,7.668927315603847605e-02,2.319007088274098113e-02,9.304889516779305328e-03,2.454302939736072598e-03,3.430100031466012944e-02,6.356015947735410565e-02,2.556309931339359812e-02,3.356551260623334004e-02,5.205165039868894089e-03
6.292282368382223334e-04,8.194734312866842896e-02,3.169784780440054739e-02,1.321309695120441614e-02,4.517660937119591727e-03,4.044503079705292353e-02,5.599137788252715048e-02,2.303303649737319797e-02,3.972800780906983464e-02,1.301294297917062436e-02
2.023174925007022174e-02,8.202959495788160471e-02,4.015996093364834763e-02,1.585361860554810459e-02,4.050404750270257884e-03,3.757608574991997546e-02,4.620345586580577868e-02,2.203534380987459337e-02,4.506231914329875826e-02,2.426615897754650503e-02
1.675897743243450616e-02,6.649157854865937745e-02,4.653168210965482471e-02,1.908634851104797428e-02,1.659598221314288920e-03,3.002308309172288525e-02,3.618700701001626580e-02,2.125044805989836222e-02,4.807869980796173476e-02,3.391960083535035253e-02
1.082009685109895994e-03,3.857042603211835452e-02,4.766920666917701804e-02,2.272162341504172997e-02,3.165714830470979014e-04,2.244200859919414162e-02,2.553236907139375123e-02,2.021990931583825604e-02,4.164159517642543329e-02,4.009077901294397922e-02
5.539242478168097776e-03,1.004444613924958610e-02,4.463904054844300417e-02,2.545562702686439763e-02,5.994367171588569970e-04,1.559496032211310501e-02,1.106571798616522682e-02,1.681165281930265681e-02,2.127765366851156956e-02,3.738963120137935026e-02
7.337712107374978407e-03,1.556651147447421848e-02,4.278504326969048005e-02,2.736053391776257365e-02,5.807597380489252798e-04,8.781259068849554122e-03,2.988965919328131961e-03,9.299814488562554993e-03,4.211311064645187341e-03,2.956742667731146815e-02
1.468733134568442344e-02,3.958796773392996016e-02,4.513642377437299819e-02,2.952932883521568880e-02,3.256309270535704499e-04,3.581815633230978416e-03,6.837846052996355423e-03,2.408560873740014496e-03,1.796193551561245383e-02,2.430746119441785230e-02
1.144871913551643618e-03,5.457188970524938509e-02,5.019853770546699873e-02,3.196260246001134814e-02,9.295007407010049674e-04,2.389221085117575281e-03,1.210900452212778072e-03,3.275218310790477434e-03,1.171412214006335370e-02,2.373685492517880677e-02
2.200245847213030265e-02,5.059285034022459326e-02,5.650325743573575421e-02,3.440198064897385943e-02,8.041830051816263765e-04,4.533472240152769395e-03,6.279750279691923009e-04,9.157962822940204223e-03,8.599890032284581917e-03,2.783392072016130370e-02
3.211624605256851311e-02,3.046526962104315756e-02,6.320594734346303423e-02,3.865536772339574906e-02,6.431833468466476196e-04,6.547308297965865470e-03,8.896976532935751969e-03,8.691895892425490974e-03,3.371070252886938096e-02,3.701551104939226899e-02
2.084807063635171764e-02,6.604800278779572424e-03,6.571455510288370938e-02,4.645824526898859747e-02,7.708837379833792525e-04,6.024313334804140899e-03,2.426519702068822074e-02,1.399378883004643529e-03,5.981639762093685780e-02,4.785358787501553524e-02
2.038667627908999618e-03,1.449962971988270032e-02,5.800797029197118232e-02,5.500725923348022406e-02,8.874198468458868944e-04,3.445551258873605534e-03,4.193501721142989247e-02,1.088114204505610284e-02,8.472609695407433417e-02,5.500673039120141522e-02
4.175397270929770768e-03,3.648911253379776010e-02,4.152041893375341131e-02,5.893611106053344567e-02,8.338986737050800221e-04,3.519244911399535634e-04,6.627716731902091873e-02,1.198894882575487868e-02,1.034691614566567303e-01,5.667504352205736395e-02
1.066753215958747558e-02,6.040281399779946769e-02,2.634412050318640786e-02,5.759908655713058545e-02,7.493771429399441334e-04,2.554782751064161184e-03,9.171327982731915240e-02,1.121964360127992479e-02,1.122547525614897290e-01,5.258853760907462871e-02
4.255038413145899312e-02,7.475827750001921845e-02,2.179131726744727368e-02,5.624537586631517261e-02,7.148144958393908444e-04,4.927376839739006434e-03,9.730355639318513661e-02,1.760241113531925070e-02,1.119188052836580793e-01,4.301422164980501367e-02
7.994311399242788607e-02,6.839813552384814421e-02,2.894306714529228455e-02,5.924211658411370623e-02,6.725078317577123238e-04,5.866570790340336350e-03,7.395034169416860037e-02,2.710306298532521793e-02,1.072093558906195149e-01,3.510192823016070052e-02
1.026957216222935954e-01,4.881720609153532286e-02,4.210829155335133606e-02,6.619371830307024807e-02,5.872370228347328046e-04,5.010235940845213405e-03,4.191531125833807686e-02,2.986888896607287416e-02,1.077585950003981802e-01,4.061518159829338726e-02
8.846835330762371774e-02,3.179832910758339376e-02,5.437958215459275796e-02,7.432721308268262772e-02,4.885013935947305017e-04,3.898598303667711717e-03,2.602572958988914886e-02,2.762978108608719202e-02,1.230846436386938136e-01,6.015931022737405071e-02
3.280377586210876661e-02,1.778296115195052846e-02,6.181247007879813599e-02,8.023734572123718267e-02,4.050877471445310778e-04,4.414640225362543788e-03,2.617273937619134933e-02,2.859117023368931004e-02,1.475407365450317476e-01,7.747445276346937026e-02
3.981794759901025743e-02,1.716740464468736061e-03,6.389358771809186543e-02,8.097150952022610926e-02,3.390114726150385868e-04,6.041137928554387269e-03,2.574114956043367305e-02,2.722033775760059407e-02,1.617497525637225653e-01,7.528797823345026452e-02
9.282526127610346567e-02,2.108292156774555295e-02,6.090107785831495174e-02,7.745806791076297049e-02,2.749084453009284328e-04,6.805663007667643420e-03,1.775588648986758944e-02,9.072436970347624863e-03,1.601112563493620189e-01,5.128207909860814373e-02
1.064851480962183128e-01,2.473092521377860328e-02,5.307322005528822273e-02,7.378901760265987875e-02,2.029724974336832139e-04,6.878934782528541708e-03,9.766242690896424772e-03,2.164865251282004771e-02,1.586904237729609979e-01,1.699755466603534992e-02
8.617584374766058819e-02,8.352217425780218696e-03,4.408317011835661409e-02,7.147311789655474978e-02,1.592440681398524932e-04,8.506047274433397101e-03,9.810893773674922089e-03,4.063024185554933720e-02,1.620816347155002168e-01,1.161187252033273921e-02
4.533938212266563211e-02,1.749096239832307123e-02,4.192573888283862571e-02,7.009411247958011182e-02,1.932511939227449650e-04,1.204234176460667292e-02,1.736593316429309655e-02,3.466424332070054681e-02,1.485492647329625104e-01,2.257549290302448067e-02
6.789122699954702571e-03,3.712415917209734711e-02,5.086323833684246870e-02,7.230051719823160639e-02,2.526048497201036558e-04,1.489511827285863385e-02,2.587853921256901696e-02,1.485036145853360461e-02,1.077352929422049910e-01,1.605859666576918768e-02
5.807043634182192104e-02,3.822022868001054285e-02,6.313851330857871147e-02,7.899861120470841325e-02,2.405901976452680434e-04,1.502151848835102561e-02,3.019394045613395250e-02,5.339535205256682598e-03,6.410227741802308754e-02,6.017857183283266756e-03
9.249286929883654418e-02,2.240536472871096363e-02,6.475993294473064710e-02,8.223509321906549707e-02,2.793689058209674410e-04,1.324762856981624541e-02,3.199155587014835406e-02,2.772479977052016639e-02,3.925318183429866298e-02,7.108018686016718060e-03
1.071103261132831663e-01,8.362835432805117153e-03,5.001134384087412704e-02,7.337309501711537785e-02,6.066359289688732972e-04,1.175522518615736318e-02,3.558036979898761276e-02,6.018562693045434453e-02,1.703019631235755046e-02,1.863358550677421399e-02
1.134926258399870935e-01,1.199279963696301028e-02,2.435519071747336770e-02,5.400256414734701943e-02,9.590743131152431244e-04,1.170784862807215838e-02,3.641164298105901975e-02,9.918635889750537782e-02,3.276104984246579893e-02,2.726480446259481674e-02
1.130626045908967453e-01,2.513035012587529204e-02,5.445807443120857273e-03,2.779809842555614960e-02,5.140561900375778363e-04,1.239852731280599064e-02,2.215076820371211785e-02,1.257013968335618792e-01,1.160378975632897769e-01,2.644401000698923254e-02
9.342117513744262192e-02,2.655455312904603585e-02,3.523709949735493591e-02,9.840602494880945628e-03,1.073589163197664377e-03,1.197169306924978499e-02,7.893522662821290947e-03,1.211455486198479148e-01,2.105823539717653903e-01,2.475718495110355508e-02
5.904286154321986002e-02,1.302889344282967717e-02,5.799127171093447497e-02,5.810461772107854833e-02,2.918783696424445771e-03,8.858202560859708419e-03,3.419562082987024493e-02,8.900821207355938403e-02,2.812943786077951591e-01,3.139793282971325289e-02
3.497032273290309745e-02,6.099731538303788426e-03,6.424075357507544326e-02,9.630743309107948902e-02,3.554008263681420442e-03,2.857040035554223555e-03,3.735379534780196298e-02,5.159208215916980672e-02,2.971028613397472262e-01,4.327841872773391385e-02
2.642352349940295386e-02,2.224498700881795410e-02,5.322546775371578970e-02,1.052750956982529684e-01,2.173742716699026724e-03,4.490975803593275605e-03,1.928844002610398747e-02,2.289204527961033117e-02,2.555279194918669283e-01,5.293447831709434392e-02
9.920404473388360483e-03,4.499363294483717246e-02,4.020976488937420823e-02,9.801652497396523556e-02,6.153738327534945306e-04,1.048177117243467675e-02,2.240007150722325702e-03,4.539845118486820867e-04,1.949620811457821734e-01,5.921252138104855789e-02
2.253281380390138172e-02,4.089491571634692318e-02,4.500315887722790981e-02,1.055274866408753148e-01,3.065761916327007508e-03,1.288145088261335308e-02,1.300924461640996267e-02,1.600106093655692327e-02,1.631920089042148692e-01,6.358536606298630101e-02
4.941411725814810058e-02,4.793698908029365123e-03,6.969764486243236468e-02,1.329946913260764141e-01,3.731659691207193062e-03,1.121216117256252504e-02,1.262573598661664853e-02,2.144105160518950531e-02,1.689897367589255905e-01,6.585782990295144246e-02
5.886725683457132152e-02,2.894587652229694066e-02,9.351413384687452812e-02,1.518214386986366238e-01,2.808269970909922728e-03,6.665611900976226023e-03,1.077211195402973457e-02,2.143446706617216715e-02,1.802590169178539536e-01,6.908198487246407227e-02
6.325632476041796737e-02,3.245952444314412211e-02,9.492242642366731376e-02,1.380617171389205700e-01,1.687523879382517777e-03,1.367886385755297729e-03,1.494541719115391638e-02,2.787224069675624943e-02,1.679730012637177528e-01,7.844167638314682167e-02
7.145273792187933903e-02,2.400817051839622407e-02,7.559342827761846018e-02,1.022658687109108400e-01,1.338961417870612519e-03,2.911658909369240628e-03,2.183910661847954932e-02,4.032919178048223474e-02,1.316569118437845298e-01,8.998652848183827380e-02
8.007033998620430304e-02,4.038478318723701110e-02,5.785699803394792756e-02,7.608614156763399139e-02,1.545728842060813775e-03,6.429738717876468286e-03,2.460811042995470974e-02,4.931973045583896986e-02,8.690634312250659910e-02,9.137133817789439005e-02
8.989182529057017368e-02,8.160239309556731324e-02,5.918003484363162231e-02,7.884269083440662018e-02,1.766793643446184147e-03,1.108059336049858033e-02,2.667347813252081076e-02,5.005017953637919126e-02,5.256847443497564276e-02,8.048107510739332948e-02
1.029844823749136579e-01,1.105642058147273954e-01,7.432721732487203303e-02,1.020679897864511521e-01,2.408176843438858839e-03,1.738292924180220855e-02,3.979626036280540374e-02,3.876169212047143181e-02,4.481211600436113551e-02,7.299969025139464718e-02
1.059222171584349170e-01,1.051942966346620656e-01,8.641393625649916588e-02,1.220978576322591796e-01,4.463030979510197553e-03,2.323572106019800715e-02,7.022958000486377583e-02,9.086903661582393377e-03,6.053203064741122241e-02,8.322062232003807347e-02
7.987219013414308122e-02,8.329872692706064008e-02,8.925717105337173385e-02,1.224245877968328372e-01,7.654976689356119898e-03,2.680165120699049344e-02,1.147213595665519947e-01,3.354993027983745740e-02,7.262476383133137370e-02,1.047962856747975124e-01
3.057071499958234281e-02,7.271575516536005201e-02,8.851197062479392030e-02,1.035368194225699812e-01,1.001847803035036018e-02,2.861799632195372728e-02,1.626765274829930774e-01,6.831346917536144925e-02,5.880208868645004500e-02,1.180123299605714687e-01
1.144384617115421984e-02,8.068165853049831526e-02,8.429063621788919491e-02,7.484002195714592465e-02,9.991287351601577452e-03,2.928269663144563925e-02,1.948475540071279155e-01,8.408213814206676184e-02,2.462711098715550384e-02,1.122458112170571648e-01
2.767400927833034083e-02,9.579312980121837406e-02,6.638903985940282360e-02,4.195930675733453019e-02,8.324865373637952912e-03,2.745328418162247888e-02,1.964656790548374166e-01,9.334969582128078980e-02,1.487354411838242955e-02,9.600203244266437841e-02
2.904791189814049865e-02,1.014114364123828160e-01,2.975980396732481534e-02,5.991946361818373604e-03,7.439981786858781282e-03,2.240071696312803326e-02,1.779127269913906573e-01,1.043122821676768230e-01,5.852187699394634235e-02,8.543198255777345596e-02
2.627472420483542917e-02,8.601732192056116277e-02,1.329728190388724043e-02,2.586369204611575073e-02,8.710165922722579515e-03,1.669739972245066692e-02,1.589945875998012015e-01,9.667173512209017994e-02,1.040986914150411335e-01,8.589550352271145550e-02
7.288998454188675043e-03,5.275431353156662811e-02,4.099871679335202745e-02,3.902290321129846251e-02,1.056186066588844785e-02,1.377093345959694813e-02,1.354461598841929515e-01,5.200070020353297906e-02,1.260589542896623505e-01,8.668596518586876853e-02
3.708344687843467824e-02,1.752504363539002588e-02,4.136386737363298427e-02,3.002441083901409222e-02,1.035996709023743155e-02,1.334446749050159121e-02,9.227828408210661526e-02,7.603314154156583238e-03,9.907632756802811635e-02,7.231295715840560523e-02
8.552674139610434711e-02,8.233559812894222091e-03,2.249893217891644343e-02,1.863759612202166641e-02,8.121991985889469301e-03,1.150334169109783373e-02,3.528438489443502801e-02,4.517989531032894773e-02,4.236431519066083395e-02,3.563141554247584858e-02
1.053847638989384855e-01,2.794399921165034717e-02,4.173370332450576647e-03,2.624168320835260776e-02,6.331142983589621749e-03,5.313130547947294419e-03,2.722391880767875694e-02,5.832707007765225438e-02,8.144412954460547235e-03,1.759338541953149593e-02
8.972054270057630565e-02,4.870083131508592261e-02,1.215909590957550516e-03,4.643235270920478136e-02,5.834245682221455599e-03,4.821049151892058821e-03,1.065317675952779514e-01,6.923975687736461104e-02,1.730215117646788023e-02,7.238268569596890967e-02
6.202149983311899817e-02,6.691848646348774743e-02,1.477611056155182963e-02,5.529191169661009514e-02,4.329793458149747490e-03,1.720720516863331884e-02,1.983265432187310551e-01,8.432219078390436329e-02,3.824014806811116413e-02,1.158260045481564054e-01
4.570202403647379702e-02,7.454019942927804510e-02,3.518401231721988986e-02,4.775909567748765072e-02,3.179581226004884846e-04,2.991658250898070887e-02,2.565745861443829989e-01,9.384794399208956639e-02,4.214903063708307779e-02,1.449395079287198462e-01
3.930505456802983744e-02,7.539114401616250905e-02,4.959272754785142706e-02,4.117156860697634979e-02,7.026470711478302426e-03,3.924342391173662320e-02,2.398534131260054991e-01,9.218174362655806586e-02,4.214816351103393977e-02,1.574496777332486108e-01
3.215061371847130478e-02,8.017429796578644241e-02,4.936278976144602842e-02,4.297336196314154727e-02,1.266118563325274379e-02,4.105284112274355107e-02,1.658777009590652884e-01,7.806033313513312255e-02,5.461749956404095274e-02,1.449194077065612818e-01
2.985742706011470377e-02,8.367714909130732903e-02,3.628878707482315752e-02,4.153173753537085094e-02,1.551389009479767905e-02,3.575139074365836500e-02,9.823136050571343314e-02,5.201814461590638372e-02,5.796300856820763708e-02,1.096685693713337489e-01
3.739037670284325876e-02,6.590735389169184721e-02,2.197475973392924026e-02,3.309060884431323790e-02,1.681108589433124439e-02,2.945375033142812876e-02,8.465151445992052937e-02,2.270302211349499444e-02,2.485704239701760215e-02,7.402965877272216222e-02
3.501881126612901851e-02,2.385220020021101145e-02,1.560335103147441997e-02,2.893832095312911731e-02,1.848537044432352686e-02,2.803341356130739301e-02,1.165608271630451803e-01,2.570107149397122571e-03,2.907761862308132564e-02,5.454755581850940366e-02
6.798568960208493071e-03,1.594499973658772968e-02,1.387714415406833893e-02,2.679550204560614268e-02,2.019793238313952188e-02,3.094332422207091496e-02,1.489762078873721751e-01,5.705034032778057498e-03,6.474150599968209185e-02,4.255869265876738999e-02
2.884128495737299513e-02,2.817001245247343147e-02,9.879146162235407508e-03,4.828046312048271671e-03,1.997854273124045552e-02,3.225065427424413100e-02,1.511669818809211474e-01,1.035260805099906534e-02,7.252254059961836530e-02,2.659039215693810229e-02
4.991517293497442498e-02,1.776360982536185837e-02,7.943698041372878119e-03,4.110609414689018332e-02,1.748499912984623553e-02,2.740792757525949142e-02,1.302849794459255139e-01,1.645661290912957611e-02,7.427613451495251873e-02,1.528572167625180667e-02
6.460231734211133170e-02,6.614793664010088989e-03,1.806526311835316909e-02,8.173233901733595319e-02,1.450145234045714486e-02,1.804817189643545539e-02,1.132268168623758731e-01,1.649169267388891913e-02,8.288674226915460075e-02,1.959952230228703685e-02
8.491786375075682791e-02,4.095872925498773506e-03,3.543128590908628528e-02,9.310947728819286839e-02,1.185253610262031361e-02,9.787289995218363681e-03,1.135608691354943467e-01,7.679660856637401251e-05,8.864671656366492070e-02,2.919954013138131854e-02
9.410650715224348761e-02,4.201517550790461950e-03,3.966752875896836089e-02,8.560241674711775717e-02,7.956484103902072488e-03,5.554753156893762686e-03,1.131931755412138585e-01,3.110483303000044497e-02,8.180536703892120343e-02,2.661807694348362896e-02
6.770619426368369720e-02,3.297162070158304262e-03,2.285324769039100146e-02,7.649243776041471377e-02,1.373354456618167130e-03,2.191027078755874123e-03,7.909104248594772679e-02,6.764344806031732937e-02,6.582982928209649143e-02,1.131386927158725859e-02
1.201683716969804971e-02,7.811309891036783207e-03,5.990649990740627359e-03,5.919716539346172451e-02,6.706306781288867355e-03,4.830693022706826489e-03,7.428893824364509596e-03,1.063241267020640646e-01,4.800459647952010078e-02,8.376836535221084817e-03
3.662472580029563218e-02,2.589621800503756621e-02,1.120527908232231938e-02,2.211776618993083546e-02,1.341541819604625055e-02,1.425321965527698992e-02,5.515225803953841682e-02,1.450223775668036674e-01,3.093739385367827444e-02,3.284525061109010852e-02
4.742994342894320259e-02,5.601483364901657658e-02,2.594175963693165846e-02,2.130467247910342032e-02,1.679719252048043204e-02,2.005777964744965072e-02,5.565776521879504946e-02,1.702658518416592937e-01,1.402364476609843646e-02,6.225851939945933888e-02
2.337450258990179594e-02,8.425491987705505115e-02,1.797661082299988750e-02,4.636371497374686818e-02,1.685339371957400925e-02,1.991706494661079491e-02,2.693229574523513942e-03,1.671187873433405691e-01,2.120909865388977307e-03,8.200681746280530371e-02
7.334224553981103477e-03,9.608009260795324913e-02,1.731030053182775613e-02,5.030489854176373871e-02,1.445013472394858153e-02,1.832720876915716612e-02,3.497111319942398933e-02,1.339144598750654780e-01,1.178254637890657590e-02,7.354365456503521303e-02
2.449198334301275204e-02,8.986840964269907084e-02,5.180275354221360734e-02,4.943064530240540155e-02,9.973591278956072184e-03,1.970602816012671787e-02,8.922881768651110337e-03,7.678428178320929887e-02,7.346459453383377344e-03,3.462679293737925407e-02
2.937861879126808448e-02,7.264353610596634148e-02,6.679572402884369209e-02,5.063115614948181936e-02,3.727240693584696774e-03,2.263870315104350023e-02,5.151561296062012046e-02,9.048663944706610007e-03,7.436574441830069541e-03,1.639435703807716471e-02
2.315444600471640996e-02,4.750224550410802465e-02,7.057922071468582248e-02,4.755651845629398772e-02,2.762834291465728759e-03,2.356919737950288751e-02,7.732129068287604823e-02,3.617350567000400530e-02,1.135024709616886882e-02,5.219758187498686752e-02
6.170092967622376606e-03,1.588994016067914530e-02,6.993587493735263505e-02,3.997986106863705980e-02,7.134419299022747886e-03,2.222941571399712074e-02,4.042677327955884053e-02,2.598717331089260910e-02,1.750007614149290056e-02,5.746079948771265489e-02
6.101352305694541373e-02,1.350432715402677918e-02,5.415103559962855528e-02,3.695873102525460557e-02,8.130937193886324937e-03,2.026525303543245601e-02,1.697640791459415974e-02,2.561380400741904498e-02,7.700366933637001199e-02,4.331385421852683437e-02
1.168447841159977185e-01,3.096986148289152668e-02,1.921347439316441544e-02,4.230339053697713958e-02,6.408843964558173789e-03,1.820367826371030451e-02,2.530610190415636535e-02,6.267656615119240882e-02,1.371822056190411809e-01,3.188569420627217904e-02
1.433897208037753224e-01,3.849576851023837204e-02,1.530818770384746730e-02,5.012816353551292903e-02,3.630320109310006607e-03,1.652606489804238007e-02,3.973723017858805245e-02,5.114405399461867396e-02,1.648389256590364893e-01,2.941246926437590323e-02
1.321718243343148469e-01,4.707169839473003548e-02,2.930306069609631830e-02,5.389247812391911863e-02,1.520192774401014739e-03,1.570857059780325291e-02,1.133225528890335065e-01,1.227497787239473052e-02,1.533875867582358832e-01,3.166164090181694535e-02
9.437926195259999096e-02,6.284970457512786823e-02,2.565527084813576733e-02,5.288341245016796310e-02,1.145039856038462594e-03,1.346149494592884140e-02,9.079072133361582031e-02,1.416305273205342025e-02,1.253657701036658412e-01,4.504338147436174472e-02
4.377131570238517594e-02,8.247901734332391266e-02,1.731118130569804514e-02,5.050537422147523270e-02,2.135567985163710266e-03,6.414406283899306074e-03,5.070152058902419739e-02,1.684055605239093145e-02,1.069678577958208532e-01,7.466344291408198719e-02
7.050106386710002990e-03,1.010206439170031889e-01,8.708018237703426048e-03,4.948942661078033212e-02,3.317093360654476460e-03,4.352253292920453889e-03,2.111735218183342089e-01,1.388972590503458754e-02,1.069388026848894918e-01,1.007247475387916674e-01
4.268493155215887652e-02,1.171899883101591155e-01,2.978614511486464816e-03,4.937041080643698315e-02,4.569543660289697613e-03,1.302541023974103027e-02,2.769784534804198839e-01,2.389710005830331802e-02,1.150523733676598742e-01,9.549807576829619227e-02
5.268022822422378793e-02,1.269172001860692789e-01,7.495222431406446326e-03,4.668028723421373954e-02,6.841388342163374353e-03,1.507002355814150013e-02,2.324593026276501884e-01,4.703743182952727087e-02,1.105757782985673510e-01,5.957752648611341906e-02
4.112292045223242543e-02,1.183321694061818113e-01,2.032687577365313233e-02,3.532200286418139823e-02,1.018307270672562208e-02,1.217693348538809867e-02,1.464649659680690719e-01,6.427848450597617447e-02,7.934243668093748925e-02,2.275931830298109915e-02
1.938993744718135737e-02,8.417267942588695095e-02,2.949939056709703980e-02,1.071860440471907212e-02,1.339701734972503257e-02,1.097316850518447254e-02,9.084698525856278739e-02,5.004589065993622632e-02,3.221974357510076076e-02,1.347277398484842889e-02
4.322561103773732601e-03,3.841019332510162837e-02,3.138420674140702388e-02,1.974257367926555984e-02,1.568649310027744881e-02,1.645265661623145428e-02,8.510390777928138195e-02,1.016948873245808720e-03,4.966732096068834923e-05,3.535336063160547659e-02
2.129202602347938025e-02,8.611535926826108939e-03,3.245734773059096717e-02,3.600754095034203184e-02,1.688918082392796075e-02,2.650164274995351829e-02,9.566881854084935410e-02,5.884483252405861564e-02,3.996111171823479163e-03,6.716361359887414173e-02
1.889953107561324896e-02,7.706172549662857613e-03,3.331875005839712856e-02,2.817852216134971582e-02,1.620356020500097680e-02,3.378191665382618974e-02,8.135194525849775982e-02,8.284244038611737748e-02,3.354389493191278077e-02,8.292366792668715014e-02
9.737967289724130254e-03,2.098348117014158312e-02,2.885413426827491273e-02,1.707489139674527034e-02,1.277469144431260355e-02,3.348634512077306585e-02,3.731842987446205850e-02,5.877198129315333586e-02,5.586920458841378168e-02,7.562949665494624052e-02
5.752387136402704187e-02,2.556029791993305600e-02,2.223253940881983123e-02,3.458618931417052622e-02,7.499999413866774434e-03,2.814167859254873214e-02,9.476834810836659920e-03,2.973763446568603204e-03,4.726158675951171867e-02,5.896865167927285017e-02
1.077069239441511977e-01,1.696473308983964187e-02,2.219219383919205160e-02,8.130947464151876136e-02,2.182096220795535189e-03,2.340319418950694008e-02,3.310938390180939717e-02,5.820444575863880504e-02,1.456465172844513892e-02,4.642234821176399046e-02
1.442282317897396471e-01,8.641327775815783874e-03,2.719971171304086041e-02,1.216348785535227434e-01,2.845292770842579137e-03,2.066342279424191949e-02,3.093045206561340771e-02,1.053122204527848493e-01,1.408969621517417933e-02,3.577181233402153965e-02
1.595610906880740032e-01,7.003790648287982513e-03,2.561450612776950894e-02,1.262272391713549768e-01,8.147610481634155744e-03,1.698873000204086103e-02,2.904139726359047588e-02,1.341855259422796709e-01,1.634993861787872871e-02,1.556603141032339953e-02
1.535225148648450277e-01,1.121343482500771448e-03,1.330503837823633108e-02,1.013922499804187083e-01,1.274947304123576035e-02,1.104059060714421628e-02,5.844641109695560000e-02,1.506922815361250445e-01,6.341160506070562392e-03,1.763940996928582000e-02
1.250278719672133221e-01,2.939858499221792432e-02,2.532683633800891093e-03,6.909571558375983413e-02,1.466209243142088496e-02,4.774151743814265304e-03,1.095751192043674105e-01,1.505208274315831818e-01,3.490221674995801909e-02,5.294558026766960079e-02
7.475365092713892601e-02,6.866619089683145827e-02,8.925903338313959101e-03,3.734275370620450396e-02,1.384604874831796284e-02,1.262129583182961413e-04,1.365628306444151008e-01,1.184234464796440345e-01,5.381795677311814602e-02,7.785411568156232198e-02
2.075965116278219794e-02,9.392392570785676464e-02,3.217836447158048396e-02,3.764635138893854868e-03,1.261260054600114693e-02,3.761968922914533942e-03,1.258959785984668511e-01,6.120232349530081717e-02,5.895209291354780445e-02,9.121053958146764506e-02
5.588915375810512773e-03,9.217976560498114535e-02,5.430942537238640788e-02,2.637651443139894802e-02,1.276943168778002166e-02,6.456249872412769472e-03,1.196460324444495182e-01,1.839579563365442705e-02,4.633962128736458103e-02,9.584224710693696470e-02
6.769268931871571388e-03,7.277881834298725872e-02,5.789173550992240957e-02,4.310645146668061478e-02,1.382711815434487131e-02,8.392453376846457924e-03,1.464144960398533757e-01,1.912819952063478379e-02,1.006386429136822344e-02,8.598156380659377485e-02
3.225720201405148091e-02,5.056381849423121494e-02,4.124287275617161824e-02,4.715899152157769503e-02,1.436536629219094079e-02,1.012298981921188473e-02,1.753837919443304028e-01,4.762534191144236762e-02,4.405268880004477305e-02,5.623782985164794274e-02
4.036315336152920819e-02,3.164123631210807863e-02,1.365826664220806327e-02,5.033064340336491915e-02,1.398331009052187178e-02,1.143972299436102000e-02,1.679716658015737163e-01,6.983652988465069433e-02,9.379387264996434659e-02,1.867641836979924350e-02
3.299342698279049413e-02,2.009625307411118042e-02,1.655453200220178070e-02,6.101065582183039238e-02,1.322356669832164787e-02,1.091102282625500304e-02,1.368229755103898271e-01,7.775577381722410808e-02,1.140759189342178265e-01,4.962635381131771939e-03
3.395049443323324562e-02,2.468618562687980439e-02,4.217863265802881262e-02,7.460078799029881691e-02,1.245877308576259258e-02,8.446630746257855968e-03,1.250141157882014020e-01,8.735715626263136635e-02,9.439424344287559998e-02,7.581363351241233832e-03
4.815499589062457314e-02,4.638411408703849159e-02,5.277370515964104059e-02,7.927264106081204076e-02,1.193638167083936434e-02,6.514663788787887835e-03,1.509151951767586375e-01,1.014510163124752035e-01,4.488426272266257677e-02,2.237160909440020010e-04
5.400730836948391261e-02,6.729881794296090070e-02,4.267142365531068765e-02,6.958920012310113035e-02,1.243279507069867604e-02,6.763126898154891119e-03,1.937862159240558713e-01,1.003626930439394799e-01,1.113446595285477042e-02,1.209288343171267127e-02
3.981141878591207273e-02,6.604802277497520691e-02,2.103753387966386668e-02,5.174230180603044127e-02,1.467173248573810408e-02,7.876081585042070399e-03,2.177181251737840828e-01,7.450605577914042044e-02,4.558874723212354846e-02,3.563151367841507072e-02
2.389730049043913701e-02,4.123346011801507643e-02,4.271572524584633934e-03,3.682285365185750114e-02,1.814182280982998968e-02,8.600088475615769515e-03,2.002276929661998273e-01,4.258562927014120786e-02,3.401330942081845499e-02,7.138335068802162398e-02
2.688636266438957506e-02,8.934088504330955222e-03,6.174213595389122563e-04,3.307711914182936974e-02,2.118600202721146117e-02,9.798150882950620866e-03,1.551151054522172668e-01,2.712956655716568244e-02,2.450744501246782808e-02,9.662735719509521481e-02
4.440799929102431931e-02,1.873991771651064772e-02,9.018357569194890289e-03,4.010404993418683478e-02,2.203568244771779427e-02,1.196963982405703335e-02,1.281626013900577510e-01,3.122441333938193869e-02,9.623612927996418043e-02,9.060628200881694350e-02
6.084944085881659886e-02,4.082017483833472876e-02,2.728693598399630285e-02,4.567186529556184482e-02,1.953241301527278845e-02,1.383588868886971752e-02,1.461268603954735124e-01,4.822373639697901532e-02,1.426100214530394983e-01,6.752864067215896826e-02
7.277311935892219474e-02,5.742459185235836150e-02,5.163205401138872691e-02,3.737699268845892653e-02,1.398745577813361070e-02,1.442076118041420163e-02,1.755789677772562063e-01,7.708979816930551510e-02,1.597368652594042260e-01,5.977475291490562392e-02
8.321528033861737284e-02,6.616946233732309834e-02,7.164153151524296770e-02,2.208791060197548214e-02,7.904053989655549645e-03,1.381219377471132499e-02,1.609015123565427918e-01,1.152239336164099792e-01,1.676241211185187374e-01,7.408814789319308203e-02
8.441469971016882234e-02,6.818404127528172876e-02,7.599906117433186115e-02,1.990728988851860407e-02,4.367348999161981514e-03,1.163654749195876595e-02,9.272017056728873441e-02,1.446051296747686010e-01,1.683150846973662795e-01,8.821671037519160374e-02
6.348372857231661393e-02,6.817694379243384450e-02,6.284117137812446352e-02,3.400767735993859286e-02,4.223412236832661294e-03,7.902453274557677196e-03,1.154305927377849081e-02,1.413417110462752146e-01,1.431224992170753163e-01,8.380877682048695765e-02
2.236411687730291767e-02,7.050763943133471490e-02,3.716691611091390429e-02,4.448380131006716282e-02,5.974814036903542021e-03,5.249696742512200906e-03,4.295918502301224184e-02,1.020436712203142277e-01,8.432038663100942244e-02,6.078991882715072820e-02
2.134970393913956932e-02,7.935034792488576683e-02,2.186971971779894629e-03,3.934755903462561211e-02,7.506727087120074540e-03,6.087702959395548639e-03,6.473135163878046550e-02,4.872903928957154213e-02,9.332927898472284829e-04,2.567389047424832593e-02
5.253441595438994305e-02,9.292387520271687407e-02,3.530807360894083757e-02,3.187805814923917042e-02,6.780483600212985559e-03,7.494291570436486388e-03,7.420081497656688674e-02,5.940432987268857642e-03,9.411188792806851611e-02,1.537760101408428351e-02
6.585466525325461840e-02,9.523981091974000057e-02,5.662559075285911875e-02,3.686352145159225296e-02,3.156576281270557973e-03,4.462055477849909309e-03,9.048508039732729158e-02,1.381655890966937417e-02,1.728961162950796715e-01,5.226377640958615456e-02
5.974466047170180760e-02,7.087573468078275929e-02,4.503381059592032748e-02,4.867604674683176369e-02,1.465285803764162630e-03,2.195223719287343715e-03,1.125553109353563952e-01,8.976214470179473201e-03,1.913373313788366559e-01,7.301339855502389509e-02
4.068511506012813250e-02,2.869903188493152027e-02,6.387337472303627507e-03,5.496342143676356123e-02,5.945286564063818370e-03,7.749101268795943395e-03,1.340790935888003521e-01,2.066211221769385931e-03,1.369149640191081596e-01,7.707563852047145947e-02
2.964437008267316320e-02,1.056636238516743889e-02,3.662915496686739575e-02,5.426018950831783261e-02,1.270424365311005263e-02,1.166590060509895520e-02,1.642702761771492881e-01,2.001823451663977196e-02,5.753204134688795490e-02,7.953762053073978877e-02
4.275921149960760365e-02,4.512849584155199933e-02,6.700815377285637697e-02,4.797999744076951456e-02,2.292598032881988657e-02,1.647672182828130091e-02,2.085657206294764809e-01,9.387296610060638646e-02,1.024203180104947715e-02,9.162365114609290206e-02
6.721501415326661122e-02,8.357496797348748507e-02,7.996060320898772111e-02,3.247100472620926409e-02,3.213323813467610507e-02,2.128770624387527760e-02,2.387136472265476983e-01,1.820980729396136366e-01,4.791900353252196570e-03,1.022320154870538511e-01
7.603697377494025855e-02,1.152203466972104851e-01,7.340641472952989799e-02,1.108217664873453398e-02,3.526989380954196479e-02,2.323940352191653652e-02,2.128924753565824002e-01,2.308127775148610117e-01,2.290239307710109987e-02,9.166586738254324518e-02
6.314897576968445114e-02,1.191830345972143546e-01,4.684481661188923118e-02,1.500938991046775299e-03,3.281044722138781733e-02,2.205525597456919201e-02,1.274455830082681651e-01,2.322038997986961284e-01,5.696703548412825752e-02,5.872467933211295010e-02
4.478292059172810091e-02,9.368853698578918920e-02,1.162361410148661338e-02,2.235844233499121800e-03,2.821219505442476225e-02,1.802035258987365676e-02,2.882054474456208215e-02,2.130323335184317879e-01,9.735993054381802958e-02,2.133730925625262204e-02
2.978267702356925117e-02,5.255435195433394435e-02,1.122299742837750552e-02,1.046930462920539831e-02,2.317138551725956078e-02,9.938909924928509762e-03,3.445579332622583646e-02,1.798224255649806813e-01,1.153476699120202648e-01,2.911659893603809040e-03
9.280572471587537203e-03,8.457663626606930218e-03,1.315495553170925591e-02,4.458395298930838829e-03,1.878563586421648848e-02,4.438839822782709348e-04,5.969021016369131100e-02,1.202117767711087942e-01,9.312356877129504551e-02,5.653117000895191945e-03
1.776739350622726782e-02,2.077909504093900656e-02,9.800722080900301642e-03,2.333388543791688891e-02,1.768461136658171923e-02,6.968454657271288405e-03,7.758298657585310787e-02,4.989842424941853816e-02,4.930936670843251435e-02,1.097279086376574259e-02
2.628577466872576013e-02,1.369946839802327343e-02,1.972393610464330538e-02,6.486431698390422718e-02,2.081589955637166978e-02,6.685044496133447055e-03,1.036069454550712227e-01,1.263770376853161521e-02,1.185521223466725650e-02,3.061367358055067447e-02
7.444741338789778728e-03,2.623162149141445437e-02,3.931796669700303448e-02,1.048882427464849776e-01,2.439908335801039066e-02,4.328612532131480284e-03,1.179700524596739991e-01,2.575632710393861019e-02,1.705843732113308808e-02,3.371904963322898408e-02
6.677677489064536009e-02,6.648952698993981780e-02,5.090515029653879669e-02,1.313597176786881759e-01,2.405802816902080990e-02,4.753613948712568857e-03,8.733618912715887528e-02,5.704722083802214738e-02,5.334749217969621954e-02,1.928679407268615517e-02
1.071934529997413260e-01,8.217817811633024161e-02,4.761943843910461382e-02,1.399624066777465647e-01,2.045045095664890442e-02,5.992840047670550813e-03,1.641854898553500586e-03,6.631364737059869396e-02,1.025659949233475171e-01,2.395799998588212226e-03
1.072130205968075262e-01,7.549275274397257429e-02,3.601573629308457702e-02,1.342272488429097355e-01,1.722732039839016197e-02,4.614029144700780398e-03,1.025819826671298673e-01,4.924590140519810588e-02,1.550845431430315502e-01,8.097823756058230432e-03
8.533990518268069758e-02,5.903523053659719827e-02,2.047290657890633511e-02,1.248667769674967482e-01,1.490566718854919974e-02,2.739078455240931582e-03,1.670812460424736523e-01,3.187741781607127817e-02,2.019845053903206455e-01,1.305377920224314557e-02
6.750215561165349987e-02,4.236856526597416323e-02,3.435252020081653104e-05,1.242911407852797107e-01,1.073804951772167234e-02,4.394729462742638475e-03,1.755557111471600096e-01,3.385165104992838431e-02,2.417264399902138983e-01,1.097115674325448327e-02
6.081576088310752110e-02,3.050178125058698730e-02,2.207653741551624665e-02,1.359554669606324595e-01,4.003262885530934657e-03,8.878386111481556889e-03,1.686361176340485657e-01,4.645334132752398926e-02,2.754629895068251844e-01,1.556040815006594184e-03
6.236287659416017010e-02,1.958954250646331718e-02,3.684771768472960146e-02,1.507068351645445003e-01,2.683691169743913571e-03,1.255160663770239424e-02,1.747113749230114477e-01,5.051704620923794242e-02,3.026306634024000797e-01,3.546612843383281383e-03
6.942993804220806697e-02,7.378600610972270088e-04,4.011129658913836771e-02,1.556434322819086613e-01,7.696119438883885361e-03,1.457451805593016313e-02,1.652177013914098158e-01,4.849370679874887707e-02,3.140033711951374373e-01,1.037138196200865746e-02
7.190573956655484100e-02,2.558846824765639502e-02,3.546207743113651001e-02,1.438016152703881778e-01,1.220137439420000865e-02,1.666265032155473530e-02,1.126151031178778683e-01,5.772936040723672391e-02,2.913619896185135616e-01,4.462342281668403576e-02
5.702399210889288333e-02,4.996028996251075660e-02,2.566083917220919608e-02,1.154500265643024770e-01,1.680863516536207705e-02,1.831065623198374973e-02,5.093800972796436177e-02,7.293119425026226010e-02,2.268989526663544865e-01,8.924060504897253499e-02
2.999055101037926066e-02,7.039084889414332080e-02,6.131302952762223216e-03,7.498317810766619296e-02,2.002316905796575064e-02,1.631067844038758610e-02,3.595827228718657259e-02,6.426632686700918529e-02,1.367909950877236880e-01,1.349905273526499916e-01
7.020111801564137000e-03,9.238225904077675132e-02,2.809038891035515323e-02,2.860064003914287306e-02,2.132871381118762663e-02,1.004743499359364751e-02,7.508332955087136662e-02,1.970534918509721234e-02,4.404059272532771796e-02,1.729423873669687362e-01
1.049100950970903272e-02,1.090150431399422720e-01,7.030594959030653235e-02,1.672211377190997023e-02,2.271113172616050918e-02,3.843502666659252050e-03,1.320643460235027822e-01,3.255062528811650951e-02,4.093129170516732196e-02,1.873247798500476957e-01
2.467238522671484635e-02,9.949067995084401317e-02,1.038773822371147487e-01,5.389307622860141367e-02,2.506667025707458654e-02,1.367760079462823023e-03,1.775196343151000666e-01,5.451866367099116734e-02,1.136357486884553569e-01,1.618748490241307680e-01
1.788377867912081115e-02,5.690645507024739980e-02,1.197539028775488346e-01,7.776510677644628278e-02,2.509699674572336836e-02,6.057017329983830668e-04,2.034560960123783513e-01,4.390551214121191093e-02,1.672295601888271199e-01,9.706456666984331072e-02
1.935733011725298755e-02,3.521350268779369769e-03,1.242945891754470567e-01,8.751735765959030300e-02,1.880548626278571653e-02,2.237787407131737807e-03,2.030359890021411762e-01,3.554611302406918139e-02,2.033009389044748705e-01,1.657674286234370187e-02
5.645845057038753612e-02,3.145705975573249991e-02,1.210763073366449283e-01,8.484003254463598487e-02,7.684251736758223456e-03,6.709619313479522722e-03,1.654849566049678977e-01,5.007622612530440720e-02,2.328412971149816380e-01,4.565283767605733678e-02
5.909696183162249650e-02,4.047316811004143811e-02,9.671799655728639811e-02,7.045972863306773637e-02,1.920721712566173618e-03,9.295906957373450963e-03,8.879247759718865429e-02,6.168356868311326152e-02,2.528029059306821091e-01,6.629316829259736255e-02
3.691310584919385573e-02,3.654825864260440732e-02,4.307978164123045517e-02,4.704639416692739384e-02,6.095532587240690831e-03,7.831238216128324353e-03,1.829653911381032977e-02,4.107209021210359717e-02,2.421067381125511508e-01,4.541395485783731450e-02
2.336153208809113938e-02,3.002202085625663153e-02,1.624252842393545879e-02,2.425548175423542299e-02,6.702266440661516951e-03,2.847664180054684455e-03,1.383304081410159370e-01,7.655091585856957717e-03,1.975387817601028106e-01,2.122078052765213538e-03
2.786570827238905868e-02,1.652234205907170822e-02,4.487348190794562819e-02,1.366247375897443675e-02,6.771455210813050185e-03,2.398470970944552392e-03,2.366442261931291369e-01,3.281002413772679191e-03,1.516658687308082010e-01,4.059936922706712525e-02
3.129972920207112902e-02,1.004256631384469606e-02,3.397780149084052986e-02,1.781858797486493215e-02,6.122496240609183460e-03,3.224878185002723243e-03,2.724104308602742774e-01,3.256862929492097825e-02,1.360078014169562310e-01,6.380436881489631729e-02
1.794966623314134258e-02,4.005265259679095802e-02,5.806156799750324810e-03,2.927310252015222908e-02,3.526260467254107179e-03,1.853245094782258323e-03,2.421327062977495226e-01,6.398050566360112545e-02,1.446632115153662079e-01,5.129183434853736706e-02
2.505482304566349853e-03,5.267679239167139676e-02,1.494950682094108203e-02,3.935072988777308517e-02,6.564717502299313983e-04,8.859920682937111672e-03,1.943392527956465110e-01,7.214731293772538856e-02,1.475674297532669765e-01,1.448939922614529262e-03
7.180910139212720762e-03,3.930242373246604914e-02,1.835696093612862456e-02,4.283891655231311657e-02,7.977620414093396445e-04,1.322720245669239091e-02,1.776343273384839994e-01,5.122235131951771020e-02,1.229007250949077784e-01,7.119842785196490997e-02
1.045937982161339666e-02,1.360525710567675635e-02,5.557465750752735301e-03,3.647392912682673877e-02,4.473078362990194450e-03,1.484649021286794414e-02,1.853926593664183831e-01,7.756432491576963767e-03,7.019264396176970455e-02,1.198505457434027172e-01
3.578994822995530678e-02,8.468758669397110500e-03,1.971061457626734764e-02,2.034874388455632649e-02,8.985678409940326891e-03,1.592127661371973285e-02,1.700089467035014457e-01,4.066471396490776991e-02,7.311784252859318545e-03,1.354718567861794010e-01
5.767541785392610310e-02,2.733596034070218811e-02,5.469597795786277500e-02,1.549950596009810975e-03,1.167462895779245932e-02,1.585662649624934237e-02,1.097960033677565506e-01,8.098918493044696132e-02,4.155991567564568112e-02,1.418637620771980301e-01
7.564307532080180585e-02,4.621587592282551393e-02,9.266773414167439604e-02,9.254867258288492979e-03,1.139252372823390536e-02,1.136387680828999762e-02,4.363586377838971769e-02,1.185972040059900950e-01,6.346013485810696186e-02,1.552380826365687971e-01
7.999136898578196320e-02,5.353879753415066722e-02,1.179017970020311556e-01,6.886206275672615562e-03,7.671527692921195282e-03,1.588672215017859811e-03,2.326737154518552717e-02,1.521923847778090255e-01,6.271353182066191634e-02,1.543244017109466903e-01
5.373809844235437339e-02,3.759839379689508543e-02,1.155580140073317053e-01,4.789026430640428746e-03,8.949906641738131913e-04,9.421498181662161381e-03,4.791022018980171243e-02,1.547583106214738546e-01,5.014012292794169795e-02,1.122029197073394630e-01
3.152373650388857335e-04,6.997181035493646103e-03,8.687618705089288074e-02,1.855598725471802740e-02,6.716355807488514663e-03,1.694840240279847643e-02,7.712267515123719108e-02,1.072467275688662042e-01,3.116601675968801166e-02,4.023883979751612799e-02
5.664868732519842687e-02,2.203054713261376474e-02,4.696173351464788537e-02,3.173200521497111098e-02,1.216257637824978699e-02,2.055526930418747483e-02,9.119003311214390894e-02,2.826112785816723219e-02,2.361546103202405780e-03,2.035036637247434818e-02
1.021920826094967621e-01,4.864217201224428633e-02,1.039460444745870030e-02,4.697397235148084715e-02,1.438630009806710769e-02,2.207265422938500463e-02,9.346626970611188190e-02,4.789175640279183521e-02,4.083947076231204953e-02,4.298257377882459818e-02
1.334346908605924253e-01,7.877726683798647045e-02,1.536855003505430833e-02,6.344551823044866645e-02,1.465061718938352742e-02,2.001311125287332654e-02,6.283785329010517506e-02,9.867120636548627755e-02,8.715945137233076234e-02,3.592712706121901911e-02
1.383269449056860889e-01,9.971516206784150627e-02,2.939519583927549529e-02,7.032757983716268757e-02,1.370954986160479762e-02,1.074667867492275913e-02,3.705474096887833441e-02,1.107477118861899812e-01,1.095863774452233014e-01,2.064719110545733260e-02
1.008968261194548022e-01,8.494347184783657134e-02,3.581970689345025799e-02,5.765640775182389460e-02,1.071676938553069690e-02,4.242773118912380841e-03,1.856301817600085058e-01,7.718783426752912069e-02,9.803876463222124804e-02,6.063022000981183393e-03
3.136906775768509570e-02,2.842713290634087120e-02,3.640634840311726683e-02,3.279124817828416028e-02,5.862326851768393833e-03,1.711496198339770500e-02,2.944871096653917109e-01,1.169971123883133471e-02,7.555567292813489266e-02,8.193708240066644582e-03
3.107289517353717043e-02,4.205833465927216741e-02,2.422834423609401822e-02,1.368757561504127182e-02,1.472672048347677164e-03,2.117676168034231948e-02,2.989330997210326579e-01,4.817401082352738839e-02,5.650557382977700049e-02,1.685306015118372830e-02
5.375087005236232202e-02,9.076965103247684741e-02,5.124525195148079554e-03,5.154953135492103961e-03,5.605524707888837575e-04,1.642076646625480196e-02,2.211008402868998024e-01,6.604902414693464285e-02,1.307934743450922879e-02,1.423645899389957073e-02
3.839383153610935462e-02,1.010456102575145176e-01,3.836318220160341019e-02,3.328224894047329512e-03,1.776467813336206868e-04,7.695667119084216232e-03,1.175927942335742160e-01,3.386365073635990569e-02,7.677653801528758204e-02,6.346249906174127910e-03
8.284457572197886574e-03,7.793894362788617025e-02,5.301612251109792673e-02,1.535175398805545266e-02,1.995982687444855259e-03,2.350838262847578723e-04,1.102056544701956499e-02,2.863798076327840614e-02,1.724162176372827648e-01,9.909448590514260274e-05
2.326567264113686348e-02,3.946493556436440897e-02,3.946705064905055294e-02,2.047374850499540655e-02,4.896149136586444225e-03,3.638637279603307642e-03,9.196969777028148052e-02,9.543741220297338734e-02,2.092107229975269655e-01,1.256906962591026501e-02
5.906992625515853496e-02,3.422199837254272323e-03,6.014125804812748936e-03,1.240136973722377224e-02,6.780128998934611094e-03,4.997026721253023350e-03,1.584856957627086282e-01,1.515949939155961101e-01,1.766240960243401215e-01,3.852503966446071265e-02
9.586147162490862850e-02,2.884930643437355960e-02,3.250975972013617904e-02,1.526174234823522539e-03,6.710409844254224335e-03,5.298831833028510262e-03,1.583414759455739063e-01,1.939936372869900949e-01,1.166850951960725774e-01,6.560291979510662896e-02
1.141396208392852774e-01,6.600524731740320394e-02,6.304617179851698672e-02,1.309852472225808348e-02,5.582083422714071048e-03,4.383182289459602345e-03,1.195022252011848779e-01,2.163318043697059490e-01,6.229115933316294040e-02,7.266213854274933270e-02
9.771483093596929070e-02,9.396777737016756560e-02,7.809330564843137978e-02,2.259600001226769878e-02,4.675438467272741844e-03,2.658107955968862061e-03,1.060587654553220155e-01,1.968088513217113866e-01,1.547263758181265970e-02,5.167756083971887515e-02
5.381029507942067247e-02,7.503658024381237857e-02,8.053030385138466862e-02,3.094211520414780550e-02,4.170349163415930371e-03,2.095626460038776343e-03,1.354652797187066438e-01,1.188801165771415230e-01,2.349682099586977366e-02,9.215371091646377966e-03
1.004457925360290743e-02,2.156596768575115217e-03,8.019257347531720537e-02,3.300037514472603517e-02,3.626716633020968424e-03,3.058566635527013803e-03,1.547788389130626829e-01,1.032957215628111519e-02,4.166240728254901743e-02,3.972493951746878388e-02
2.961312184906525653e-03,7.428416193661226130e-02,7.835600805307633976e-02,2.475727589058636727e-02,2.944349548698934130e-03,3.307119564581499898e-03,1.162491912838134189e-01,6.482033424293472124e-02,3.392283402539664899e-02,7.212637470077609692e-02
2.879493165568035307e-02,1.015619792187232445e-01,6.097172033532187452e-02,1.030241591483315247e-02,2.346324721294370044e-03,1.883728559802616900e-03,4.636572879939796638e-02,6.941858127190832228e-02,1.528588468776659673e-02,6.854592959542474273e-02
8.646818573364407901e-02,7.982809999287673874e-02,1.543378428362737753e-02,3.647464551283966395e-03,1.934341277635291071e-03,1.142419671528754899e-03,1.079701943169819774e-02,2.852642584225056899e-02,2.024361602655676794e-03,3.459376646203549122e-02
1.240972466069778235e-01,4.113498702548525066e-02,4.851786272480308748e-02,1.461957517114017072e-02,1.571151270206654592e-03,3.003125936190170677e-03,3.099530156040608553e-02,9.672134833160294862e-03,5.027241653716391784e-03,1.781897085355304156e-03
1.096949188762327138e-01,5.249037279298327321e-03,1.006263694052933894e-01,2.197389217310977833e-02,1.108066577950639385e-03,5.058545015038462024e-03,6.959774190116331527e-02,3.045414530991932475e-02,9.668773246858063802e-03,2.190142939395205504e-02
6.229664045856824622e-02,2.278934697042533583e-02,1.142572812356151130e-01,2.388429974155168584e-02,6.898573836067852178e-04,2.956300860734211583e-03,8.752369469553610004e-02,5.502288238987327468e-02,7.956166308512223340e-03,3.087496340631433814e-02
2.772942369211607236e-02,3.857704380219117296e-02,8.814760722000662685e-02,2.053385825533984854e-02,6.205964450009772079e-04,3.705077295006334662e-03,8.178730540265348459e-02,9.348470920118016891e-02,2.394508025496764475e-03,3.309563099418972448e-02
2.161139895282947893e-02,3.977572139861262207e-02,4.268541570334608015e-02,1.529486589174777408e-02,6.492390133904903451e-04,1.055001693511270315e-02,6.775657824335556967e-02,1.192849359623098654e-01,1.290576477266374214e-02,1.569273244022780650e-02
2.495102279453585009e-02,2.752565027229514349e-02,3.784211448815178597e-03,1.043678928221348015e-02,1.738140049195545096e-04,1.388435890880740722e-02,5.242330390458463385e-02,1.065605438295389451e-01,1.502484827114706871e-02,2.546770805832957590e-02
2.776463174154514268e-02,4.418260790815915599e-03,4.636914727884058202e-02,5.733842545248177616e-03,2.296295957448994066e-03,1.419212831217515902e-02,3.405549261173682757e-02,7.103687041288815618e-02,1.010900806128801205e-02,6.486560184342546331e-02
4.014281373110552276e-02,1.906699560971925403e-02,7.862231911475482671e-02,2.006442923617352946e-03,4.847542036525340735e-03,1.359093027692650883e-02,1.103028009491386838e-02,4.305411149427943590e-02,1.533380309532940498e-03,7.650639313278578824e-02
6.335914623194277562e-02,2.668521211381812488e-02,8.155252104594114260e-02,2.079346006014611697e-03,6.805373010908158903e-03,1.272688119211579615e-02,1.968759658030251949e-02,1.746022345550705263e-02,1.327528367773006882e-02,6.730499657611381525e-02
7.958379996209997975e-02,1.447778167171371276e-02,4.451469624176823681e-02,7.187007230842386470e-03,8.210376908313183481e-03,1.124558060586584689e-02,6.267118193571097340e-02,3.256728607585700208e-02,3.520684893687486827e-02,5.994307920400400447e-02
7.111609187953535360e-02,7.271119010538899113e-03,9.308392825851122265e-03,1.447592778957996693e-02,9.279146529381025396e-03,9.093927976306794003e-03,1.126947245025330252e-01,1.014179326404080622e-01,5.480887584426336750e-02,5.845003748849444264e-02
3.852747328755135731e-02,3.263422798809735570e-02,3.713714224898698874e-02,1.872433481624118448e-02,9.301738024867590993e-03,6.397703409337531996e-03,1.527177712152936462e-01,1.454531865671952195e-01,5.900313978642149348e-02,5.092960161642652583e-02
1.176234200134080709e-03,6.019268695469575520e-02,1.879397607951661942e-02,1.643301743370185336e-02,7.553720202765905507e-03,3.628981560243266583e-03,1.753516145663136516e-01,1.350879163230695734e-01,4.454426005966487939e-02,3.371162387085331613e-02
2.199146080976134912e-02,7.471923893099433056e-02,2.493741262473088416e-02,8.904024790761164848e-03,4.560396060555345875e-03,2.131782326913981163e-03,1.926405653422438025e-01,9.288232317510332348e-02,2.083047940582002933e-02,1.432597269950371816e-02
3.064143625599346360e-02,5.490343743110998737e-02,5.762993752017209204e-02,9.534858404030350414e-04,1.669604473582859223e-03,2.647642046691562039e-03,2.064522897133000412e-01,6.806937363693625620e-02,2.511269586664053276e-04,2.405773660176983332e-03
3.294213075548031028e-02,4.840460205497545618e-03,6.732024322605641153e-02,4.492145989704866144e-03,1.338545950706823825e-04,3.417158867375425825e-03,1.913072431529321271e-01,7.836875196262095555e-02,1.209706298075392296e-02,1.699213630726843088e-02
2.936539111393094217e-02,4.357709075713264019e-02,7.481355194096898920e-02,9.069989982955359992e-03,7.451285525619107900e-04,1.921970720619500979e-03,1.355538442063556615e-01,9.504595332022340581e-02,1.894187715291345553e-02,2.811763554016797825e-02
2.135655950565326644e-02,6.564761226405178840e-02,9.015660077973142172e-02,1.398982820094559973e-02,7.154596627358465570e-04,1.572029746386036271e-03,7.474698689428831144e-02,8.940371841493834071e-02,2.204072756167850880e-02,3.381412655569396297e-02
1.604996734851805301e-02,6.467743962480990150e-02,7.293951610226992455e-02,1.508272963257448196e-02,6.421648672672430197e-04,4.194422198501312343e-03,4.975544107367218388e-02,6.668085903639760226e-02,1.608796803043046827e-02,3.669230017464247123e-02
1.105220395081404731e-02,5.320206040326970476e-02,2.385400878116904211e-02,7.947083609629557524e-03,6.946904408595071896e-04,4.105163257464817909e-03,5.385776394367661202e-02,3.939818487139529202e-02,3.963451592853457078e-03,3.971288266098512570e-02
1.045538428751463305e-03,3.137567220040546334e-02,1.710690730318651653e-01,3.560696591856478670e-03,7.324879437956572769e-04,2.371687826085469488e-03,5.107495491812286820e-02,2.148603156162985986e-04,3.067597289397228782e-02,4.080190937504959980e-02
9.786732888050128903e-04,1.287999780545455268e-03,2.777460401940594070e-01,1.021208886749633803e-02,6.801350711527816978e-04,1.066088945956801363e-03,2.762456865104790868e-02,4.996447865113676223e-02,4.687469692468999166e-02,3.712140491917383794e-02
2.926819641085852408e-02,2.489800092855849051e-02,2.966500548107445789e-01,8.663900397695333683e-03,5.946079370635683767e-04,9.273013259727619709e-04,2.155899353580677941e-03,7.519058289797744821e-02,4.369499187880952068e-02,2.836971726828124707e-02
7.080158232895139570e-02,1.507510416682555227e-02,2.633708372201566394e-01,4.258293475388364759e-03,5.105677750477826456e-04,1.875026632835764817e-03,5.002054453733487116e-03,4.494418134977171131e-02,2.975549473287040364e-02,1.429543503864122260e-02
9.126323359858262707e-02,2.153671820983361906e-02,2.250905420353064290e-01,2.314324509849570964e-03,4.027325167671303276e-04,4.192463699678398992e-03,2.134761855164143268e-03,1.596761224132114618e-02,1.825941677333916754e-02,1.770932342003733945e-03
8.614540670807258049e-02,5.225261795783151669e-02,1.855584562492276213e-01,2.022267033457851842e-03,2.566556346268155102e-04,6.918336222555774781e-03,4.030486913356908993e-03,5.600145945010800985e-02,1.136077588637200535e-02,8.803862819147452098e-03
8.035328122356495684e-02,5.854973764578898926e-02,1.330156430000201950e-01,3.974346130717243582e-04,8.726451112742454781e-05,6.864010468222052526e-03,7.530675012894800374e-03,5.953888220010370574e-02,3.591390387033827590e-03,1.118492625242828008e-03
7.644836773771318539e-02,4.841220151123610399e-02,7.622215926513732642e-02,2.445045957389727249e-03,9.409846171964356305e-05,2.700078319695187277e-03,2.697960220163107131e-02,4.614309956100390298e-02,5.728505911971144490e-03,2.062260753841309302e-02
4.661385625249568621e-02,3.072989434021617880e-02,3.075373820150354223e-02,4.759814675430323015e-03,2.888932914303076480e-04,1.560280776306714051e-03,4.940203454777493397e-02,2.805793011186660108e-02,1.309101972746725025e-02,3.551220487355963296e-02
7.552224874934245456e-03,2.856475356567105407e-04,6.088747353867739187e-03,6.860905321442655955e-03,4.962159449109043415e-04,1.012962080561607579e-03,6.461423835345264655e-02,3.394842872899503025e-03,1.978969813850877182e-02,4.137672468290044120e-02
3.717855688865661506e-02,4.835905323800587796e-02,4.696329300042811905e-02,1.020022991211200214e-02,7.084665237561798548e-04,3.621337446651422525e-03,5.468376557028253870e-02,2.589520764417536577e-02,3.026241302588056001e-02,4.319494333800649732e-02
1.657032096087576734e-02,9.163976621181743609e-02,8.856055831676916401e-02,1.383652588068426045e-02,9.185930806585822358e-04,7.777703893020401077e-03,2.194261819328871543e-02,5.364253426083986920e-02,4.253544015224248326e-02,4.353847768630336040e-02
1.965040908788636548e-02,9.187748338651123559e-02,1.094135892709809099e-01,1.428166142027990915e-02,1.122417685186192409e-03,9.926172860410325052e-03,2.130877768054301354e-03,7.243438005798501222e-02,4.822583388984907210e-02,4.067148050263429127e-02
3.834667806140500818e-02,3.999571153036311777e-02,9.839525324299104592e-02,9.487768904170653869e-03,1.315465970085313331e-03,1.214319468240243616e-02,9.895351316166107331e-03,7.106857121531655330e-02,4.345858103362337799e-02,3.565536669324162466e-02
5.076447550863481123e-02,2.209669782700748181e-02,7.428416881989799436e-02,1.920559567000601270e-03,1.492025359068992760e-03,1.412065277792410277e-02,5.890261821041893608e-02,4.818362780932139433e-02,3.539960374267617227e-02,3.247647575890994648e-02
6.693757043241177485e-02,4.801073682187693981e-02,6.540359978006586583e-02,3.549842946203387445e-03,1.646846372702973722e-03,1.170076575022960946e-02,1.212102676179427629e-01,2.298771017933950306e-02,3.472961182960265097e-02,3.081420716723308473e-02
6.588540764040548559e-02,3.959119264512595687e-02,7.800673556056095248e-02,4.668708193206900711e-03,1.775840386761299303e-03,3.216202114950104593e-03,1.538964297590844632e-01,1.259586892929886320e-02,4.256732729511722435e-02,2.615885946216249883e-02
4.166208086361951335e-02,2.727600104546583706e-02,9.773595226347460418e-02,3.408641448923382857e-03,1.875414217638919200e-03,6.839462419477721801e-03,1.262398290548317481e-01,1.069646455651902459e-02,4.949779448773689028e-02,1.907114127843864346e-02
3.085721792331365398e-02,1.798563142375873489e-02,1.139789679849089188e-01,2.279153091903100489e-03,1.942200114596979955e-03,1.299591757763246015e-02,6.197607201625270068e-02,3.677090151239981522e-03,4.935624409736372176e-02,1.662733111624718763e-02
6.158763219870359157e-02,3.524704895885907591e-03,1.287605014574684792e-01,8.187175804090140920e-04,1.973617145924044108e-03,1.433877491887671461e-02,1.298592135811828772e-02,7.674034867005555607e-03,4.801021906861181743e-02,2.125153432887435731e-02
1.041534822295992896e-01,3.402992733911926887e-02,1.471721096658509254e-01,2.598180876530687723e-03,1.968321388651728728e-03,1.277858018285778392e-02,1.200399282894393585e-02,1.019663523776326471e-02,5.338422688155401025e-02,2.608632108754166054e-02
1.033178938322409646e-01,4.822282779744115760e-02,1.692700082651264482e-01,6.932408623227442022e-03,1.925789606474815263e-03,9.327336015276292691e-03,4.441867201238171997e-02,1.046784768526418455e-02,6.159154153457602199e-02,2.534585464798638083e-02
5.069800694453430873e-02,3.688485017398460131e-02,1.861787693742854022e-01,9.332224251143651089e-03,1.845711390451233074e-03,4.546429527036990707e-03,8.647394197152558082e-02,5.289450241979391787e-02,6.083264204989090318e-02,2.161517595421460006e-02
1.770227917431607765e-03,2.114537950179709580e-02,1.794098111978274235e-01,9.347581800779799013e-03,1.728703731241607033e-03,1.470500615795327292e-04,9.856742451969260910e-02,8.172903608148447685e-02,4.845846535022322460e-02,1.983605619882369483e-02
7.439127829323573596e-03,2.087705964774417070e-02,1.354063611277768198e-01,9.173935489882987723e-03,1.577557414656458740e-03,4.057140390045370013e-03,5.696962509976648964e-02,5.147176090139152921e-02,3.584527390827804694e-02,2.102822033709175753e-02
1.829854472194926418e-02,3.075067935717692991e-02,6.811929811979991478e-02,9.454142047600144760e-03,1.395821336504125560e-03,8.085131444130248812e-03,1.290758785125539938e-02,3.208163752722433676e-02,3.229412728656118337e-02,2.306226212273468010e-02
2.431621547587456411e-02,3.870064531639661604e-02,1.526606400466586078e-02,8.065689582294040261e-03,1.185044590748366138e-03,1.211507474088960139e-02,5.973928821199567252e-02,1.054528047376630390e-01,3.172051386695518005e-02,2.126970640711441096e-02
9.238358061121948114e-03,4.754527361844129718e-02,3.446790039583784090e-03,4.190762588094694256e-03,9.475028725091395052e-04,1.376307439935010000e-02,4.895609921211661886e-02,1.236522112738315526e-01,2.366456504763467944e-02,9.818983544792825313e-03
5.218449973128575642e-02,6.073266174652090788e-02,2.449743283355228923e-02,7.101656759300523959e-04,6.919068404512423998e-04,1.211630852323838416e-02,5.369575239891401577e-03,1.066755873281944877e-01,1.184225987744625709e-02,1.082659254683355880e-02
6.541840617403567315e-02,6.146491666359659573e-02,4.963892038302319260e-02,8.756125815613408645e-04,4.274706147670977413e-04,1.045252765344589080e-02,5.166622603768371291e-02,9.037628524173320355e-02,1.012575181710509073e-02,3.034384073387888861e-02
4.003692739974197556e-02,2.861175578233772845e-02,5.838988035927982628e-02,4.311649510224904724e-03,1.512477192588317716e-04,1.208996015714773262e-02,5.875079324775020484e-02,7.666340340523104813e-02,2.130159281749308131e-02,3.837924583246732357e-02
6.617091986454133948e-03,2.971550312357422799e-02,4.943486316686802884e-02,7.036494873591338066e-03,1.399108755716821947e-04,1.516771490143954682e-02,4.458129085502092470e-02,5.979805488591542068e-02,3.170037091494522230e-02,3.548390827401178005e-02
5.456550654594998634e-02,7.666422138949115228e-02,3.066694259171897155e-02,4.772364245722621363e-03,4.224001218142013798e-04,1.492533571917775172e-02,3.224300565497700832e-02,5.561441598828729266e-02,3.076444986622389743e-02,2.968976762034494093e-02
8.729425362857509696e-02,8.315280019156758018e-02,8.964449789551510311e-03,2.768093475143320638e-03,6.711053164185389053e-04,1.029288566118699393e-02,1.434817906899060053e-02,6.985569118970789970e-02,2.487887417529561704e-02,2.471635824827712186e-02
8.882343318923523190e-02,5.287601517086333580e-02,1.142684738477656170e-02,1.130110697148994058e-02,9.180572176080765328e-04,5.011716449341807079e-03,1.870986642093429991e-02,7.464619774635319893e-02,2.246920953813661206e-02,1.710520112125395176e-02
5.458286024473022607e-02,1.218567540162108706e-02,3.090443726676761135e-02,1.802275398477779997e-02,1.200473111194975831e-03,2.651124694844172146e-03,5.677830329625857542e-02,4.651572971824875780e-02,1.576510462292586914e-02,4.622650011338824694e-03
2.063892925362438482e-03,1.310272916864962424e-02,5.393759410581559777e-02,2.557561048011574092e-02,1.434410876314178452e-03,3.527718196799991233e-03,9.193659596115144605e-02,1.620119709183947404e-03,7.942006314679153980e-03,9.006540729525683298e-03
6.539149816291868478e-02,1.116066825685448072e-02,7.908423689177872251e-02,3.582168402398025475e-02,1.522672278573373008e-03,6.070784443188695888e-03,1.220555392403562395e-01,4.312893316057205689e-02,4.482182619787430933e-02,1.944193380378481453e-02
1.249585236043772307e-01,1.397197459753238800e-02,9.502166654027859038e-02,4.404669782203107786e-02,1.630566093608819874e-03,8.114279666397869462e-03,1.278133200791253532e-01,6.394271472326848449e-02,7.864896199356646855e-02,2.534711469600172198e-02
1.608760525842985734e-01,4.768555329322519271e-02,9.056701136690645249e-02,4.484035704737147215e-02,1.969773495725261371e-03,7.012256075887970085e-03,8.764539131470026889e-02,6.101542198461801930e-02,9.887801578783456113e-02,2.498298530361345304e-02
1.479337310276792328e-01,7.323842958099190115e-02,6.338903693468443679e-02,3.947352072362264597e-02,2.152272760241922146e-03,1.051674122864895179e-03,1.760887180427758367e-02,4.161391991225905918e-02,1.039384872572457902e-01,1.640302291918531441e-02
8.961774162411052791e-02,7.848670949044775358e-02,2.428704626694794255e-02,3.285311440979917647e-02,1.421290254966698328e-03,8.685060965112383763e-03,3.595553802302996899e-02,2.249811826803152504e-02,9.557868686794318558e-02,3.685274795643091010e-03
2.478365755355152467e-02,5.955752025360112195e-02,1.869245640735600709e-03,2.712133420606485310e-02,4.513985769591575100e-05,1.855410021255997702e-02,4.286190217304466227e-02,1.065791992830539443e-02,7.887154913772295717e-02,2.955955270007824386e-03
1.437946006136802714e-02,2.324293759309272248e-02,5.096224468289463523e-03,2.146649008886105867e-02,8.589064117743997265e-04,2.458570035693737402e-02,1.065313912987767182e-02,3.413208996170772648e-03,6.171561940389029555e-02,2.806426601847242502e-03
3.109251070270926259e-02,1.464062360111907136e-02,3.366636073583358091e-02,1.507926265738449186e-02,1.374270593238068505e-04,2.471873753343172692e-02,3.078200451893200670e-02,2.049075180256363857e-02,4.925320778838327557e-02,1.444436491834951569e-02
3.969789538037014898e-02,3.913469632176402868e-02,5.029867030837717468e-02,8.201208621899403264e-03,1.246802022106607540e-03,1.938537515486422891e-02,5.161361994607543274e-02,2.230949051822559565e-02,4.101650153311552777e-02,1.571871914976377682e-02
3.425776627555364440e-02,4.541982856124117396e-02,3.998126297735745543e-02,1.755476441050144928e-03,1.887560011372789795e-03,1.079420280967556892e-02,3.832295037859913961e-02,2.856681384217402489e-03,3.297749861877152799e-02,4.864266822406947133e-03
2.488728142736526538e-05,3.574875422894827764e-02,1.797282202637164386e-02,3.265734147760769937e-03,1.615076727928105174e-03,2.462893122451223493e-03,4.920817548604807488e-03,4.712625708411843223e-02,2.158924235476610692e-02,4.156694345803384899e-02
5.265798190279176449e-02,1.440463674330512596e-02,2.298134280118143379e-03,5.899604642174906266e-03,1.240188350227028726e-03,1.573719010332549385e-03,1.298609459924162865e-02,9.685454690420688961e-02,1.036786421566535804e-02,7.428279807066892615e-02
8.470313203007835690e-02,7.770618126745605300e-03,3.826170094765667801e-03,4.741790192507666993e-03,1.136082983907248057e-03,3.729221316924676184e-04,4.500371079197853542e-03,1.338404755930510670e-01,1.167111387450540071e-02,8.420874108291240279e-02
6.520518503606005656e-02,1.496243014125192734e-02,3.714692061995032712e-03,6.379169493681362789e-04,9.821100312535726608e-04,5.203818269422090352e-03,2.664586533847883992e-02,1.312573516676572571e-01,3.310376861798428050e-02,6.778160056241677722e-02
4.877319166364892968e-03,1.015689488690848597e-03,1.252294994332504505e-03,7.078032114675892640e-03,6.533581796462507169e-04,7.844178366117360648e-03,3.997405270603819616e-03,7.878095414874310143e-02,6.265000059396086396e-02,3.856338006993534351e-02
5.483530192667427500e-02,2.629664959646339784e-02,2.847168911576987253e-03,9.561905705916830950e-03,4.905379592687899269e-04,7.111778890695008223e-03,5.975893253770641483e-02,1.841663612111018016e-03,7.808640848033258919e-02,1.624686149159327783e-02
8.123915154769181801e-02,5.687436964434586933e-02,1.214756540180165004e-02,6.654635110840812981e-03,5.094502139721083112e-04,6.420120205674405105e-03,1.092579882964821864e-01,6.547491091648750816e-02,7.150014967935401644e-02,1.119471806893881580e-02
6.965903472209519776e-02,8.247511494284963385e-02,2.499322337325010288e-02,1.424053898206246570e-03,1.104691906192262435e-04,8.055680837121792850e-03,1.139162686988343526e-01,1.074171288317369022e-01,5.456898417325697914e-02,1.905386627254340021e-02
3.059396538420777745e-02,9.035423385491803128e-02,3.451357286351624393e-02,3.326823606473711982e-03,8.599148341409631503e-04,9.473910524891134347e-03,9.257839132397957527e-02,1.160143328366661092e-01,4.012910956906887150e-02,2.995801374843064246e-02
2.184486103941445101e-02,6.694172029242001498e-02,3.221204397522825502e-02,7.493774149494799273e-03,1.509301162203079312e-03,6.850109563432540266e-03,6.326559972386543163e-02,8.775817476275306339e-02,2.941345460260781641e-02,3.878158837397127634e-02
6.791964314937497249e-02,1.438196094591580147e-02,3.006988926330073780e-03,1.117609173117502588e-02,1.182764708548994861e-03,4.279041295379970296e-04,2.592498958874268206e-02,4.174391720545077289e-02,1.923897389482850939e-02,4.468407078809007171e-02
9.088887976049522810e-02,4.246090721687381664e-02,6.384595679117402445e-02,1.318874110731162695e-02,5.216020040857987814e-04,5.812011834786132321e-03,3.676890322396338725e-03,7.793171618027636659e-03,1.114155772680744221e-02,4.562170008294765683e-02
9.233093365529963792e-02,7.360517281300439640e-02,1.520467583144148316e-01,1.301829311340350209e-02,3.901214050975110380e-04,9.052608206668548776e-03,7.395409824124451331e-04,1.000981845103004336e-02,7.222511626777132834e-03,3.797572030732346976e-02
8.188232961557852241e-02,6.954343538362267596e-02,2.201588541621959383e-01,1.194041318294612568e-02,6.642447214929237060e-04,1.003288792553506774e-02,2.895703314336081635e-02,3.169044204222087879e-02,3.637431696238609298e-03,2.131883008748226491e-02
5.564205948038946498e-02,4.488637924041848776e-02,2.367522318209500931e-01,1.124423157830262837e-02,7.999499187176778827e-04,1.059114593556052634e-02,3.708485522368219073e-02,6.567685451459387425e-02,4.541547283112960971e-03,1.630571402289102568e-03
6.458474249666266466e-03,1.678901199042274681e-02,2.079565275943275615e-01,1.076854627798954842e-02,7.206620344762198994e-04,1.095482115806037902e-02,5.220369852984158010e-03,9.784501712482993052e-02,1.560970165992354997e-02,1.224349599644693545e-02
4.859678459662869487e-02,1.231600298783266240e-02,1.632865810849309651e-01,9.947642974239301675e-03,6.194830428245470680e-04,1.005511743496459096e-02,3.843295371656326592e-02,1.112695193527814541e-01,2.513560812076542916e-02,1.677256726774871420e-02
7.460593349086150350e-02,4.377265987920470752e-02,1.220807343708489034e-01,9.212712308675045231e-03,5.559141435985005125e-04,7.085352787845757006e-03,5.334151115374528851e-02,9.904849893357947632e-02,3.422032874121165580e-02,1.626544748598927892e-02
5.816334691835847726e-02,6.263685991191453306e-02,8.480183167337922157e-02,9.139247449686796129e-03,5.311323723248003543e-04,2.397065339210126007e-03,2.785802731689723116e-02,6.379597955697122180e-02,4.458608321322073825e-02,1.538142654053033243e-02
2.803712135175025558e-02,4.805584558430259223e-02,4.904646792571024788e-02,8.749366559034394905e-03,4.892866940905395102e-04,2.446057849378566358e-03,1.327564043319544827e-02,1.846918937025805035e-02,4.761798429090642604e-02,1.365280894391835559e-02
2.568637910285429676e-02,4.609684690466590330e-03,1.685160139386144423e-02,6.548021585205648053e-03,2.435504654342697767e-04,5.883964655893325103e-03,3.353514341028712709e-02,1.564541830653736615e-02,3.147969932534483428e-02,1.070812198576263571e-02
5.738090924293636624e-02,3.843327425199422748e-02,1.140797579581112088e-02,3.433274113674333449e-03,1.241772201629802951e-04,7.662845182920760730e-03,1.652014593042004653e-02,2.143487373067193280e-02,4.408758748959168590e-04,1.107961740312006504e-02
8.881883787263485097e-02,6.139104297176023461e-02,3.555489131804419334e-02,2.280440632903258345e-03,7.082673341684875322e-05,7.980278210969643168e-03,2.412662963011868653e-02,3.327575452122446403e-04,2.598106908835962070e-02,1.923180740252211293e-02
8.713733570358721259e-02,6.622722041551266925e-02,4.952896974693683785e-02,3.962976580164397425e-03,5.265416913916512323e-04,6.264570528241457208e-03,5.815777553835701358e-02,2.707373244384337838e-02,3.463360243992114756e-02,3.392209896666627256e-02
5.330336002671468010e-02,5.674659478395014528e-02,4.820907466792631602e-02,6.143266152383258447e-03,8.144851912373379148e-04,2.643874929980719220e-03,5.908193763389807396e-02,3.881467798323990498e-02,2.815485925117949470e-02,4.946454296950162505e-02
1.483261299864782265e-02,3.219884038357567063e-02,3.745632927812930779e-02,6.715135528309611884e-03,1.621534903433982677e-04,4.256018612727355374e-04,2.360188396895373034e-02,2.797357694139677650e-02,1.508346456974021983e-02,5.795841632936694909e-02
2.619919260470416136e-03,2.018736233819057140e-03,2.843540567441722386e-02,6.158744330393487593e-03,7.925109018042497244e-04,4.219165386366366941e-04,2.433631303755655687e-02,8.502902240660701336e-04,2.841722863561322362e-03,5.102062853319971891e-02
4.926184729484779125e-04,1.554125167101285190e-02,2.560376719661582728e-02,5.830338453197487364e-03,1.176107796439436557e-03,1.682605312979557847e-03,5.521118765994877109e-02,3.945127127838491538e-02,2.291158055672444689e-03,2.738262218533044079e-02
4.716764832216391312e-03,1.556986127559119130e-02,2.623785209453060457e-02,5.940299832427386149e-03,1.104725879454080502e-03,2.310796310729812050e-03,5.743370292423884138e-02,7.348132336209098336e-02,5.500453182716173771e-04,5.348455717595972884e-04
6.753849491665239041e-03,1.132479718337549984e-02,2.745873187356413433e-02,5.996335085053461876e-03,1.136832285164899019e-03,2.254313495341529272e-04,3.892119381836439684e-02,8.678299168583659962e-02,4.078747756885946901e-03,1.569744773249169209e-02
2.312018906290539896e-02,1.230580623180848807e-02,2.930920806212118646e-02,5.892468504543501261e-03,1.338140484560265643e-03,3.859884684131686255e-03,1.687895425740333286e-02,7.600188177440798942e-02,1.078264018868105864e-03,1.320129516835740272e-02
4.740723014767826704e-02,1.422383124841633713e-02,3.318350756707639376e-02,5.839912528788992682e-03,1.463065719656677071e-03,5.274903013799985517e-03,8.709641097067866503e-03,5.117085777189193246e-02,7.366539196443562879e-03,2.383328154608009650e-03
4.212468967174030909e-02,1.488490569066710373e-02,3.925465099269213193e-02,5.877811858200123959e-03,1.469527164620255131e-03,2.913185872020348285e-03,2.344496065050156661e-02,2.183236494417649040e-02,1.578170678337979804e-02,5.417264242980362153e-03
4.554352740235115618e-03,1.987500351507907187e-02,4.554417046891658799e-02,5.895491758159225604e-03,1.467799952975291228e-03,2.145068272239339987e-03,5.833218131616528523e-02,8.890472066940205073e-03,2.222530561082537021e-02,5.043057584849402510e-03
5.169471865519002785e-02,2.629276282313930749e-02,5.009752181711579766e-02,5.860948067301724462e-03,1.477084127475849790e-03,7.222715479275529198e-03,1.010302420621644048e-01,3.951186863591472920e-02,2.829677833914213958e-02,2.980822296229810806e-03
6.185808694232149130e-02,2.120787470182506490e-02,5.319497579788409758e-02,5.813687010768159476e-03,1.445164693243967957e-03,1.004239754396902932e-02,1.291690978878486940e-01,6.565037249046468126e-02,3.445051322172897751e-02,1.386085617830642297e-02
4.925879900978534509e-02,4.185728083752103881e-03,5.593202684565161398e-02,5.758004270774295073e-03,1.362660962480053469e-03,1.016070453544187444e-02,1.182544927151175651e-01,7.891398640026339728e-02,3.927989993521351086e-02,2.015700815038849736e-02
4.213437784201421593e-02,8.219759254614586452e-03,5.795855192323969701e-02,5.665340209357135406e-03,1.255270309118091971e-03,8.532393970706096328e-03,6.779673157837509678e-02,7.024321155615308176e-02,4.230456916299905196e-02,1.722846377433905757e-02
3.233735784835083810e-02,9.865715254921606989e-03,5.829630244644515985e-02,5.524612211150735711e-03,1.130143408395046416e-03,5.936497202521096028e-03,1.174999049545695333e-02,3.894345776092372063e-02,4.456925977991457732e-02,9.018922879728625414e-03
1.418560695800122297e-03,1.578665821757885626e-02,5.703846060077243790e-02,5.341944168913918822e-03,9.787951721609467089e-04,2.474706364461909565e-03,1.608850237664658997e-02,1.164646114660262705e-03,4.658080904419742430e-02,5.945889981191361875e-03
3.025330192483778255e-02,3.343479033607030249e-02,5.480123959330168715e-02,5.117150193162153804e-03,8.021617694814284650e-04,1.184104780763360057e-03,2.081984688961975583e-02,1.568152569137059790e-02,4.760544706520403180e-02,1.389410149596659143e-02
2.400481791543594007e-02,4.593118559470205087e-02,5.159819246201464982e-02,4.843753076057823355e-03,6.094334522942303255e-04,3.095160505143956190e-03,3.159319612005037636e-02,1.866936620276260939e-03,4.720949002114441934e-02,2.641343338332536109e-02
2.040091799150612825e-02,3.708418081723742488e-02,4.732052117078684034e-02,4.520387566400073387e-03,4.061773181398495585e-04,1.769959700388438854e-03,5.390316785939908845e-02,3.322343988729624387e-02,4.610635183472915066e-02,3.122227724491332193e-02
6.335784706152911006e-02,1.196945905516024963e-02,4.252716839093906298e-02,4.150912921389769694e-03,1.945921328280737317e-04,1.816504568377455813e-03,6.258689376975952456e-02,4.214528202779795757e-02,4.517027926531657495e-02,2.368798133950614920e-02
7.526250804877449019e-02,1.494942037427655912e-02,3.798525125766788468e-02,3.738434029798825848e-03,2.108643289865189683e-05,5.026025530873159605e-03,4.436597228921072139e-02,1.554944882427612869e-02,4.451359311704990163e-02,1.124651394038212425e-02
6.423173780956716039e-02,3.263495224360085656e-02,3.390790761069083226e-02,3.285231612935295836e-03,2.348072302339497335e-04,5.905214539727365874e-03,1.895662561469637838e-02,2.833791317002223170e-02,4.380394756786185062e-02,5.153967894420288451e-03
5.763680499868268498e-02,3.376517924806421433e-02,3.010063012681065894e-02,2.796802399742990587e-03,4.414100958700980376e-04,3.998361754155531182e-03,9.941305939175835299e-03,6.369370816195078777e-02,4.294313506394244889e-02,8.905937042498838704e-03
7.040388629414315314e-02,1.998853025528069677e-02,2.648805979603439942e-02,2.281567405724224153e-03,6.367283681425707151e-04,8.456289458592339964e-05,2.033168529349096282e-02,7.617930457916653741e-02,4.215719006991237860e-02,1.464963114455975282e-02
8.960400333141570195e-02,4.817569386670905209e-03,2.316808794972132282e-02,1.745878457327142922e-03,8.164920744596702428e-04,4.709987658119900271e-03,4.296667867017298775e-02,6.984223135046661868e-02,4.155087948830316069e-02,1.229855709325665229e-02
8.877857808922262617e-02,1.754102934265103870e-04,2.018483426982241660e-02,1.194235213182557633e-03,9.764277073201779950e-04,7.726406876944146539e-03,7.067806730792700054e-02,6.340386168198164363e-02,4.080749264243208052e-02,1.635617684440235841e-03
6.453637701317277431e-02,5.718196951643149742e-03,1.749111485202081359e-02,6.375463131694388517e-04,1.112922226368648782e-03,8.201481616059061452e-03,9.180516805766776589e-02,6.739779109445447058e-02,3.970299308169235319e-02,8.464120930523894373e-03
4.978080906100978975e-02,1.642451794217140645e-02,1.505305198312766220e-02,9.217554164496683834e-05,1.223118062747552198e-03,7.221748017858669461e-03,9.500791169347723442e-02,6.698363810944718555e-02,3.879271418605791805e-02,1.222401089219912924e-02
7.359959484230400861e-02,3.031503131633809037e-02,1.288067710498688560e-02,4.374973410961028762e-04,1.304718163068985031e-03,6.329432631729527484e-03,8.043609285830119471e-02,4.185381504386694734e-02,3.853106775655273930e-02,1.271054074368540426e-02
1.179735738060753714e-01,4.299710936529819311e-02,1.098071548772482607e-02,9.581146557579951414e-04,1.356032368500050640e-03,5.891073981056261545e-03,5.654517116175984681e-02,3.807816988128799162e-03,3.776834206931568849e-02,1.518736248485285864e-02
1.338453158704483725e-01,4.277988146318539853e-02,9.318119541423018973e-03,1.451178566603518244e-03,1.376138761638431201e-03,5.479057429107956484e-03,3.232745672843947982e-02,4.292233696412262739e-02,3.550067661981955863e-02,2.059625551591679968e-02
9.345789609519614127e-02,1.829194207774997860e-02,7.835905296390353880e-03,1.874890516488224952e-03,1.364908052513867133e-03,4.948150707805741219e-03,1.763711385768803458e-02,5.009510475440123040e-02,3.418010006868975326e-02,2.686321846846315142e-02
1.390726589440862901e-02,2.814317977989982261e-02,6.525726325173137471e-03,2.241913554508720950e-03,1.322946119400809526e-03,4.486301458478383561e-03,1.926790794885017283e-02,2.036281309301307685e-02,3.611802502468634130e-02,3.215045282325302428e-02
6.316344256456754569e-02,7.623252812249431409e-02,5.427050227875976872e-03,2.618095290277643906e-03,1.251573016698182082e-03,4.149051243624149454e-03,3.250777578850552740e-02,2.875246123944870738e-02,3.525364916263052512e-02,3.503966597026005741e-02
1.049316091461351963e-01,1.021396766339252582e-01,4.485220907549255197e-03,2.957028161853256926e-03,1.152814418307043353e-03,3.859193216598919268e-03,4.526213748115019003e-02,7.055420093929189174e-02,2.116951629931291753e-02,3.376640728162744187e-02
1.061131805869559436e-01,1.000298480256724409e-01,3.533770161461083532e-03,3.098976296281319605e-03,1.029350779685247845e-03,3.625776868413236112e-03,4.987745870236318102e-02,8.694345264517507055e-02,4.667941440139079801e-03,2.739661691188041703e-02
8.433132333148139759e-02,8.396011273555270549e-02,2.595759688913472710e-03,3.124834306556420385e-03,8.844363975859936963e-04,3.466893421146005193e-03,4.573842238176149821e-02,7.629787092791041891e-02,2.705455099309034273e-02,1.849659865044127674e-02
5.841951317374820957e-02,6.774665001835461497e-02,1.942689982888079134e-03,3.368682173278902958e-03,7.218163089344732880e-04,3.297095661500625430e-03,3.539912450509416497e-02,4.836121961895763904e-02,3.632372752724521980e-02,1.299482304867074535e-02
3.014313320546552905e-02,5.172154545112764290e-02,1.460161581665599118e-03,3.657481677142262154e-03,5.456383600943038583e-04,3.133583438507875959e-03,2.260987531864848757e-02,1.203749033087781091e-02,3.780167273462290561e-02,1.457948181745505507e-02
6.783804722473252280e-03,3.105847853356028671e-02,4.449554536711543794e-04,3.243458870428429699e-03,3.603504756443923120e-04,3.178707231481393315e-03,1.103387721963347209e-02,3.126062037802024296e-02,3.766447208136795843e-02,2.019470334372809595e-02
3.886061298003386233e-02,7.674508601974418254e-03,1.203863526397596414e-03,2.508162009524086359e-03,1.705877730693494058e-04,3.363348897112362207e-03,3.588914269611420335e-03,7.602778551270884810e-02,3.318112974829197370e-02,2.386385033846153900e-02
3.283911299795489597e-02,1.162739451800794827e-02,2.378667445234906776e-03,3.716463799729391362e-03,1.894194722404669699e-05,3.178317273610075950e-03,1.650549294741700951e-03,9.977267940078439479e-02,2.389109260469344728e-02,2.272620326529545612e-02
2.141836870586330197e-02,2.429934855689970530e-02,2.527246456752041924e-03,8.167080807845629106e-03,2.035724137304926638e-04,2.497858630580585514e-03,1.790369385475083265e-03,8.205907226665361265e-02,2.092094658679915023e-02,1.638984278134287403e-02
8.478629139490177768e-02,3.368060398548335110e-02,2.884449166074581905e-03,1.340647001339865044e-02,3.787926818578927135e-04,2.060762952385085563e-03,2.296451074648617717e-03,3.643123907054102162e-02,3.623977080852504307e-02,4.836345948345390638e-03
1.103452385523814305e-01,4.220546105488822558e-02,4.438221241771697287e-03,1.549209797694720003e-02,5.403573399359665186e-04,2.476840010256544430e-03,9.419319300819593843e-03,1.097202184327475405e-03,6.757025720056128448e-02,8.375551766580332375e-03
1.010335206387830559e-01,4.761670613827366505e-02,6.144501474720622317e-03,1.342867455426229387e-02,6.843891708741313418e-04,3.363575415939091054e-03,8.536635535896374902e-03,1.492917612695357325e-02,9.929305779593640413e-02,1.541685902153755970e-02
9.418539637429654277e-02,4.752526599398213675e-02,6.818720205918153525e-03,9.458115078829962968e-03,8.074719484444995137e-04,3.919096731684557945e-03,6.665205612844592349e-03,1.556177918668255264e-02,1.161221467669197871e-01,1.207792275936129395e-02
9.479107605791174673e-02,4.495640771277523151e-02,7.136275388654923432e-03,5.773427423046076715e-03,9.067317268455144701e-04,3.642372847194886784e-03,2.473373368938026895e-02,8.912162800608469659e-03,1.137472388538394441e-01,3.641767624163800687e-03
7.107497813773028250e-02,4.659064293446805310e-02,8.160273274897791168e-03,2.914339852260250819e-03,9.799046070132161421e-04,2.376432893354365680e-03,2.405344209621292084e-02,9.614994230281699930e-03,9.843578164481213422e-02,5.518333889575222778e-04
2.315234757862158488e-02,5.396533512783819458e-02,9.550396816900327823e-03,8.716469154340924716e-04,1.025389096860299326e-03,2.263695001158493145e-04,5.289156230740197501e-03,3.488995881134687033e-02,7.931833580974784192e-02,3.135887653435038246e-03
3.846781166766898540e-04,5.703829814876512638e-02,1.068322904324137124e-02,1.862016589139418431e-04,1.042281880526096851e-03,2.634337792589556970e-03,4.906919431275916232e-02,5.125550197739250219e-02,6.161897141165824376e-02,9.781980456680544958e-03
2.571512610434194615e-02,4.221597421919400656e-02,1.201526971566001765e-02,4.654145566582387501e-04,1.030396323256035267e-03,5.979132452024572136e-03,8.096785095902596374e-02,4.865869124641133969e-02,4.585162152348801895e-02,1.252128965951136014e-02
6.865278063180574319e-02,1.018639514520281418e-02,1.394422246930929893e-02,5.965667869486494541e-04,9.902633156938550792e-04,8.849334348928606861e-03,8.604870107807499613e-02,2.584848160123772928e-02,3.143849617340523095e-02,1.124508021986476113e-02
9.182674537390955738e-02,2.115009952440803642e-02,1.562786420127341633e-02,9.011298819257560280e-04,9.231144529152355335e-04,9.418767224427795556e-03,6.904643323353447382e-02,1.176109656166298041e-02,1.912352937315127399e-02,1.196888887555224400e-02
9.078039662537297494e-02,3.554563782875818506e-02,1.626945028631563220e-02,1.219219562994319469e-03,8.308480585373071879e-04,6.635829458287186185e-03,4.424826215384482231e-02,4.615238441965755639e-02,9.442214155474411980e-03,1.723175784191920829e-02
6.684297254816887190e-02,3.268567660887017334e-02,1.646047383703073616e-02,1.399694120039327591e-03,7.159789965380499235e-04,1.941906218139070363e-03,2.536888140514348411e-02,5.334590341601261332e-02,1.144601099550211255e-03,2.254821261205222638e-02
1.977458066133891412e-02,2.199729124497384544e-02,1.711298353897822838e-02,1.503613317963970472e-03,5.815735452071417455e-04,1.660030576475313721e-03,2.106365491594006795e-02,3.083931186497295557e-02,6.824471345171692800e-03,2.384631609363159488e-02
2.985118318387796135e-02,1.136826750392445039e-02,1.809641676258658127e-02,1.597527165163731711e-03,4.311709796762662516e-04,2.581245097611227935e-03,3.013734007924119204e-02,7.045650761220665151e-03,1.322439303149944116e-02,2.209075816862691652e-02
