9.010615959166600776e-05,1.284946554415894275e-02,2.476141000259243427e-02,2.014348739722821371e-02,4.990125703010835946e-03,2.541688994546539501e-02,2.917870932110316201e-02,1.638661108957655821e-01,6.478310077964770375e-02,8.083440384543554014e-02
1.090233112919027802e-04,1.544624697134795027e-02,5.393189204918847138e-03,1.594902314911343655e-02,5.084892731085578071e-03,2.077689561517089695e-02,2.600409585744638957e-02,3.146563385274469410e-02,8.295772777104511164e-02,6.716563000847056153e-02
1.206126362345721101e-04,1.147460093787770058e-02,2.684390199566182716e-02,9.194602887638762476e-03,5.155444919913558868e-03,1.562592547793584599e-02,3.477323711637207715e-02,6.142085721957386835e-02,7.113069796717773341e-02,2.172638771961554749e-02
1.243188533856996150e-04,2.314155037131066048e-03,2.809092288361212872e-02,2.858014293257143262e-04,5.165231273474045655e-03,1.126878536400509508e-02,4.135326500788213955e-02,8.465074122236730669e-02,3.816153616882360378e-02,3.785165130429135605e-02
1.197978256037434568e-04,1.205023005588739572e-02,1.183205807786034958e-02,3.608860016218817281e-03,5.065494156466257732e-03,6.798872093885999744e-03,1.570716283829408019e-02,1.000162703568368977e-01,1.680922154412208339e-02,9.400756021868016121e-02
1.069270318973402663e-04,2.791058449010677678e-02,7.717714366434356467e-03,1.799023898989414016e-03,4.933514915766508586e-03,1.258793708051651403e-03,3.503033214115575111e-02,1.599888710449441642e-01,3.379058757869218138e-02,1.370887695384749583e-01
8.581004780284223071e-05,3.876158543351060359e-02,1.225715416345269163e-02,1.206345979609957722e-02,4.882477999318607549e-03,4.033718582012045702e-03,6.380042820691243788e-02,2.298279569984220949e-01,7.779881303314514773e-02,1.521036996068295677e-01
5.677605381215253521e-05,4.268571272267340788e-02,1.308572242700234076e-03,1.983675683296882292e-02,4.763246645462723694e-03,6.162490465874899057e-03,4.690592787282198139e-02,2.442754501213676432e-01,1.112608280034937669e-01,1.232453594193395202e-01
2.037482028626486915e-05,4.148917753534694247e-02,1.246777340957221092e-02,2.171444887793633899e-02,4.344047217257275724e-03,3.513118418674906346e-03,1.209400595444277277e-02,1.966547502564480465e-01,1.162445969119076661e-01,6.072090434296333744e-02
2.263526127013587282e-05,3.515241845152869415e-02,2.333660269300034951e-03,1.690929922433269048e-02,3.956980588767276819e-03,2.328334314743650459e-03,9.677010954230054127e-03,1.357846720144391672e-01,1.052502208259023103e-01,3.613344880794771858e-03
7.130679962077730481e-05,2.365790965279808422e-02,1.881226097237709977e-02,5.374019030684405382e-03,4.148697991145742538e-03,7.332342710862761390e-03,2.161073489059213426e-02,1.006535460940632953e-01,8.633581094054719463e-02,1.884744958861957198e-02
1.245247679432653367e-04,1.060163124497107492e-02,2.349799948718828482e-02,7.962934335547100159e-03,4.195154137746895037e-03,8.154260570840173722e-03,3.592961025006848746e-02,9.077876253322618438e-02,5.319299029631868736e-02,1.664436488668002284e-02
1.810268855757109728e-04,1.684140950638627265e-03,9.118123859520269742e-05,1.235769528674916622e-02,2.338730432204061838e-03,5.371131819211002328e-03,4.748365889790547023e-02,9.189803304793370264e-02,1.744095709249600737e-02,1.527638600853122725e-02
2.394341005303746454e-04,1.683545220164517960e-03,3.693270903552401535e-02,2.279463661079845615e-03,1.400527112769276491e-03,2.851075096833617303e-03,5.091485740203393479e-02,9.864465305781690285e-02,9.599767410822183933e-03,1.909568973388051788e-02
2.982954324119040969e-04,1.042636670893689818e-02,6.348345491719413480e-02,1.308977956089480907e-02,4.344262293015941148e-03,2.957966306504841714e-03,5.646066491775573321e-02,1.032707379680214282e-01,3.201757297771609667e-02,1.724739837077019985e-02
3.561214658705928499e-04,2.126895722796451338e-02,6.655806749892856367e-02,1.945623458832827085e-02,4.577947575859002589e-03,3.583504619188512472e-03,6.971995395217742142e-02,9.222468262546994200e-02,5.071736551481054872e-02,5.691385158857885374e-03
4.113943398711684117e-04,2.903551738943647986e-02,5.178704383948325857e-02,1.457055078521022826e-02,3.353856158588899503e-03,1.390934587812730052e-03,7.917542920078482482e-02,7.336217048029944343e-02,4.903466665898389282e-02,1.661629126075093998e-02
4.626062427902729213e-04,3.570642712489462828e-02,3.195263001683718712e-02,6.683687456010547687e-03,2.601173979285591881e-03,3.372907515172507160e-03,7.796483659227804175e-02,7.814229124464400211e-02,4.678766455199132729e-02,5.192478183818015347e-02
5.083510134023209049e-04,4.177427979159635540e-02,1.309663010779891015e-02,2.012946181682932420e-03,2.450873797355644299e-03,8.242813978743764730e-03,6.548792037381241660e-02,1.150259718896982364e-01,5.274385780892480030e-02,9.058238143252832220e-02
5.473556400362676036e-04,4.147509857271407946e-02,1.257649709610532233e-03,1.768265702238779047e-02,2.815113828683526043e-03,1.376269472434465610e-02,1.832447911486984743e-02,1.490350672116602382e-01,4.389602609871939148e-02,1.146985020867243021e-01
5.783934033504916413e-04,3.454299570167589095e-02,2.656653759646481275e-03,3.741401231158639207e-02,4.532313195240999203e-03,2.220990832148675431e-02,8.681682324409849272e-02,1.495344946429543187e-01,9.794992142055453099e-03,1.204693649350881551e-01
6.003162251892892433e-04,3.093918608734224848e-02,1.241377449673792752e-02,4.295757204854475791e-02,7.110987118476917550e-03,3.103642964387819114e-02,2.074703961279051045e-01,1.335791177279738728e-01,2.185484776719777075e-02,1.196493540804121486e-01
6.123342882518609340e-04,3.611096004442168605e-02,3.461849350126920688e-02,2.290764322159198618e-02,8.309125572751570668e-03,3.451701736645853419e-02,2.579551811895688940e-01,1.387696718229264603e-01,2.357788810820200115e-02,1.204893156894619871e-01
6.140365875656593085e-04,4.241688356049091307e-02,5.220520289168578687e-02,7.822052260263709367e-03,7.630709960311723647e-03,3.287476292277669715e-02,2.178674257196309971e-01,1.659502335426640829e-01,4.339785296506318280e-03,1.224993347511672132e-01
6.048636348225383671e-04,4.116065456795403588e-02,5.843305767507411819e-02,2.371763387964312061e-02,7.088336540666395971e-03,3.195057087568831805e-02,1.588936726418923862e-01,1.723849745010176127e-01,8.151928131184388998e-03,1.278796445375277868e-01
5.841043823611707236e-04,3.364633770215494368e-02,4.846620858125214037e-02,1.750673366928987701e-02,7.099604269255694808e-03,3.253306687424151189e-02,1.425503561179475298e-01,1.291142029873433017e-01,7.206609642181351603e-04,1.444645536263008123e-01
5.520606792421772031e-04,2.467580930902685959e-02,2.408070913002263030e-02,1.656579455221306434e-03,5.253254776684686787e-03,2.854915769794486718e-02,1.428813119747653348e-01,6.746300991414072579e-02,2.200252324234384591e-02,1.725281902262854328e-01
5.101055247473988089e-04,1.255902946647302967e-02,1.933392055306731774e-03,1.227573282576323310e-02,9.157066904711823633e-04,1.835366886110748399e-02,1.063494826580804326e-01,4.300496012406537089e-02,5.152257438349063662e-02,1.957813369807474280e-01
4.582013523106792598e-04,5.691339933504596660e-03,1.904319133908855682e-02,2.333775592997863399e-02,2.421008642928566823e-03,9.709448786639093137e-03,5.336149733632079839e-02,6.304628412015743366e-02,8.014306317083495779e-02,1.957098922812565422e-01
3.946966583165100188e-04,2.152612325620538447e-02,2.949285788860714699e-02,3.368107663388563572e-02,1.693285694916503350e-03,9.143373513350518123e-03,5.849834957579389677e-02,8.672157564807228547e-02,1.005624363413878536e-01,1.751478898465473610e-01
3.215890166077214375e-04,1.917175478084099521e-02,3.867839051467817507e-02,4.300392168694829043e-02,1.386945376153627882e-03,1.254322023375580887e-02,1.342980320165634567e-01,8.941536973852265424e-02,1.115121439379862245e-01,1.575602420132684311e-01
2.450483046567738100e-04,2.954488120218008197e-03,4.696020008035836635e-02,5.165941124554817437e-02,2.859667176761716140e-03,1.197519119966674803e-02,2.057723758152925075e-01,8.111569009629879257e-02,1.194022816165850875e-01,1.573400579856923109e-01
1.641265356620794785e-04,2.666719135046181216e-02,5.523254326667800806e-02,6.116182090413926215e-02,1.668606657308108979e-03,7.487067726141088259e-03,2.124903610710343893e-01,6.592346343934225861e-02,1.268918346261109498e-01,1.553584477103694406e-01
6.926786513551389988e-05,3.563271551615627974e-02,6.742176877570768556e-02,6.881419585744008582e-02,2.532611522203988426e-05,5.298924691224790942e-03,1.688213782418658271e-01,3.128962088788186241e-02,1.267626255518626011e-01,1.146624576290641156e-01
3.370869067137127425e-05,3.113599148283726845e-02,8.370130539763195876e-02,6.791121158002666469e-02,6.965539298194262444e-04,6.808801078330879719e-03,1.138946295797923780e-01,2.100375882571231881e-02,1.151783547979043226e-01,2.860580822099809822e-02
1.199010283636940460e-04,2.192862164044803025e-02,9.678595688625400706e-02,5.711708187267784675e-02,1.184633512049600244e-03,7.023664381307892154e-03,6.286004875747108755e-02,7.012418589293525906e-02,1.004715240794632758e-01,5.724702743429217755e-02
1.965532119754938799e-04,1.095140659263287020e-02,9.855927027624748760e-02,4.481338206249020628e-02,2.482324571308335004e-03,3.191262051446284130e-03,1.658405988415980609e-02,1.062026165575149783e-01,8.962049184514442324e-02,9.155332606680896546e-02
3.124292201883974900e-04,2.418154437466646291e-03,8.875229548201461760e-02,3.872606927383905051e-02,3.702793943910855524e-03,1.721166229063307703e-03,1.966627758399634024e-02,1.397025138049382276e-01,7.824461538714629072e-02,7.923524582448311648e-02
4.487574600750303053e-04,1.632124772398138579e-02,7.246867927435469980e-02,3.474566958586731980e-02,3.076359047409252603e-03,3.863402506880778825e-03,3.664887454209478368e-02,1.762731988511869463e-01,6.207407116180798518e-02,7.142785897713899157e-02
4.963453888933548348e-04,2.745577174285123226e-02,5.280245047142584358e-02,2.299000754793876708e-02,1.532353268415287146e-04,2.162914764190317952e-03,3.395930567574423353e-02,2.025657274651271877e-01,4.523799894902080787e-02,9.803809655483992913e-02
4.879834775989260582e-04,3.316591367669127766e-02,3.404386118054264498e-02,2.307423558593760509e-03,3.533458988449169041e-03,1.627428912034677155e-03,3.174733350269599158e-02,2.073180136439535248e-01,2.939220830327819028e-02,1.403214862127777629e-01
6.563949721834560569e-04,3.116203625769513319e-02,2.432006426920760994e-02,1.928829484043380685e-02,5.627486471918278013e-03,3.772636202565835851e-03,5.597274887609468563e-02,2.015926217618370930e-01,7.682867275197433760e-03,1.702810600839228250e-01
9.434098478124162794e-04,2.147147495484520371e-02,2.449338324329681030e-02,3.597460525167100326e-02,4.727993903503723873e-03,1.378965151979509932e-03,1.040349029175485496e-01,2.024413643283896058e-01,2.000389726126164391e-02,1.856910778077671687e-01
8.048992593327910063e-04,8.965711657339149598e-03,2.398322062587496598e-02,4.736277918734949771e-02,1.712686914454761636e-03,4.592544913352897273e-03,1.413020228286120950e-01,2.050616392406480748e-01,3.782986857928286040e-02,1.963794060954164866e-01
9.467303819387760542e-05,6.146766314895572413e-04,1.519415935952711863e-02,5.290538238076636368e-02,8.123525133016113028e-04,1.118144670275702385e-02,1.420243423022067297e-01,1.884907327338457561e-01,3.385924828261339253e-02,2.002635163447289146e-01
3.603290036452775464e-04,5.413918715217536440e-04,2.512872409382209751e-03,5.093483215084128324e-02,1.183249729084057600e-03,1.708516794971454145e-02,1.175881943391023365e-01,1.450452048962804497e-01,1.771592295430653857e-02,1.870990712664986622e-01
1.255434114935681023e-04,1.764543397446187217e-03,6.309333533642778706e-03,4.257705171067332345e-02,3.866146037117033181e-05,2.128558559951932577e-02,8.999552908638792925e-02,8.861069172887620082e-02,5.068803410654200946e-03,1.498155189085620953e-01
1.006612748967241136e-03,6.932348328274819289e-04,1.025872016092965397e-02,3.220172024872186567e-02,2.230875816213660247e-03,2.065887760387591365e-02,6.087631891272311802e-02,3.747247760950795509e-02,1.293343248534671759e-03,8.768180388928904778e-02
1.314785631531907670e-03,5.509251106459799908e-03,1.334814811455850743e-02,2.311735344479351820e-02,5.714040083743969316e-03,1.409272390423471806e-02,3.478071440932339886e-02,3.841325057466850323e-03,4.721877719436112439e-03,1.935315020258096888e-02
9.735226428560190626e-04,1.014348194594169930e-02,1.430833109630862132e-02,1.406895035165555384e-02,9.256826682939046577e-03,6.767562210463059710e-03,3.890296750929461700e-02,4.342148796997482435e-03,6.579838046751604504e-03,1.723732290050079483e-02
7.544508977103249556e-04,7.023096645099655491e-03,6.470182081239934588e-03,2.926682020671056341e-03,1.013317122283456315e-02,4.236555100291325947e-03,7.331229149686219193e-02,9.569933398490007570e-03,1.012437571163257201e-02,1.286113030964124507e-02
1.173769574323179580e-03,1.543109220692479022e-03,4.224214889284156303e-03,6.132350080115949419e-03,8.456402781683216435e-03,3.644982124181451750e-03,8.194258776016342949e-02,1.961116096617931265e-02,1.540852347013754037e-02,1.282075023174323106e-02
1.535851161821586265e-03,5.812771781303937776e-03,3.309595513531258561e-03,5.464450491707520223e-03,7.593685403854804825e-03,2.585645053324408388e-03,2.996577778266060199e-02,7.556071645446655466e-03,1.390235119472993906e-02,4.978547965177938101e-02
5.077300262093736123e-04,2.196215265653243126e-02,3.287468703282554749e-02,4.434449782546276073e-03,8.671988773308936249e-03,1.500110032610044684e-02,3.417644768525292948e-02,7.386609379815728404e-02,4.534564930973864448e-03,8.457831511979224670e-02
1.731779988268478685e-03,3.800044546381427246e-02,5.629777673616143119e-02,1.339856753425431278e-02,8.776917830395291123e-03,2.626898193731097564e-02,5.121594636932228634e-02,1.383385333610355206e-01,1.930328516393590467e-03,6.517397386515304258e-02
2.941454840056945477e-03,4.248668896582628862e-02,5.292638293303575381e-02,1.337850651258238807e-02,6.097073890873997565e-03,3.205484112490009085e-02,3.286666574361446491e-02,1.565675712582410006e-01,1.162998994297366473e-02,4.816906534522161915e-03
1.689533877751762123e-03,3.671025817585160667e-02,4.190112900179527450e-02,6.110379075201813510e-03,2.927396574437775637e-03,3.489627694345284747e-02,1.602640187041107916e-02,1.296905543284317952e-01,1.675165076118283886e-02,4.832494123097019756e-02
5.328974481512459890e-04,3.066225086636563749e-02,5.181346275470137541e-02,5.427378550188157900e-04,2.122815909459588053e-03,3.697203279870252268e-02,1.799619368841213346e-03,1.127334744081539414e-01,6.755839037976863436e-03,7.870135928806168413e-02
1.531452364118312962e-03,3.194455679759050648e-02,7.896178295377184742e-02,3.009082644940587210e-04,3.607945651562628493e-03,3.711835235085397811e-02,2.691946442736056419e-02,1.681927186036960842e-01,4.074039979780483961e-03,9.892792620013848848e-02
1.246792980679912533e-03,3.991803131925762693e-02,9.957552846143027936e-02,8.943549329235708431e-03,5.359870820177555298e-03,3.538873477334122941e-02,3.384900923157845021e-02,2.996772807976559316e-01,4.263444704814213851e-03,1.149629448966203865e-01
9.636480419450291560e-04,4.865289392862376383e-02,1.062127029945701545e-01,1.871132846903277719e-02,5.792653219062852098e-03,3.317549047114083660e-02,1.225119260542905340e-02,4.415594999340203830e-01,6.425930939455736998e-03,1.277174228022267266e-01
1.134529283096452320e-03,5.393264396283092149e-02,1.075264356533956328e-01,2.388424813597735119e-02,4.721671107645385862e-03,2.883775773761695915e-02,7.281782708007472626e-03,5.257362447560517404e-01,2.409650687586690349e-02,1.400045936041561800e-01
1.318506433745330990e-03,5.506576534120818933e-02,1.034498324501398892e-01,2.511321503994019474e-02,3.120421621662785010e-03,1.950066370701774784e-02,3.262050022994703209e-03,5.383668948932391896e-01,4.906943867129087006e-02,1.420644810545381165e-01
1.309312524981485993e-03,5.089766412197334333e-02,8.407144837905053403e-02,2.308034395981926543e-02,2.067837245387171841e-03,6.654743543983899015e-03,1.422560175202641948e-02,5.027229181652960177e-01,6.508639033555102538e-02,1.186012823360548113e-01
1.304699699391647120e-03,4.031520435301463173e-02,4.979358311404321474e-02,1.615624178400034902e-02,1.675373145476509061e-03,4.930895709865942313e-03,4.304454458229784591e-02,4.389842493591036843e-01,6.785205527905836809e-02,8.334467477002867331e-02
1.403490206656372646e-03,2.842762604707897711e-02,1.591404370105865135e-02,1.096781014237110767e-02,1.314384517718496801e-03,1.257029292692340636e-02,8.948289222286319455e-02,3.624511968818592833e-01,6.393951730323337024e-02,7.308997276265488674e-02
1.514800652522886159e-03,2.498499775386216204e-02,5.044691338237507899e-03,2.070272066702866925e-02,6.784473602776415870e-04,1.643795933791703662e-02,1.185549629580716913e-01,3.015427272048104013e-01,5.991255780401257697e-02,9.265704237492738971e-02
1.589547036475716510e-03,3.216071176992210678e-02,1.667097604098589925e-02,4.333691432778643410e-02,3.066398703019597335e-05,1.721335840603466921e-02,7.265044344220988881e-02,2.855992941944219821e-01,5.556306861439075373e-02,9.980933575185541029e-02
1.667653047900295119e-03,3.938865932140786508e-02,2.844553688903615762e-02,5.761480438611690791e-02,7.650896823349357789e-04,1.574897703246982972e-02,4.008799503426094257e-02,3.060874115947479490e-01,4.642105318098108113e-02,6.057530794910875871e-02
1.773770613941996234e-03,3.477615379482240643e-02,3.599534513392044222e-02,4.997123337169301349e-02,1.692936655472410861e-03,1.346156982264151009e-02,1.360114984033701235e-01,3.132092367783399500e-01,3.583544889804227834e-02,8.914119307186770674e-03
1.890309724983080036e-03,1.818631577324368240e-02,2.325834821414050901e-02,2.994428902421793215e-02,2.636070277546004748e-03,1.198561708707969811e-02,1.522966775215583435e-01,2.703853599837345856e-01,3.905183314549279944e-02,6.647586295518391475e-02
1.998482178101334671e-03,7.958988339813127897e-04,1.248591861063732059e-02,1.356873860837208914e-02,3.308774859806665539e-03,1.336059377648023301e-02,1.049580666946934859e-01,1.946808767956178798e-01,6.454368604691509970e-02,8.471965945909885887e-02
2.098996880677714023e-03,6.287452898722226645e-03,5.036945445753401168e-02,8.109803089621650876e-03,4.187913104044080348e-03,1.904030886934629171e-02,4.229424898658247500e-02,1.242080598967904709e-01,9.671937635706320813e-02,6.352694373362319236e-02
2.209324331923295630e-03,2.715069064272363983e-03,6.718375895538694631e-02,1.564723890254402644e-02,5.851031289980759484e-03,2.664335950100664777e-02,1.279611363279894998e-02,6.614379766422136264e-02,1.109123101522298815e-01,3.259269937293176461e-02
2.338377089710869799e-03,1.926484963274223200e-03,5.948895176932975787e-02,3.418952892830012108e-02,7.158588979080006756e-03,3.019714550437677808e-02,5.619001138043237809e-02,5.542658054924366057e-03,1.017957967190270679e-01,4.630946897740158275e-02
2.452566867726204466e-03,1.700325349045232097e-04,4.085740465494019230e-02,5.269896451738579485e-02,6.239331746285142061e-03,2.711076581995798193e-02,7.608598106290695440e-02,4.776394386939026432e-02,8.387076191014332383e-02,1.344154284154822077e-01
2.519813717420615624e-03,6.222018076156885652e-03,2.419954529379213237e-02,5.848053596637361323e-02,4.027248467479769937e-03,2.236781493172635207e-02,6.847375820673444469e-02,5.950299862857061362e-02,6.724361136647641346e-02,2.447343741351775126e-01
2.601578313726461266e-03,1.306997769622886274e-02,9.078134664799189513e-03,4.943958551082806852e-02,3.701346402519891006e-03,2.137789675401848694e-02,6.403742663792391654e-02,2.395656288096427791e-02,4.707922359387788080e-02,2.785603677655604238e-01
2.765861896536555599e-03,2.080073505470538334e-02,1.227080698231594082e-02,3.106927419007664282e-02,5.432466464059777962e-03,2.166998370784913377e-02,1.040868678760143301e-01,1.450930827893810032e-02,1.895838419395124916e-02,2.008655327389307910e-01
2.879611938128505671e-03,3.163697670358248115e-02,3.397161549926029644e-02,7.995368449866464486e-03,5.614336726252409059e-03,1.729336262095962362e-02,1.855447197366852097e-01,6.425530793951188258e-03,6.871327295083323218e-03,8.246630390076475914e-02
2.789059602993961169e-03,4.554739208854249183e-02,3.441882991774952022e-02,1.313468501119422274e-02,2.644080199324360878e-03,8.513708763095354307e-03,2.507727629851818074e-01,5.551952742591299839e-02,1.514951652688908100e-02,2.008641157092220728e-02
2.783353638154342866e-03,5.922464266599139493e-02,8.000304345527391170e-03,2.139683144002587495e-02,8.211873026007887426e-04,1.049308373261649985e-03,2.435862149092651863e-01,1.415947193585027908e-01,4.940119094672779793e-03,3.715019126717905573e-02
3.191782967644052772e-03,6.483956644412942893e-02,1.868915432769594626e-02,1.270688010374897668e-02,2.451610706730544213e-03,2.169244802145975370e-03,1.673770277713879651e-01,2.203910497312497052e-01,9.926764040463973565e-03,7.469743936296351083e-02
3.090475096455345960e-03,5.556518135522957313e-02,2.098918104167262280e-02,2.577452104226412698e-03,2.879543375513886946e-03,3.305843160357330428e-03,7.622386540705164415e-02,2.816430573583201813e-01,1.761215843903941869e-02,6.867953661225785489e-02
4.935353039937851382e-04,3.852749550470673662e-02,7.573847059774130829e-03,1.081425770965413306e-02,2.938922174852371793e-03,4.858076514440598861e-03,1.622504614077746252e-02,3.335765597852353714e-01,1.645350556342133411e-02,2.125341781405007749e-02
5.011362707356125171e-03,3.278057831771762076e-02,1.284267050494710587e-03,8.201518031855644514e-03,1.967543735507368968e-03,6.343215904886909465e-03,9.978247552031088360e-03,3.835697936030129651e-01,9.220764329258638800e-03,1.287241378589373646e-02
1.084076602985136091e-02,4.581143715737457517e-02,7.488199184565869602e-03,2.663311288076117885e-03,2.537663851793257137e-04,6.094753291898271676e-03,2.917169963106691633e-02,4.229612345219820879e-01,1.728491579813994962e-03,5.731838986460931554e-03
1.412298233564021448e-02,6.299121550162371796e-02,2.692763655049288177e-02,2.052889543768568470e-02,2.520601162916027808e-03,4.303156610247424463e-03,6.382742622703661828e-02,4.386116314451107834e-01,1.597399755009859534e-02,5.509476430052071341e-03
1.471635976510115261e-02,7.033079907775756368e-02,5.946736030173447457e-02,4.100101471111343432e-02,4.193583750819105532e-03,2.610122739930187310e-03,1.112065795355593467e-01,4.399901113031000621e-01,3.551151835474106178e-02,2.142797976374887989e-02
1.393594181761569073e-02,7.557135907389449236e-02,8.513474151513626687e-02,5.243251148153062896e-02,6.623325687851697695e-03,1.120834672100823369e-03,1.493624944495431650e-01,4.558059600161607494e-01,5.819134668505410862e-02,6.954041654382694948e-02
1.194252652962474182e-02,9.380790405323838343e-02,8.940004928202237300e-02,4.763328018673564784e-02,1.096969672356881177e-02,2.069656812038995954e-03,1.596362081612947015e-01,4.927721905514842460e-01,7.395344020019384290e-02,9.565419782017789418e-02
8.657901086011218078e-03,1.222482496026288251e-01,7.939551375381687093e-02,3.434209914453987406e-02,1.496278809692730589e-02,7.710101352482220081e-03,1.431518858490146151e-01,5.189914186311835875e-01,7.788009801714416980e-02,9.279389037069678270e-02
5.678751434526088833e-03,1.437046915477424025e-01,6.819437600978608960e-02,2.453351614039910727e-02,1.447285753188552217e-02,1.377149792909352667e-02,1.178610710733155875e-01,5.097084914777381126e-01,7.732077961996161597e-02,7.743975965429646113e-02
4.576448029883294077e-03,1.488574721853402616e-01,5.439278837440833514e-02,1.868416676282071837e-02,9.071529062509233951e-03,1.790393321143714939e-02,9.583893960077649599e-02,4.931830825360085102e-01,7.335759555743458227e-02,4.959257374538873775e-02
4.321263361630080582e-03,1.420900092657977620e-01,3.110691499113634947e-02,9.122023309141984518e-03,2.822179665352032765e-03,1.938646481160579901e-02,6.730509961626256199e-02,5.201366547037810095e-01,5.252526440058252061e-02,7.571051743261989798e-03
2.789279904515255207e-03,1.312881308106510492e-01,5.994830243968305231e-03,5.227090511029494971e-03,1.068915048227991622e-03,1.844241038090975102e-02,2.079297541333169352e-02,5.917943866567707545e-01,1.302487872466037352e-02,2.219591877036844810e-02
1.841388171906511171e-05,1.255246617827687483e-01,4.348105459867715634e-03,1.561228663944932982e-02,2.614869638194163882e-03,1.658329836277475100e-02,2.977634328156879978e-02,6.549810370067540299e-01,2.056167436235193866e-02,1.002516783429822055e-02
2.064290957820193693e-03,1.357254066869658382e-01,5.456793929500911716e-03,1.440435018386759108e-02,2.390860710241665254e-03,1.674184816247139065e-02,5.679129221111232917e-02,6.770455146335759844e-01,2.531339217697539321e-02,2.680195189109841822e-02
2.498997534278271562e-03,1.599847043390377754e-01,2.672900984929119789e-02,2.369259922175011128e-03,8.867942304178265227e-04,1.906259091860348226e-02,4.720443500212991722e-02,6.825674070433979113e-01,6.531994770090941704e-03,3.117782986472654450e-02
2.133590462836264419e-03,1.741540487451935793e-01,4.757739911687525192e-02,1.670372799218734772e-02,1.956830365024554534e-05,1.867396396587986049e-02,9.518826937245488881e-03,6.927385187361215779e-01,1.553649483521707050e-02,2.475217138641004622e-02
1.961451343697389466e-03,1.578750638267823747e-01,5.972465064217265945e-02,4.019004244786104907e-02,1.252307992199933355e-03,1.293397061501006147e-02,3.086212496247311282e-02,6.742214057327858834e-01,3.174910263654238257e-02,1.012499485986806391e-01
2.031060635961195061e-03,1.264555404646014458e-01,6.272636593897053248e-02,6.028653519339532973e-02,2.313378337893243382e-03,8.093056587529730977e-03,4.521930181322314501e-02,5.903085782336532361e-01,4.545038868067526744e-02,1.362416538402190236e-01
2.022014376807397713e-03,1.158827010410983099e-01,6.587694052578886572e-02,6.377651562311187350e-02,9.839520857390236970e-04,1.193176506906472138e-02,2.933870304575086560e-02,4.697171566905191109e-01,5.643178889490450129e-02,1.089296023729928453e-01
1.917495000801641702e-03,1.383601509871556501e-01,8.004126898032398740e-02,4.820144044048181586e-02,9.205828706847888482e-03,2.209984308723064728e-02,5.239135926169365826e-03,3.751761068638788110e-01,5.890530690993277946e-02,4.779198394049054277e-02
1.861947617844616695e-03,1.720498785913665563e-01,1.062233177949501173e-01,3.035946639290903679e-02,1.833497077202256992e-02,2.965350404722724709e-02,1.501619821793787578e-02,3.321720722527029546e-01,5.762945557952767195e-02,5.416041325730798148e-03
1.864523905348770437e-03,1.928677743436542635e-01,1.342710435265557500e-01,2.890932272604293876e-02,2.529739214771173014e-02,3.264720715784292376e-02,4.095878437848001624e-02,3.403672122961408641e-01,7.141676104687567916e-02,3.320218518928554768e-02
1.857894920840148616e-03,1.964924673152855239e-01,1.495046468043806087e-01,4.547219753977464751e-02,3.123595852765600686e-02,3.698710250378525050e-02,7.574893560033724160e-02,3.959531225142731148e-01,1.094080871480093836e-01,5.525899657323552622e-02
1.836556405125119255e-03,1.849410975094411547e-01,1.398925343305309488e-01,6.894291457003301482e-02,3.707241818674664180e-02,4.336439725628500608e-02,1.044767530016003920e-01,4.249971272877305362e-01,1.510572139045602003e-01,9.603560697432361737e-02
1.830922202275059351e-03,1.476582608239956074e-01,1.066999134196772170e-01,8.763172655375860154e-02,3.929086872002925113e-02,4.323959313482753780e-02,1.099091190818222430e-01,3.012065522992561917e-01,1.631935436033148112e-01,1.365605654502772270e-01
1.842579685448157006e-03,7.051551104980328943e-02,7.327142389176270754e-02,9.196524781951856409e-02,3.422932653763598176e-02,3.145113483554992651e-02,8.824302239838614781e-02,4.379124398789763922e-02,1.394996775122360755e-01,1.309551792239886381e-01
1.856108357786727739e-03,3.542089144615694074e-02,6.845827897937968587e-02,7.911399377302719138e-02,2.466101429443930473e-02,1.510250901216860474e-02,5.882401560589857470e-02,1.461124390561766295e-01,1.117873940691972018e-01,7.853323391795680175e-02
1.869073252390398036e-03,1.290398121579510449e-01,9.054188968361885637e-02,6.063095291942764697e-02,1.794755651076291106e-02,5.386362102953098745e-03,5.424292223669573837e-02,1.614020426471310943e-01,1.106886430008654637e-01,3.430731646318357919e-02
1.885946835505088832e-03,1.815287294570941679e-01,1.070644723059910874e-01,5.251417033949253715e-02,1.823413491498225222e-02,6.196461314680524156e-03,8.746342146541929985e-02,1.168492711020719388e-01,1.241756766746744123e-01,3.482073509834136826e-02
1.905110844272543593e-03,2.131908641640035684e-01,1.045213120902119541e-01,5.530757905803975610e-02,2.301799218968749242e-02,1.402870806314129859e-02,1.423533591205154158e-01,1.224418738575256266e-01,1.162095436826130618e-01,5.734672684381671853e-02
1.923687605560441514e-03,2.619345527265120599e-01,1.073121583726534822e-01,5.592853275902587989e-02,2.573871917562908784e-02,2.257552231735513587e-02,1.984714815233027674e-01,1.681381289949853142e-01,8.033526699349195777e-02,6.192455438791018979e-02
1.941533157863457393e-03,3.284127840325299363e-01,1.241583139058280161e-01,4.728983426391073636e-02,1.987648655062522821e-02,2.395570370520078152e-02,2.346235694053951937e-01,2.787232042325691883e-01,4.291636869935272491e-02,3.665948375579029805e-02
1.954582096236724166e-03,3.793003381468297297e-01,1.179448836872071665e-01,3.513090836380382970e-02,4.249957734805526709e-03,1.303295884446030277e-02,2.173667500837178912e-01,5.058043471902122779e-01,1.348946745595726304e-02,4.317159272564325486e-04
1.957574468835718631e-03,3.861083508825297050e-01,6.593182443599507336e-02,2.850332199679493986e-02,1.320941422746911044e-02,4.908984805332822915e-03,1.343872052204922729e-01,7.339840917458310132e-01,2.811731452720569319e-02,1.469065174610053801e-02
1.957009618563050179e-03,3.440309830817966930e-01,7.931357193083682713e-03,3.140391314463415046e-02,2.144988458796669162e-02,1.743322299135591572e-02,3.061655895637749314e-02,7.556875267955798225e-01,8.569660961505827512e-02,6.368127098987078419e-03
1.960483173581618974e-03,2.771612586267013789e-01,4.402474178305548248e-03,4.157308820390789861e-02,1.856217392920146356e-02,1.980179490885118285e-02,3.486159833988644596e-02,5.656996311467176186e-01,1.250796967768123547e-01,4.061065716890514127e-02
1.949482641222893354e-03,2.260108213811166111e-01,2.983137251385972744e-02,5.201011928341375129e-02,1.402425793235741527e-02,2.152459547351921396e-02,5.762348923026378023e-02,4.003860103317192776e-01,1.153299383483617352e-01,5.303487800901948712e-02
1.904046659081330695e-03,2.053341689873844911e-01,7.071776263730508716e-02,5.228462089804805646e-02,1.763045971908567405e-02,3.500524758823044674e-02,8.061935004695160167e-02,4.807555411498427023e-01,6.991487580934063750e-02,3.516644185368033443e-02
1.861342002147157223e-03,1.914666036128267468e-01,7.062175733425687940e-02,3.243130565600944870e-02,2.975026522664633161e-02,5.976291228811212580e-02,1.313716366944412683e-01,7.984449346225823696e-01,3.488760244993777127e-02,1.187487763617915302e-03
1.863429545554991153e-03,1.700847619491775431e-01,5.133464956377305384e-03,7.385536524529151721e-03,4.261118259737463332e-02,8.061290068354468041e-02,1.911982558107156172e-01,1.131920513888391433e+00,4.291819367897106718e-02,3.238186459187940985e-02
1.830826290405721413e-03,1.610354864799725949e-01,1.412991355187157017e-01,5.061000734337684631e-02,4.876922530027973796e-02,8.384334978666101168e-02,2.229222831204903388e-01,1.266849212343515996e+00,8.389816620225114263e-02,5.115767863458305087e-02
1.671187031200855244e-03,1.769449091398570817e-01,2.608535625802179680e-01,7.475314907085502114e-02,4.797407695571041797e-02,7.316595309811965708e-02,2.160643027569212893e-01,1.205165347276737187e+00,1.235334595724687928e-01,4.824369555629363926e-02
1.554893911104159032e-03,1.944897810213051803e-01,2.978096712342552244e-01,7.117900930245378566e-02,4.523586632515040618e-02,6.320922475066512169e-02,1.996269764868975893e-01,1.090191488872793713e+00,1.455555939256410469e-01,2.728650969055003428e-02
1.696667421206432807e-03,1.818713051718670870e-01,2.704741193867307159e-01,5.158572954556325113e-02,4.249425608347529720e-02,5.879839689245201784e-02,2.085393250608990889e-01,9.614760410730511797e-01,1.602042434804570592e-01,7.645303414927860294e-03
1.709516535217694717e-03,1.298354876218023313e-01,2.438581190402230314e-01,3.417890481566085437e-02,3.602694893514559599e-02,5.107637489159121830e-02,2.394764815182231221e-01,7.305706673661080952e-01,1.721675152224891592e-01,5.121853311552807680e-02
8.403557661198662095e-04,5.663394901070230997e-02,2.442232479580963844e-01,2.670306342196766478e-02,2.351445011610663050e-02,3.498301593259230818e-02,2.509591074671109201e-01,3.872916733763404618e-01,1.640459033463834704e-01,8.530399478121633572e-02
7.266047496721154530e-04,1.691358521937327136e-03,2.502696775642450633e-01,2.601827109620018577e-02,8.833463813390151839e-03,1.812893927188628101e-02,2.139096437562668929e-01,7.769945564578274733e-02,1.234185216248409184e-01,8.741388499353223984e-02
1.604801642261594920e-03,2.189978746132659887e-02,2.445133754249829428e-01,3.072859105848399497e-02,3.321422700616325895e-03,7.744597914001694408e-03,1.493516954194199220e-01,6.242790642791268274e-02,6.942209984462040240e-02,5.101213583799019818e-02
9.209618680932630521e-04,2.418050300227295515e-02,2.328530123012864939e-01,4.364885778291609925e-02,1.303753872933126334e-02,6.198811337981662006e-04,1.043222078756274596e-01,5.647415540695335801e-02,3.449640481562299410e-02,7.830071277610609060e-03
4.570983144411568349e-04,4.877441482713110177e-02,2.219644047727825642e-01,6.123477348239513701e-02,2.122873346101530195e-02,7.298746899598348992e-03,9.935028837223223996e-02,1.083338928780930299e-02,2.623907133504790878e-02,6.013228485852026989e-02
1.142446386961196029e-03,9.952921076740178785e-02,2.070226211176698361e-01,7.444477856823361606e-02,2.504834238771192281e-02,1.212887320848139196e-02,1.103421098658384364e-01,3.115470099307762752e-02,2.332162548415128711e-02,8.864327224814859407e-02
9.527872557864555713e-04,1.405290072696973036e-01,1.825289351288853779e-01,7.992562777618562875e-02,2.303398068614635752e-02,1.051265352838972288e-02,9.710361629100340564e-02,6.180958907608227748e-02,6.106376281034811906e-03,1.020276820008812341e-01
6.521612416454170610e-04,1.508207537610177784e-01,1.461248095156162941e-01,7.579091061085761749e-02,1.957511688661265487e-02,7.060902212627856271e-03,4.199244617753289388e-02,2.691143096187925687e-02,2.371069168647598618e-02,1.093153844075454434e-01
6.319116882520141656e-04,1.482410252791538652e-01,9.414552558404032379e-02,5.513145500264989701e-02,1.735427693787400250e-02,5.356127558622691964e-03,3.120952293679211953e-02,7.683579881142560408e-02,5.237179888473379730e-02,1.044013373072773671e-01
6.626486712743496392e-04,1.475643415773945921e-01,3.319972302224137584e-02,2.319780524453946349e-02,1.150557779794856433e-02,1.101626934456427682e-03,6.843402922193810023e-02,1.255367972940304722e-01,6.868851466532384376e-02,1.004968087885708683e-01
5.723736709325089218e-04,1.273088535085774853e-01,1.190095843027010741e-02,7.023189639577660792e-03,5.682678539022513291e-04,6.699389533069333505e-03,3.530206862639408832e-02,6.521809197222663834e-02,6.768392410598417230e-02,1.313450907792719780e-01
4.907945126921344240e-04,6.457850119626172558e-02,2.522285029687450914e-02,2.615399360250104943e-02,1.092437280130181647e-02,8.193302256540236500e-03,3.080035609583796005e-02,4.470436188480347850e-02,4.912882214135755321e-02,1.868543105341523569e-01
5.061149595412282659e-04,1.776265085948010650e-02,2.125287490502958745e-02,6.736000438023997949e-02,1.272395983059426694e-02,1.682901012355478721e-03,5.206421555019174335e-02,1.642745880717063622e-01,1.682483979337005137e-02,2.069047422780135592e-01
4.995645804825936094e-04,7.330955137338594774e-02,1.879495471077538560e-02,1.030872366152671138e-01,1.261503269031167412e-02,1.036009612493091550e-02,8.683882335429956786e-03,2.722740409918466553e-01,2.015061623013955291e-02,1.663183464477198392e-01
4.143977262703861129e-04,9.019954037420742365e-02,1.934124650032388940e-02,1.178757617292864601e-01,1.982040243525991577e-02,4.695480575696867054e-03,4.091381692788357421e-02,2.156397960046435580e-01,4.426535807698438185e-02,1.079709089298216129e-01
4.355765149858883706e-04,9.017173802361599932e-02,3.043736752813187493e-02,1.091426086558408837e-01,2.988147878491782469e-02,8.764189453365404600e-03,5.216390508975143891e-02,1.097454020729636825e-01,3.535168078999702257e-02,7.406281610960599449e-02
6.366870918191339318e-04,8.010973070227507542e-02,7.079130143726565516e-02,8.334931368076158031e-02,3.146493070715257467e-02,1.435874735157982411e-02,4.911158449516085656e-02,1.532026070525742134e-01,5.481042742886821709e-03,5.448075725231438238e-02
6.236720899267340565e-04,4.538303887092570710e-02,1.279914219283855015e-01,5.638683258081474137e-02,2.319061605333495174e-02,8.482335894822480571e-03,6.871851748052301700e-02,3.252427449006744520e-01,4.174687320807982799e-02,2.109899628859008766e-02
2.615117810630064715e-05,1.491597074518247017e-02,1.538164014548751846e-01,4.009609294819026920e-02,1.263687863966501262e-02,1.027118904097117742e-03,1.036192145796422936e-01,4.496270874833952491e-01,3.619333130640985108e-02,1.636566606288443471e-02
1.106545480242042759e-03,7.905803487261231499e-02,1.284476343750575733e-01,2.941665192417580038e-02,4.449851990696859945e-03,7.068268469432234351e-03,1.240558858782412482e-01,4.452074993107892897e-01,2.271553433027011758e-03,1.529088569207527441e-02
2.028839639463785038e-03,1.216916693789216186e-01,8.916639592640607237e-02,1.592689051373241682e-02,1.213123762210098835e-03,7.317854254747285271e-03,1.240497670456812140e-01,3.617153810072999964e-01,9.516892409943890352e-03,3.811112032567585961e-02
2.508666415379520384e-03,1.258288454847299453e-01,6.971967344802201816e-02,5.681261301252252260e-03,3.371203898211189588e-03,3.581333354673639328e-03,1.241392462668533397e-01,2.433290056511543953e-01,1.526259045305725440e-02,9.854961514024423996e-02
2.690450762930354789e-03,9.284647718980705566e-02,5.245853512176144873e-02,9.644858327906395690e-03,3.005030604882256810e-04,6.608316347947404976e-04,1.362980768898842399e-01,7.544452852110694607e-02,3.117751256227763168e-02,1.116264533571630913e-01
2.895907144409191718e-03,4.645662341603772755e-02,9.782901915397280643e-03,2.430536579204891842e-02,7.842760273353718836e-03,6.122301303102374061e-03,1.399096163588963437e-01,1.581051196037538131e-01,2.337451114045532505e-03,7.121342227930875513e-02
3.336587625152432224e-03,1.042897898722745277e-02,4.423865461491578721e-02,3.456291614865151379e-02,1.852834417637036490e-02,1.611266029930221583e-02,1.076782599435722604e-01,4.179866514054600968e-01,6.565540505758075962e-02,8.018213154600904724e-03
3.856694966398681052e-03,1.029272674771430224e-02,7.392297764251037906e-02,3.191334088704921718e-02,2.646880446331059678e-02,2.593705995676098830e-02,5.518223631961414327e-02,6.094388146852249832e-01,1.054770238589189113e-01,5.284994327692445204e-02
4.033478217861167538e-03,1.624825101288848370e-02,6.601472004647757075e-02,2.106520651707544101e-02,2.600508447910358442e-02,2.479569286701098149e-02,3.370600550738318130e-02,6.572172005549010709e-01,9.102429741622571069e-02,1.009952807278826359e-01
3.461496399758676786e-03,4.035601770748648703e-03,3.192945616717656615e-02,1.059427268233774019e-02,1.808131528764539767e-02,1.352582175948326658e-02,5.813986565166553988e-02,5.887289334427990850e-01,3.428414708811502315e-02,1.323755346236780150e-01
1.959551085480673235e-03,2.017365397582972231e-02,1.086242274679670786e-02,3.326154866317595354e-03,1.161692991793328474e-02,7.891939619717109819e-03,7.663290270758128797e-02,4.933646634964654054e-01,2.445537594324408842e-02,1.535317525206782718e-01
1.284798751345080201e-04,4.109417330942860547e-02,4.201097099019436565e-02,3.453979575404885448e-03,1.342013161343127807e-02,1.697581716605917751e-02,3.629963167031415722e-02,4.061209547645503459e-01,4.849333275214535999e-02,1.728158979850182575e-01
4.468039294022073328e-04,5.440622226727769017e-02,3.952427905002784542e-02,1.092830998096486553e-02,1.970813105099324461e-02,2.951090684974208567e-02,4.988662352894180502e-02,3.061636789650794555e-01,3.862532720308625017e-02,1.774342822512683659e-01
1.145148093921052272e-03,7.117335665538832012e-02,1.533001484732458581e-03,1.501757610572076844e-02,2.136461926342778789e-02,2.931741797823098419e-02,1.228521289301605784e-01,1.962187929335452996e-01,3.285613220113483418e-02,1.492519874243170008e-01
3.315102129428028083e-03,9.924662615195006810e-02,5.251306426617376177e-02,1.309054042828230666e-02,1.501358059967075609e-02,1.584056915107345115e-02,1.425257796748146399e-01,9.320902439358029479e-02,5.924256910294977557e-02,1.050168398498567135e-01
3.445256104259037007e-03,1.259727060530362874e-01,7.011991318970900444e-02,1.072664976882716295e-02,5.515300454571387366e-03,2.205060533917787592e-03,1.184665615342024164e-01,1.023236807271500973e-02,9.552595918300328670e-02,8.167258968909545114e-02
1.252250703872792841e-03,1.270548123044346889e-01,4.186652940596902878e-02,1.250229989571594556e-02,1.267754617552550606e-03,2.249502151174183860e-03,8.664610245288964507e-02,1.127000625301586290e-01,9.281846645061897494e-02,8.388188051913954280e-02
1.003393406825075574e-03,9.734731822723366457e-02,4.571097378877302456e-03,8.747964278104636976e-03,4.637961539085625438e-03,3.917434520624780070e-04,6.847348295750840808e-02,1.952608195354860743e-01,3.549872851305764521e-02,8.542021162631228959e-02
1.663831096523566647e-03,5.913568008292512806e-02,5.138843613041712589e-03,1.435465149784283766e-02,7.079310818057926204e-03,8.507202462905581655e-04,5.968628233903135183e-02,2.615665857999754373e-01,4.207210705848184878e-02,7.677178866079253927e-02
1.297801034028962710e-03,3.206438119111320456e-02,4.323821069099818837e-02,5.011813141478334982e-02,9.850530323673020380e-03,5.410649955893684967e-04,5.299659923295201719e-02,3.255935793694962332e-01,9.483481845315745729e-02,7.607470442466590654e-02
1.079451063869999068e-03,1.355587499997100778e-02,6.827242210112711984e-02,7.129458044827007013e-02,1.326356860852507397e-02,3.655824611027059037e-03,5.013554965928541940e-02,3.781426321605830254e-01,1.038273458598964055e-01,9.373620491563230961e-02
1.181033340720237350e-03,6.946398388474678970e-03,4.283901709318801293e-02,5.999498517681664533e-02,1.774126043128231370e-02,8.393110945784192783e-03,4.706192158234893258e-02,4.073836262851189827e-01,8.228690683917080917e-02,1.095677091430454914e-01
1.205418812801588172e-03,3.268310847056524193e-02,1.144966508832050839e-02,2.651423976786426023e-02,2.169855952204142319e-02,1.288942177428332829e-02,3.149474132546924848e-02,4.188064388845580410e-01,6.217803539904374899e-02,9.430021144795829036e-02
1.078774616343571892e-03,5.672328108544561626e-02,5.242063226724492930e-02,7.432431131494327339e-03,2.212031098078860031e-02,1.312366903572452850e-02,7.265434278902724134e-03,4.113585015020816416e-01,6.384465952936370370e-02,4.766994640769302294e-02
9.822483209557849714e-04,6.511344686858343278e-02,7.330151253344648066e-02,3.372041199637328124e-02,1.950475570756791954e-02,9.067673015640731818e-03,1.724703024255713497e-03,3.693880810025007566e-01,7.166702415660092251e-02,2.043061043830838794e-03
9.541392398523631298e-04,5.121671494379929218e-02,8.577029187061085969e-02,5.771638256891054031e-02,1.834769897891335919e-02,6.728271789189521970e-03,1.178651120250944970e-02,3.034734047863223982e-01,5.444826381515581459e-02,1.208427489641989913e-02
9.127956266877579935e-04,2.316427220846080728e-02,8.012493280781891880e-02,8.204205178590331937e-02,2.126728904999317105e-02,1.112002852763908402e-02,1.915966551484307723e-02,2.752849907653019401e-01,7.744711811807816759e-03,1.146171184901837413e-02
8.421696832324363727e-04,1.390687345983227310e-02,4.828307760544254396e-02,1.021412672957916906e-01,2.627731143539086336e-02,2.084001719370914829e-02,8.096261832466080874e-03,3.399738032959849776e-01,4.300001519851083531e-02,5.772950159152939742e-02
7.828861349839949003e-04,6.103287580770785231e-02,1.749558737298487557e-02,1.152261993072309365e-01,3.032596361180476055e-02,3.139499210444447047e-02,5.867014446329189836e-02,4.609074306904328289e-01,7.710972737948114386e-02,8.842764667718958083e-02
7.446239065260771076e-04,9.558809079301727740e-02,1.791884220973179176e-02,1.254940230592825612e-01,3.226325482951588469e-02,3.982143409034735043e-02,9.197211985255607236e-02,5.275316191866400439e-01,9.799820058306379922e-02,5.567012165325189998e-02
7.103088266631876540e-04,7.666157515706631398e-02,4.049823023187032467e-02,1.386980884701880246e-01,3.243678874336035356e-02,4.444247491951941464e-02,8.052806073119006536e-02,4.808244509739404982e-01,1.193093244641462852e-01,3.953314851250200324e-02
6.784954185524134191e-04,2.931122294860095089e-03,5.536852928715486205e-02,1.510911696586028641e-01,3.175143209746397049e-02,4.458626464843944148e-02,3.671639631219868194e-02,3.821266025699662228e-01,1.437755587917183830e-01,1.273407056098413426e-01
6.594649159919711975e-04,7.500881724245986315e-02,4.864542150992289676e-02,1.471341642154369300e-01,3.083727250698764868e-02,4.238373176658678104e-02,9.414472297789460743e-04,3.256990328340814700e-01,1.568338408874847267e-01,1.538222641925148515e-01
6.523188877103901521e-04,1.158943137283501429e-01,2.722115344360240968e-02,1.177400730603113815e-01,2.921912565451675187e-02,4.093081491339918554e-02,7.365523572474849331e-03,3.113115877768816708e-01,1.387939389402654267e-01,1.481725226071190504e-01
6.515566290274471756e-04,1.197620386171193152e-01,9.706632114647952350e-03,7.765939866319734874e-02,2.617756983141873370e-02,3.986713183492132662e-02,9.969872354438052975e-03,2.512781132811786056e-01,8.618059565841698633e-02,1.576319381474901304e-01
6.643365339127411300e-04,9.675889560202131923e-02,1.778235202794423500e-02,5.109585961659503239e-02,2.248983366814645210e-02,3.671706061030911156e-02,3.347684930196743319e-02,1.072203519427899904e-01,2.184134179553733415e-02,1.676699349250831417e-01
6.969486679061613361e-04,5.311483365819974489e-02,5.909081613501508679e-02,4.588729348652731410e-02,1.982662865274285868e-02,3.227742100435934680e-02,5.999048008103367857e-02,3.975315022202700888e-02,2.016223110060054446e-02,1.426253650896192604e-01
7.324491780192834848e-04,9.703331236032796542e-03,1.170269391510980056e-01,5.528585894294950343e-02,1.855194295138379301e-02,3.015483898174458471e-02,9.147283738299866185e-02,9.481004483342533873e-02,2.343187966551996820e-02,9.689388372586538178e-02
7.590990391431194683e-04,9.333275981924519377e-03,1.639750896894683341e-01,7.127774758139167333e-02,1.751182156512950949e-02,3.060242477966533536e-02,1.156025431044206825e-01,6.477218283029922974e-02,2.048890438180175563e-03,7.253018480063713747e-02
8.119337691849134965e-04,9.427675413072133734e-03,1.803812635638936401e-01,8.014223045266534451e-02,1.511070583366869863e-02,2.796758594733031456e-02,1.118819181928501910e-01,2.103615744678943161e-02,1.729036440342523670e-02,7.984781288751678641e-02
9.128875926338942456e-04,1.771402494251609130e-02,1.628855969892440969e-01,6.387813005103210040e-02,9.787614418568811592e-03,1.626387397753814579e-02,7.466697144162258437e-02,9.783696045909159866e-03,1.963957391218807205e-02,9.465157967905839242e-02
9.834995062144771122e-04,4.505978697063649924e-02,1.256842336199838761e-01,2.384740354859070377e-02,1.853813033045975840e-03,2.413194979831221384e-03,2.035347067758858444e-02,2.647962103662823696e-02,4.728689965981388091e-03,8.820383952458103749e-02
9.730527608915860325e-04,7.642499368183892916e-02,9.338725623451678282e-02,1.528747154418651569e-02,4.869330644642200570e-03,1.763712998837351983e-02,2.906431434145301598e-02,2.041637733709817520e-02,1.915298699797078966e-02,4.465694017597437310e-02
1.055945626948042284e-03,9.376117439842614198e-02,8.436837240725554576e-02,3.693549417089753845e-02,6.790480735271776404e-03,2.132207186371819219e-02,5.991911879461363916e-02,6.934672050325699222e-02,3.307699138883594958e-02,2.375317100185688618e-02
1.323242964934884681e-03,9.525306842211460345e-02,1.011484834655576731e-01,4.792031037268229543e-02,5.455229158376123655e-03,1.559633867456593215e-02,6.441753861007865067e-02,2.331750356193087459e-01,1.671660257129102545e-02,7.613812117686705183e-02
1.106212730666445180e-03,9.626674057445799848e-02,1.335378694885030748e-01,5.709246730529201480e-02,4.504333120636352591e-03,7.071614681738756965e-03,4.274036720980311371e-02,3.852191440293576963e-01,2.446975150508163416e-02,9.229203456680645790e-02
7.650712466933793547e-04,1.128193467530070326e-01,1.623132575027358138e-01,6.065613349229519863e-02,3.233083452129283976e-03,2.200307297293712522e-03,1.212042182804032482e-02,4.710207223933888243e-01,5.414137326049507648e-02,1.143349364968151705e-01
4.323620467397531510e-03,1.346557718148925498e-01,1.645591398746968359e-01,5.425044463883494511e-02,7.292671785024823494e-04,1.238672523112704753e-02,4.466115763438616680e-03,5.004773902306033362e-01,3.945048256813322995e-02,1.820285666517791612e-01
7.577667563880206153e-03,1.238465786947273717e-01,1.299034628980449413e-01,4.299689419446872662e-02,3.695356448682528099e-03,1.813837322283763306e-02,1.227099796212977652e-03,4.490577287218016633e-01,1.652584149682997938e-02,2.371969678197824727e-01
8.279143053168068131e-03,6.239854936647531297e-02,7.788859590060992488e-02,3.288045278912615776e-02,2.210405137564588549e-04,1.318432065902310976e-02,8.552596115980632199e-03,2.645029059783604586e-01,7.589930774159515947e-02,1.851592874603593952e-01
6.265213114369555004e-03,9.433840640120868398e-03,5.057141757600581294e-02,2.084524165554971914e-02,7.227555449415066884e-03,3.349921869220623058e-03,4.437843948640985553e-03,2.769300145718384468e-02,9.172837100946140687e-02,5.599018261623546489e-02
3.163263484672389388e-03,3.475168004474655375e-02,6.792697792809260227e-02,3.236129716813006003e-03,6.932256204159549864e-03,2.669442897340191037e-03,2.863008194128052047e-02,6.991888847767711856e-02,4.901684668606278578e-02,1.337398260184933380e-02
4.455816805497228193e-04,1.202834671661300210e-02,8.957555791235401188e-02,8.069761709549073958e-03,1.241409177141950156e-04,1.177056454071051701e-02,7.652416611662646306e-02,9.808563600662532911e-03,6.022044392798651079e-03,1.965121597622776495e-02
1.260978129960992110e-03,1.166748686834713153e-02,5.420580798681448598e-02,5.208781522965241426e-03,7.062680131857427754e-05,1.322908839433361607e-02,8.742003644109767879e-02,2.071827502442070285e-02,5.022992705373898609e-03,4.709508172245611274e-02
1.825065855597768480e-03,1.343172967131901763e-02,3.466434553585231310e-02,3.783232378825965997e-02,1.404941016502596340e-02,3.827313565143678105e-03,2.110972907083896039e-02,2.443671026878111996e-01,5.740399478311791065e-02,1.019459868528633552e-02
1.674875232981911473e-03,1.717905783521181742e-02,1.067133020288300732e-01,6.154073040131502470e-02,3.077045785277910533e-02,2.673173960767864787e-02,9.184418021130640042e-02,5.137085235990954679e-01,1.132512751797203759e-01,9.121710318115862359e-02
1.616142369263292352e-03,4.042037010800464403e-02,1.162808781210339371e-01,6.162123068969390521e-02,3.557856304464888930e-02,3.612841685779471373e-02,1.712459364528335082e-01,5.984647760636039315e-01,1.106390286146869961e-01,1.077213479441558736e-01
1.831642866083092042e-03,6.029884842931929750e-02,8.289244132417394884e-02,4.953799305839501343e-02,2.865683026770890832e-02,3.016719245798399687e-02,1.695178795362364821e-01,5.001601117670053664e-01,7.125654660213154301e-02,6.324423208880043668e-02
1.640232101767156482e-03,4.755952099630818275e-02,4.140082164624139804e-02,3.712299911001451513e-02,2.064913812012755465e-02,2.264711011427734955e-02,1.112943080754738856e-01,3.770207837507266735e-01,4.338547283457045572e-02,1.473348781908175378e-02
8.100704565122591756e-04,7.524087804017720940e-03,1.426348839515242939e-02,2.361054461662263557e-02,1.796832985294771409e-02,2.295286740264649433e-02,5.427756485335157033e-02,3.143236754381828479e-01,3.923841092735527725e-02,5.771753175413754829e-03
2.603113084002739008e-04,2.663390436254277696e-02,2.694480087838630605e-02,7.993603117988402201e-03,1.873715256542764218e-02,2.648596477714699332e-02,2.817420821745422396e-02,2.792457249285272836e-01,3.836637797950981366e-02,4.842863588946054454e-04
6.818729117489042736e-04,2.908783366227314995e-02,8.583792023360808932e-02,6.515816006013596534e-03,1.892177051137490518e-02,2.430515577026699445e-02,1.292964090884271729e-02,2.230850059541266694e-01,2.491173778768549646e-02,1.480704926263041316e-02
1.416756059336040123e-03,5.284379483565659376e-03,1.500245211670964141e-01,1.667611724106321525e-02,1.710485882941780236e-02,1.598003099332167415e-02,2.622865968541169754e-02,1.574533379481909967e-01,1.502061824848875465e-03,1.460060110667162070e-02
1.572747403599390227e-03,1.230932815189721315e-02,1.777503365112567957e-01,1.642274999193183566e-02,1.410477231877931351e-02,9.027717087147692915e-03,8.475219144219557632e-02,1.437308565754093770e-01,2.200426163146776068e-02,2.455058262620400233e-03
1.283519446291985465e-03,8.307756018693591288e-03,1.771878621671127418e-01,4.913849714552470660e-04,1.055747732833040714e-02,7.607782453781526677e-03,1.197877536296431816e-01,2.029576921571160653e-01,3.846947411828590541e-02,4.004205300208413081e-03
1.125209559301425114e-03,7.214819616562594129e-02,1.722570448383419217e-01,2.343451004810126123e-02,6.139606450617424160e-03,7.610180690078263005e-03,1.139039967870028730e-01,2.538207455469184692e-01,4.327099230327484392e-02,1.888526621878324624e-02
1.165496200638652851e-03,1.551283360798444977e-01,1.634604916344557235e-01,3.939253845618455319e-02,1.562056044117914868e-03,5.138563459192594177e-03,1.026380635870822594e-01,2.101624164200639189e-01,3.445198640751936242e-02,1.616828681159852496e-02
1.158421464192703129e-03,2.220768418367083386e-01,1.540978317795496377e-01,4.036178157781421943e-02,5.072921834149619370e-04,3.727854580586040245e-03,1.183990163692969638e-01,1.108536428414507169e-01,1.915010547707232322e-02,9.416947387892201163e-03
1.063630932265400598e-03,2.460392148009150348e-01,1.599590954655885633e-01,3.032048028458348213e-02,1.213293365807580678e-03,7.892087238666460614e-03,1.467469633960729325e-01,5.364519178048687831e-02,1.451035667151106059e-02,2.903187934728408345e-02
9.956941255637621717e-04,2.218372321741949593e-01,1.719510291781312372e-01,1.693048387784632305e-02,4.293236864740711950e-03,1.461711849794827475e-02,1.633166549395792533e-01,4.712636960378431550e-02,3.064211510111162357e-02,3.341361127818906485e-02
9.849214516287154754e-04,1.689741155629908842e-01,1.622339956111892301e-01,9.958269631080110540e-03,6.112944957313626304e-03,1.678976148350016726e-02,1.770390516147010429e-01,3.322369514679806429e-02,5.223155434942455821e-02,4.679876664966774180e-02
9.823393353701199548e-04,1.138547460309099479e-01,1.324403904397557508e-01,1.371563409798770214e-02,6.930232263518975450e-03,1.137397181311660711e-02,2.083858606125129909e-01,1.658123064406283320e-03,5.253423253685302746e-02,8.396066130266760519e-02
9.575599025383280073e-04,6.653317408107098374e-02,1.089773506536429043e-01,1.853703450639021880e-02,7.361429486244460557e-03,1.286666997346221130e-03,2.463136203407810809e-01,3.127574961891102512e-03,3.013579914593978587e-02,1.226981665169812191e-01
9.281042704855528092e-04,2.559713094352231849e-02,1.020792692530207157e-01,1.598675501189981973e-02,6.543139870003347042e-03,7.733535260505504903e-03,2.528593947414000120e-01,5.359806023888662868e-02,1.088653605975846428e-02,1.235915380147687703e-01
9.449293684085818042e-04,1.403100885191719410e-03,1.105601393411015654e-01,1.701437143142689803e-02,4.404012901033963270e-03,1.202576849642388208e-02,2.103550398269213029e-01,1.557003056498088012e-01,5.334852687938630711e-03,7.690331123429000604e-02
1.014325082204337904e-03,5.961775958876633363e-03,1.430285101165266193e-01,3.485917101119911932e-02,2.250527874133806568e-03,1.384719478223666797e-02,1.478383354115569148e-01,2.216580819719554951e-01,7.771585921597472073e-03,2.468446786406903667e-02
1.035682614039111233e-03,2.023704483030951476e-03,1.967541880826281786e-01,5.948281115671945340e-02,3.935898798980157383e-04,1.823639899547294801e-02,1.094370169273269494e-01,1.624363190234618948e-01,4.181644307860282739e-02,1.311934409670382010e-02
9.724553699435446556e-04,1.013164585936617706e-02,2.389561089971150298e-01,6.965456833324197572e-02,2.268016576669566568e-03,2.569754388499323125e-02,1.091066524406279908e-01,9.594826654834725382e-03,7.687516449094215776e-02,3.360621756334603721e-02
1.034957648978854575e-03,2.388721520011774860e-02,2.359628710241110650e-01,6.100734454520688466e-02,6.329056174424285350e-03,3.206134677876998351e-02,1.307992140585950147e-01,7.548928129861123826e-02,9.176603024552656973e-02,4.514469515641564984e-02
1.324344989735228972e-03,4.506803802290962335e-02,1.871360704698983857e-01,4.537120431235863033e-02,1.086661880653894477e-02,3.493220818440782860e-02,1.519239545595108265e-01,3.524432611952378613e-03,9.252040104074171767e-02,3.222465870944257738e-02
1.360926186050599555e-03,5.292331237683026157e-02,1.225656212085477481e-01,3.040516556071540602e-02,1.418491929378497968e-02,3.479427888874798980e-02,1.450566209105071114e-01,1.363911677025782532e-01,9.148957923019886140e-02,5.579478385711437310e-03
6.243611543706078029e-04,3.337517972629482771e-02,7.624086013043220034e-02,1.405210834316744303e-02,1.514062694766384401e-02,3.031821979290981114e-02,8.723619124265333258e-02,1.503847105596617939e-01,8.499839340823649170e-02,2.268243845660158908e-02
4.847797384827323371e-04,2.312266599464170465e-03,5.867834142631704608e-02,3.274837697306039359e-03,1.343551295420215841e-02,1.882957171875981883e-02,2.010934386687113998e-03,4.846755800449295548e-02,6.734542995972279955e-02,4.254384581123567266e-02
1.138077870483540210e-03,2.073477339732116703e-02,5.264405954622164430e-02,1.267692662592448394e-02,8.952017657078776419e-03,2.013128723871379384e-03,6.878182801906902732e-02,3.640647246393163144e-04,4.471538925168889317e-02,5.903727322458889037e-02
1.498657741246834122e-03,3.653998565873487619e-02,3.816660725123341424e-02,8.915558862289389708e-03,2.348284572208111150e-03,1.435954294132650057e-02,1.045316067900909640e-01,1.114561833738061530e-01,2.369870392748424023e-02,9.701198007538060220e-02
2.531427833918707248e-03,4.819191473704648176e-02,1.339197314445021887e-02,2.302221521799363395e-03,3.714962054312324208e-03,2.690129911046637221e-02,1.673398899863827727e-01,2.976855536631270449e-01,1.406109359468804554e-03,1.552058047162341026e-01
4.205296539874825261e-03,4.657828624159257580e-02,1.478227982339507147e-02,7.663013927538588239e-03,6.088538604022984517e-03,3.583883861679172667e-02,2.826218810662184389e-01,4.012851109381602166e-01,2.794506925655670937e-02,1.854384530967729816e-01
4.937051867049324291e-03,3.198077186701464569e-02,4.676491922145013802e-02,2.339149421619868968e-02,4.298134841503500024e-03,4.038085896716222395e-02,3.873301282754702535e-01,3.546265983729557925e-01,6.494064976072892736e-02,1.585441151622166422e-01
3.455146710527576097e-03,2.756200812833863034e-02,8.695649119580209363e-02,3.407167249773437878e-02,7.541891214542793039e-04,3.847112877737626779e-02,4.220961375580924990e-01,2.073025604594690430e-01,1.022507094623555796e-01,1.094975502539319301e-01
6.010274243660258982e-04,5.131292997200131989e-02,1.348162261397795048e-01,3.387977454386013193e-02,2.207693053016446857e-03,3.085368255419714337e-02,4.059294365706090923e-01,4.140854687434539910e-02,1.288621733125949742e-01,7.918737285193752640e-02
1.560511996105011729e-03,8.907127371156632611e-02,1.841146797513512900e-01,3.287328329326221626e-02,4.319795139994576233e-03,2.095244109821573983e-02,3.708522172984499155e-01,1.069652789735725806e-01,1.426803868223001093e-01,5.662817512987741025e-02
2.109590994548078170e-03,1.128309007503971034e-01,2.186877205499410670e-01,3.684433878021284997e-02,6.458475868343302624e-03,1.151908157498084811e-02,3.028548076580021009e-01,2.442759342467026862e-01,1.515047957009837132e-01,1.598265614027217368e-02
1.850029168115025152e-03,1.153453625180152486e-01,2.129769784784129871e-01,3.555648067496484932e-02,9.043151508105744252e-03,4.236362097807340812e-03,1.989273209304165124e-01,3.579323161633766182e-01,1.520660321663570569e-01,2.742616933662246279e-02
1.753695382275659471e-03,1.094911107740504097e-01,1.604770823616639419e-01,1.957769279620460295e-02,1.189205332147498691e-02,4.919703352402938525e-04,1.090833854268005720e-01,3.995302644766695055e-01,1.255621014115838041e-01,3.550945196511113428e-02
1.865812716404440441e-03,1.011678347964143354e-01,9.720464758628197255e-02,1.338625704948837557e-03,1.431982611210848820e-02,2.343141323557311993e-05,7.051939449818625527e-02,3.466498276485701080e-01,7.078200020740108012e-02,1.296415442297525408e-03
1.847042002956596251e-03,8.389101298557592734e-02,6.980998024881976405e-02,8.147296198240316575e-03,1.447920107394115065e-02,6.535419821117926034e-04,5.387605519527011166e-02,2.447291201057173737e-01,2.129117778411838968e-02,4.356927449334587615e-02
1.735692418900089363e-03,5.973009369244048489e-02,8.594684608147158678e-02,3.829085344665659595e-03,1.041853060494721955e-02,1.837662258331735233e-03,1.595337255609914975e-02,1.637727752953792304e-01,9.802667883122038323e-03,6.762928702045335749e-02
1.747403857343967542e-03,4.527104754272639336e-02,1.190098811815243351e-01,2.193549250790633592e-02,3.274097967184138019e-03,5.056990507399359430e-03,3.368029856220011026e-02,1.288323835040111609e-01,3.320614846679570409e-02,6.650340334517002017e-02
1.751616347131897990e-03,5.182365377854335209e-02,1.493644799599378736e-01,3.496835936378664411e-02,2.268523810096305729e-03,1.049347178615999375e-02,5.394225970747448806e-02,1.000847202832133437e-01,6.793467851897105891e-02,4.814165012567045432e-02
1.512153364688061672e-03,7.140653034487468021e-02,1.756059525901919327e-01,4.375093829381884042e-02,2.255125463190780187e-03,1.475125938126611858e-02,3.319410214805787462e-02,2.722310440965804157e-02,1.002090795187644823e-01,1.054412754559846781e-02
1.334119699700939913e-03,8.034262711682836622e-02,1.932760859539062737e-01,5.073968326191614919e-02,2.454431151221935989e-03,1.447294715000835459e-02,6.796122374216517076e-03,7.190992272168122978e-02,1.231444467320674946e-01,3.884422494802876324e-02
1.642475144478309102e-03,5.158213896296275774e-02,1.876433190603730150e-01,5.028476555861790404e-02,6.904394781060683474e-03,1.121357032151489019e-02,5.313769719834085525e-02,1.194019733803477340e-01,1.193540337480235580e-01,5.314862759180846025e-02
1.764288842237503189e-03,2.030057485364232875e-02,1.543510003367598304e-01,3.824955518611469069e-02,6.910751656842364921e-03,9.237463616761918891e-03,1.062469268642075165e-01,7.022986561258340310e-02,7.317588084030555995e-02,1.248921520888284127e-02
5.013101924804617276e-04,1.014027698761988255e-01,1.146523265156837584e-01,2.378589511657299219e-02,3.226946672512105534e-03,8.408099793465868138e-03,1.482025212990914775e-01,4.908166951750399243e-02,1.139832222045098582e-03,1.260431018514049928e-01
1.585037272378280815e-03,1.483184261285787620e-01,9.799479797653416757e-02,1.959265808419579161e-02,3.156936526361659497e-04,4.803399909796920823e-03,1.600281788921684434e-01,1.746711592902375210e-01,5.357643434864056003e-02,2.018495729285302021e-01
2.505941980791984332e-03,1.535181453800943119e-01,1.125064775602332284e-01,2.652529648235943394e-02,2.716617702536087628e-03,1.862764081717898550e-04,1.693970368930798609e-01,2.225985537922084145e-01,6.387005322113264993e-02,2.001315827720186180e-01
2.162232879425243608e-03,1.371271095475471713e-01,1.422514064687348256e-01,3.983366685928094869e-02,6.646564588961822659e-03,1.148087826056895522e-03,2.180112092370374843e-01,1.306499007895865760e-01,3.647914229976256112e-02,1.511142668942144496e-01
2.474070849603141834e-03,1.115133395817299450e-01,1.704577556232453883e-01,5.958362325665662873e-02,1.272948856050497637e-02,1.128622650532934077e-02,2.829850320296267152e-01,4.992055875406078980e-02,9.934441195852976650e-03,9.336709447426846942e-02
3.502707297065288036e-03,8.316013939915618824e-02,1.942752263857201456e-01,7.780792746650003200e-02,1.723348360866614262e-02,2.197506116731982526e-02,2.967116117501755745e-01,1.741547700408039301e-01,5.504908307619862246e-02,3.957543802344670736e-02
3.074977851623532550e-03,6.449387743667299444e-02,2.138744952282266021e-01,6.986340195956088073e-02,1.697198696477161817e-02,2.417164889396624522e-02,2.407286795873613827e-01,1.633416249319827318e-01,6.956991413612344244e-02,7.752347780161748282e-03
8.860298392889179699e-04,5.637535727509086075e-02,2.141828892369543602e-01,2.261673381356690826e-02,1.300215996807947694e-02,1.785558436108180755e-02,1.608780391149016165e-01,7.295007498462388607e-02,3.299230194496248492e-02,4.203839622078327232e-02
8.589975265534818220e-04,4.261208505293360982e-02,1.714156482253322844e-01,3.969020008914822539e-02,8.481186308808244534e-03,9.213148834712686988e-03,9.603960198117289515e-02,1.403082543377498145e-02,3.778697999472099833e-02,5.605653917616133103e-02
1.091604298759737577e-03,1.728156092886539916e-02,8.695520713437347726e-02,7.855022996776465927e-02,5.457159926357500745e-03,2.883446087148887511e-03,3.944225385518590477e-02,7.907782642277394469e-02,9.911619470455290681e-02,5.520741145318863730e-02
6.347414578032710680e-04,6.128053595222626021e-03,2.326099883398519141e-03,7.942805710626614502e-02,4.023649710071590738e-03,7.564028736204003994e-04,3.007823919344773667e-02,1.405494241375216946e-01,1.182112161713970572e-01,5.854317347217324191e-02
2.362025423138263325e-04,1.886036320964323831e-02,3.484247804919464453e-02,5.427391263090491913e-02,2.853719452306120730e-03,3.696353231551052949e-03,1.073516332571773785e-01,1.936564017725610487e-01,9.131319833974860245e-02,6.998354257648842225e-02
1.897897823422865001e-03,2.952390862699096064e-02,1.287301191080394633e-02,2.250712442504733402e-02,5.108790924651595514e-04,7.381770097193850362e-03,1.599345783769716145e-01,1.979650142451626349e-01,3.979844826431966354e-02,6.529100895766093426e-02
3.776511075653930360e-03,5.101994789492686477e-02,3.731417023757885310e-02,8.115227521366249683e-04,2.965351205963729329e-03,1.102928379962637637e-02,1.629338651706614405e-01,1.217275256976335651e-01,1.772351635025184047e-03,3.225986167691023004e-02
4.852879711063437344e-03,8.695890259237382125e-02,6.057950328536882562e-02,3.706043830672821771e-03,5.987191068135741187e-03,1.299308344929340185e-02,1.263058638366227893e-01,1.747393329454193824e-03,1.097164231406599910e-02,1.811361444226064401e-03
4.848203524696525525e-03,1.259313185962563086e-01,1.124169758271966781e-02,9.657954952186995762e-04,7.069409956939490779e-03,1.335129331340495495e-02,8.229925084080019770e-02,9.589714452886367868e-02,6.443141906524398055e-02,6.188603463335571285e-03
3.814175606553399898e-03,1.422265257156634100e-01,1.039393395538352055e-01,3.156126457771538107e-03,5.895908340485234676e-03,1.332349535402811876e-02,5.610664772848522608e-02,1.324089432175141468e-01,1.209625141614175253e-01,1.933816224535579720e-02
1.899738948718485924e-03,1.138372922801223208e-01,2.241430376714120820e-01,4.590587507447121789e-03,3.078235048059930513e-03,1.288729471908632400e-02,5.467411610190460458e-02,1.463936201288125738e-01,1.471737499832085072e-01,5.966158439205090924e-02
1.168037257047641308e-05,4.863587872465018058e-02,2.933164956073530116e-01,1.442954794944056526e-02,1.080598281479248869e-04,1.182587293297099676e-02,6.996627212545906971e-02,1.480888464469349575e-01,1.510106110267288027e-01,1.005391049605058595e-01
8.664422056112975560e-04,1.609725340983075847e-02,3.029799509608573915e-01,3.008791309428547958e-02,1.183224601059855181e-03,1.221126541038884683e-02,8.775638633484285356e-02,9.591562136749831602e-02,1.549637285798037278e-01,1.237865804959061428e-01
7.469404093927762721e-04,4.486345339853628489e-02,2.719116833626366581e-01,3.867382568416889710e-02,6.641713246870134622e-04,1.611324082915538414e-02,1.036427657208731645e-01,1.763830412717481977e-02,1.584690742253259677e-01,1.173771265030636030e-01
5.454589140738197494e-04,2.956651907433858334e-02,2.189762257411093094e-01,3.508529406421511537e-02,4.459254395546161857e-04,2.090534029927066176e-02,1.279712097648191549e-01,1.223953390413034664e-01,1.481311169701838570e-01,9.483784924004888539e-02
6.481517665449820255e-04,9.564424262686077940e-03,1.653597363398098263e-01,2.500000369931881447e-02,2.338341208631833888e-03,2.037482559318090289e-02,1.666461792115751794e-01,1.420490824081262760e-01,1.240848809594573554e-01,8.345547703361556879e-02
7.873942578578008297e-04,3.834030147167005742e-02,1.318881097744586117e-01,1.209664070902224248e-02,5.796534198518409065e-03,1.176621101557713371e-02,2.066144053555309390e-01,7.133318448624470509e-02,9.395231473810822242e-02,9.054458847068654059e-02
7.865600430174849236e-04,3.268993515972986458e-02,1.251441454256524977e-01,4.881528426707163956e-03,8.536012591698163496e-03,2.672720514974570539e-04,2.316600149219614768e-01,2.484225097917226732e-02,5.800485239367541429e-02,9.564872428402566851e-02
7.605141733884325213e-04,7.899524170222685122e-04,1.395956239111825203e-01,2.313963719097032745e-02,8.300274721602139000e-03,8.024357286327303204e-03,2.439477483052657214e-01,6.637089814730547099e-02,2.085279201839715726e-02,8.081416007118466527e-02
7.906763045349822234e-04,3.474182598784918835e-02,1.645071034882797656e-01,3.374027220286844597e-02,4.524766287441771284e-03,7.942642226328056748e-03,2.562123009171181076e-01,2.343172732962728322e-02,2.981763851730405077e-03,5.603539400344691862e-02
8.228378362106706766e-04,5.166790468861708757e-02,1.801233118578519365e-01,2.874341099665309734e-02,1.085635981467909491e-03,2.568807162226504574e-03,2.674949166701275360e-01,5.441885068686801163e-02,1.806441199967885602e-02,4.341817178706428026e-02
8.169360328311214879e-04,5.173165322475190009e-02,1.652861756267731130e-01,6.803522803796518276e-03,5.877771467163102857e-03,3.360113062529727131e-03,2.613500851242072653e-01,8.894813973119826411e-02,4.689746890394590889e-02,4.737813885311957518e-02
7.969591660623046112e-04,3.785462713532306706e-02,1.189297869767659555e-01,2.465142564592212940e-02,8.156972623394483785e-03,7.094512051220899784e-03,2.270045040810610981e-01,6.265760016777971453e-02,5.515677339131144080e-02,5.426454180103007507e-02
7.814051891738899762e-04,1.620328891048198466e-02,6.259185269032786769e-02,5.087111910527471886e-02,7.828843095070687694e-03,8.356099641241366074e-03,1.714003361589538366e-01,3.499036179161694321e-02,3.343558765935199240e-02,5.098821599313751313e-02
7.589499629564727809e-04,4.948196587299890335e-03,1.655320928231564931e-02,5.834458812224051216e-02,5.722287671707384539e-03,7.871972069048783702e-03,1.139860738074713886e-01,5.657176370214646310e-02,4.427116928206161275e-04,3.526585352803405377e-02
7.209605918940063373e-04,1.838428834958286823e-02,2.085712214497502034e-02,4.411794853550782269e-02,2.714121536387856769e-03,7.042685562162108448e-03,7.703658512093802813e-02,9.700279810225652388e-02,3.061920469008973938e-02,1.726334285339680211e-02
6.735769050480531605e-04,4.679059900807712447e-02,6.304309284083844944e-02,1.708489180827693979e-02,3.740169167290475095e-04,7.765298067509781958e-03,7.080567088042560853e-02,8.925259486154991928e-02,6.450188380033122781e-02,1.144301029624067434e-02
6.221197498154272748e-04,6.734763028617656022e-02,1.028629276240750900e-01,7.140982597185376382e-03,2.461964354407514700e-03,1.051183367611737904e-02,7.981317999598280810e-02,2.302737168883665572e-02,9.727912840670405181e-02,2.000087835889750518e-02
5.645899378124775211e-04,6.700030548788453444e-02,1.090343619245676687e-01,1.642086445829790339e-02,2.761576139466995206e-03,1.324991751581998216e-02,7.562831128411683090e-02,5.077430316031898705e-02,1.051342166204990852e-01,3.198274372317107955e-02
4.999225174281580206e-04,4.854484613899263251e-02,7.065079875911987883e-02,1.324321408285687902e-02,1.753624466740735105e-03,1.406546613769036301e-02,4.944925345953989082e-02,9.061861070384556738e-02,7.819178353389694136e-02,4.031007744212242866e-02
4.324732476481852207e-04,2.589005546994705559e-02,2.206208859457269023e-02,9.980069952997109445e-03,7.022046172813481077e-04,1.406120939879262378e-02,2.089706361244520957e-02,8.853190728059683046e-02,4.145165068540909714e-02,4.517830182970197783e-02
3.659276461795428655e-04,1.296387221344657073e-02,1.070608559279477567e-03,9.499891506720018267e-03,6.620994591691658831e-05,1.546327715081471238e-02,1.306875993610214295e-02,4.887704002418758603e-02,2.017332818611386469e-02,4.413273007099610679e-02
2.980653354244716452e-04,7.252882459856188277e-03,7.660185736883423982e-03,2.670511742110573926e-03,7.772986687863566412e-04,1.733945328284147366e-02,2.703062019196854002e-02,1.188556162055045932e-03,8.355478584276895479e-03,3.861327428024951408e-02
2.281802036305237663e-04,8.232574599106218943e-03,2.294092506138043289e-02,1.129331697848893687e-02,2.210496386582147098e-03,1.628568141302978028e-02,3.681172805669577497e-02,1.075871191112927339e-02,7.463974061093696030e-03,4.007835330570208576e-02
1.661015596808234837e-04,3.859785825079596611e-02,3.982137037222414910e-02,1.829870881337292837e-02,3.680452730134318746e-03,1.215376282014412126e-02,9.929530335213411496e-03,3.508357989418250944e-02,1.802002141276380295e-02,4.536039971317619435e-02
1.189138585760569618e-04,6.568470454354329024e-02,5.853410562707647008e-02,9.348720409451571206e-03,4.390729365836875883e-03,9.364537423758796317e-03,5.182929836027905246e-02,8.663770458612499170e-02,5.487474081418069333e-03,2.824769684597721459e-02
7.227204689884433419e-05,7.195534152812310680e-02,7.422505068831644626e-02,6.071923302043574951e-03,3.898002672679494376e-03,1.007543680420241658e-02,9.906072440751018116e-02,9.369679533655078663e-02,2.965377164322070824e-02,1.343929121740831262e-02
1.698818446449828980e-05,6.113003544341086976e-02,7.822421762942423362e-02,1.241528533346108500e-02,2.314117559191800587e-03,9.989436917163955001e-03,8.937646077192729077e-02,6.262223976203394604e-02,6.915320041042108401e-02,3.743221517203480786e-02
1.102320660295481598e-05,4.441810766639531921e-02,6.323026178082656601e-02,6.320930702259186344e-03,7.457052195611592283e-04,4.839430418858021651e-03,4.722322581625350985e-02,2.722659077115224813e-02,9.473597054921592542e-02,2.039419058724752792e-02
1.390946975028309720e-05,2.205460874474977212e-02,3.183844981836068955e-02,1.823752800857928900e-03,6.680936999830763053e-04,2.600989374260393242e-03,3.423982716590690673e-02,2.993183315041806833e-03,1.003226501059556602e-01,1.624270844147483392e-03
2.044826545734489901e-05,6.617470656014911093e-03,1.338382610668161377e-03,2.526390287056484371e-03,1.907909512002992905e-03,6.405737328031856775e-03,6.591994817852979416e-02,4.192087089411949269e-02,9.062919148510667489e-02,7.345865926211623056e-03
4.432615584274809842e-05,2.824081430774356277e-02,1.092044618768955346e-02,8.011135700410991749e-04,2.542193362953601952e-03,5.269846801917813309e-03,9.890096286984484397e-02,9.284683229534702875e-02,7.040302466305060902e-02,3.047545829658922928e-02
2.406197267590840330e-05,2.798135658484798491e-02,6.297761213059095350e-03,8.669845372086054051e-04,1.690300842240771749e-03,2.350668284995037320e-03,1.012955376284778303e-01,1.373251327259016330e-01,4.066168357850035581e-02,3.613390404329925448e-02
2.120305228309149427e-04,1.070172776660780617e-02,4.854226259242799650e-04,6.263569950046719327e-03,7.953104528592857972e-04,3.462583806874367648e-04,8.945900689974889408e-02,1.576811480498937212e-01,7.572056240936821461e-03,2.400648280915351762e-02
3.036641151382717856e-04,2.170031899891738600e-03,1.715775591786232544e-03,5.869468920193202967e-03,1.271864415639739360e-03,4.134102992751662953e-04,8.685844842759110618e-02,1.557290292329141235e-01,1.463242473916701904e-02,1.197067518072551275e-02
3.224549304341894516e-04,5.154382752788454723e-03,1.565973377605216644e-04,8.319542029189654683e-04,2.473794047505432827e-03,3.036421295010758095e-03,9.307122199542477992e-02,1.365136932030508454e-01,1.492519988312663963e-02,1.171243785278107581e-02
1.529767213750234762e-03,2.786793258626931238e-02,1.846103214484313276e-02,3.244299460552822843e-03,2.852644827946132760e-03,6.558610516771841772e-03,1.037780413600234292e-01,8.682978545245023660e-02,5.742218007905199387e-03,2.402085253603290088e-02
2.363022869591183128e-03,4.525486721716701771e-02,4.687110787456300054e-02,3.386799465972516448e-03,1.983910584540286154e-03,7.205641733651598282e-03,1.170239447710116759e-01,9.910615316603612474e-04,3.655499404875736658e-02,3.522800165111676651e-02
2.110597546232266097e-03,3.919125370049492824e-02,6.383085770331986541e-02,1.120957563796241840e-02,7.825057107423916613e-04,2.809968042246010871e-03,1.132231614237032419e-01,7.844746777870233168e-02,6.168890890689781442e-02,2.468334899950352240e-02
1.101667078929115381e-03,9.639577541025304286e-03,6.094059958683230305e-02,1.250578973779393165e-02,3.497351971294919816e-04,5.327651010024091020e-03,7.142689592265710763e-02,8.717917651212794827e-02,6.649828691545181525e-02,1.099408282264348509e-02
2.652665841895738359e-04,2.800838464886119122e-02,4.931154598826324037e-02,8.795542358344194539e-03,1.132494671797614014e-03,1.468848743210380593e-02,9.629959105858135193e-03,8.452396196195650913e-03,4.754656499394355196e-02,5.157499472510880534e-02
1.020069759893859338e-04,5.898122693589661486e-02,3.329837024857001254e-02,4.564786386105286128e-03,2.909875066822839064e-03,2.312203971191529456e-02,2.746574121785561734e-02,1.123382851243204111e-01,1.702161574454272297e-02,7.402541379571683788e-02
2.358672054406089793e-04,7.878943361398915712e-02,1.585708773446141461e-03,5.171036564435442561e-05,4.724431610490003458e-03,2.778132152946494876e-02,2.239378751126696113e-02,2.095830720633274913e-01,6.370556536420349421e-03,7.006061394204177173e-02
3.886845815118772466e-05,8.742245633815688699e-02,4.404311491178487803e-02,7.022122261963358557e-03,4.850473512864886087e-03,2.532000691908524795e-02,2.538137165165307851e-03,2.338707212255239087e-01,1.051252713183969609e-02,4.654609655816752123e-02
8.840086885883327670e-04,8.041762254360679263e-02,7.443508234390000533e-02,1.602648652388702355e-02,2.442032208937043678e-03,1.534924529066347514e-02,2.286760021386020220e-02,1.776706209515640233e-01,3.851992285238106835e-03,1.546558871628045916e-02
1.757432374805445539e-03,5.511800399916175208e-02,6.501407795883558383e-02,2.625874207201963489e-02,6.392927263896015354e-04,2.376878162357435459e-03,3.259583888328047852e-02,8.889863662568188440e-02,2.370202916451458891e-02,1.781477498676643789e-02
2.104121117761882306e-03,2.523258910815339567e-02,2.705689157416341778e-02,3.886927672689952096e-02,1.810251765605544808e-03,7.861996031314271924e-03,2.945482241824301864e-02,2.945052501742599291e-02,3.261650014190242697e-02,5.410922978426076918e-02
1.986828857739176939e-03,1.262515429342738783e-02,6.948675338297781792e-03,5.190408972642410190e-02,1.250445464463672586e-03,1.295538960282283276e-02,1.175039226816871132e-02,2.954380472732200547e-03,2.515114338058901944e-02,8.850255111766647254e-02
1.997012859683384642e-03,2.095390257209616899e-02,2.027090125685428179e-02,5.678309955303902090e-02,8.425688705523353252e-04,1.394681208529953767e-02,2.430869482160345069e-03,4.359036702588255097e-02,9.460645485086845857e-03,1.098389326758372198e-01
2.519766194573619476e-03,3.659508124876124230e-02,2.371083498361419711e-02,4.842323296855906983e-02,7.809563791535180117e-04,1.392546148690600866e-02,1.698944738301502375e-02,1.300823822924804252e-01,4.637349210574516836e-03,1.141114932823531908e-01
2.945365839543300033e-03,5.202205508824653962e-02,3.128506756641104974e-02,3.339022741850251191e-02,1.661505743089219792e-05,1.676731646920701785e-02,6.818119284759824317e-02,1.977442985758275928e-01,1.188880055138327729e-02,1.070857671541328576e-01
2.131367009129886414e-03,6.193005337884674444e-02,3.343215642552514744e-02,1.676722281328750161e-02,1.385822121254405483e-03,2.319617934966182807e-02,1.062725721086109354e-01,1.840442511873758014e-01,9.952141357844604061e-03,9.106467864429088066e-02
1.854186895574211650e-04,4.924165920028066024e-02,9.590687259502666401e-03,9.391342470734836967e-03,1.895237268382418423e-03,2.846742434494507062e-02,9.356025618998692339e-02,1.007074054322868173e-01,2.887752581593718872e-03,5.794055103789817751e-02
1.314016264597665275e-03,7.952204296465367056e-03,3.355808827795297988e-02,4.867205261489249146e-02,6.497156084453058937e-04,2.772536535802328297e-02,3.895769959163003504e-02,1.907602110000566377e-03,3.528582934570743436e-04,4.884714305334026362e-03
1.777275984533474530e-03,3.810535560097924601e-02,6.262937478904771760e-02,8.278097965131825386e-02,1.593711102685614394e-03,2.183719849120268480e-02,2.203447786207014814e-02,7.167635262386290451e-02,6.286628118864804118e-03,4.214296056980189331e-02
2.496435416681233761e-03,6.820773693115059211e-02,6.317758147885607634e-02,8.994088016473764102e-02,2.955267609291696226e-03,1.478296353127878625e-02,6.117267829283744990e-02,8.149060456650025763e-02,1.786782876523312566e-02,4.155245215422226357e-02
3.793345664579295291e-03,8.978788866347901798e-02,5.502459649467993097e-02,7.175094478925048147e-02,2.427765187576727719e-03,8.658044767038105063e-03,6.621685314844961978e-02,2.618806886459759328e-03,3.458524575889292130e-02,8.723589018476050894e-03
3.707952193274936456e-03,1.064638390075222235e-01,5.278037170904160968e-02,4.618891224655010536e-02,1.082208254072721497e-03,4.418920273404973800e-03,4.218076655712477141e-02,1.059467922291095210e-01,5.331769250514160202e-02,5.633152780853185188e-02
1.405039839625043824e-03,9.661086545540056858e-02,4.342781577239485796e-02,2.250505900390469688e-02,5.843765571242209465e-04,3.802340459866689407e-03,9.315729359994398898e-03,1.348355494275390587e-01,6.070621784415442673e-02,6.567263522864630332e-02
7.078227503378626845e-04,5.259263870774922439e-02,1.632382917428857119e-02,1.979856349090609174e-03,1.296321936086757172e-03,7.133658362128402104e-03,1.628702777578293001e-02,8.143885592794224138e-02,4.738705590892873520e-02,7.193531191161210703e-02
5.876151144005682192e-04,9.820743267799735346e-03,1.526419712533504634e-02,2.542862398382970263e-02,2.637675834451898120e-03,1.174520904331164371e-02,3.707804280408084213e-02,7.477122458689505757e-02,2.170363901629956960e-02,1.236311534308720261e-01
1.512787950487639633e-04,4.580691005434000054e-03,3.795721799481430181e-02,3.752703135774831944e-02,4.029501467413551009e-03,1.474637919385493080e-02,5.979076083258950958e-02,1.873381480606293170e-01,3.603661220302062373e-03,2.032133569451607946e-01
9.277453795197386629e-04,2.425400121972876022e-02,5.477824116973702834e-02,3.396062643429166583e-02,4.620227181337102640e-03,1.553909939338816472e-02,7.940934691318435323e-02,3.202042401900493385e-01,2.637903608704537245e-02,2.513237080730684747e-01
3.159729922515709232e-03,2.952205045428164462e-02,6.295546167992774333e-02,2.364584707490909390e-02,3.664953076243166168e-03,1.475236554921340905e-02,8.568331561580248834e-02,3.367016410567703066e-01,4.615948137359197206e-02,2.441693797256301590e-01
4.276830604411987168e-03,1.129693373803732255e-02,4.595843290695991734e-02,1.780577492985820423e-02,1.958298748619504304e-03,1.286926402819739412e-02,7.264246472212959604e-02,2.296886747873777279e-01,5.523361805765218679e-02,2.020847493418329310e-01
4.012884158892562718e-03,2.303007898510738612e-03,5.244167125400598858e-03,1.987464195060479472e-02,1.346355742338885492e-03,1.077545653043337874e-02,3.958036788178781462e-02,1.013295583315560466e-01,5.060644366037270192e-02,1.444379965444477776e-01
3.794850631365963203e-03,1.245327877217301121e-02,2.757372725722870288e-02,2.775363356774762993e-02,2.439712464681212042e-03,9.864941252750624584e-03,3.716211117743541993e-03,3.702151128387760198e-02,4.234581206971234357e-02,8.141737885968114430e-02
4.099049946160376184e-03,4.785086701740163401e-02,2.672045836453456474e-02,3.794388270407159092e-02,4.183692425904539207e-03,1.049674829581630914e-02,3.594280975048644994e-02,4.092757384884102012e-02,4.050490901529210652e-02,3.401660783918313002e-02
4.161355442873232273e-03,7.572400283613005267e-02,7.749533759975951383e-04,4.690695950061352787e-02,5.468313815375823103e-03,1.093483924424149510e-02,4.271759225206775423e-02,6.236615167590415371e-02,4.518357944080906435e-02,1.894748895837679997e-02
3.665261257391906786e-03,7.428499537329194546e-02,2.349071020041680613e-02,5.424484317333225225e-02,5.746291252195083986e-03,8.675085885792504364e-03,3.285009970404512841e-02,6.150905131995952624e-02,5.359164118049833392e-02,1.967883762329932298e-02
3.128147010017292944e-03,4.748173986987830331e-02,3.125972370979052811e-02,6.117646643328954886e-02,4.719340351875170314e-03,3.548865071947563364e-03,2.736849986463093035e-02,4.440835339124460379e-02,6.128603820544581415e-02,2.955950113345253913e-03
2.874952083125163933e-03,1.986801523991354665e-02,2.879875553216482836e-02,6.135378591322224184e-02,2.923640220606364259e-03,9.306941119624047645e-04,3.663998011311719871e-02,2.437677540740978976e-02,5.360366065004696506e-02,4.018612942689894080e-02
2.743111316065491821e-03,7.453114455737505292e-03,2.797473906287108181e-02,4.271711931025536785e-02,1.614274349872911636e-03,1.074453334428248719e-03,5.323173541914170276e-02,1.934771748537473385e-02,1.507650256980496047e-02,8.898793943003324713e-02
2.470602625914162208e-03,1.165537302312721207e-03,2.448316365098720040e-02,5.907575007470815612e-03,8.402207055374472881e-04,2.191143512491886165e-03,6.480973545590311413e-02,9.910426684956347154e-02,4.708067965495447288e-02,1.212350635207771476e-01
1.663052293668289706e-03,9.885822433148706845e-03,3.842890163279860617e-04,3.017496831340719249e-02,4.120099353925649101e-04,4.614409079179796272e-03,7.108546832112749847e-02,1.643082896181916330e-01,1.046358377517047217e-01,1.316039880321242250e-01
4.736895897200431543e-05,1.424341322013115974e-02,4.561148415847268017e-02,4.882730216378122767e-02,1.117941377738783295e-03,5.151481864930950935e-03,8.367385580402304790e-02,1.506666161771716694e-01,1.365271447280848038e-01,1.268517354481525083e-01
1.793202856835906080e-03,2.473750636699575262e-04,8.527944734285228257e-02,5.019259725405272876e-02,1.477826201388796924e-03,7.521093525656616721e-03,1.054167082437646591e-01,7.224075596181710190e-02,1.424820538626148658e-01,1.165288679588943610e-01
2.693584475188746160e-03,1.293248476092970570e-02,8.975477036776238760e-02,4.022920686333739115e-02,6.869416465416017074e-03,1.338011559451689897e-02,1.163391934574313780e-01,4.773680034697603061e-03,1.300019345543700078e-01,1.099473509523800074e-01
2.175849630868139945e-03,3.932115665637786125e-04,5.830512008648830458e-02,2.006210713393256906e-02,1.013621408198184769e-02,1.821423244598198432e-02,9.145860411214030983e-02,1.945280787564023298e-02,1.027407222511850377e-01,1.134239413348103465e-01
9.833917407217793952e-04,2.666890093285875438e-02,1.304639112263857210e-02,4.119903146564010341e-03,7.795750748581525488e-03,1.715601461144410089e-02,3.202492481027990195e-02,3.168156596481941367e-02,6.516822411971796847e-02,1.257165685415070067e-01
8.756215767580883755e-05,2.934334731839080557e-02,1.928528561530677352e-02,1.354164076189201364e-02,2.092938235771577525e-03,1.086945634353037732e-02,3.040188166266671876e-02,3.978493500163837737e-02,2.989990131607474927e-02,1.386354573621780550e-01
7.248868457103615484e-04,7.379073738877016744e-03,2.075518279837128277e-02,5.537222294305775561e-03,2.236787499415863762e-03,2.837149407035108057e-03,6.050129049914769463e-02,1.031574051134623998e-02,1.301969455311993186e-02,1.448870543755124696e-01
2.489494454472947205e-03,2.449669445397734124e-03,3.787017488931533442e-03,4.130939702654746332e-02,3.402994295441413419e-03,4.895991040159661765e-03,4.583425019455226318e-02,4.604483218222700514e-02,1.956777331307114551e-02,1.453122013577565486e-01
4.973741542819388670e-03,1.490269443520618117e-02,2.686143603976177269e-02,6.675608376772833308e-02,3.126736636465665513e-03,1.087873991015574429e-02,8.267190217912423131e-03,6.666320665218687658e-02,3.605756871941187547e-02,1.444824310372407605e-01
6.244862649142490958e-03,3.129920092429743644e-02,2.554071500868938804e-02,6.848306934903002074e-02,3.217891487550568995e-03,1.332984089104554022e-02,7.086990377229304694e-03,3.818427277394904895e-02,4.244314438075946078e-02,1.380366543860074291e-01
4.835051795121897075e-03,2.434803219458276866e-02,2.661504990422398041e-03,5.407421661608246416e-02,3.627629699311190822e-03,1.241210731772082049e-02,2.368660588418093280e-02,1.770639748227030574e-02,3.127388490159294099e-02,1.149890176811729781e-01
1.118427857849802875e-03,1.066604482404905768e-02,2.664436170491849346e-02,3.421419096658702419e-02,3.727926639487458976e-03,1.102147803314395408e-02,6.598550258679442004e-02,3.742144158482189897e-02,1.070368156047883830e-02,7.550634519730191341e-02
3.420141256749273991e-03,1.371807155518922974e-02,5.416180443355340240e-02,1.210535406731515044e-02,3.763045117038866898e-03,1.217511057008353881e-02,6.516926390097071975e-02,6.563085167092173877e-02,9.033733844553842179e-03,2.983098471825215009e-02
7.096205445514049658e-03,2.872897251961125525e-02,7.328611545571246666e-02,8.351425253699699264e-03,4.146528454789003351e-03,1.627007470406879180e-02,2.513633839710424644e-02,6.581984268489618484e-02,2.439057324709899624e-02,2.004971114385259781e-02
8.560707047571862113e-03,3.798229092397865242e-02,7.286090488037309798e-02,1.891084783167699956e-02,4.258752621557720421e-03,2.026073062726315918e-02,7.162025156496694758e-03,3.057515119692768082e-02,3.466026965154187650e-02,7.495729047010238344e-02
7.514434318635947879e-03,3.800787611077939554e-02,5.202117172410217205e-02,1.867189571079261312e-02,3.296160936236640967e-03,1.986658567646808204e-02,4.098498588535115505e-02,3.341367408848712472e-02,3.942130458072235638e-02,1.185570401680285380e-01
5.064636748999385048e-03,3.440512252346301231e-02,2.733811402621322967e-02,1.830275436625136698e-02,1.994046725148654418e-03,1.454791237492757995e-02,7.920022410874492935e-02,1.009069148174078084e-01,4.177920155912463046e-02,1.275137099079836633e-01
3.052952176832814720e-03,2.843465819767283798e-02,1.326326377420594324e-02,2.426684692845909250e-02,1.912256171435261585e-03,9.411248425583397179e-03,6.130445858960927724e-02,1.246810840562336820e-01,4.440459441817205810e-02,1.003088690322046506e-01
2.621236388481819508e-03,2.440046199972201874e-02,8.148261142422012077e-03,2.844868413849623370e-02,3.055422623255703903e-03,9.483702318181052790e-03,3.440149764156032706e-03,8.064291307157298028e-02,4.109885777053443046e-02,6.137499312619556363e-02
3.328795729374432223e-03,3.215344973523798222e-02,6.133069230123288154e-03,2.188168168911907782e-02,3.891639342502828738e-03,1.317480951666722203e-02,4.333982168695264120e-02,1.530892321726151639e-03,2.351017857624853116e-02,3.834951167610006761e-02
4.025650774395198549e-03,4.769625293776279251e-02,8.704071638217127441e-03,9.579155830833687227e-03,3.673775791774994744e-03,1.466507136196992973e-02,1.196857437715966033e-02,6.501128762813067341e-02,3.087267469357499357e-03,3.875274217789086151e-02
4.334333321220188578e-03,5.074680437840865116e-02,1.880722227158958607e-02,3.206236847557195329e-03,3.102920254816798635e-03,1.191718940563077367e-02,5.419065898329317871e-02,1.091655107740570479e-01,2.220939162533279096e-02,4.556175884142336929e-02
4.648208700323910002e-03,3.374762377902135874e-02,3.403326201350392183e-02,6.765530276305678492e-03,2.816029886847763904e-03,8.462574609432562192e-03,8.410879011470445699e-02,1.381504618338626755e-01,2.471083047458378507e-02,3.668053530133730256e-02
5.214601485515764009e-03,1.334484439457465574e-02,4.994012449488462874e-02,1.673633774438241725e-02,2.638200173199889594e-03,7.412740018698876776e-03,6.017661354701790005e-02,1.314798521043199497e-01,1.541817900777330691e-02,8.834393007471613019e-03
5.868605330407451227e-03,6.824456754116586463e-03,6.531319008131306059e-02,2.913314834328679936e-02,2.292667959151951842e-03,7.808083382619094778e-03,2.570212582198358811e-02,6.706255201860171489e-02,2.475146283915394783e-03,2.310014575514408863e-02
6.046026881482556570e-03,1.680781894601474785e-02,8.166557059618799463e-02,3.946007454904976175e-02,1.861435709717271106e-03,7.687444789470954630e-03,1.793501084717608746e-02,1.937957708121984882e-02,1.024652992439535962e-02,4.684496969672708594e-02
5.066601413659869817e-03,3.741522627603530160e-02,9.646619327643790598e-02,4.186021480908358461e-02,1.483827040984995625e-03,7.418173801094915358e-03,3.104029289552186210e-02,5.387469797417528128e-02,1.983951226910585577e-02,6.088690823282299353e-02
3.313025338303776310e-03,5.523369331508962837e-02,9.743891418500946755e-02,3.465715096293470188e-02,1.133689491711180461e-03,8.671191853098818986e-03,4.025349068209078951e-02,9.467969688518530075e-03,2.267882312007607828e-02,6.330320208402263893e-02
2.359551013875080868e-03,4.973382030665439435e-02,7.040555905390256941e-02,2.138766088016778172e-02,7.562093315106073596e-04,1.196299222584843933e-02,3.236372123989372795e-02,6.661659022914223627e-02,1.903391759378453632e-02,4.886291701669670529e-02
2.873641437608175954e-03,1.129751770596308831e-02,1.689222241533583704e-02,2.807791088640776162e-03,3.737106383253715352e-04,1.623102733595612954e-02,9.933456375220894516e-03,1.136690957621138420e-01,1.322939482394548151e-02,2.429580595283444000e-02
3.795756226699099119e-03,4.420554018419370346e-02,4.188216218622171916e-02,2.359944304691932726e-02,2.268606466233164757e-05,1.998669141901763396e-02,1.913815841837302953e-02,1.093679097680846507e-01,7.452962427343264550e-03,1.288544144190391025e-02
4.530078768299748357e-03,8.862961403635594149e-02,8.238676809817556401e-02,5.241833412081977478e-02,2.967710856551736363e-04,2.192523099007831142e-02,4.936166270068323425e-02,6.318479046110984931e-02,9.006236318548920027e-04,2.843279464480598720e-02
5.902123191270884119e-03,1.059315758998017054e-01,9.610435614566247009e-02,6.892995559329789801e-02,5.923496533515113915e-04,2.063340307958656458e-02,7.705287080111643261e-02,5.410025695744549376e-04,4.475029370438446570e-03,4.982193568772783770e-02
7.790069622973886179e-03,9.935810261376379349e-02,8.957870298888749583e-02,6.495061057711977448e-02,8.557219515440818523e-04,1.532723958054801883e-02,1.000763798003019706e-01,4.649097678545692502e-02,3.756869385727127243e-03,4.131998973755007798e-02
7.971618543776832350e-03,7.984409358526391165e-02,7.455695158658059984e-02,4.908636473526478000e-02,1.075858137327249248e-03,7.676498197028534462e-03,1.192459667450102706e-01,4.513961815056738436e-02,3.734299510972925382e-03,6.372353079933166620e-05
4.931956303478765916e-03,5.465526402559857388e-02,6.010214776494286065e-02,3.624067358445543646e-02,1.250508652348891921e-03,1.098752584726366867e-03,1.290317408971475843e-01,3.318741271517244504e-03,1.231626844591813749e-02,3.877161477869649209e-02
2.391603743186668360e-04,2.694423502371594281e-02,4.848686681627820128e-02,3.153759991016334002e-02,1.380252517625824796e-03,2.980544119061614636e-03,1.120696114252718589e-01,6.553637060562109151e-02,1.696714056965473866e-02,4.812718910640025050e-02
3.330917617843771449e-03,8.290936008118232918e-04,3.764099072604446677e-02,2.911572407293234674e-02,1.463154269263285210e-03,6.229720800114957151e-03,6.191417636610727082e-02,9.497399291915949171e-02,1.775025887319177723e-02,3.505330648849037944e-02
4.795721094905718018e-03,2.451875274120891499e-02,2.980195813368714114e-02,2.303607248642835018e-02,1.497553508687313835e-03,9.711691594258090379e-03,3.164205298075207975e-03,6.583103161416760385e-02,1.613228779222717485e-02,1.658964491795091381e-02
5.017028847463375282e-03,3.518445988139842079e-02,3.056424631304099221e-02,1.312588512501199761e-02,1.484626690097793971e-03,1.183187456723892687e-02,3.194132702804615420e-02,2.619281710470769235e-03,1.275780760375852182e-02,1.218530454281493720e-03
4.953673711576305275e-03,2.334202066200771405e-02,3.609175657906008028e-02,2.234636791679919451e-03,1.427094508853733301e-03,1.157038065690865238e-02,3.759135656956751059e-02,6.484703426857175990e-02,9.297456334532617703e-03,1.233063133878936103e-02
4.912840109973009781e-03,7.114569884861823845e-03,3.492956889104185253e-02,5.537677224733278392e-03,1.327950643456018553e-03,1.077223247339557932e-02,2.917658642787790413e-02,9.571462578519658593e-02,6.067674205964662323e-03,6.324539402416421915e-03
4.889907670118899367e-03,3.726247204519957806e-02,2.585295217213990498e-02,5.841432209084999015e-03,1.190960903706610868e-03,1.124420567984375438e-02,1.760458726676729022e-02,1.040420551875082811e-01,5.955295799362015155e-04,1.235336320856521460e-02
4.867031135352023821e-03,5.170747622433867485e-02,1.674687877766065092e-02,3.850589997402746947e-04,1.021131578523860320e-03,1.216340244783250223e-02,4.862861928450853966e-03,1.008104067629067707e-01,1.182772708129766967e-02,2.194065305462479520e-02
4.840613719205746728e-03,5.021911126222176197e-02,5.998345756103888246e-03,4.951224080282004732e-03,8.243048593753173146e-04,1.194532050692228599e-02,5.811553862611508817e-03,7.979744830167150027e-02,2.090086102709392754e-02,1.196362423565982061e-02
4.828184388035226468e-03,3.971633960717998318e-02,1.246730024980381712e-02,9.741600790020114864e-04,6.067405490169943370e-04,1.043839659415517034e-02,9.854261889596420410e-03,4.027324229411083367e-02,2.120272410761921134e-02,4.597899889985577332e-03
4.854610168853500281e-03,2.563088325548522686e-02,2.646035527282029898e-02,9.810623647339786896e-03,3.751041472356428591e-04,8.417412017567632229e-03,4.667366145849847006e-03,2.837114349012560127e-03,1.519312545034471815e-02,1.574641150920528393e-02
4.874037428066947675e-03,9.943794885141073875e-03,1.518549376129275409e-02,2.120876850143687403e-02,1.364233258494011367e-04,6.890996061598847477e-03,1.250669070731071433e-02,1.753749661229160595e-02,9.725247827725963523e-03,2.367536051246656170e-02
4.814920039682656777e-03,1.061673301268533168e-02,1.528285100082768175e-02,2.984078894306185434e-02,1.022064525315926465e-04,6.827484563544841852e-03,3.701214328793361874e-02,3.176951124430119067e-02,6.475124665591956187e-03,2.534532285735043022e-02
4.771802423226799428e-03,3.775583602770359037e-02,3.360855359060350989e-02,3.608434160736615631e-02,3.338600386265071630e-04,7.644867986554530412e-03,4.734632175068179821e-02,4.738791273460012110e-02,1.668477518168106754e-03,7.111705762778248834e-03
4.910683373339938713e-03,5.720556889282759488e-02,2.559193057471761262e-02,4.117044555300324038e-02,5.517994315080346603e-04,7.169263732202431003e-03,2.584088940800001108e-02,4.388358785559928754e-02,7.308013826849961252e-03,2.854402251963372716e-02
4.998250655511323262e-03,4.664345109651752558e-02,8.891486468286928860e-03,4.463973205368028385e-02,7.496135170557813223e-04,5.365294989217827062e-03,9.005271713184211796e-03,7.080521426436442792e-03,1.829155578194368095e-02,5.453145635802923719e-02
4.389206001019252922e-03,7.258917074840171534e-03,1.362644027957445481e-04,4.322393333000253829e-02,9.216726852714290192e-04,5.936836051932850404e-03,1.569710405574162998e-02,3.254487565187377807e-02,2.607004566103713131e-02,5.130132409887401546e-02
2.904248481467257455e-03,3.090049392090432265e-02,6.354453028462423748e-03,3.379279621070543221e-02,1.063290715199657248e-03,1.110277600912056017e-02,1.570732210844911700e-02,3.077373593598296819e-02,2.657117829438125634e-02,3.004378608861426464e-02
1.407673792978418516e-03,4.448985766299728972e-02,1.799795685640872764e-02,1.888399895093524974e-02,1.170230267997166094e-03,1.708951138464851957e-02,4.242738685633574286e-02,1.147435792495356960e-02,2.067548437576479520e-02,1.336320412849304438e-02
9.225294620446586671e-04,3.869570760812619803e-02,2.414380932368275293e-02,5.601345087727308686e-03,1.238766290591633524e-03,1.843315262886838571e-02,2.069353926611891201e-02,5.317305256253437168e-02,1.360367435912896057e-02,8.611429005772521655e-03
1.403712501930204750e-03,2.760281374341811214e-02,1.059686798857460699e-02,2.794882616624829591e-03,1.267070116683995931e-03,1.473095657794518641e-02,3.171567004892365121e-02,7.048436587226608596e-02,9.011830791577125216e-03,9.761126304029039968e-03
2.081911542151171704e-03,1.334782555674295101e-02,1.732916463164799192e-02,8.990561115307601353e-03,1.255361518361849298e-03,9.600110860095063120e-03,5.204433142762493469e-02,7.167380111514401464e-02,5.539178555756587956e-03,1.090474918103224652e-02
2.742463051171833803e-03,8.534345781460277169e-03,3.818907931734927264e-02,1.370889985154659721e-02,1.203143751254855901e-03,5.082726211756982693e-03,1.535004353066210178e-02,5.881490524953196519e-02,1.388983449224565417e-03,7.796754765038751457e-03
3.722942149361839655e-03,3.622681516276796826e-02,3.771486880374736589e-02,1.290193381026239275e-02,1.108911653401026178e-03,9.527617147872158472e-04,3.244125164120049282e-02,2.225786572661788212e-02,1.041878721283881135e-03,9.030507086682441724e-04
4.729519206349501459e-03,5.678698963149218099e-02,2.141811905552276282e-02,5.839157646431157936e-03,9.760614600555672822e-04,2.069656156895524797e-03,4.256923923165806256e-02,2.239001058088256266e-02,1.086162763914393873e-03,4.696519819550644056e-03
4.687784400131077972e-03,5.156039865385231985e-02,4.521456672774367552e-03,1.264748122013627501e-03,8.135944860577801283e-04,2.469774847781441504e-03,2.634209608262371924e-02,3.971186886667674859e-02,5.932168932726146135e-03,1.130005059790073312e-02
3.289678471869955309e-03,1.550405034236066945e-02,3.311296627609701219e-03,3.384392036269406705e-03,6.233598415418543015e-04,9.631262348554060857e-04,1.716390349876305982e-02,2.274219325140752757e-02,9.610107483716648011e-03,4.069538222422083851e-02
1.969879678198710200e-03,2.803152247016887227e-02,6.076627615795296075e-04,1.653521477710891488e-03,3.979848658356810280e-04,3.385896688638662371e-04,1.128217426525650151e-02,4.152789989425384985e-03,1.064931812339705262e-02,5.671530917589005100e-02
2.172732091645326446e-03,4.680009261458487752e-02,1.773305409107409081e-02,2.525643962439712287e-03,1.477579199500989157e-04,2.034330291976344136e-03,8.574562523534052030e-03,2.679225367502507948e-02,8.792006362351228663e-03,4.763862575066434013e-02
3.144842487172236703e-03,3.418472013142601768e-02,4.451901057598713074e-02,1.025012979511233380e-02,9.461918594424712458e-05,4.904516207916267793e-03,2.985229745998843262e-02,4.963915961244719233e-02,3.738203332837713826e-03,2.842103446556369650e-02
3.199607745934621075e-03,8.931035589425703053e-03,6.665093732981716701e-02,1.930558518656728950e-02,3.317550438235479645e-04,7.459759058001607691e-03,3.771814564193607527e-02,7.239263605848625382e-02,2.183318047693419590e-03,1.110464762536670508e-02
2.547655104646153086e-03,1.548893559440545076e-02,6.900870065891669125e-02,2.393031496007611003e-02,6.138268368860574573e-04,9.229003073420109782e-03,4.885830608470165259e-02,8.881476302439013371e-02,4.373079743504744085e-03,7.651374398246783490e-03
2.649762986895124600e-03,4.098387924065563515e-02,5.116182894855074437e-02,2.236461424372958653e-02,9.161484463009248033e-04,9.566450008534099422e-03,7.410063455790019682e-02,1.006265089355848769e-01,1.037288474419297826e-03,2.341504459487039891e-02
3.482313380161911401e-03,6.470850581222177544e-02,2.604366894372829241e-02,1.730923208418254713e-02,1.107550190733329852e-03,7.459300564739484649e-03,8.374843457121464163e-02,1.142416780350699601e-01,5.017758319234211749e-03,2.021513625860328275e-02
3.685037522926344102e-03,7.163658575348974544e-02,5.519008022289218808e-03,9.486434019762020331e-03,1.207670360222295883e-03,3.611382678445121050e-03,5.276634940021197873e-02,1.318300858470809467e-01,1.020694161367374786e-02,5.053500028640890707e-05
2.790134394467083234e-03,5.760823147031321478e-02,8.686588576412945448e-03,1.255646562865396889e-03,1.517398457301785296e-03,8.287041873349455020e-04,8.820600819955112110e-03,1.468031393511753380e-01,1.365892628996994915e-02,1.302278134560966652e-02
1.470968079917247314e-03,4.229943661952290102e-02,2.254493371964653992e-02,1.005339421506690895e-02,2.228713621178975233e-03,7.886934098673147086e-04,5.633141946953908880e-03,1.314384779996491670e-01,1.658987641337592023e-02,1.015814486117305043e-02
6.011566615820635893e-05,4.216927787191022958e-02,3.950185941081368890e-02,1.080784032483502778e-02,3.059495610625447958e-03,1.574165011789422286e-03,5.729085863855133340e-03,4.371390171013622705e-02,1.896363675279272298e-02,1.188951925603548045e-02
1.713976634443439492e-03,4.302969393892227407e-02,5.179129244262793696e-02,4.860977164387082772e-03,3.478763514572828092e-03,8.602327369576766867e-05,6.514530346913186692e-03,1.172842200308007177e-01,1.753624845916963368e-02,3.171662767750187129e-02
3.694604623812626758e-03,2.049462384599768164e-02,4.702566837415775303e-02,1.237069940209804255e-03,3.189931872195227516e-03,3.747651259004522104e-03,1.721167795873282391e-02,2.770058501890975133e-01,8.963989538045211147e-03,5.152171949324950428e-02
5.152737363358330519e-03,2.132369447102017146e-02,2.647875822927606843e-02,4.784164588451044441e-03,2.446996719369891674e-03,7.085247136800219836e-03,4.451612384339848072e-02,3.471633077779819887e-01,4.573178472424581885e-03,4.935865760025810040e-02
5.879553675182082155e-03,5.396442493585113659e-02,8.247806046700742119e-03,7.248897975203866251e-03,1.898448049040437789e-03,8.256670810172915542e-03,4.979092702914744012e-02,3.099412431552528435e-01,1.516123620258395290e-02,2.987382764140541005e-02
6.585201300147363289e-03,6.137195990827600672e-02,6.333194000283484497e-03,8.166357922949989828e-03,1.803458164268699525e-03,8.477253723738385760e-03,3.036094668012902578e-02,2.175206965427000094e-01,1.642273674377470877e-02,1.139326141197625521e-02
7.587051353339170461e-03,5.213223935387551605e-02,1.538816890835264378e-02,5.620544512476949653e-03,1.682542143656314687e-03,9.156103623416074477e-03,1.251763853358317351e-02,1.368566288516993024e-01,1.010203276913680670e-02,8.721045211180300863e-04
7.830657633079548402e-03,3.844639601385933803e-02,2.314062655930194251e-02,1.244051826157587578e-03,1.303494433129679785e-03,9.761587213509132638e-03,2.615478158068684431e-02,1.123677310928136580e-01,3.479895263035064426e-03,4.815337502804894337e-03
6.445686502682444231e-03,1.965559086623907409e-02,2.879573395365861085e-02,1.433872039844107278e-03,1.304763570703674873e-03,9.058009698136417279e-03,6.465168899715037498e-02,1.460025035449204200e-01,3.144922600197156218e-05,7.818948438104333237e-03
4.527930149121870557e-03,9.725071524919356308e-03,3.859907747576727527e-02,2.603405479329403468e-03,1.910389045216491109e-03,6.612712052833512495e-03,8.822379522584775091e-02,1.933480797681740859e-01,4.278098115979275806e-03,1.031190228249288798e-02
3.646760748858633282e-03,4.174575978664443049e-02,4.785589017453811822e-02,4.599115830339135097e-03,2.056553986838400086e-03,2.630693847483642211e-03,7.490124252805077654e-02,2.004168649208071529e-01,1.110881338706306079e-02,1.676329477225298528e-02
3.540393742443101975e-03,5.343226995604827279e-02,4.060819859099106671e-02,6.228946684639642684e-03,1.109150308555214952e-03,2.071281244826193076e-03,4.227242075029941787e-02,1.516711133524399346e-01,1.237824949962398370e-02,3.053036231070581016e-02
3.332373000322998158e-03,3.120135400876938511e-02,1.145102445592042703e-02,4.940304220501128170e-03,2.138762658960050803e-04,5.822801097290334488e-03,1.552448553788223287e-02,7.184824356306571125e-02,1.028714326823980656e-03,5.116446634240356256e-02
3.819070111241866777e-03,9.116601273910377237e-03,2.186088699048978345e-02,3.167128601220038989e-03,4.179712697463896132e-04,7.419383569081565606e-03,4.174907530158366263e-03,9.125353923553363236e-03,2.452590524354519852e-02,7.218827580444060754e-02
6.186661440384049956e-03,3.856815194539559705e-02,3.598868331729040970e-02,5.775029357976546943e-03,8.524410318106689054e-04,7.579187137084898371e-03,9.230592562813427077e-03,7.530066390880371663e-02,4.258378813226149778e-02,8.436541425567585517e-02
9.419760492620424600e-03,4.465491797086176134e-02,2.652943067165063756e-02,1.246707197308339655e-02,2.704922440331355483e-04,7.792930806303050364e-03,2.343256797306438391e-02,1.166371484862341046e-01,4.553414620421965958e-02,8.603909883172765338e-02
1.112342054331290526e-02,3.305813508016107460e-02,6.735117354980080587e-03,1.908017765323133039e-02,9.964429459317213512e-04,8.499890001572375439e-03,2.862440725596097912e-02,1.243950813250833398e-01,3.717148826586944010e-02,8.074776057243862604e-02
1.021743122977306073e-02,1.121588231805870084e-02,1.294486961014856483e-02,2.451656520061885891e-02,1.755162265847825089e-03,9.597246432372440184e-03,1.465135474014730294e-02,1.026254996871902719e-01,2.654581119462815636e-02,6.545819012036920015e-02
7.314331932882407045e-03,1.544745891811109308e-02,3.314363924565025266e-02,2.926048832421217216e-02,1.519305025352382394e-03,1.126993519332356204e-02,8.929626420221565414e-03,7.325682838157498988e-02,1.802796061075304102e-02,3.978087353940314846e-02
3.342718231243435156e-03,4.071317428559371315e-02,5.408808150924898639e-02,2.853217183832993525e-02,8.386354996441000836e-04,1.317294253067870929e-02,3.047432567094297828e-02,6.035913622176153348e-02,1.043570583341484233e-02,2.049831227031627401e-02
7.980300576365821673e-04,6.275643511498492366e-02,6.718846970869134239e-02,1.598907330904185062e-02,6.671260231073096675e-04,1.437852981416255262e-02,4.885918916565301640e-02,7.252796035878096570e-02,2.209475995913869409e-03,2.359826702692223097e-02
3.926577670160177023e-03,8.201087601844571362e-02,6.430144613057521552e-02,4.443246040688326494e-03,1.343139342026905851e-03,1.463972110215799351e-02,6.344925554911004517e-02,1.024162664481425705e-01,5.766178153540135742e-03,3.952003965626042087e-02
5.257256269171299914e-03,8.653417468482810238e-02,4.828533901174381776e-02,1.936395912624275586e-02,2.176334122921117550e-03,1.436613484090524737e-02,6.751564804204487902e-02,1.369749632993696731e-01,1.205912234198846904e-02,4.603555946923155312e-02
5.206030926804140757e-03,5.657761727408454344e-02,2.771562144975709199e-02,2.119680723002041745e-02,2.432268432138306926e-03,1.389083574600358771e-02,5.688920937098024266e-02,1.654685536858132855e-01,1.609483470993065476e-02,3.884464499806378895e-02
4.846637667148068554e-03,4.736397542216009768e-03,8.217275998306355564e-03,1.459256982213814544e-02,2.258378433311804528e-03,1.383336340997674829e-02,3.951786434275602472e-02,1.815827429406088878e-01,1.708043440419811793e-02,3.416172138453959367e-02
4.877888799287320720e-03,6.224773817181174923e-02,5.681721713407951457e-03,6.038451928425087045e-03,2.154538180600149965e-03,1.448795269387218206e-02,3.034473962408170550e-02,1.815027556301527789e-01,1.490699056701030867e-02,4.128517510909575361e-02
5.299038032408634642e-03,8.334545512016197644e-02,9.771878587755123552e-03,3.315488793907594295e-03,2.177981619396968885e-03,1.377310156167092098e-02,3.035140558355536172e-02,1.638177403357319595e-01,1.172416872661446834e-02,4.361200585893228870e-02
5.450721654442563895e-03,6.866612593887420901e-02,5.875624927781401483e-03,1.216548404465675817e-02,2.118079218206143834e-03,8.529355893771406461e-03,1.961107297440639607e-02,1.346160642536478880e-01,8.528118864994660431e-03,1.821330923089934523e-02
4.510581056176759043e-03,3.936656234559972323e-02,7.319178815387680954e-04,1.649270988449715730e-02,1.945285801956864787e-03,5.736974275309118972e-04,1.165649303518357348e-02,1.067990801361775738e-01,2.622806873310929310e-03,2.906084239733626798e-02
2.621222049228162220e-03,9.147565153176610148e-03,9.989828129067771303e-03,1.647202841783632771e-02,1.762103590162904330e-03,8.341550956152797222e-03,3.600233258905566336e-02,8.529705266821030474e-02,6.319091417787013089e-03,6.552351451944384009e-02
9.058319143086620466e-04,1.695460736474945634e-02,2.342147982071665288e-02,1.721772949939122041e-02,1.590296139691183691e-03,1.087350286811925026e-02,1.746919227506677288e-02,5.949751162816573069e-02,1.222400791805996340e-02,6.964911960192445017e-02
9.545375915296078608e-05,2.717817025107542236e-02,3.478181898920507803e-02,1.870994318614746521e-02,1.389715733380469985e-03,9.421883148795556426e-03,3.904248797951745398e-02,2.105092410430097621e-02,1.111874703183906264e-02,4.842297054112571636e-02
7.663290319505259391e-04,8.897364084876903736e-03,3.626277284165096287e-02,1.342780551423252040e-02,1.157977686987864087e-03,7.298212612450108959e-03,8.893376240295440549e-02,1.953310364152228973e-02,8.119832114572116122e-03,1.740066939398651757e-02
1.020868124464686683e-03,2.837396722568167121e-02,3.187720075270211728e-02,1.715166617795332643e-03,9.227090411242749564e-04,5.661627094417376500e-03,9.458491134595908845e-02,4.401002955417965268e-02,8.984970593537608061e-03,1.344814684154523737e-02
2.150909724521907153e-04,5.525137038270209328e-02,3.213306229984028844e-02,1.848522699067565306e-02,6.945554392148550445e-04,3.903173603398969911e-03,5.601388749487058033e-02,4.720266182804590260e-02,1.076523004773868170e-02,3.182436289272545793e-02
1.582076916561935259e-03,5.366435451436246673e-02,3.628130585152395532e-02,2.628960014286163202e-02,4.699961816525574480e-04,2.108897979921085450e-03,2.087640284068548180e-03,4.281355791876732819e-02,8.166496319218834177e-03,2.603804087695051062e-02
3.521637388223656118e-03,3.201461067387040976e-02,3.225961930750376183e-02,2.271333449940997687e-02,2.531431172146282474e-04,1.023651718711289472e-03,3.343673204985752462e-02,5.015612595492458664e-02,3.235406742038817243e-03,4.720870583633484698e-03
4.744673765553241059e-03,8.493701082454790594e-03,1.384463168514483630e-02,1.338855492300864043e-02,5.445350354511604703e-05,3.743835667759541283e-04,3.297583359259918107e-02,6.865855460694095247e-02,1.154826473393070476e-03,5.496047622247011294e-03
4.814514797250784260e-03,7.058697226670148858e-03,1.280170405925195980e-02,5.757698863924437527e-03,1.197183523128740731e-04,8.622362390676546187e-04,7.754595587748973166e-03,6.779790250873329871e-02,1.156604096052131188e-03,8.971923201156443636e-03
4.252300019499809410e-03,1.612662154812982002e-02,3.705300109426392513e-02,3.403811214118181595e-03,2.668557251668192583e-04,2.552422768982015155e-03,1.241887632132070672e-02,2.250934198456213536e-02,1.706568836014203932e-03,3.359449970858092993e-02
4.090914439241716098e-03,2.812735006115562111e-02,4.917698145340792387e-02,3.691637732565406123e-03,3.835724828578870220e-04,3.182677372989135313e-03,1.078783443339905931e-02,3.724956654345943502e-02,8.931027478050935012e-03,4.641540074334825350e-02
3.967506554331979608e-03,5.052638085740093765e-02,4.286388729041806789e-02,1.396741613850735822e-03,4.658427518067236495e-04,1.907982981818458256e-03,8.464879477084955983e-04,4.420430784589234746e-02,1.738673830545709592e-02,4.101934807054620491e-02
2.190198129541615253e-03,7.297387128631249720e-02,2.089036083160838997e-02,5.029682401124661861e-03,5.113408469347745840e-04,2.800023136570201771e-06,3.883681691483782065e-03,1.798377918831628453e-02,2.370123350812568253e-02,2.515559718737632802e-02
1.444262968227449147e-03,7.050647154964102825e-02,4.916457057169277070e-03,1.293375755435087135e-02,5.194622597122272502e-04,4.698590433249854605e-04,4.621461490041476466e-03,7.985160640777948238e-02,2.709683980425017791e-02,8.504786578211206635e-03
4.952376409393785019e-03,3.571041656695175814e-02,2.300309785422163106e-02,1.978754068725348259e-02,4.902925447872262098e-04,6.396478389748955478e-04,2.146334531065058684e-02,7.383680276648056651e-02,2.876936624764817041e-02,1.612169982595192596e-03
6.832397241301157477e-03,3.779953271771038792e-03,2.942047275984056506e-02,2.411612536115540634e-02,4.246119525173857440e-04,1.293389722664608967e-03,4.763338039392046169e-02,1.856571254684047032e-02,2.957973204449827406e-02,1.253597791181104313e-04
7.259760966175658227e-03,1.627860596146103039e-02,2.880734970770361392e-02,2.362088865001492691e-02,3.243674718566136707e-04,2.383689575396024914e-04,7.140643265701730746e-02,2.758387577346555625e-02,2.896025482192093881e-02,1.368250785904081938e-02
6.425287355763934817e-03,3.555064274263186955e-03,3.136394661006673690e-02,1.695749651235402972e-02,1.926280187973238316e-04,1.320001150999692251e-03,6.590878481693875079e-02,5.654310469785692878e-02,2.648549712179859919e-02,3.097439922783279051e-02
3.886585041915580942e-03,8.553038063798427265e-03,4.106387303753301909e-02,6.747872628142438482e-03,3.327811318034018355e-05,2.007600304047574020e-03,2.752668209655600301e-02,9.725097699073476099e-02,2.267976919915520861e-02,4.076065526177453935e-02
4.977716577418093025e-05,7.551267582138220837e-03,4.339654391455816107e-02,2.281419575182214166e-03,1.490838078954547679e-04,2.176207854432154250e-03,8.687598062490663187e-03,1.401033549648404430e-01,1.713033482953523270e-02,3.757758304564361163e-02
3.846801666496292571e-03,6.512273776849709407e-03,1.880292186607524646e-02,7.237536839904942614e-03,3.491532932816200684e-04,2.248066142963080563e-03,1.796952612459480625e-02,1.402011510566081309e-01,8.833586805474897760e-03,2.531838231549868312e-02
5.957874668833469667e-03,1.929541679660477446e-02,2.660252836897232520e-02,7.838617551943231551e-03,5.610498079604405103e-04,1.616725405954991040e-03,2.231695548471951396e-02,9.037053946718895392e-02,3.688549086971416782e-04,1.088362416371073393e-02
5.844159969186484352e-03,3.428615453529420404e-02,6.072350267459180467e-02,5.301991536338371107e-03,7.785149374345739842e-04,7.395221874292644357e-04,4.906384079009420973e-02,3.030495293147953545e-02,6.237920153116280168e-03,4.979457717912800022e-03
3.981910150035079810e-03,2.522570672215717139e-02,6.109204125621722076e-02,1.145882588314552000e-03,9.950721513938781768e-04,1.800028721155869788e-03,8.133441000363592077e-02,2.002088314592674265e-02,6.289141083477155572e-03,2.494312366277884330e-02
1.419402075669764238e-03,1.113358489590309669e-02,3.585189438891719232e-02,4.128862999210458802e-03,1.204166509449986974e-03,5.389458203791646501e-03,8.331184322811997778e-02,7.639890740479364506e-02,8.682896273761366718e-04,4.337548701109419230e-02
6.693422922722807753e-04,4.660584242409132605e-02,7.766849836864158849e-03,9.918377611295709287e-03,1.399328614089367711e-03,8.618613373931416008e-03,5.376355347234219179e-02,1.347717766626637115e-01,7.132493219220085827e-03,5.042571482274498668e-02
1.276887459975543752e-03,5.819029339610019835e-02,1.097537484556969888e-02,1.296507106609507722e-02,1.574348770267619156e-03,8.276047346543831743e-03,2.215165421247179689e-02,1.591941137865546529e-01,1.153952084051195967e-02,4.961146956861704760e-02
3.100184655730332632e-05,5.287531827731634798e-02,2.642328876934995491e-02,9.924289816165873801e-03,1.723434671449480034e-03,4.333040936475744849e-03,3.911773934784571263e-03,1.354238596787336046e-01,7.570359732663971622e-03,5.356707180499854087e-02
2.154455342747418553e-03,4.756458292361834261e-02,4.564270384476048353e-02,2.797874147400077928e-03,1.841353092021812479e-03,3.399375551007793698e-04,1.113806450840196249e-02,9.176774110460866885e-02,1.180382389450184994e-03,6.257899040107095523e-02
3.535735087472259824e-03,4.375993541180368124e-02,5.346293569011294211e-02,2.865360546091670537e-03,1.923562132503894980e-03,2.202638768450708700e-03,2.871290676690868571e-02,5.868544022974506169e-02,7.103595604042544157e-03,6.757403548911999902e-02
3.239208399204328379e-03,3.090650607891028828e-02,2.495561774601897168e-02,4.839024052000276410e-03,1.966328650221765145e-03,3.001804987487653124e-04,3.541025571708487918e-02,3.294385178860306795e-02,9.242174008625573048e-03,6.926669840182690663e-02
1.814889126590247051e-03,4.963391676826052826e-03,3.201562317549831033e-02,4.591526169040177976e-03,1.966824092213285014e-03,4.547793594956095302e-03,2.277081539597413523e-02,1.113899947142685774e-02,1.172428268338658944e-02,7.389043742557564742e-02
1.021297875439699360e-04,1.974805247330495978e-02,7.426745363534073552e-02,2.405594579049754808e-03,1.923197556100323530e-03,5.980892619025100949e-03,5.385670970220862372e-03,7.788377897567032304e-02,1.372765032821649141e-02,7.930586069650780168e-02
