2.051965179480669602e-02,9.571712880290520614e-03,7.712522464867328092e-03,3.068268537693085232e-03,1.277928258254589161e-03,2.220180372793566420e-06,1.254363292573041494e-02,4.434619510088294581e-02,9.549795279015583019e-03,2.367085861256450208e-02
2.867285059586457616e-02,1.953311694428450096e-02,1.979256799744115967e-03,4.619928237757743757e-03,6.110681835590724403e-04,2.493707796379723447e-06,3.537744290027189983e-03,2.687835222887227996e-02,8.788213365109745837e-03,2.271220032488946439e-02
3.238654980034207792e-02,3.141629379818942219e-02,1.995299832567077464e-02,5.835504616845400318e-03,7.459698614920595738e-05,2.304447930803285734e-06,6.018039873294643398e-03,4.754477560116253734e-03,8.127709898241186615e-03,2.240893523674188093e-02
3.375432803045578384e-02,3.851400073496967502e-02,2.762839534307776415e-02,5.683328377098792808e-03,6.656545665949875146e-04,1.697236092587237865e-06,1.157436500322861495e-02,9.391237867500278405e-03,7.362227312285259118e-03,2.177686321896660573e-02
3.568412963449305725e-02,3.545347989817010381e-02,1.296428215301346880e-02,4.125933192741645592e-03,1.414741193884450120e-03,7.308955096269070585e-07,1.014194720094429084e-02,6.958597971393147737e-03,6.125354533813235323e-03,1.796852684013160867e-02
3.750144435379653557e-02,2.422721052934993444e-02,1.030684493395387161e-02,2.530610789514687545e-03,1.109301954663467239e-03,5.231704344466102230e-07,4.355953272891129914e-03,8.912812218449781693e-03,4.864476553699386210e-03,1.047070972334908021e-02
3.524309609412666633e-02,1.006492019775151806e-02,1.884949450282018962e-02,2.064001759275316001e-03,2.659032037906038635e-04,1.982820689547546106e-06,1.486051594324545909e-03,2.737689341970333048e-02,4.646482262220616270e-03,3.105475912680221232e-03
2.676477872487360854e-02,3.561587016682631578e-03,8.652102654231878798e-03,2.088428748914585541e-03,1.548206379234151470e-05,3.557130442646098837e-06,5.246404980945709728e-03,4.048137190329253315e-02,5.152395591165241477e-03,4.346565177013646947e-05
1.490046393984646028e-02,1.220540167432458689e-02,6.329484140359904927e-03,1.268796272881145834e-03,3.845161753725556729e-04,5.148322280687360293e-06,1.131462793651863592e-02,4.490865384746998284e-02,4.293629693278703738e-03,1.133961259373684810e-03
5.462844571525630327e-03,9.864085477739308050e-03,1.963713612714794790e-02,3.717065645277009751e-05,6.567977773175608840e-04,6.654219949771979910e-06,1.371170719332342157e-02,3.713561275448232918e-02,1.462739796958053380e-03,3.429066053238477140e-03
2.623093569120832011e-03,2.876144125602764917e-03,3.828259933496949013e-02,3.973807197439257750e-04,4.996125332920074236e-04,7.971364838504171969e-06,1.265117525691615390e-02,1.666846039294659493e-02,6.290025734724514171e-04,5.927270920745287414e-03
5.891677184193202035e-03,1.525843522134730061e-02,6.325506003881403716e-02,2.763404366028208731e-03,2.742901625483839916e-04,8.997458589956989112e-06,1.385486373196620144e-02,9.985873091362777731e-03,5.773176984842225438e-05,9.161529108271974572e-03
1.160186990255903175e-02,1.748691088942334187e-02,8.302098016625367172e-02,4.566058106058269381e-03,5.912670095586847110e-04,9.632611397016153395e-06,2.220135270024947011e-02,3.780449677762513089e-02,1.196735570226152090e-03,1.104182673885631925e-02
1.719852415691923431e-02,1.223606458549076313e-02,8.948823886647969128e-02,3.377631543554376285e-03,1.435477734338933302e-03,9.782044455312148275e-06,3.654585601913059451e-02,6.793985109127699540e-02,1.341883085368364707e-04,8.184372964305153611e-03
2.273218394700433909e-02,8.682982487196358456e-03,8.490293706054063971e-02,2.266582356628910814e-04,1.910685837695267611e-03,9.361233375879880769e-06,4.909508067696186084e-02,9.511853785989864141e-02,2.613768134048474398e-03,1.714259037421626440e-03
2.781732689723303079e-02,7.931893022529484111e-03,7.118550591970776442e-02,1.987647209438809116e-03,1.440577556745849686e-03,8.297671778876997682e-06,5.100830433449496382e-02,1.035684733665794000e-01,3.838339022158734556e-03,3.320285525549635571e-03
2.935801167648532245e-02,2.668885704181648937e-03,4.674100869459651975e-02,2.381064472477876278e-03,6.744657511126429632e-04,6.526813468628069918e-06,4.064864341955749805e-02,8.725019655802281060e-02,5.171326750862709209e-03,4.876424923464301418e-03
2.370767499647086218e-02,8.992779157753537020e-03,1.720423953036410297e-02,2.440892740472050057e-03,4.514555030985134988e-04,3.994390817995583330e-06,2.512033908680018357e-02,5.875456294844260546e-02,8.661429930505419247e-03,5.153318489658888571e-03
1.066210291857370637e-02,1.818140691830827729e-02,3.868418482712923656e-03,3.300368095207476156e-03,6.414861045667297635e-04,6.704891090059152159e-07,1.275679624349774534e-02,2.782273964618145468e-02,1.232335668407017089e-02,4.817811287541494923e-03
3.862696438001058698e-03,1.721251944217620442e-02,1.141864285927018940e-02,4.483843652429684440e-03,6.945371486659350935e-04,3.450664679583087888e-06,6.583041262469615032e-03,4.706879170340886112e-03,1.315804368177668146e-02,1.880203195356889732e-03
1.016993743525203622e-02,1.041362997238370544e-02,1.310053329084113691e-02,5.143263583499855553e-03,5.450355968056303348e-04,8.377475745175753667e-06,5.799171261316627725e-03,2.069592988282302135e-02,1.218251113235391779e-02,2.977281265332532446e-03
4.288071138501207968e-03,7.637956556995589841e-03,1.159894609755749567e-02,5.359804803268652246e-03,4.293875446277531480e-04,1.411910532530003410e-05,9.235601977643002544e-03,9.788367991572257537e-03,1.278448319706626708e-02,5.445730149873371714e-03
5.943554722985031416e-03,1.116612525245208945e-02,2.806376256355371142e-03,5.909795106373676166e-03,3.857587317321008440e-04,2.062733787439538377e-05,1.463633966185914730e-02,7.795880653738460064e-02,1.629842412314127381e-02,3.426684267220792522e-03
9.442905110911279862e-03,1.563960817684098559e-02,1.577763968051543262e-03,7.265565585145791934e-03,3.055746504407004039e-04,2.779940827378337505e-05,1.793710129005995912e-02,1.300907847638603787e-01,2.177997604602313272e-02,4.462106615598838044e-05
3.415767121853074181e-03,1.853863447826963398e-02,2.177508931203724074e-02,9.309194486318502632e-03,1.700075537148681060e-04,3.560379816582962426e-05,1.605379475268508410e-02,1.289260320288720119e-01,2.817794722386613576e-02,1.017721877527139789e-03
8.394548073814470102e-03,2.320176355115369932e-02,6.949974064213713942e-02,1.142084085283238785e-02,3.093261358847375299e-05,4.408025085842773793e-05,8.538532262710589113e-03,8.658065185752611415e-02,3.451327513606155389e-02,1.176660887605292596e-03
2.285253212893471192e-02,3.176613057598536710e-02,1.071946700251680401e-01,1.237209386847987029e-02,9.966550227185900753e-05,5.307501881754068826e-05,3.814454976144290074e-03,3.128418644448805602e-02,3.932487695253179122e-02,5.175385762814723074e-03
3.726676114938328593e-02,4.160349067503798376e-02,1.151952160186700130e-01,1.165331249199577299e-02,2.440138884698566150e-04,6.223886069237698454e-05,1.831204206176198154e-02,1.967861500367889399e-02,4.197289791575958134e-02,1.002236082318233232e-02
4.762412431009573760e-02,4.904299896859626307e-02,1.088375530504074318e-01,1.134615544991681921e-02,4.076663172736014304e-04,7.159825465957211758e-05,2.803288429677085886e-02,5.062842298297653976e-02,4.375629872767316381e-02,1.427334461114791384e-02
5.113818078573987430e-02,5.193789330270296573e-02,1.042369011824799269e-01,1.388735650505286238e-02,5.778014680211286539e-04,8.158120722177346286e-05,2.572397602191825797e-02,4.974887301024301378e-02,4.634653297777295566e-02,1.510996764948674756e-02
4.737583286952046918e-02,4.975205222481861311e-02,9.795306629179705016e-02,1.760576132671384450e-02,7.450242309669484215e-04,9.180526550615179262e-05,1.250348283880632974e-02,2.927512390129734937e-02,4.976285308005590213e-02,1.079803907569570724e-02
3.723632966371973052e-02,4.506963113762309930e-02,9.128030517069989080e-02,1.844464487927609253e-02,9.125292790874593371e-04,1.009984456422967982e-04,1.361881733313387560e-03,1.651684270042618613e-02,5.285578272562066471e-02,2.839134794832619529e-03
2.453693526918314036e-02,4.221979230243486092e-02,1.006729627387971532e-01,1.643769344783259020e-02,1.090682338492628394e-03,1.095934408536033034e-04,5.790863765142219809e-03,2.132886533086398792e-02,5.512374306318564704e-02,5.626005027565588595e-03
1.654207232662667157e-02,4.089770022196134031e-02,1.288467953138509592e-01,1.552182320043551597e-02,1.275680038810070782e-03,1.199721520763505995e-04,1.586594690345210449e-03,3.312418369512264149e-02,5.683606048475586120e-02,1.275855288872287767e-02
1.861178660247474193e-02,3.535446326607011996e-02,1.487752841301127893e-01,1.629650517445078994e-02,1.441590721774823908e-03,1.309396367230051053e-04,1.493928405986214014e-02,4.425071193256611968e-02,5.710881336411160331e-02,1.884571377784577742e-02
2.780879988802570021e-02,2.345308714511891435e-02,1.326899829093984018e-01,1.471744589542327807e-02,1.586448685861038604e-03,1.370651814535216314e-04,2.384081152086613489e-02,5.289772217189873948e-02,5.316645488748245052e-02,2.454348919808491472e-02
3.328862291630575038e-02,1.156569438571764842e-02,8.887538104586532872e-02,9.557017573473483227e-03,1.759543483962499981e-03,1.404736696442531970e-04,2.132448919712559218e-02,5.031136376846142427e-02,4.341249082831719064e-02,2.846737829710549450e-02
2.590393121579037672e-02,6.272871489471403689e-03,5.255277431520732900e-02,5.239932083591541771e-03,1.963634337097946905e-03,1.525667793518361345e-04,1.157317337847358144e-02,2.864792385319577320e-02,3.110390274813203473e-02,2.703956973206338849e-02
8.652650496228809357e-03,5.899830747614331558e-03,3.769560840827412135e-02,4.733577861753083052e-03,2.089899343209485668e-03,1.688913382574781319e-04,5.815297130183604869e-03,1.759227470435643925e-03,2.243019585827431273e-02,1.769200463048584832e-02
6.544772186706890316e-03,5.143042495199203271e-03,2.502254251340577801e-02,5.253751471092743888e-03,2.125172393050287888e-03,1.648119575755417057e-04,9.816818771360633078e-03,1.801405852703501925e-02,1.965447326097546563e-02,2.273440858306142141e-03
1.307961422913276467e-02,3.992569464623090501e-03,9.412190004262271925e-03,3.949563204875736720e-03,2.301098661008137234e-03,1.490739772199905296e-04,1.967046708994858034e-02,7.114982537631964719e-03,1.841772968025837467e-02,1.344772035296951801e-02
1.403794636444752157e-02,6.455533755681306003e-03,1.701351928639361841e-02,2.445518844952331884e-03,2.659393604163698584e-03,1.744506744696616653e-04,2.865062633684271193e-02,2.028379314949148998e-02,1.387768405791567350e-02,2.333582838885311581e-02
1.276915006951035228e-02,1.329666154711976050e-02,5.406778801258427247e-02,2.805503585672222515e-03,2.665127321494512643e-03,2.236243175432939181e-04,3.340501504795406751e-02,3.858771911456623099e-02,7.308268640899005450e-03,2.373175228250472973e-02
8.051411678453140527e-03,2.150553508415834619e-02,8.902993702285617872e-02,4.295275879307393699e-03,1.969383959651625857e-03,1.833359376423898571e-04,3.483851857145311287e-02,3.518176128129740093e-02,3.994747623589485486e-03,1.531597930523261736e-02
9.721755342298118996e-06,2.866933805120817566e-02,1.084454161267418004e-01,6.772400712769988465e-03,1.337914047373735737e-03,8.741505010651087542e-05,3.627257645639893335e-02,2.727205073767150628e-02,6.173137611630161864e-03,3.909047930864694917e-03
6.455469888623478758e-03,3.278729254515827529e-02,1.332907409640216034e-01,1.118707962719422272e-02,1.658690402156571056e-03,1.812332822959869245e-04,3.903749105814236647e-02,3.916375648787125824e-02,1.010434917399020624e-02,3.639295768831494853e-03
7.209963343439301092e-03,3.075220726205735514e-02,1.556567061998365697e-01,1.376047866998001898e-02,2.130974082339364816e-03,4.082581521817693496e-04,3.909368447494058346e-02,6.760813688510283748e-02,9.659578883733012378e-03,6.417566963381323916e-03
3.713708804213439359e-03,2.263584144696198161e-02,1.239977179018208336e-01,7.324778590523378999e-03,1.132659469671605480e-03,2.004206411586717366e-04,3.143958146842503604e-02,8.655994934657142148e-02,2.197338198606609960e-03,9.153830599597179152e-03
1.139221437030039918e-03,1.367830598199444754e-02,2.704750042909411650e-02,6.973652734322748764e-03,8.555624563955584226e-04,5.901332211902751441e-04,1.830596333319820662e-02,8.339089541031997899e-02,1.011662567850588577e-02,1.413952256752581960e-02
8.232995910683835530e-03,6.216627398704630686e-03,6.709979682666150635e-02,1.756114238360264451e-02,1.378332493966825034e-03,1.083552066265308774e-03,9.079974251764032570e-03,7.210216784134096391e-02,2.496951925712747461e-02,1.790465027947718557e-02
1.804342728321636086e-02,5.428551737875207325e-03,1.003584004390874196e-01,1.769900756918789744e-02,1.477039640608258041e-04,5.880989673148012903e-04,9.870360035682963426e-03,6.837569294299850053e-02,4.183654184012915861e-02,1.696707681833936263e-02
2.487925368415732155e-02,2.592609880564338345e-02,1.062849460776845029e-01,1.490610655134146090e-02,1.210182717257358509e-03,2.381476615309594284e-04,1.485828758585624847e-02,6.836361562865438113e-02,5.771860895426483146e-02,1.258574845250302020e-02
2.166245193983659667e-02,4.903079027282423313e-02,1.553235086566685241e-01,1.915471765479071636e-02,2.296813755608518117e-04,4.108894617396884790e-04,1.220484940184766998e-02,6.154735513285810450e-02,6.655753699076651098e-02,8.179189425217406328e-03
8.597587984396373728e-03,6.168302153872934346e-02,2.511568506693346303e-01,2.849684905635508497e-02,6.746120106944347022e-04,9.250365241423284552e-05,3.588126754521564661e-04,5.188094479005322252e-02,6.496267071066381960e-02,5.112963316598762714e-03
6.552826797072201087e-03,5.655160755254898947e-02,3.248175596273746302e-01,3.267547707040050625e-02,9.236363914275174921e-04,9.449950115476467782e-05,1.224452846360117066e-02,5.038128100127754749e-02,5.456025475400794883e-02,3.526376397593899981e-03
1.556111632343894734e-02,3.957645035570495767e-02,3.146025610703618303e-01,2.701633779901385646e-02,3.527785890151548687e-03,4.170217738794266367e-04,1.554208561637412597e-02,5.278094596026879082e-02,4.038194256854967662e-02,5.523108764519999055e-03
1.656795077920582976e-02,2.534859990197955298e-02,2.270682599873339869e-01,1.723578583370347778e-02,3.661750513981263874e-03,2.425628617101436831e-04,1.498535797976541760e-02,4.293104363958376996e-02,3.047787185296517432e-02,1.330232000147841057e-02
1.528352521415861365e-02,2.266317582454923860e-02,1.301549008212646574e-01,1.102361653890490678e-02,1.190653323334082015e-03,5.915488732183231792e-04,1.694146967102173537e-02,1.922454975233879940e-02,3.080216249086069336e-02,2.379895457002013937e-02
1.905632662892220441e-02,2.531274971051990577e-02,8.683771854443518567e-02,8.576000751799255084e-03,2.928492497204439500e-04,1.078780018388183441e-03,1.776856684317862714e-02,9.644222637533780146e-04,3.528937432291986281e-02,2.948155770258532524e-02
2.870173500619476251e-02,2.216722211077900434e-02,8.804421215084316799e-02,4.026186704967835150e-03,1.337785137225240041e-03,5.593628501804235546e-04,1.076241199538330133e-02,3.738489166510383828e-03,2.932995579970595901e-02,2.567621389886585656e-02
3.655801878071660710e-02,1.426462123524300553e-02,7.550438837623382748e-02,4.845592503363485570e-03,3.953306673458048190e-03,2.236601461197909189e-04,9.928513872362765714e-04,2.204331156335794656e-02,9.797384354679243568e-03,1.443300186587557349e-02
3.463230685612459642e-02,1.294900055394939548e-02,2.917835214742333164e-02,1.285081822832258996e-02,4.711979887508386047e-03,3.857085209542810843e-04,6.322107711388922149e-03,4.169312391326811945e-02,7.200427897201096966e-03,1.514892480046072659e-03
2.502800519308835334e-02,2.218286689943237827e-02,2.018552993378419647e-02,1.499004924628754599e-02,3.942311920380246401e-03,1.863239146576447743e-04,8.913795746090701013e-05,5.600289314967298038e-02,6.706728340541926597e-03,8.192288739052247179e-03
1.822508661387998302e-02,3.385502199647706656e-02,5.515547390273847772e-02,1.277113798931869479e-02,3.548020548597295449e-03,2.068641588894752430e-04,1.029578035804090512e-02,6.119726467650767748e-02,6.143145273126003614e-03,1.341244099232610787e-02
2.031071846919227375e-02,4.064922852938937514e-02,7.636999138155077527e-02,9.525284400089683787e-03,3.542195204680675773e-03,2.646342903882348621e-04,1.517627838074009361e-02,5.040993478269375355e-02,1.737878137883015761e-02,1.670523310934690642e-02
2.837373655834751415e-02,4.198836914085032901e-02,6.213209572170170364e-02,4.970711164895072476e-03,2.913728948225794303e-03,7.897875247027359236e-05,1.306725334941211472e-02,2.786925747148411361e-02,2.370753491408102848e-02,2.145857601267331036e-02
3.838755742328586046e-02,3.766514515530599433e-02,4.074005661123477479e-03,7.186443985963168139e-04,2.524809106195100277e-03,1.310578244782722643e-04,6.857585188120117817e-03,1.146182874337103169e-02,2.845046388293511266e-02,2.764791120414539574e-02
4.803525235337457316e-02,2.783021363832128767e-02,4.108618176778924130e-02,3.313957888479878398e-03,3.731487519013064209e-03,6.432668307808989128e-04,7.155875427757575581e-04,4.395627330632828449e-03,2.980301563819681698e-02,3.138358827938961260e-02
5.166090140783685669e-02,1.862307610454082621e-02,1.492897481368609357e-02,1.182219685431191818e-03,4.844331957622724505e-03,4.608843147310928592e-04,2.645224027774769303e-03,6.290160345109285789e-02,2.722093230478212986e-02,2.991266601878748987e-02
4.376681584339822684e-02,1.613084781160784714e-02,5.007902206092594566e-02,4.451371647004089818e-04,2.631123961581396074e-03,1.273381381325462388e-03,8.824474280159116946e-03,1.814882398464293112e-01,2.772898594596593172e-02,2.586738223742758233e-02
2.842001805912068926e-02,1.662277024595458508e-02,7.100921167786991561e-02,6.863000517996452332e-03,2.679498587102317926e-03,2.986712788691401124e-03,2.840286355447163222e-02,3.021289750818450526e-01,3.311304896499132205e-02,2.403434156528268598e-02
1.410967318833998563e-02,1.387485063115458279e-02,2.956083991701368568e-02,1.624235812541021187e-02,7.115313708720385176e-03,2.533781386185465691e-03,3.961119829155976269e-02,3.501654074015074225e-01,3.406966454119866178e-02,2.472855011563597841e-02
3.891537225433271911e-04,1.241325384017512995e-02,1.753624021980340619e-02,1.927196187571607322e-02,7.946394608664579529e-03,5.230221978361165695e-04,3.450465945168715992e-02,3.161666714727173755e-01,2.760850718443160975e-02,2.333008036899553508e-02
2.214617785304517222e-02,2.136759103438957974e-02,3.297081003321676584e-02,1.369627468068553185e-02,6.456082969297950204e-03,6.909325243755073216e-04,2.127197644532395279e-02,2.449070646588294153e-01,2.456979704983441176e-02,1.629641378616882019e-02
4.661136267071631228e-02,3.822189220720804970e-02,3.507151666966987907e-02,6.255947984944925516e-03,5.440641314200750887e-03,4.772409340976938117e-04,1.125686589748778506e-02,1.752889573538492229e-01,3.093421521589442141e-02,5.612667825658202402e-03
5.923672387500733549e-02,4.962874939833850779e-02,4.017677903665800576e-02,4.089305198743032992e-03,6.027791744241266063e-03,6.808306476073955511e-05,7.717090015123223221e-03,1.210707316620429352e-01,3.825013678661383365e-02,3.369702453920673212e-03
5.668597256499467718e-02,4.671151812272468506e-02,4.217502570789119498e-02,8.828246201701722695e-03,7.793142457467519026e-03,1.613179028847539550e-04,8.086246009852538982e-03,8.436137342623607760e-02,3.957638728888487195e-02,7.967937953421582592e-03
5.266737378429216937e-02,3.242566550888549559e-02,5.105768295077153102e-02,1.764174364394608882e-02,1.042231976933253625e-02,3.466279485109535503e-04,1.044646624637387763e-02,6.276978006618173789e-02,3.884666129682850383e-02,1.033162686330276435e-02
5.867995586497550681e-02,1.596316800518430071e-02,8.136753094732214475e-02,2.575530169844306508e-02,1.348499973505798942e-02,3.038078978329603356e-04,1.508447504373996301e-02,5.359383144140639210e-02,3.872393962826211483e-02,1.282500106721607726e-02
6.982289921562079282e-02,4.850493282578537818e-03,1.109886036026620643e-01,2.902462839405542047e-02,1.528949262474201334e-02,2.144704318194354861e-04,2.123328900355519674e-02,5.872391408689581205e-02,3.369323714994735403e-02,1.438650322514509368e-02
7.554068589010591583e-02,1.190901505788002045e-03,1.106451476490301900e-01,2.713083123086581366e-02,1.427765851978155323e-02,2.298578976187586780e-04,2.498156141585809037e-02,7.721423963534400359e-02,2.172116533214266468e-02,1.349630808454153029e-02
7.594835173376124349e-02,2.064739236615613285e-03,8.868584213808944350e-02,2.313245781746050764e-02,1.136784675091964680e-02,2.670643584918998108e-04,2.289735908718311050e-02,9.526716647253082038e-02,1.168620479444030733e-02,1.110615130942155075e-02
7.739830969088033752e-02,2.454375622727425574e-03,6.119334983332110067e-02,1.880476552578400767e-02,8.440793705059910015e-03,2.543438378454771615e-04,1.625687157941250668e-02,9.435726883722261871e-02,1.170399773586450545e-02,8.429643099196939410e-03
7.673277505644507390e-02,1.003775341142628189e-03,1.655550982860363660e-02,1.283730252112743296e-02,5.108002496794126178e-03,2.296565916047622609e-04,8.528447147722930874e-03,6.848146542912722512e-02,1.686243688188696077e-02,5.731109777635103736e-03
6.353783625221004483e-02,7.807607224174417139e-03,5.551899750884170537e-02,3.875529351899058891e-03,1.341257701476594255e-04,2.271713436751684806e-04,6.474537885806294895e-04,2.796115477180664138e-02,1.474341546588755006e-02,5.165859331381500441e-03
3.700719164120817167e-02,1.625058540167652679e-02,1.410339178437596264e-01,7.689188553226368808e-03,4.865084630021608222e-03,2.297248646708762658e-04,7.897145810464375679e-03,1.315367895810283863e-02,1.555453476559219214e-03,1.011810090959260576e-02
7.887968670739223254e-03,2.776258227900344280e-02,2.284894993446534572e-01,2.080257826318229752e-02,6.933543378035674290e-03,2.211779604903496631e-04,1.599214849279280773e-02,5.033138400211072117e-02,2.956539090703896866e-02,1.881888257657236135e-02
1.499860950253675829e-02,4.345741013934434349e-02,3.119278056551146872e-01,3.354174662559770981e-02,6.297965687041919870e-03,2.093210132075327479e-04,2.217036892578156879e-02,8.332996594450953198e-02,6.084644599123997799e-02,2.313386922584570460e-02
2.922863833504354622e-02,5.695782476762151908e-02,3.535265232394078083e-01,4.190135649324559092e-02,5.797352854678606941e-03,2.020684141169252850e-04,2.586680288224456684e-02,9.863480762908946597e-02,8.414673822215829047e-02,1.770197034603075356e-02
3.324837708867078856e-02,5.926282938999601069e-02,2.971347038834480925e-01,4.151781005919882861e-02,6.178214365941507580e-03,1.964333508726403036e-04,2.492765651367401941e-02,7.700535296802668572e-02,8.963787173359828719e-02,6.670730053870187540e-03
2.600341429298620027e-02,5.101055460696995308e-02,1.434285652489361018e-01,3.176364306902795809e-02,5.118028641361765940e-03,1.886117528764054386e-04,1.637696624408435664e-02,2.794307734654007114e-02,7.471226769627585529e-02,2.280956876207090173e-03
9.776393602465086041e-03,4.113624749466244374e-02,2.552220099009106652e-02,1.765757138617288918e-02,1.322428647378204921e-03,1.792522932624003367e-04,2.686933111640762029e-03,8.498440300237771611e-03,4.633631585881822779e-02,6.640967111533445898e-03
9.486424987979483192e-03,3.432466474440123982e-02,1.180982308020018801e-01,6.971498052056792488e-03,2.745248604217372795e-03,1.707698532736523413e-04,7.617063236077645585e-03,9.041360252359706071e-03,1.829859401012657108e-02,8.285591626510234453e-03
2.196456712811743414e-02,2.856521439520143951e-02,1.123632692124826721e-01,4.532310718030500840e-03,3.516653265984431755e-03,1.649187304672049346e-04,8.875822783862138618e-03,8.203609771636966724e-03,4.825390194927448896e-03,8.488315476348880229e-03
1.971647868154967689e-02,2.340628276738293198e-02,5.825661282308267075e-02,8.840752091606391208e-03,6.358491494323755076e-04,1.598025836229830161e-04,3.585758958224747901e-03,1.839159510031432992e-02,1.129043361158457368e-02,7.818927848580018575e-03
7.834954699038361794e-03,2.177429570768741121e-02,1.321507506363917700e-02,1.454697770181806807e-02,2.882313643878279749e-03,1.506957764190729751e-04,3.056470353655236540e-03,2.321560297831194719e-02,2.845506429168954965e-02,7.458787378576395635e-03
1.923023651327763258e-04,2.379155703165694233e-02,1.981348971073971718e-02,1.828653778433136576e-02,4.549569439771319890e-03,1.404446314616986167e-04,9.010287023177562804e-03,3.738855303436058874e-02,3.988193518225574552e-02,7.208455962226042665e-03
1.965627233333200156e-03,2.560337616835331453e-02,7.891324159859668119e-02,2.078761145704312308e-02,4.772488950768508272e-03,1.400295770371531238e-04,1.400374505631999701e-02,6.443206122059061403e-02,3.743101177180985922e-02,5.345553215544240726e-03
6.443126435470207178e-03,2.482991124986937484e-02,1.595283695906122290e-01,2.253363180166383442e-02,4.850502871583759618e-03,1.445126789146425914e-04,1.695646498730136315e-02,9.788316936347697672e-02,2.693506882701416152e-02,2.468118257710089428e-03
1.313428725639158301e-02,2.235734355786367020e-02,1.881018148559061853e-01,2.054230687466989877e-02,4.504558800167913352e-03,1.302217539095366591e-04,1.735135375563108887e-02,1.302017476377965721e-01,1.949350488135185439e-02,1.677837520364494498e-03
1.035461623446253844e-02,1.885651675024158092e-02,1.223588272346344263e-01,1.289890837858614046e-02,2.997544672228629522e-03,1.068947025724107411e-04,1.661450737563801433e-02,1.522527268598085348e-01,2.081022730114069977e-02,3.718995367411129412e-03
2.931993275757051667e-03,1.367993129153829111e-02,2.602256110497024391e-02,3.429244531742386796e-03,1.237038813426098380e-03,1.255279095517360447e-04,1.663181340284483264e-02,1.578346868812849635e-01,2.647375862279827477e-02,6.025582393996651090e-03
1.292340022955754814e-02,7.313307025148638174e-03,1.498074644438625661e-02,2.489541134898645269e-03,6.645021633270116121e-04,1.668178518629209002e-04,1.829496742483710525e-02,1.541538231797119352e-01,2.503413376348238850e-02,7.049776379260342535e-03
1.163644135309328288e-02,2.950891510315710019e-03,4.655679564401091208e-03,3.397145045088833994e-03,1.198872273002566432e-03,1.211300010268022333e-04,2.119293870102213415e-02,1.556885448143112416e-01,1.143570334151442977e-02,7.051156433499024268e-03
4.961915645380345422e-03,5.314383575611946776e-03,4.196679711595441287e-02,2.306728832149208125e-04,2.102439925257933422e-03,2.639647641925023104e-05,2.272646022765640803e-02,1.642104649889723211e-01,2.255476200822765283e-03,4.476894671549915862e-03
1.071879658827010065e-03,1.521202476691788791e-02,6.869982146761190178e-02,7.157037225095974620e-03,3.364293784421659109e-03,1.201211219622765655e-04,1.866969229471457034e-02,1.645998986741803449e-01,7.797054607601274293e-04,3.288531824475623977e-03
7.046330768507151968e-03,2.380338484091620507e-02,5.193629340817908918e-02,1.074511959949630939e-02,4.417940900937752761e-03,3.364923108760325206e-04,7.587182774850040508e-03,1.430603335150293642e-01,9.696026870675705095e-03,1.450917655388916754e-02
1.273481401059163749e-02,1.926802566061820016e-02,4.673677686649480023e-02,1.625061963049934848e-03,3.207538053356471380e-03,1.235696308713904966e-04,6.078610592020550554e-03,1.031249574126358454e-01,6.893782695349360765e-03,2.266851263316842224e-02
1.587222849902645422e-02,3.463014487507815303e-03,1.972637194352860890e-01,1.925873570508871563e-02,1.229522166034337140e-03,6.467647140839394163e-04,1.575806055814622450e-02,6.209372044865399398e-02,1.555175481281651992e-02,2.290956707877128684e-02
1.862033843196349292e-02,7.305538514798112434e-03,2.946553916738590129e-01,3.781887136285310563e-02,6.254382693640268658e-03,1.129123451041736184e-03,1.835074449349106962e-02,3.657768148317899065e-02,3.783859738654896110e-02,1.653129138736735004e-02
2.494096813934023119e-02,4.145803793792300108e-03,2.727389472914705237e-01,4.232353012984574336e-02,7.870909693943599350e-03,6.753939826553355093e-04,1.463564992783541151e-02,3.289961475205749331e-02,3.921185916979916253e-02,8.250132524767285480e-03
3.258109714912314769e-02,2.937321468274840461e-03,1.741276186589661157e-01,3.491704638763178103e-02,5.133756436449562859e-03,1.282083465424947765e-04,7.357845667071577674e-03,4.617194201076137844e-02,1.997719210911228990e-02,6.538073035666572275e-04
3.617833212341826227e-02,2.827269921028297342e-03,8.265314036827624278e-02,2.436332189110871141e-02,6.644929566680100354e-04,3.919497149865508651e-04,1.305487056381097197e-03,6.471327470327732645e-02,3.839255367771851786e-03,6.944127212289858894e-03
3.508578051873671028e-02,1.057386344537777651e-03,3.237632546266253075e-02,1.580134298686174457e-02,2.670016402180125023e-03,1.267488093777576462e-04,1.029383784719319506e-03,7.642852691745602445e-02,1.746023211412548598e-02,1.491887506916808950e-02
3.067441663381195727e-02,3.121760928400191260e-03,3.580413739431980227e-03,1.160440361954325622e-02,3.809719883516396368e-03,6.512884943743665336e-05,5.062086474362839303e-03,7.244563089213772178e-02,1.733389895610709663e-02,2.150642204822802647e-02
2.153154611394649670e-02,9.072673632377721217e-03,2.005462080722383161e-02,1.375495891184898463e-02,2.807478512873953780e-03,1.272637814698675133e-04,7.102625229857023603e-03,4.839248507716741032e-02,9.309576684374877911e-03,2.435070486280161220e-02
9.179518970783527576e-03,2.374429359025949024e-02,1.444280294676792559e-02,2.007011853064073759e-02,3.269445686652925546e-04,3.928325212931769420e-04,6.038360038535413137e-03,8.801979066157436873e-03,1.227461157154655178e-03,2.104462906041266665e-02
2.621169607701079578e-03,3.735822025895692983e-02,5.176000640474105047e-02,2.382751367037515625e-02,1.893865525453125890e-03,1.291675754542141383e-04,8.217312689088531949e-03,3.073727692823640528e-02,1.391821165723922289e-02,1.036553271284355697e-02
8.496815138249133939e-03,3.698228215390397811e-02,1.538572013425455465e-01,2.104432080449187767e-02,1.954908931442408872e-03,6.747867237998524375e-04,1.618367449260173577e-02,5.335288109225444497e-02,2.667439608675874207e-02,2.982789666619981017e-03
2.031072612718456266e-02,2.355047005005981783e-02,2.221164670549007347e-01,1.454193570818120354e-02,6.708304598022403085e-05,1.129421618317009383e-03,2.259389317442508233e-02,5.233548122134171199e-02,3.272161277216424635e-02,8.890864131286929303e-03
2.530177714243438819e-02,8.073489350194168468e-03,2.264292574395902202e-01,9.182833598379498349e-03,2.099539942994861543e-03,6.486331765893145907e-04,1.957627991738322346e-02,2.971565638175675123e-02,2.928044272855360314e-02,2.740197546040781806e-03
1.929786155999650005e-02,2.544704589331223642e-03,2.038561154382042273e-01,6.508458394241911638e-03,2.642011824746256631e-03,1.193686408182952373e-04,8.578479739455989461e-03,6.800206561203562400e-03,2.171329921318549544e-02,8.126533576958232946e-03
7.663283239117524293e-03,8.950194734288033013e-03,1.880722044235461909e-01,5.166034927786689393e-03,2.191437790406340277e-03,3.291184377061954960e-04,2.003605779464274692e-03,3.846302581547483834e-02,1.488599881407167737e-02,1.379432479992625908e-02
3.690790430399840550e-03,1.264113477484513082e-02,1.576417937792229385e-01,3.476582905277482080e-03,1.844463685481364558e-03,1.086821973531612931e-04,5.616350561922288202e-03,4.316659164754272499e-02,6.953276125526698832e-03,1.282387793153775581e-02
1.010402762240636583e-02,1.064512052378935140e-02,8.439097142156665177e-02,5.387362869123853973e-04,1.786920360802639936e-03,9.970569562813804060e-06,2.554959258823440420e-03,2.169661187516059089e-02,4.006602792826885473e-03,9.296478280886808984e-03
7.583584587862356868e-03,2.036808184784998262e-03,4.446146809910202918e-03,2.740236023297201468e-03,1.666038036542722735e-03,9.877736944764883105e-05,2.058516327191630378e-03,1.310616021381337364e-03,1.157753759254639275e-02,4.633421561394060126e-03
1.619140778626651251e-03,2.399402054239894305e-02,1.108086131160973022e-02,3.690939219261723647e-03,1.442849884611765521e-03,1.376051241567445181e-04,3.733715922571102710e-03,2.651558180472037528e-03,5.363650407080389551e-03,1.623249183286402117e-03
9.535973349957137593e-03,4.444518638352823459e-02,4.132093611835758323e-02,1.543042201029141795e-03,1.262425815704513662e-03,8.857585902467419981e-05,1.509250454104047942e-03,2.067054292565104895e-02,1.532780271037679880e-02,6.754622041151071322e-03
1.202197899992964517e-02,5.252968275957729111e-02,8.153497564103666384e-02,1.282588151727806405e-05,1.059220900000991308e-03,6.140051283922331928e-05,3.086176309470480862e-03,4.427129278509813609e-02,3.685056569922503383e-02,6.823089017436820281e-03
9.410597904582065215e-03,4.671065184777569573e-02,5.015044633933566504e-02,3.154048880722995409e-03,7.987519777297139197e-04,7.542848550599755731e-05,7.401193837433389482e-03,6.984652711612804321e-02,4.388799885362973385e-02,3.084980015521924211e-03
4.753873063826252916e-05,3.297005951104360622e-02,2.614683799545526252e-02,9.904509668499268671e-03,7.040422506056802972e-04,7.972835755757909165e-05,8.304801691188856694e-03,8.714221126349849800e-02,3.450412538145507940e-02,1.657860459030634399e-03
1.517110752161644066e-02,1.845573204824286703e-02,9.121140027608173884e-02,1.560170389947884359e-02,7.439604201134536812e-04,6.475524068818700439e-05,4.608740557530415990e-03,7.778249442086963839e-02,1.974010629142255308e-02,5.125981902971025149e-03
2.459326230811263031e-02,8.461394202256491623e-03,1.253385396468895685e-01,1.755490068511302362e-02,3.678036204463845790e-04,5.439266352752058359e-05,4.240277249001702699e-04,3.746347293459677263e-02,1.072047818162941493e-02,8.418890187690895865e-03
1.803018527651733399e-02,5.009801501013579073e-03,1.322964228221270022e-01,1.675671119575785489e-02,5.620900847826219024e-04,5.356475644915427594e-05,1.803180417002205049e-03,2.024140384520432129e-02,9.921277932701491609e-03,6.611737402476881159e-03
1.231382083122185399e-03,6.215322181960236496e-03,1.110691917635930198e-01,1.526569534233189473e-02,1.179519250316499700e-03,5.127101450395708777e-05,1.008103483801131746e-03,8.506738402954111544e-02,1.342512472184640739e-02,3.092690832781769695e-03
1.075887318104428066e-02,8.882011390249550109e-03,7.047853585684926703e-02,1.400685760898256853e-02,8.372290961667289751e-04,4.515445600399208226e-05,2.518879798838457099e-03,1.586563003196355681e-01,1.655192993036327942e-02,4.298573846891273233e-03
1.169875016505785015e-02,1.193228869154045087e-02,3.805075598586631080e-02,1.290832131336753716e-02,1.698198689283288208e-04,4.047479668921646196e-05,3.253427457396167524e-03,2.404452258159230915e-01,1.631143097233949887e-02,9.082161111277969531e-03
8.073824519236634870e-03,1.527278604489401906e-02,3.065567395633994607e-02,1.182494074188702830e-02,4.967904701345056992e-05,3.858261835739753724e-05,1.546399933683891524e-02,3.126295541237292808e-01,1.187136533650591692e-02,1.020647121298095227e-02
7.747379656515457000e-03,1.620960521214422426e-02,4.129945197739400692e-02,1.081517574840425155e-02,3.542923999287398936e-04,3.704976558458432509e-05,2.543456215106824903e-02,3.459844551848181848e-01,4.295553127684836360e-03,5.345760257617361219e-03
1.100703887538807130e-02,1.072333605315630572e-02,6.611748956961226165e-02,9.912055538654278644e-03,5.184800601816503358e-04,3.507472270122669299e-05,2.554215205755987900e-02,3.296382127117692962e-01,4.945528282467954659e-03,1.301639315851563271e-04
1.334772419283532241e-02,1.457823210460272925e-03,1.129866862906887814e-01,9.075459821477796507e-03,4.733886945754101961e-04,3.392905403852467216e-05,1.806298179341424628e-02,2.880526469165320957e-01,1.501633617980562344e-02,2.191851286658141646e-04
1.214905608121633063e-02,1.559806040114958617e-02,1.682922265073798496e-01,8.348436264526373773e-03,4.628305339860683742e-04,3.442386067097161104e-05,1.089137401844829378e-02,2.533488079373886759e-01,2.466540443509412234e-02,5.413515100570621096e-03
7.188838379978735454e-03,2.563161414648809644e-02,1.861931338273214720e-01,7.777966408496751055e-03,5.267666117649607562e-04,3.572356117534936375e-05,6.534468073172950212e-03,2.314567850818916861e-01,3.067392938082107862e-02,1.137290998468358863e-02
1.383733936336134767e-03,2.859789290394445724e-02,1.390033250887782734e-01,7.214688081388484844e-03,5.535515736037131384e-04,3.650845364127991920e-05,1.257035149294346947e-03,2.096943316571635851e-01,2.917537451272082111e-02,1.294688815642418452e-02
1.030230214365602734e-02,2.659451061065827224e-02,6.186016334819999934e-02,6.560866943222385880e-03,5.242277123650860215e-04,3.756506144665770227e-05,6.809197941537212251e-03,1.812684162334700089e-01,2.044700948776040361e-02,6.735034833721280367e-03
1.200511715166264169e-02,2.338926523210689903e-02,1.640434761080252976e-02,6.145843835236222859e-03,4.923784947002869412e-04,4.134782480866372667e-05,1.530235546502300634e-02,1.468400178376646215e-01,1.117655217893482635e-02,5.265162556402188526e-03
3.105452051351410836e-03,1.886843384125256803e-02,1.830958672077998700e-02,6.173641520237505530e-03,4.694590542072322689e-04,4.645087700959253614e-05,2.276039824712326742e-02,1.056127916211585666e-01,8.356422025541699466e-03,1.495108271231677943e-02
7.700833595689864433e-03,1.083957921608444050e-02,3.385603733129244342e-02,5.880884547465613059e-03,4.327188805379882401e-04,4.747953209803591778e-05,2.998107638207310119e-02,5.947301900804541352e-02,1.126852064360244626e-02,1.485147142384588004e-02
7.566430071630637910e-03,1.967323688712711415e-03,4.091245032566109829e-02,4.496004110381233293e-03,3.789163240902697870e-04,4.684142866044806045e-05,3.492456630282760738e-02,1.928233774602146344e-02,1.369693466783176647e-02,5.898088460459995769e-03
4.479967626064279909e-03,2.124853136044521466e-03,5.152033737696855992e-02,3.029167829680305506e-03,3.212135280250125375e-04,5.576743333252461081e-05,3.140951561738478115e-02,4.370772760065179396e-03,1.358259657669539343e-02,3.675047008979830197e-03
1.717868462320690584e-02,2.077041225996203479e-03,7.267986471369020096e-02,3.162532284960776346e-03,2.639712071797594567e-04,6.917671996958296482e-05,1.679496063071724693e-02,1.471011863365606284e-02,1.471632179444886356e-02,6.911693938784093869e-03
2.367672109382605236e-02,4.409618124412525118e-03,8.528504932889807710e-02,4.276246478106140655e-03,2.038284674521234781e-04,6.264524860557572189e-05,1.773424749585643129e-03,2.466464447664079573e-02,1.823080643561721462e-02,4.069710796111857681e-03
2.841373856732195072e-02,1.100709702758312543e-02,7.266663279487867166e-02,4.152828835070927239e-03,1.413612861120966922e-04,4.600513392439485290e-05,1.325860482084368838e-02,4.181811328587535515e-02,1.922824279211490794e-02,4.761796695944251227e-04
3.444592207244225046e-02,1.592996781876031623e-02,4.290788076808737389e-02,2.743673758262755395e-03,8.066376084879023128e-05,7.132569164797703594e-05,1.364062994801010925e-02,6.587807292703758144e-02,1.471175595464828921e-02,1.800466356763321329e-04
3.587752045252458333e-02,1.383500917889507638e-02,1.325884448194463057e-02,2.267661364010648255e-03,2.402654443887174249e-05,1.186592092061070178e-04,7.619231102767897237e-03,9.535581252756508697e-02,9.170638348981803578e-03,2.502857717629964392e-03
2.919832328784031927e-02,5.939875356310879949e-03,9.203513013810367752e-03,3.438613349456729265e-03,2.799485730270711301e-05,7.584476320927736686e-05,1.368014138929600108e-03,1.244284748216865771e-01,8.540787425897457263e-03,4.039116198823030669e-03
2.125450844178032941e-02,3.823350280050800791e-03,2.345132580247972706e-02,4.504507707939996164e-03,7.456840030144706833e-05,1.801979299319566305e-05,2.799776180972572345e-03,1.382371104336681533e-01,1.253741321555864978e-02,2.503553460909232597e-03
1.749948978916503542e-02,1.411174669799758821e-02,2.460937812461024346e-02,4.242070679440605036e-03,1.146316670849380096e-04,7.984256529244510914e-05,5.461198802695788751e-03,1.256572712818443405e-01,1.626661987513065497e-02,1.602000074450948787e-03
1.147687332030625229e-02,2.487686739319494578e-02,7.707861307278825527e-03,3.541466124450433958e-03,1.469501836452572797e-04,3.011948452084308218e-04,7.182034836974481376e-03,9.591003691561063305e-02,1.676290971385437437e-02,5.555038120189092175e-03
3.654371277335971037e-03,3.344443147073308115e-02,2.174207817212290422e-02,3.590336500160653740e-03,1.701109071112031918e-04,8.282003060280930496e-05,8.154714841773241796e-03,7.240341835023067496e-02,1.520391252463867450e-02,6.206880420205299065e-03
2.039149557020131578e-02,3.586106680725156121e-02,4.499989191372952974e-02,3.897333116826586820e-03,1.844793447062402026e-04,6.983851730684371203e-04,9.432772140213499523e-03,7.021154675481883212e-02,1.419083325149506948e-02,3.073268904772447595e-03
2.626820533181367309e-02,3.183957310104319760e-02,4.233489526040039308e-02,2.855094046024809259e-03,1.923166798031508576e-04,1.172633140684752225e-03,1.265177340096640922e-02,8.552575089788090612e-02,1.464514949363879270e-02,6.132989396274469984e-05
2.363497879609906607e-02,2.483913635859450603e-02,1.087013386483381278e-02,4.762671728269007930e-05,1.926698799711924520e-04,7.016264061527756985e-04,1.863011282907323443e-02,1.048342742141014777e-01,1.476934392262115904e-02,7.956033732649059418e-04
2.550637755582966376e-02,1.662369923307008626e-02,3.290034162634543347e-02,3.434914874147967836e-03,1.809642256005790546e-04,7.637841884415234709e-05,2.606813342666150501e-02,1.163358993280889514e-01,1.220359428069874019e-02,3.787207670339511664e-03
3.175988200027250047e-02,5.042847082095273763e-03,6.710532696090236449e-02,5.626070719525103937e-03,1.603248015175969411e-04,2.916342037638539140e-04,3.012106515105292259e-02,1.124108917445098971e-01,8.123513112772913144e-03,2.509465184118825874e-03
2.547497644683012485e-02,1.115118622575413630e-02,7.876872204966881008e-02,5.891958259945716085e-03,1.427124010682279706e-04,6.728295752955564240e-05,2.430717937061218498e-02,9.220640372760979808e-02,6.974085574135703916e-03,5.562059751469585617e-03
9.533342975281775683e-04,2.737768825483267651e-02,7.344279696324820805e-02,4.186420783559047232e-03,1.245044171472165623e-04,3.342362795967681992e-05,7.850246585221085094e-03,6.802023838919674104e-02,9.940842928810289178e-03,1.531323280270131641e-02
2.986372443231170848e-02,3.513211888066454514e-02,7.109570751971870661e-02,1.293263759472146855e-03,8.334312776013864141e-05,5.778159431124334688e-05,1.081213368776604011e-02,5.917148471975586937e-02,1.216909490615383435e-02,2.042637411599820471e-02
3.855959958783290037e-02,2.945913201309159624e-02,7.792358525385925661e-02,1.008828629487731497e-03,3.020759715876353616e-05,9.814916923077472342e-05,2.216684957441077131e-02,7.053327322192623483e-02,9.933785854857640069e-03,2.012281586062470221e-02
2.620064560588935762e-02,1.467713257499020894e-02,7.032972683489902010e-02,1.588813137746893653e-03,1.740843183185368894e-05,4.860497198563607261e-05,2.498083216041593543e-02,8.547158236002881659e-02,6.682391162867337003e-03,1.692859177167600065e-02
1.028441927942307446e-02,8.903516259766014462e-04,2.995419743802170756e-02,1.174263156942772623e-03,2.742168857696873933e-05,2.132343949520878649e-05,2.376953729876251503e-02,8.884245336747448318e-02,7.484961035951921172e-03,1.177626432796004263e-02
2.813827761522165287e-03,6.864431883941972401e-03,1.950572335989577549e-02,8.337451319470688248e-04,4.734520964299885801e-05,3.625612987598998086e-05,2.067206375941702326e-02,8.691364507060543587e-02,1.107531062330457082e-02,5.246375313308395023e-03
6.501719487844910290e-04,1.340221479330620281e-02,4.272132908369592058e-02,6.066141391731714712e-04,1.677871460994537678e-04,4.134005641482765077e-05,1.490381522292442279e-02,9.328450648591316008e-02,1.291552153157871259e-02,1.526278567488203943e-04
3.875935239781210136e-03,2.495498330223546932e-02,4.643203595425782204e-02,5.242760623201305620e-04,9.592786314311505164e-05,2.675009990865117267e-05,7.182807474066093059e-03,1.057504393358432160e-01,1.341778381235969250e-02,3.082263632544157694e-03
1.368925244405425588e-02,3.974627882798530132e-02,6.267836409777156892e-02,1.033793267374748508e-03,1.045587618546985200e-04,1.689142998554518047e-05,6.631807745601360580e-04,1.112178371360568047e-01,1.580003937870156500e-02,5.626004966406260993e-03
2.802537796825334618e-02,5.085914804784612275e-02,8.610798998959121042e-02,1.287224688007965277e-03,1.148359382593807060e-04,1.680324390873431313e-05,8.093519460732598314e-03,1.048666833613203370e-01,1.656746434142838953e-02,9.808873161846684563e-03
4.268189982161317564e-02,5.476405407048469398e-02,7.579889172983816925e-02,7.825439477491264850e-04,8.827169883068372710e-04,1.524745368575107994e-05,1.312520415996910016e-02,9.154053939635795056e-02,7.457495276596530151e-03,1.470264908344324530e-02
4.790423035809180524e-02,5.186009380653165690e-02,2.396342520299386825e-02,5.206296908559396135e-03,1.357576734564605635e-03,9.839374758281722625e-06,1.059834325446499907e-02,7.608145349624172160e-02,1.097431314493173445e-02,1.795197426856089129e-02
3.619654027452996053e-02,4.177496564281877461e-02,2.409929679526042270e-02,8.776960667848486899e-03,8.875058471162144361e-04,5.905986377669545558e-06,1.180315236057007198e-03,6.161781857409702468e-02,2.680835490687688560e-02,1.807452953349881347e-02
1.481242904661285442e-02,2.455512799872634072e-02,2.895627807057761516e-02,8.380029036674632725e-03,4.814938762535808366e-05,4.702450542427753999e-06,1.517896332881665117e-02,4.950758487731251462e-02,3.047643334019678810e-02,1.577028976965845833e-02
1.326793426748488049e-04,4.835481057811751027e-03,4.304720364402124522e-03,4.101049573553724320e-03,2.643716192867832655e-04,3.801050013717368039e-06,2.242707046977805013e-02,3.783488658056653048e-02,2.328884441173316444e-02,1.368678719404253959e-02
2.538126052787261031e-03,1.104129385856557517e-02,4.883059369056640120e-02,9.310893039218351430e-04,3.889115539557424736e-05,2.612345029811513610e-06,2.133071052871819348e-02,2.852480917387787210e-02,1.230461344753879492e-02,1.313493682965187828e-02
2.201562150704254421e-03,2.113302718444722353e-02,7.679630603959539115e-02,2.278681466543083962e-03,1.094137279876221744e-04,2.269902141108166214e-06,1.630399445771838624e-02,2.974356482958655234e-02,4.734486032766215512e-03,1.165558208032332205e-02
4.492051110777039828e-03,2.664072764784199826e-02,6.266695966669155737e-02,2.687334691958704301e-03,1.769482438095925378e-04,3.043583873227269330e-06,1.060102165845203635e-02,3.902018881911463455e-02,5.841826188701598234e-03,6.266667897065314463e-03
4.233023739223106159e-03,2.618653726284854086e-02,7.151125714719442847e-03,1.122747197341649426e-02,5.587688058384509410e-04,4.362452881726661749e-06,4.702664429009064014e-03,3.721081583515738200e-02,1.467266506612881563e-02,2.292594754793816220e-03
1.766251180667003859e-03,1.741855094904137119e-02,4.968513520969992936e-02,1.676296117862564883e-02,3.308529939103793151e-04,6.027364005963548964e-06,6.259115887105259034e-04,1.476279519903057023e-02,2.324713083453587917e-02,1.077719230923935081e-02
5.571399112182342725e-03,5.129776241605153372e-03,7.002936028538149504e-02,1.572226876613943419e-02,4.639967630487821940e-04,8.216682587461526311e-06,4.302579595025613803e-03,1.080774202669321921e-02,2.468644675290589813e-02,1.688336019473748659e-02
2.854548381684981085e-03,6.653879651954625399e-04,5.556048967942101707e-02,1.029977385197983555e-02,7.166268892502203813e-04,1.092068403536176534e-05,7.555339836508356832e-03,1.854298497487671601e-02,1.894351416714786657e-02,1.958041572221417767e-02
2.117435092977426950e-02,9.056481208372931663e-03,2.463200626160293172e-02,3.812242988722642795e-03,5.451724439434552029e-05,1.393453118114120429e-05,1.213400705350460747e-02,1.319662663752172761e-02,8.216469987098417443e-03,1.793876288706374930e-02
3.440626601611965207e-02,2.294898237020475892e-02,1.378962246373574216e-02,2.292206533976202422e-03,6.820207562581158964e-04,1.712597706040765093e-05,1.525380818094215600e-02,1.886669838974319724e-02,5.938876705806828832e-03,1.146088320263503879e-02
3.158696557872718580e-02,3.282498405016427007e-02,4.586115834614226672e-02,5.915300485246518386e-03,2.709978392911798297e-04,2.044518435287659728e-05,1.164999113637542327e-02,4.890500826082762320e-02,1.721664615758120020e-02,1.573041341696444426e-03
1.815424431167350638e-02,3.529851725059462292e-02,5.058274882555702234e-02,4.278766803439288877e-03,2.782953954102862374e-04,2.380298909321901384e-05,2.554323484712964047e-03,8.973496910909134483e-02,1.597004915112654883e-02,7.667569893698562150e-03
6.927193713942639275e-03,2.969858237704619056e-02,2.929131721185963128e-02,1.210928047624462971e-03,5.810822907885312928e-05,2.706846112068607435e-05,3.325803555708574215e-03,1.156720016941467505e-01,2.492855715959404160e-03,1.245030575114457888e-02
3.108400672098342137e-03,1.807287454915419700e-02,8.981327190255383383e-03,4.367233504343248467e-03,9.100794858043864633e-04,3.012958689394840004e-05,8.223326111674010303e-04,1.165279018158970475e-01,9.624830702718221304e-03,1.376989606653752744e-02
4.425341417014103974e-03,1.005483344617947791e-02,7.062322927610967423e-03,1.519010381647682099e-03,1.549445183082290419e-03,3.289883909460308804e-05,5.105998669982556894e-03,1.057439415022857487e-01,1.001758016375631048e-02,1.532847174324839315e-02
8.014453639802888996e-03,1.480535117156355808e-02,1.329446990669969422e-02,3.030169986363409444e-03,1.583957236638821155e-03,3.528840401861671700e-05,6.980896852503608828e-03,1.006065057314602523e-01,4.268718183424589224e-03,1.596381705715975777e-02
9.486371595306337598e-03,2.682403507225555525e-02,1.000844987940338257e-02,1.850527895816954285e-03,2.698409712193025503e-04,3.721064765275633311e-05,4.401935250077123989e-03,1.008015333304679156e-01,4.430935281157490080e-03,1.052911937353816912e-02
3.025586245114865284e-03,3.185112918675307714e-02,5.181687662691972403e-03,6.444330489126215075e-03,2.824350813584268743e-03,3.859282010491510911e-05,2.807228677696208333e-03,9.321380926641799347e-02,1.340753087858624279e-02,6.005996583570422228e-05
9.335777749055340288e-03,2.686458098970612510e-02,2.093461047406800640e-02,1.605026422849686538e-02,6.146974023503149441e-03,3.937976450279221177e-05,5.523787717942255614e-03,7.440321631754125142e-02,2.502912426747517377e-02,7.293198919345667171e-03
1.535939412738936485e-02,2.192717828087275070e-02,2.535428299793378304e-02,2.112310094000582547e-02,6.919596801478365526e-03,3.952939512035014201e-05,9.756207363579079417e-03,5.632813400123103109e-02,3.404737987803511945e-02,6.159138497532481993e-03
7.018253323233237390e-03,2.190826382740164446e-02,1.043005938997883589e-02,2.023565209454907671e-02,4.248295745894313351e-03,3.901323119535886504e-05,1.017177042911319475e-02,4.740778558660867226e-02,3.852749585072572786e-02,8.115436259260927140e-04
9.118046446496181484e-03,1.912219743067594679e-02,2.719834224614993065e-02,1.494332589112486002e-02,4.002918020502242431e-04,3.781986100869829672e-05,5.502843878481562118e-03,4.156878080698794831e-02,3.676260648584234875e-02,3.139477854353560013e-03
2.105401080425272492e-02,7.055166493569119471e-03,7.884834061029542818e-02,8.363667329793402633e-03,1.807545775984786872e-03,3.595552496874300020e-05,1.481045655667765477e-04,3.345977192868664074e-02,2.947336886421693739e-02,5.450542853683669822e-03
2.318194459345551336e-02,8.850281370393720676e-03,1.242019384604584886e-01,3.871376409740505137e-03,1.880975575394769166e-03,3.344272277067883361e-05,3.353339692246395942e-03,3.098663552348809511e-02,2.126728494652293036e-02,8.020314958228014907e-03
1.583306179496317412e-02,1.820952777552213575e-02,1.476054806301629607e-01,1.870670604738796424e-03,1.046467348688260050e-03,3.031957113848814627e-05,5.565769238378323949e-03,4.117219764833576073e-02,1.438310837506697609e-02,1.043683231857544386e-02
1.988775729450712425e-03,1.706900074125216465e-02,1.445858505425707818e-01,8.252417811579603607e-05,2.715360329919659405e-04,2.663952965424698873e-05,9.315396011079859345e-03,5.464612754549441620e-02,6.227590203659587320e-03,1.151227367259919677e-02
1.255658782845062681e-02,9.564867208517520425e-03,1.101689274066290081e-01,2.632270520902014587e-03,4.143374302458484705e-06,2.247023476670521818e-05,1.397508870305399879e-02,5.686858934912157604e-02,3.008393842996153617e-03,1.178266609485706384e-02
2.178788522099473976e-02,2.635994735648881232e-03,4.397113056727065122e-02,3.809674926375299260e-03,3.700780230028226044e-04,1.789164008519217438e-05,1.782681803777599883e-02,4.665269293392271949e-02,7.303694265569199776e-03,1.197659355097475432e-02
2.294678830706049083e-02,1.050817720279252588e-03,2.563031511586292416e-02,3.378230287503401590e-03,9.448012098386609830e-04,1.299410187047678556e-05,2.079726126111473838e-02,3.356059418805931727e-02,3.734247997193632790e-03,1.075117164700663090e-02
1.532647533730844246e-02,5.054608078355655662e-03,5.336285096094889324e-02,3.505501216824500471e-03,1.116831207407737456e-03,7.876382358963606963e-06,2.261319107215351357e-02,2.377173977352013343e-02,1.667823926618238872e-03,6.240669871383322173e-03
1.837898413279532260e-05,1.161084056790567462e-02,2.904186863959889661e-02,4.492836613995543696e-03,9.131228424772114098e-04,2.643338700404833415e-06,2.094678867434968117e-02,1.497888695463570063e-02,1.532010395978012415e-03,8.452620296142413425e-04
1.710836166665124711e-02,1.821009239205497246e-02,7.244839550920573364e-03,3.902938064183503024e-03,6.948778478276441311e-04,2.596617131280682408e-06,1.411366528183985274e-02,1.364394352618177389e-03,3.404183837833253158e-03,7.293463062587391896e-03
2.830068849302126016e-02,2.389045682783787206e-02,1.264356122430897005e-02,8.069423552235953844e-04,6.025564311662378811e-04,7.734095971530572213e-06,4.814653752122742027e-03,1.684773667266224045e-02,6.342300385664700196e-03,9.489296161890746831e-03
3.123614973498600733e-02,2.651069902923600119e-02,1.631955599469402801e-02,2.044093406227457353e-03,6.620776291205648445e-04,1.266129818245396792e-05,1.262102971193902398e-03,2.924994046664829844e-02,3.624560312643802535e-03,5.239548763695740449e-03
2.847230828248041579e-02,2.327318535336669880e-02,5.160813893986473944e-02,1.426380301486886333e-03,7.610592774454997536e-04,1.727457008359092720e-05,1.579644671398362744e-03,2.871191294038875907e-02,1.464879464341457089e-03,3.080274679650084942e-03
2.164345934801755258e-02,1.519052045086883955e-02,6.886155042586228348e-02,2.146963107711437422e-03,4.789368143575817587e-04,2.147688410199404650e-05,5.686688850268114236e-04,2.507346017118378817e-02,3.914652645142317408e-03,7.839027328026994604e-03
1.142662699880082032e-02,6.686917196758536235e-03,7.644636480069867679e-02,4.480415472863134678e-03,2.987799875088894327e-04,2.518015469581029247e-05,1.161711144778500553e-03,3.024120919888642275e-02,3.442908518552525738e-03,4.261897525152656338e-03
6.243329441219827537e-04,3.083419735749236496e-04,1.052784135822001504e-01,2.573111591315443980e-03,8.547113985783544267e-04,2.830733694294327153e-05,2.094430092825929441e-04,3.759430429482180092e-02,3.547041095326964114e-03,2.390801065346491363e-03
1.425525193235446623e-02,3.685462913102245316e-03,1.553921617280912826e-01,1.383916937721070073e-03,5.239033377497600598e-04,3.079427126990302177e-05,1.173887206960107232e-03,3.582949620392996554e-02,5.110651330547360226e-03,4.643923776986876202e-03
2.880606119880436272e-02,3.915874145347701500e-03,1.800139635653220105e-01,2.722369739096937823e-03,3.179086153959604743e-04,3.259122939749823028e-05,4.176127024202266023e-03,3.071628329117756864e-02,4.724147372269047775e-03,4.357875769602274907e-03
3.705828127749014739e-02,3.833298682965296904e-04,1.602344796558793083e-01,3.001714869229825215e-04,7.394671090261758367e-04,3.366411807510453884e-05,8.450778010610103877e-03,3.144488411063717237e-02,6.085300983774065116e-04,8.333052900201391375e-03
2.955060763458996695e-02,1.066841831819181907e-03,1.549347195673663746e-01,2.733125981760755902e-03,2.918096970823294382e-04,3.399531192025290080e-05,9.047016972122358044e-03,3.017951935179703435e-02,2.919946110946422708e-03,1.642671089505574542e-02
8.511617180259497401e-03,5.750868197240114991e-03,2.174604807861962308e-01,3.774579721875098888e-03,5.882884184285076248e-04,3.358409813170115199e-05,2.585699388007016604e-03,1.553739250432133352e-02,4.000598112313468813e-04,2.205629153311115115e-02
1.144845749040522380e-02,1.774958403963736164e-02,3.027893604523195781e-01,3.585661926226759756e-03,9.591955909425459084e-04,3.244672194593556993e-05,6.616462490892803874e-03,7.065536536134784003e-03,1.091132981794928555e-02,2.143269288723360921e-02
2.036654284293372072e-02,2.518202435994882152e-02,3.236079464554038054e-01,3.908101130808174818e-03,4.246918953852357802e-04,3.061602987677376373e-05,1.124776636506456297e-02,2.401759839061678309e-02,2.147687406174831823e-02,1.657745350075134211e-02
2.186762637017717129e-02,2.330237063806768830e-02,2.643943963955814325e-01,4.747241446275337999e-03,3.349885792300949711e-04,2.814071875070759039e-05,8.803916991268241274e-03,3.196685702139876600e-02,2.455390480434059899e-02,1.141729101311465995e-02
2.139389065389882619e-02,1.610468966398886231e-02,1.799610331430529508e-01,5.134394851091902273e-03,5.604281049955143123e-04,2.508420853768758858e-05,1.683945021969264575e-03,3.769988704661502571e-02,1.926073178143107578e-02,8.228071911972249450e-03
1.579286016740470006e-02,1.001795947180843596e-02,1.108589021995952939e-01,4.936601046834406675e-03,3.941382971382530079e-04,2.152316526358133048e-05,6.480786935686014445e-03,4.614160286189788324e-02,1.006865643356619038e-02,6.735123502148299482e-03
2.471150355751859477e-03,7.902058335239672826e-03,5.476619616397900014e-02,4.791136258461713496e-03,3.458788412432688771e-04,1.754570832653891150e-05,1.246287399236790591e-02,5.457652905966713791e-02,9.363664669130303741e-04,5.417534831187249128e-03
8.778511640217942155e-03,8.076968403071243391e-03,4.198699616429688725e-03,5.061426200108445385e-03,4.721902173043907264e-04,1.324934437775533133e-05,1.513584370523143006e-02,5.728973314233891390e-02,6.443085314386082577e-03,4.254152497974061919e-03
5.123309462303845749e-03,7.812533080658098233e-03,3.148870153721296250e-02,5.410327519545191956e-03,5.533966341542652856e-04,8.738676612831714510e-06,1.608125578230195502e-02,5.196658828764563059e-02,1.102406333473182100e-02,5.622371070009061188e-03
9.841084491284669139e-03,7.614486255352803309e-03,3.977467902779689701e-02,5.201227292948682780e-03,5.536534156640720433e-04,4.122943569865591355e-06,1.583329696792868876e-02,3.825089214681469396e-02,1.240105200203947197e-02,1.066360936711354540e-02
1.817825589482378879e-02,9.458075742869930316e-03,1.933598563929916220e-02,4.425614674794380553e-03,5.711607674372502774e-04,4.865544231884738069e-07,1.185454546307791908e-02,1.541985746172933394e-02,1.132407828670985508e-02,1.539777278775952482e-02
1.077365577150419217e-02,1.069186875571265065e-02,1.640024464546776736e-02,3.980361357506102815e-03,6.223891282151991933e-04,4.979080201797603461e-06,3.423064109418278659e-03,9.347086202695208818e-03,9.307685940718891243e-03,1.394574970555428547e-02
2.972916727336784911e-03,5.027700162637046589e-03,4.387364956723394105e-02,4.442427465280034647e-03,6.615171663626941579e-04,9.247073835349949974e-06,5.130135655420705633e-03,1.863347802788946350e-02,8.774649433023064271e-03,6.182147102085115351e-03
1.078952096918769921e-02,8.267022477859214610e-03,4.606729819596363379e-02,5.153002170991876317e-03,6.774484323887180201e-04,1.318869373715461578e-05,9.455148375923223131e-03,4.877108296508139013e-03,1.189699205785901305e-02,1.720968760704869559e-03
1.214755001564499573e-02,2.095560433972891781e-02,2.635725388547510012e-02,5.264822117968101164e-03,6.857398939470411630e-04,1.671022440040484120e-05,9.831668235278069601e-03,1.704825587682782043e-02,1.748669944732367948e-02,5.206461404469837732e-03
1.457399600522352352e-02,2.548679030460327885e-02,4.369463340879570744e-04,4.906242682161596202e-03,6.923207489413949704e-04,1.972829341640453733e-05,8.432921001010555695e-03,3.027035147790767614e-02,2.143218494731124676e-02,5.713315423953192057e-03
2.313927004185889827e-02,2.506066397894806883e-02,2.046961074721374840e-02,4.626791009239301922e-03,6.976646290097299023e-04,2.217184487247761073e-05,5.690073166159550881e-03,3.411375233565952514e-02,2.160722779721809678e-02,6.618152406153704828e-03
3.552940738342928034e-02,2.809887459791951883e-02,3.429641446303351854e-02,4.490382454077421724e-03,6.942288450012908032e-04,2.398382194392614360e-05,1.333131325661426848e-03,3.109859904067365996e-02,1.984356838679021337e-02,9.040349151674901412e-03
4.444094834344175515e-02,3.346509928657555311e-02,4.405953953507520809e-02,4.260469721436838456e-03,6.622614642063569821e-04,2.512251833675709588e-05,3.630639986304368648e-03,1.591912404973462938e-02,1.849264664386615631e-02,1.226569737980622368e-02
4.573398953104809705e-02,3.014991619776086901e-02,5.480724878014994056e-02,3.901508275302589465e-03,6.128225864169688664e-04,2.556256604142522897e-05,7.429485983922801302e-03,1.055995827717425006e-02,1.772003406087249364e-02,1.466416280200155166e-02
4.275017854285715485e-02,1.442786210260730943e-02,7.158795430220589451e-02,3.525791000849146616e-03,5.961351911822785829e-04,2.529553544696207563e-05,9.029072331667374954e-03,3.435036846507147357e-02,1.672886421121922221e-02,1.374737935173246835e-02
3.804152450027055432e-02,2.557449362977628690e-03,9.570298176301184068e-02,3.156098552847322151e-03,5.922851162918662312e-04,2.433013303911457168e-05,8.777083578609588821e-03,4.575682290752976916e-02,1.545050993928269445e-02,8.303001895050145936e-03
2.700686118566989966e-02,9.184127987849359867e-03,1.203138128108369592e-01,2.746228881536124777e-03,4.909933418182626120e-04,2.269199144529495884e-05,7.850541077251452574e-03,5.117966968942659622e-02,1.425229440002175052e-02,8.650164826206894250e-04
9.288581506919503517e-03,6.793672540827818893e-03,1.323347121054823383e-01,2.292253157416591219e-03,3.327375940031466334e-04,2.042305626674548866e-05,7.067503730779711203e-03,6.194427157097381897e-02,1.317810934194840397e-02,4.198746133146544733e-03
2.161973826836705199e-03,4.569080513984108416e-03,1.233747102443784049e-01,1.824156158341284483e-03,3.609208268843371861e-04,1.758058372679423094e-05,6.386885620276554210e-03,7.998313096701331615e-02,1.206603495820608545e-02,5.177988360381980890e-03
2.837453858558611989e-03,7.835572532779111476e-03,9.759009188658374079e-02,1.353446749113309047e-03,5.082471732641489874e-04,1.423577243631743375e-05,5.598021516518907406e-03,9.758991745933572048e-02,1.090293882270447143e-02,3.619347642748355163e-03
1.456098335641431776e-02,1.464096356643245465e-02,6.727255172627956414e-02,8.762118047826162031e-04,2.132872695634211650e-04,1.047206131225181561e-05,4.899968040476643943e-03,1.067651626826379985e-01,9.773893484267569265e-03,9.711391431608801640e-04
1.614358390493340553e-02,1.914483618515770008e-02,4.468755074211226697e-02,3.974500496670078497e-04,6.449761615277679536e-04,6.383133673831976506e-06,4.391525733885417136e-03,1.042784728923343146e-01,8.695564076019497365e-03,2.548046992887680051e-03
5.779492579883678191e-03,1.588846090895246893e-02,3.730843765086033076e-02,7.030585915684213136e-05,1.195622725568149533e-03,2.070674593647798924e-06,3.594964393683014979e-03,8.600853503167682490e-02,7.637669456411423988e-03,6.054678142255564069e-03
5.126542804257542933e-03,4.420069453385811961e-03,4.467739533523717999e-02,5.186507099592255806e-04,7.999958258032590676e-04,2.358065472333125807e-06,2.229994204281352151e-03,4.613594866361477725e-02,6.600875088879644068e-03,8.071572478672593698e-03
7.383835737075706944e-03,7.402977916050863458e-03,6.011308693812918158e-02,9.430532421758560952e-04,9.421146349779103393e-05,6.792843053325916892e-06,1.026947992680579073e-03,6.816032163356928325e-03,5.607538683084866901e-03,8.453708769765462192e-03
4.034824778116545378e-04,8.466143998835900034e-03,7.822825234166638775e-02,1.337634722991779598e-03,5.587297815078857998e-05,1.112306897279610928e-05,9.065461875146738633e-04,4.499386846138480472e-02,4.665411560474122359e-03,8.050207372227722799e-03
1.194816334816571624e-02,2.901729585765123499e-03,9.767542430184517066e-02,1.695452855464213426e-03,2.265209767223776388e-04,1.524046764875716993e-05,1.564684287303132020e-03,4.909727173722953225e-02,3.771379681227518890e-03,7.238851927133513331e-03
1.386135311329723604e-02,1.483131653087775038e-02,1.155810432759568074e-01,2.011160557381773666e-03,3.822414063807061196e-04,1.904168503696075356e-05,1.574642352773366954e-03,3.157002265776245875e-02,2.927435757334642414e-03,6.588271073536489976e-03
3.477592456964858584e-03,1.525517801142902904e-02,1.259229404314287926e-01,2.281092326015495171e-03,3.395437667783757500e-04,2.243078297423371068e-05,2.859762042607824021e-05,1.856775778175224351e-02,2.139009137839058619e-03,7.981103289476390583e-03
3.178497867560157314e-02,5.645624877401000073e-03,1.269450979414475100e-01,2.502179107368862274e-03,3.290313326922274196e-04,2.532156026629059966e-05,2.217345091656115763e-03,1.889792095657696208e-02,1.409405299720379451e-03,1.318027812921158948e-02
5.082176894275711870e-02,3.458880106213389760e-03,1.229302224586977382e-01,2.672021324309132185e-03,3.941167461213514081e-04,2.763964487453074616e-05,3.422231271878381324e-03,2.155786417945449243e-02,7.405368171162032311e-04,2.088536414983103995e-02
5.024541348726119933e-02,7.412975869305833514e-03,1.130624474254206535e-01,2.789489490781913404e-03,4.465426381422142230e-04,2.932430689737339891e-05,2.830524839580253905e-03,1.480296130729326018e-02,1.311943420430655878e-04,2.622711941095290031e-02
3.717096088015414690e-02,1.120050865215299445e-02,8.838237764507578254e-02,2.854752171608353727e-03,4.562674101283495224e-04,3.032994858959957724e-05,7.881183554391338331e-04,2.857006857214468287e-03,4.235880472114286928e-04,2.444966865606927955e-02
2.344841255940602678e-02,1.703202824436860288e-02,4.887760424578357910e-02,2.869011986973632033e-03,4.232606117019865996e-04,3.062723526505268878e-05,1.731552417130411510e-03,2.379151432506424607e-02,9.225050819042803461e-04,1.499799720140513118e-02
1.483633629732206138e-02,1.620524305895575806e-02,1.227307953123012683e-02,2.834466956823288898e-03,3.775037552989777743e-04,3.020383940564551204e-05,2.034439138751945129e-03,3.411255759655506398e-02,1.356695809436859329e-03,1.456969605345812121e-03
1.016438374153685528e-02,1.768977736336048911e-03,4.622555034477364086e-03,2.754372389461176573e-03,4.071985135183765845e-04,2.906477945349113243e-05,2.885645117946588744e-03,2.341604126413189199e-02,1.733976187497172439e-03,1.143798265639558998e-02
3.150344436976622656e-03,1.646900374264225961e-02,2.340116392489165892e-03,2.632963236433541465e-03,4.688806190225903179e-04,2.723234437717756147e-05,1.120347293909965472e-02,7.611167412571841553e-04,2.081886080951001784e-03,2.020056121650946890e-02
1.089658871759045279e-02,2.184449398682259541e-02,1.038749963431279816e-02,2.475295528830099255e-03,3.318897526389018651e-04,2.474560495036751430e-05,1.668160614210438195e-02,8.962263726338046826e-03,2.394394465992837843e-03,2.397846723122528181e-02
2.522750173478478797e-02,1.227428301221388310e-02,2.884082170097066605e-02,2.287118734089778425e-03,6.791035841751313570e-05,2.165952252758605699e-05,1.643821554613345698e-02,6.617005288618776904e-03,2.623778247891052958e-03,2.462796998314745883e-02
2.628842857569695796e-02,1.793113686520313513e-04,4.819910889780863739e-02,2.074755326921046833e-03,2.360558731917254845e-04,1.804367571427330908e-05,1.318057390666220983e-02,3.202207006529302069e-02,2.794580273061389106e-03,2.408732373936369603e-02
1.318675514567796414e-02,7.512034049121423841e-03,5.795478795590284365e-02,1.844949164096728418e-03,9.595292281607499313e-04,1.398063447693658777e-05,9.341877813249311810e-03,4.326320007785735416e-02,3.023704144690995618e-03,2.151090665261436163e-02
2.401978746565310800e-03,1.180447084149196559e-02,4.846735079102477278e-02,1.604702107812974645e-03,1.372423215133001043e-03,9.564019705985419545e-06,5.349420876944732672e-03,3.457058216619641328e-02,3.276908877755294481e-03,1.497529394745843699e-02
5.648599389982939846e-03,1.599553632022746724e-02,2.134410632139678923e-02,1.361102186427714947e-03,8.385455566188454186e-04,4.896293825677322243e-06,2.541734538011741849e-03,2.071696190535417953e-02,3.316261000978172873e-03,6.107996434870931884e-03
1.336945947997633319e-02,1.919578956110726264e-02,8.143081796810310372e-03,1.121131657816929438e-03,3.437595394116646540e-06,8.633456014874018051e-08,1.233636983896242234e-03,1.754521541316996988e-02,3.214667442208108718e-03,1.262069595203503991e-04
1.085392696654323766e-02,2.006570757757047269e-02,2.109991981258614938e-02,8.915027341941839274e-04,2.825151663006860597e-04,4.753150745757413498e-06,1.441995939019051270e-03,2.594862732230253030e-02,3.539730082826469254e-03,1.447344200521807423e-03
9.990889011125844796e-04,1.786548314198301360e-02,1.226648144053000579e-02,6.785519356687714143e-04,1.197703212223637448e-04,9.508308916052786913e-06,5.621045926210105868e-03,3.459274613011933952e-02,4.418566298163634914e-03,7.595404651374330820e-04
3.819035578229839148e-03,1.163172998656225934e-02,3.770919219812230230e-03,4.880844103116545101e-04,7.684880113323156522e-05,1.406685902327011633e-05,5.060008504541394295e-03,3.237451110942030780e-02,4.984935409233992414e-03,1.113535017758205629e-03
4.855021956363231826e-03,2.934837482384930214e-03,9.295584954545844242e-03,3.251147964668530191e-04,2.209034469317478183e-04,1.832077996591496166e-05,4.049343910689469535e-03,1.541928211752467692e-02,4.603525460731988823e-03,1.653318611825612718e-03
1.325665369194034202e-02,2.551403225626705518e-03,5.127395976228675024e-03,1.937561317045367686e-04,3.080268416878773627e-04,2.216890331978221070e-05,1.527203809050683113e-02,1.279063763493614933e-02,3.914948813280194617e-03,2.118777708837774575e-04
2.688297097345955164e-02,1.960277497385608247e-04,7.791880801165427563e-03,9.738640153420880180e-05,2.979630134465010129e-04,2.551934933852598609e-05,1.918311537617124751e-02,4.214477145967789051e-02,3.790635975101890390e-03,3.213653164376855786e-03
3.087884378893343551e-02,7.834085951928472860e-03,2.321062335661838380e-02,3.856373491389848479e-05,3.019709148904262054e-04,2.829174756315313885e-05,1.423109825770191642e-02,5.865033423582909078e-02,4.108422367363777014e-03,7.015565513078180285e-03
2.267107192288200443e-02,1.507693680849081508e-02,3.345133842124812379e-02,1.840803446455076481e-05,3.393806425261779538e-04,3.041918848800927652e-05,5.630528177679342688e-03,5.473559068067992972e-02,4.305298689570000864e-03,9.585771382096904339e-03
1.834516814877443919e-02,1.794005088733056225e-02,1.969874020628651148e-02,3.657956046389704329e-05,3.576928146196672984e-04,3.184985900740033301e-05,2.143115116160347090e-03,3.902249834233161713e-02,4.312505312411297684e-03,9.523176125344970031e-03
2.870574133019225885e-02,1.617371195850049806e-02,9.879548023726510489e-03,9.249067568788224992e-05,3.468358354860375404e-04,3.254832178634673524e-05,7.793096906548579485e-03,2.674647504292436417e-02,4.371609704279937579e-03,6.158383750289917781e-03
4.272607859616935067e-02,8.407360569282599366e-03,3.093169227404705263e-02,1.853544038379376330e-04,3.312205886125491267e-04,3.249640708762432706e-05,1.170207471704432650e-02,1.870128996372145622e-02,4.519859241278519069e-03,6.244333941984607419e-04
4.281054911385791251e-02,5.076298374850511663e-03,3.442594458525660012e-02,3.116491465372874014e-04,3.161458891803502159e-04,3.169369474818765285e-05,1.462377803521563643e-02,3.523236925934002985e-03,4.642613834703743919e-03,4.235259460050898317e-03
2.842538214317166106e-02,1.692700062388698828e-02,2.825032827556362564e-02,4.650791665048694323e-04,2.908532878402937433e-04,3.015757371534831302e-05,1.579581991113553768e-02,1.779813146829213252e-02,4.716875596864481164e-03,4.913859140394830766e-03
1.569688521463611167e-02,1.931015670711757129e-02,1.647565367141298753e-02,6.421939348630240118e-04,2.536434972349538514e-04,2.792287659689523521e-05,1.279783964777645409e-02,2.936088315060210452e-02,4.791272087304395549e-03,9.236981183310748970e-04
1.596743130865494603e-02,1.413593762609010110e-02,1.876051375579806078e-03,8.428953150030863047e-04,2.107292031734248560e-04,2.504109681146217699e-05,5.856222258513094948e-03,2.442904420032744606e-02,4.871932393732515167e-03,1.113241769909220982e-02
2.349627390899770504e-02,8.771672686210960773e-03,1.394813389589186822e-03,1.058789461142142134e-03,1.644304761514382067e-04,2.157920590483279372e-05,3.139000866321250711e-04,1.002944682127459436e-02,4.930375461176019977e-03,1.847625811205411139e-02
2.666707433717608808e-02,5.672289151572973420e-03,3.067325608331841758e-02,1.272194242987455173e-03,1.135326900343771006e-04,1.761809818640666382e-05,2.255192004148617695e-03,1.175901641547705788e-02,4.957146237781455064e-03,1.771822998000830568e-02
2.284669574605094344e-02,4.330375528835256858e-03,7.576856703513645819e-02,1.481429235118602358e-03,5.877698644417369449e-05,1.325069880820693010e-05,1.831401225665469680e-03,4.161311626238035216e-02,4.959323215329325407e-03,1.291231372440593793e-02
1.565479623244814614e-02,7.787802735408163105e-03,1.035791378723159711e-01,1.704069966725888690e-03,2.712353399931192559e-06,8.579779541143164455e-06,1.445736997981390435e-03,6.450415262456382637e-02,4.935673558459500662e-03,1.227063038978557126e-02
4.520070732109643039e-03,1.763733527270596249e-02,9.747139923986661292e-02,1.923519468152826671e-03,5.292490255304083276e-05,3.715533603537371114e-06,9.493243323125157007e-04,6.059823169944805049e-02,4.876890408460736633e-03,1.604971284320512101e-02
1.332024060862690637e-02,2.728588068150182566e-02,6.768777024802684339e-02,2.081166685829106792e-03,1.072193948726455454e-04,1.227033207070768474e-06,8.411444121758869172e-03,3.442367553320505730e-02,4.777100609586731189e-03,1.570548044545856670e-02
3.342587299258936717e-02,2.921135180020848973e-02,3.633050245254625804e-02,2.190799051134146615e-03,1.589012681019751386e-04,6.130833280204704405e-06,1.810779483313765259e-02,1.098982960593680204e-02,4.635746264024524950e-03,5.779948095867148451e-03
4.574988558435740676e-02,2.513104880037742017e-02,2.334116414120411542e-02,2.358961252844409169e-03,2.063880634185820753e-04,1.087948497140048013e-05,2.166980372344810141e-02,3.303753055696430959e-03,4.453037202475953506e-03,8.961543207105604134e-03
4.549912613822317681e-02,2.179132068357642754e-02,3.427232599439993671e-02,2.541620933391428461e-03,2.483825258898541871e-04,1.536009096047671177e-05,1.514904929315503100e-02,1.949182433129840845e-03,4.225539365331773024e-03,1.981884315747054620e-02
3.651035544340761052e-02,1.983228472113779048e-02,5.372113362092262312e-02,2.491862531867309813e-03,2.838845563582995807e-04,1.946594078831039140e-05,5.895415986893209719e-03,2.420038674423129546e-03,3.946824394529394216e-03,2.349215275513659787e-02
2.416499366009148761e-02,1.303860836135832188e-02,6.122043993665491485e-02,2.274680374211032231e-03,3.119554435679362239e-04,2.309907278839888435e-05,3.333390994745722737e-03,9.563022873931062949e-04,3.617281369233571638e-03,2.306132632512366762e-02
1.036680461706860484e-02,1.387345693662109204e-03,5.356144900836197487e-02,2.451025804817709344e-03,3.317911404787636130e-04,2.617263379750965255e-05,5.036910288622130881e-03,2.259556207343638851e-02,3.247466879773295081e-03,2.229144747720487527e-02
2.542523899735428614e-03,1.622377658303679471e-02,4.060950027781712324e-02,3.142768445899611282e-03,3.428597583128888192e-04,2.861297967797396779e-05,1.509578293388125561e-03,6.545668787558144019e-02,2.837331656028311330e-03,2.197288063029828598e-02
7.644959493414839151e-03,2.160680801039105425e-02,2.579354911104238604e-02,3.479947519210531935e-03,3.447959258315817094e-04,3.036146570647739928e-05,6.756195587658249749e-03,9.741813395737666803e-02,2.366560826932118458e-03,2.121634584478079150e-02
6.501511717837500561e-04,1.644551363261634314e-02,6.934006554817467513e-03,2.825156649061703797e-03,3.373586223293007814e-04,3.137588314125376799e-05,9.899067933689970067e-03,9.129023713699521703e-02,1.838669463101802373e-03,1.929666106606860512e-02
9.700523327484536842e-03,6.729583664685855754e-03,8.259434855692479940e-03,1.818586302947779784e-03,3.206965798187030132e-04,3.163150660222920405e-05,6.352022551707679245e-03,5.959240195352688563e-02,1.303668636117058131e-03,1.580545980865147998e-02
9.377571625615730572e-03,3.814967909747936543e-03,6.528105631957060659e-03,1.332913597501334891e-03,2.953637961562547310e-04,3.112172609175914862e-05,5.224641794258430214e-03,4.026264172663729379e-02,7.643868206080872696e-04,1.127803208896610045e-02
1.588099429056750349e-03,1.280405442965249461e-02,1.029774956146064374e-02,1.248852228619168683e-03,2.617463867832881073e-04,2.985824733062051708e-05,9.613834797652424935e-03,4.578535980480893941e-02,1.250052747906488671e-04,7.583271508254147905e-03
1.016258026384910841e-02,1.375910883944716882e-02,2.596027823912880686e-02,1.007838620750343321e-03,2.200419950215384737e-04,2.787085435201117051e-05,1.200280863138745643e-02,5.140010850963384198e-02,6.104568614888912894e-04,6.044861833213358016e-03
1.015444336551767600e-02,2.743740642557800959e-03,3.213945892465319004e-02,5.470121380736775321e-04,1.714525613791119223e-04,2.520673874178988049e-05,8.124400101999766644e-03,3.437972779978567400e-02,1.223112887333806416e-03,6.194821691331678197e-03
6.335373691880537284e-03,1.280658561460444773e-02,3.303631501069932003e-02,1.151181041142912626e-04,1.181891612120097412e-04,2.192941028732564880e-05,2.713369601964310627e-03,1.040509481062035051e-03,1.700419959456632522e-03,7.218709545194268440e-03
2.010796494837118354e-03,2.191198101910326462e-02,2.773147541002983843e-02,2.423247658070035106e-04,6.085997043525597893e-05,1.811721385222736885e-05,2.929972422219736123e-05,2.615508672957024550e-02,2.493313737652098298e-03,8.708388050620931992e-03
1.790207725946663716e-03,2.352349447219079237e-02,7.962843869498397592e-03,6.307529623913996943e-04,1.673942922142800257e-06,1.386148678876406788e-05,1.316116983149894165e-03,3.241731790093399512e-02,3.623204373294604957e-03,9.685841681537594311e-03
6.211646790087589458e-05,2.328475274013641280e-02,2.184279207818622809e-02,1.063253700449731318e-03,6.680937286512765247e-05,9.264399905367590860e-06,2.628639842273298305e-03,2.193422609229458281e-02,4.108088129897393380e-03,8.797163474114693890e-03
8.393126188679584862e-03,2.177429547787084613e-02,3.951282419958020153e-02,1.480933487657939886e-03,1.278491870935792650e-04,4.436532712669229588e-06,1.057282132039850508e-03,1.097529302380205116e-02,3.864344103823515349e-03,5.508756374612443565e-03
1.388947866648105461e-02,1.671444793035648316e-02,3.014481324696141606e-02,1.867318403276187590e-03,1.858176845057513018e-04,5.057598093936870363e-07,5.933348856676777874e-03,9.921654023872916034e-03,5.032772233077869098e-03,6.967793014344315786e-04
9.024421469628930714e-03,1.213066115904510786e-02,6.561894796604945609e-03,2.240508922097080111e-03,2.506229245842435719e-04,5.443126508542924874e-06,1.452912548659687428e-02,1.744371940953487118e-02,7.813331548045223535e-03,3.022693837836825000e-03
4.633195406296337394e-04,1.343251187850288443e-02,5.142293501192848545e-03,2.599761194305983108e-03,3.159597427605953675e-04,1.025607930898371850e-05,1.650638486706642802e-02,3.141475950967721753e-02,6.248284110998536534e-03,2.858130048146294636e-03
2.205385696892554759e-03,1.682731475776914204e-02,4.992143824195426419e-03,2.928699088782852483e-03,3.562782823326470817e-04,1.482786417094187966e-05,8.239889772986324495e-03,5.190877202929778528e-02,5.273128123426521797e-03,2.340318489348351856e-04
8.142189004892963727e-05,1.457141721394540450e-02,2.398261528485601257e-02,3.220499727501926687e-03,3.804046275340991598e-04,1.904727501559361704e-05,4.897042385691913191e-03,7.176468643585605378e-02,2.117084533117272530e-02,1.685333615483366109e-03
1.127720599512931294e-03,8.024442434665846405e-03,3.333052496805682940e-02,3.476875414276897440e-03,4.395142258745520338e-04,2.281134300840158147e-05,1.526608048683052339e-02,7.827403605746013904e-02,2.848452586251253721e-02,6.016460621680644848e-04
1.270996925421988971e-03,5.325338076919105407e-03,2.485392497797782665e-02,3.696507575845528731e-03,5.129053918169067423e-04,2.602783635329576539e-05,2.165049121699337553e-02,6.925793352014027182e-02,2.301475845678188289e-02,4.164576724986210517e-03
7.271351889147593776e-03,7.943907786573884203e-03,3.712325050556364477e-03,3.875446318191322521e-03,4.879329025567174637e-04,2.861751007044198637e-05,2.751777478588228812e-02,5.889204648489575894e-02,1.361359784388599913e-02,7.206604954622820164e-03
1.759265994691087617e-02,9.553663538041627309e-03,1.525190416559411323e-02,4.012367935006651287e-03,4.034834636127639551e-04,3.051605101380336756e-05,3.245595775966256952e-02,6.182162377690036958e-02,8.677853857906488166e-03,1.026185320887385705e-02
2.964211277333190370e-02,7.443131970310783510e-03,1.765222611351785834e-02,4.108557147625781052e-03,5.021412321399150403e-04,3.167567049828292356e-05,3.199392412851672501e-02,7.604953343501953678e-02,6.399568663880189114e-03,1.166240215265311811e-02
3.828048997600393827e-02,5.038482091328908355e-03,5.161858113530964215e-03,4.165936812694024348e-03,7.155075566392603932e-04,3.206630518462616752e-05,2.582266783887130282e-02,8.697286629682465797e-02,1.326615273439838002e-03,8.030806681118324644e-03
4.285267881847536903e-02,3.026766473958284256e-03,1.859259791881234022e-03,4.186872180541778045e-03,4.808030232756346453e-04,3.167639611969539422e-05,1.727961759792520299e-02,8.411618449057151059e-02,6.182820499579983614e-03,7.238714610075084894e-04
4.639008018576395997e-02,2.837190632324440923e-03,1.358358973370134629e-02,4.173958383170616945e-03,3.240522938876423784e-04,3.051322583250195769e-05,5.108789626450696737e-03,6.985726618029632073e-02,1.150335171995641240e-02,4.275599379827283060e-03
4.747207142754773790e-02,1.450313989072706151e-02,4.206914822866691245e-02,4.130279155165499094e-03,8.288965087328678712e-04,2.860280390597448182e-05,1.226900041146969551e-02,5.767476934068837408e-02,1.284186266471268323e-02,4.277498312433659911e-03
4.104183029068697586e-02,2.842632362969529577e-02,5.500724607958275975e-02,4.061645235126679424e-03,3.957425171195645968e-04,2.598930223107312655e-05,2.616646908619831360e-02,6.053552683985717608e-02,1.249996807392728809e-02,2.710261075991186267e-03
2.771415592772557765e-02,3.875830663407650589e-02,3.638179137235469929e-02,3.975810903408813664e-03,3.387508532507589685e-04,2.273405194641809685e-05,2.671324184923520861e-02,7.061292626410742290e-02,1.269779959671357011e-02,2.877913453428219623e-03
1.491798606056642454e-02,4.104682098042250482e-02,2.564297277929743994e-03,3.876368296828910671e-03,5.084275999288122381e-04,1.891412461475369883e-05,2.048579080141448711e-02,5.938581993100556372e-02,1.344128606671170581e-02,3.095852493526486671e-03
7.944691932135138426e-03,3.583230522773513116e-02,1.454255371288740162e-02,3.763837732548117997e-03,2.364082250203917686e-04,1.462053023393906044e-05,2.265146939264061146e-02,1.443284642435028672e-02,1.400271936340461224e-02,2.120468801666762731e-04
5.059958512759651396e-03,2.862841151148717150e-02,3.930647603370057697e-03,3.648737524178294073e-03,8.190211856315562054e-05,9.956073982386112471e-06,3.300437592453344532e-02,3.700738849951289156e-02,1.423658723917150745e-02,7.209114306069474426e-03
2.974162898366745390e-03,2.295324147660960171e-02,1.417995602709496393e-02,3.549144910365712238e-03,1.169877822168884806e-04,5.032921931455675517e-06,3.574064581465311724e-02,6.004563127983003623e-02,1.444777057123037591e-02,1.418230610590020396e-02
3.319238484620090981e-03,1.679972630205299119e-02,1.786667845232982679e-02,3.462033666834951184e-03,1.116690057348792100e-04,3.006688289884878088e-08,2.384585870765722898e-02,5.401429855604004265e-02,1.503670210461492338e-02,1.725647153594665750e-02
8.873691674730632001e-03,9.615358907929114768e-03,8.781131928525115482e-03,3.367244452519148595e-03,2.313870144222596637e-05,5.110178825884395103e-06,9.599174629557578192e-03,4.546810463759658194e-02,1.593775681180356965e-02,1.567496380307103684e-02
1.459101595706283928e-02,6.396610109036922343e-03,1.142516629178305914e-03,3.288426546010603160e-03,5.973367590736412792e-05,1.008378694562680638e-05,6.187666309510835884e-03,5.038989862942823417e-02,1.627402915174182979e-02,1.207088679076274464e-02
1.078708363408439203e-02,9.806191152273250125e-03,2.306579714232866868e-03,3.285709726472741711e-03,1.057451698324721260e-04,1.482932493369484756e-05,9.635783466354170754e-03,5.823204566285635625e-02,1.591037731140220943e-02,9.941961938699886078e-03
2.676934210948172729e-03,1.453407195799407206e-02,1.069631501165587556e-02,3.324893531821653328e-03,1.132359588988643331e-04,1.923022248471793237e-05,7.243624971324831054e-03,5.176210215911514201e-02,1.678301579751680095e-02,1.041309974626214614e-02
1.457592742602066907e-02,1.452246822207075433e-02,1.796943306835372192e-02,3.289171407124114391e-03,1.113232959489161215e-04,2.317773143786391223e-05,3.345112545158143366e-03,3.306950631840251120e-02,1.937034901801071296e-02,1.118018556543732417e-02
1.682229971400728274e-02,1.015752586077625641e-02,1.352382996954536523e-02,3.258486490755070804e-03,1.880394500055787327e-04,2.657357444100796965e-05,1.457292732448978341e-02,2.105031377090417488e-02,1.845885806522492081e-02,8.801316521952548891e-03
1.112791894235101720e-02,4.751720569306791021e-03,3.338209199045759877e-04,3.494426549168102181e-03,2.978970695125019125e-04,2.933235188222923283e-05,2.363880396374471241e-02,2.467195623089813578e-02,8.404684137963637849e-03,2.506784046046170097e-03
1.107437801349198331e-03,2.241665036403846407e-04,3.516126366582523078e-03,3.846916622843206835e-03,2.065397913550392735e-04,3.138364839331667956e-05,3.260190751242739854e-02,3.392118081697710619e-02,6.803980335955904860e-03,4.257745204356321207e-03
1.104699874742701669e-02,4.266231211874782145e-03,7.001823346282168639e-03,3.712303649426438971e-03,1.417285751146685237e-05,3.267378721911165160e-05,3.572854669163170321e-02,4.205747728642875854e-02,1.604672872432618899e-02,7.304306859537779487e-03
2.005655546942251496e-02,7.178535342073784006e-03,1.231083233237800431e-02,3.140026803289625544e-03,1.987726446181853552e-04,3.316718900286955764e-05,2.317130033021896560e-02,5.742623055853184055e-02,1.485327732024097763e-02,6.615378542682846461e-03
1.996397384209755085e-02,9.393497280880496597e-03,9.295146470463639624e-04,3.086153015325661646e-03,9.644558078988189377e-04,3.284730086847192687e-05,7.547975308448556797e-04,8.181451128948313833e-02,8.986511580888055517e-03,5.496786439605456237e-03
1.166289506585761748e-02,1.062840706885952169e-02,9.495622477886817361e-03,3.813646294556590453e-03,1.404920746109528801e-03,3.171707186581499717e-05,1.754295258247321604e-02,9.506691980486185745e-02,3.254793175700690291e-03,5.452619739240330103e-03
1.196528609780432399e-03,1.097269220838996591e-02,2.786428297027533293e-03,4.483146724990505483e-03,8.891802460334714223e-04,2.979896164521023797e-05,1.574751948783061073e-02,7.629429227806164282e-02,4.017592044145383047e-03,5.183445360607837060e-03
8.828643961284831851e-03,1.299707634628172702e-02,7.929558428674262499e-03,5.050912688305421623e-03,7.888404991059034871e-05,2.713448038361409770e-05,2.135711055324509069e-03,3.030963214559697153e-02,1.178159684169152732e-02,3.773256329532896636e-03
1.884319310242179440e-02,1.844244667875549401e-02,2.580182556314976165e-03,6.061621085146262980e-03,1.678867524949977487e-04,2.378326923378360573e-05,9.040287856448029832e-03,1.822165060866744873e-02,1.073791068396665570e-02,1.767004426035588289e-03
2.302778637859777960e-02,2.519561021744790019e-02,1.636976074050058502e-02,5.362992834240791484e-03,2.352982618785673299e-05,1.982174163756155960e-05,1.093166523905053991e-02,5.294408508559435983e-02,5.098888689223837929e-03,1.971716746561358617e-04
1.225383018524291850e-02,3.071631911001809767e-02,3.249212300266955677e-02,1.637716487409629799e-03,2.473733386947869159e-05,1.534131647011013525e-05,7.896519287361727577e-03,7.878311230359592854e-02,2.693882155287522298e-02,2.993015238331379717e-04
7.125194273399234300e-03,3.313777595870607412e-02,3.599481139597480311e-02,1.595697161841484399e-02,1.290085764770263887e-04,1.044628390626087779e-05,6.386815709425036625e-03,1.011176586499181462e-01,3.978487131847494723e-02,2.527105518666356368e-03
1.134340824963044406e-02,2.807846357360709380e-02,2.686269626111036785e-02,3.153512168733550725e-02,1.426931124809992571e-04,5.251353882201389306e-06,3.873631901311441490e-03,1.018025107090468617e-01,3.903478325210465311e-02,5.226436556831519364e-03
1.143172564603136404e-02,1.402506702286238777e-02,1.358800444700847786e-02,3.994402461427528500e-02,2.630008537552139280e-04,1.210551539695789677e-07,6.570684283730126446e-03,5.995551307622563886e-02,3.110125162932070308e-02,5.924891102700071376e-03
4.233329729835423605e-02,1.276504104828154323e-03,1.213057587559948809e-02,3.735041883552438213e-02,5.080923909409087958e-04,5.543723043219777746e-06,2.124147671071122123e-02,3.840570841770118635e-03,2.080921688144376711e-02,3.809618580397405342e-03
5.481256451650376449e-02,2.710007802801104627e-03,3.056052952935184655e-02,2.643345691427795296e-02,3.432745995537459720e-04,1.088766115749817436e-05,2.769246596756062828e-02,3.713159475948165505e-02,7.190251287284647394e-03,1.095283639601489240e-05
4.378948745611791621e-02,1.479291449411725828e-02,5.376149014348220734e-02,1.379389487402664198e-02,3.557842934053813107e-04,1.602519966121597629e-05,2.201276568818229598e-02,1.670203018517945129e-02,8.147348706194008222e-03,3.873787995360855000e-03
2.231617751867736449e-02,2.139634056733236492e-02,5.743347437369316494e-02,5.738105734921372311e-03,7.502511618102979726e-04,2.083305478669150558e-05,1.112221481990059019e-02,2.944255267359204009e-02,1.746342707265760227e-02,6.981335425307544362e-03
3.912982017253924596e-03,1.622095951336532949e-02,3.732363978572538626e-02,3.877340381015503823e-03,2.906359693612462457e-04,2.519530230551952362e-05,2.015969822433696067e-04,6.371332721153219469e-02,1.585631828885779651e-02,9.237089809502982418e-03
2.554008247483633386e-03,7.153503210222484678e-03,1.223985486952040153e-02,4.209401751681468573e-03,4.280461859845982879e-04,2.900618534009679890e-05,9.471182881394290751e-03,7.392413884229974419e-02,7.902957667690408555e-03,1.040202351863706021e-02
6.704511096537232005e-03,3.582023384100050528e-04,8.655584042666130198e-05,2.016444656660887173e-03,7.668411863149245198e-04,3.217268835683147887e-05,1.482090010279868766e-02,6.693330602001879015e-02,1.383954962529044489e-03,9.499298747408131682e-03
2.592597787407277879e-02,4.725466213496096884e-03,3.373229791936016055e-03,2.893271990743798844e-03,7.776906293537541592e-04,3.461681453336505469e-05,1.409738703461791733e-02,5.270129508541832042e-02,8.763469534105422076e-04,6.056958487866057755e-03
4.193342320014412788e-02,6.766185421618824136e-03,1.882460142267240039e-02,7.113901875195980523e-03,4.655826180447575997e-04,3.627751057486240996e-05,1.168661334771618245e-02,3.767183914625337610e-02,1.888543178961166755e-05,2.001547037849834600e-03
4.487658618987925424e-02,3.053425702542719548e-03,4.030221612327558600e-02,8.349980463589803600e-03,2.232240083338195584e-04,3.711219131017780938e-05,1.323863992774344453e-02,2.157498470107392652e-02,3.529577956562739063e-03,6.846824179744914318e-04
3.482033151475707328e-02,2.254372115459162777e-03,5.439982096308185189e-02,7.341043027875230990e-03,6.640972341427341672e-04,3.709782583490681427e-05,1.838566201618288543e-02,6.221340786218229092e-04,1.052651654019072340e-02,2.752986455427252135e-03
2.001670792745774419e-02,3.877397361421804252e-04,4.629618597228590815e-02,6.097232601387542368e-03,2.581992856109657851e-04,3.623155736320460686e-05,2.004144410469602469e-02,3.202484365422138268e-02,2.005790469856467972e-02,4.771248291017594206e-03
1.140798104874868150e-02,1.068748431886871846e-02,1.920826835206359065e-02,5.779053371923693373e-03,4.699699428798362593e-04,3.453084005800127992e-05,1.059125549349016447e-02,7.058196922707045406e-02,2.803543370175231100e-02,3.559478764740875694e-03
1.385115983633070091e-02,2.217321332394173866e-02,2.552278630306270991e-03,6.024219696185557915e-03,6.715657382020955328e-04,3.203308766587700227e-05,8.586989756556070996e-03,1.095939192631505410e-01,3.061470259256740545e-02,2.494649080252127143e-04
1.923627115629149287e-02,2.387237333516543242e-02,3.486877221383233999e-05,6.004454391722141050e-03,4.178520090417546734e-04,2.879484051241967983e-05,2.432441134883901040e-02,1.374184535985974454e-01,2.982011791281724555e-02,4.068321866590866517e-03
1.427844403596138269e-02,1.585515785649907125e-02,1.745394182054856025e-02,5.964643250842541558e-03,2.628684543635468186e-04,2.489046903504044876e-05,2.368872041207723336e-02,1.382853761509119650e-01,3.126024070810923955e-02,6.219574291966662068e-03
1.210733948643569376e-03,7.430852192137019779e-03,2.549023129974881119e-02,6.308849487810666914e-03,3.006139872778046244e-04,2.041044326299196101e-05,9.044035137395540006e-03,1.026416458230003798e-01,3.303689438644315246e-02,6.699637551430392274e-03
1.147415535451388330e-02,5.393984080397065846e-03,1.428068987476666107e-02,5.301620218079498847e-03,2.948327832774220612e-04,1.545920822683730152e-05,4.352928722638165285e-03,4.452082641263621632e-02,2.373494884914795905e-02,7.176679482200533020e-03
5.244545035419092768e-03,7.349108380290128410e-03,4.784329881371129217e-03,7.213580156390750646e-04,1.961145719366333613e-04,1.015271493462750612e-05,6.270784779295137702e-03,1.185117856832591928e-03,1.614590689089411349e-03,8.977981831854131914e-03
9.497447512214991783e-03,6.217428770266181237e-03,1.676574505320035935e-02,5.667660039621717077e-03,1.148065282067119017e-04,4.615665053248038232e-06,1.491278851717643857e-03,1.265304859811421274e-02,3.003766156140367030e-02,9.927297808175335539e-03
1.761865728777483459e-02,2.404792291333111062e-03,1.635290164473228447e-02,8.751602831361556672e-03,7.775453453840313895e-05,1.021465428832542158e-06,1.175500687563762114e-03,3.649899122603288484e-03,4.339315365362939048e-02,6.515457500617963423e-03
1.481972561321034075e-02,1.685432624273247929e-02,5.700855633533098710e-03,6.141761278569033214e-03,3.667338252757911058e-05,6.625552684603727420e-06,9.073067970110584510e-03,8.368821191037222745e-05,3.759840328783258662e-02,3.209457346085896681e-05
6.460444654297079273e-03,3.005643784614758091e-02,9.243041194884001749e-03,8.479002607707775401e-04,2.018137502560818570e-05,1.206402689065788960e-05,1.717963232961352768e-02,6.937576304185420761e-03,2.312568542986626757e-02,4.574717751970922008e-03
2.020447264518438271e-03,3.441809411635726734e-02,1.706096418129667350e-02,2.762115205219073388e-03,7.075671505748053745e-05,1.720807251222510479e-05,1.398580642698195146e-02,1.235642938992258591e-02,1.209977100191110197e-02,5.231048127182523488e-03
6.013887908684146036e-03,2.913254428293196238e-02,6.707030956030077262e-03,3.439168413056336356e-03,1.066740199873657144e-04,2.193574982888287241e-05,1.244091908746534740e-03,1.251384253215719056e-02,9.538991647432201737e-03,4.287791598615689134e-03
2.647579791323687731e-03,2.106183789585518509e-02,1.751360497954461068e-02,2.823204924132916190e-03,1.320000540608794540e-04,2.613496207132988018e-05,1.488496500155480837e-02,1.655296716567227627e-02,1.252488985714505371e-02,2.198075029222481495e-03
3.617476727997145751e-03,1.582455916481857738e-02,3.614805294494334575e-02,2.482611927482927718e-03,1.514688012126626563e-04,2.970619594123800341e-05,1.412649301225814800e-02,3.217977709658357416e-02,1.425572471808686341e-02,3.142024597011819961e-03
5.555124026374392079e-03,1.235675221044596830e-02,3.529317652024888813e-02,2.510964279841410539e-03,1.724234323606958828e-04,3.256496844309385454e-05,9.101428879571449478e-04,5.855204875083708238e-02,9.967291185157944183e-03,1.039132382953547075e-02
3.770863525886945702e-03,9.810198180267667989e-03,1.789981271266428281e-02,2.452189597099450630e-03,1.881395415253876919e-04,3.464391975276623120e-05,1.402582515153104510e-02,8.727380365475981283e-02,2.230125648549910944e-04,1.342866911107807280e-02
3.010617027240228023e-03,1.112493841739044774e-02,3.846244309655394607e-03,2.284302586005375509e-03,1.729778592767280802e-04,3.589450012594997742e-05,2.272839316373312032e-02,9.661877922917982975e-02,1.183009806001147739e-02,8.437609549223791874e-03
2.402345855017889997e-03,1.230698362554645889e-02,1.460901946511158379e-02,2.227320178838964552e-03,1.375433932932340066e-04,3.628820841787959591e-05,2.031731297475651912e-02,5.809656766969081843e-02,1.680797922855188642e-02,4.760778550942531520e-04
1.604061010601009378e-03,6.056447667825272472e-04,1.499556595912672702e-03,2.269477097344718870e-03,1.410012438949449580e-04,3.581735041906347595e-05,4.007773690210427071e-03,2.619339970333261353e-02,8.360617791847546609e-03,5.513922294923864938e-03
9.556657985242349163e-03,3.213159271869101691e-02,3.127162552268307472e-02,2.260974784034814732e-03,1.644254397286130042e-04,3.449529665885441764e-05,2.136195931558535280e-02,1.066142160061138711e-01,1.007025926312085477e-02,3.988215243556577499e-03
2.145290251452689617e-02,6.489655550218104141e-02,6.087669663331779502e-02,2.243941866890118014e-03,7.810923516159849398e-05,3.235623131726909083e-05,4.380673715419966530e-02,1.341401597583905259e-01,2.517147768570635741e-02,1.487957966603069108e-04
3.526884005626027691e-02,7.823697557555428506e-02,6.868225909500569326e-02,2.377146728293632119e-03,8.842837100422572803e-05,2.945439612911115470e-05,5.368975459981897846e-02,1.095707925894422868e-01,2.747863696712084594e-02,3.178906768248990471e-03
4.111410139333529501e-02,7.051579347514731755e-02,5.581494104653796084e-02,2.546448440288761814e-03,1.376956786482670135e-05,2.586284536917402005e-05,4.907298310839455779e-02,6.463020410761974310e-02,2.010024526203477158e-02,5.447843660557449841e-03
2.931371968113090018e-02,5.393680207115587877e-02,3.473145053213171074e-02,2.465379663104898863e-03,4.955653722476167401e-04,2.167173987869944803e-05,3.442353186665433190e-02,2.353681824870061667e-02,1.152214526589205416e-02,7.400031551864489493e-03
6.571252478813562233e-03,3.635862934823947540e-02,1.718807657842461034e-02,2.366513509900392952e-03,1.133731884900660578e-03,1.698621934360252213e-05,1.886773671397137808e-02,5.617338032971282320e-03,5.003794439686714765e-03,7.415235910195684503e-03
8.147388649074067263e-03,1.777491784071350348e-02,9.024563507085940281e-03,2.842726062375462714e-03,1.384441172734242635e-03,1.192390239011621787e-05,1.081521763767637201e-02,2.892328343712020217e-02,2.613449230060504395e-03,5.756275491786051052e-03
6.288264355114200205e-03,1.630113946096598508e-04,8.143275428639127830e-03,3.342213875377175389e-03,1.018715883433800404e-03,6.612073269622072955e-06,8.999772309817525434e-03,8.089205161561932589e-02,1.365498174048430588e-02,5.125740477978256958e-03
2.579447708791122486e-03,7.458216059816911991e-03,1.012525127605472253e-02,1.988218447517509958e-03,2.746860166054768734e-04,1.184621734191567426e-06,3.749901159246168264e-03,1.153845949644440039e-01,2.211299651512176750e-02,5.264923016594700786e-03
7.180750213734444706e-03,2.880880564154899171e-03,1.567305047721832822e-02,1.619522883801089797e-03,3.335316694087287815e-04,4.221191037441238009e-06,8.789501575112950230e-03,1.050148873410189643e-01,1.639982444262674810e-02,2.416219255044460210e-03
7.430264081635794271e-03,2.580702001167268014e-02,2.545863299917205946e-02,4.585340933132836874e-03,5.093469930895742643e-04,9.468063075369778186e-06,1.994156392747394729e-02,7.078671874960898447e-02,6.286955463648703085e-03,4.357870599421762026e-03
8.014428862147326277e-03,4.364976810420713449e-02,3.186566061310722175e-02,3.823045840721975720e-03,4.378893355357685573e-04,1.442199874608054145e-05,2.168680364680083961e-02,4.221246990245517555e-02,3.213150325294616277e-02,1.114734791300210984e-02
9.077423216462848776e-03,4.335535838930985181e-02,2.499518928533135675e-02,1.718576660341338555e-04,4.141164451480749400e-04,1.895559154179909253e-05,2.032699970016416807e-02,1.796863074709127012e-02,4.399024337880432650e-02,1.426046769025021352e-02
8.134581229743951397e-03,2.798637356202296131e-02,4.750259439733408272e-03,2.781118931934787111e-03,4.760317329901830050e-04,2.295116288805587178e-05,2.609803597802521843e-02,1.315904065933109698e-02,3.912237024350628811e-02,1.355785874324978886e-02
5.701718766220226740e-03,8.780481868580426036e-03,1.765678628564167768e-02,3.289831617019950329e-03,5.442571580268494493e-04,2.630368044076495675e-05,3.213072101833771427e-02,3.986282044969810534e-02,2.712150297106014421e-02,1.070830356091530440e-02
5.711174888620842993e-03,7.578032682340686728e-03,2.967752911382962044e-02,2.648595343619646308e-03,5.790252469627988913e-04,2.892338432100364490e-05,2.042581667355082217e-02,4.377483759033101718e-02,1.519407848903356166e-02,7.190207947151263344e-03
1.181584850435798625e-02,1.973025454985246480e-02,2.790328759330898759e-02,2.373051853598111185e-03,5.277900024984014289e-04,3.073805646315662214e-05,8.985838831083003964e-03,2.983084418401821952e-02,3.671212885717150751e-03,4.179591804346714963e-03
2.338465010320958659e-02,2.611447318142758392e-02,1.710478228731660694e-02,2.433321758480195759e-03,4.394872039171438200e-04,3.169487657578703912e-05,3.374620731583222177e-02,1.737419005606360284e-02,7.328981185778612149e-03,2.360283364574298180e-03
3.536756528213422235e-02,2.508620844593344862e-02,1.206503043732101103e-03,2.284161822748472046e-03,5.291134001520191596e-04,3.176181794117653723e-05,3.826960163572410561e-02,1.509014509729568812e-02,1.493438514113323845e-02,1.726969145525070583e-03
4.246972712047202697e-02,1.870370735881409299e-02,1.656343991100971830e-02,1.939807126464224282e-03,7.236973085165709398e-04,3.092854718106665763e-05,2.799577457625891316e-02,2.489692919556468417e-02,1.741915316599922797e-02,2.463983224570269817e-03
4.200613799167877277e-02,1.239220538920999051e-02,2.611549012436559583e-02,1.652388678779765111e-03,4.735326839777759256e-04,2.920680393480949892e-05,1.179428350747835710e-02,5.456180743625388407e-02,1.659640581510399282e-02,4.691877094546883890e-03
3.507818618351363216e-02,1.116596704906790312e-02,1.634428388657812106e-02,1.422629909690460021e-03,3.412088447380113286e-04,2.663024885001776183e-05,8.502215036258763819e-03,1.018247172945894591e-01,1.530296972149230300e-02,6.450213963671485272e-03
2.831336684784748967e-02,1.652104513111744138e-02,8.115718363978157573e-03,1.138613440390001934e-03,8.560294269939774069e-04,2.325378107757023263e-05,2.616142901497368542e-02,1.357420078160881949e-01,1.455446195721311550e-02,4.885535670134560568e-03
2.803317736671312108e-02,2.455452502955599026e-02,2.642394390074720781e-02,8.052978723429318969e-04,4.331462272824648514e-04,1.915233928680312614e-05,2.747832649555941031e-02,1.207625443473813315e-01,1.387258621635151581e-02,9.202454542863790048e-04
