3.446409877687751228e-02,1.813819911523193579e-02,5.103059477736862290e-03,8.930303235691322561e-02,8.268192873824828414e-04,7.649960862834956398e-04,5.080287577613034830e-03,3.294688911080167482e-01,7.154224715030362870e-03,7.089618920398191304e-02
1.469282138625937692e-02,2.037329576124022670e-02,4.680204534746336929e-03,7.230592117206524616e-02,1.237651453364341713e-03,1.978579917268641526e-03,1.160510066008654806e-02,3.225347714746518712e-01,5.214691854905202650e-03,4.951477627143831967e-02
1.834651325456085769e-03,2.230938936558521379e-02,6.222438007434382377e-03,4.999992920884573089e-02,1.867978377464410379e-03,2.964065266662066662e-03,2.430702628324028433e-02,2.604630402033816239e-01,3.030658155255537035e-03,2.431238153933010585e-02
1.009024291986971265e-02,2.542434943092196711e-02,2.254081542480023802e-03,3.187161033666973536e-02,2.074435451412540501e-03,2.830424431482631963e-03,3.859987514358443478e-02,1.530395447780163454e-01,4.059686778702181146e-04,5.299025284005347627e-03
2.525682397798624176e-02,2.940206251918719288e-02,9.262272303003657101e-03,2.104946443126730349e-02,1.059354098251431278e-03,2.157373404364568061e-03,5.014088324141216524e-02,4.616470145658997659e-02,3.429011844867323709e-03,3.857426896213364542e-03
3.687089444796511073e-02,2.764026116454679563e-02,1.300907307270469243e-02,1.257434556359177460e-02,4.298443879175403476e-04,1.897979744845735162e-03,5.608427289582063047e-02,2.738916439610628376e-02,7.904135846557058462e-03,7.870135262139456300e-03
3.598183127653759722e-02,1.094989041837198147e-02,9.314508466660638072e-03,8.588944652089713222e-03,7.807816415823613798e-04,2.241781439151403158e-03,5.628171446518892562e-02,6.410134564712607896e-02,8.113105692612653658e-03,1.248421647852315623e-02
1.676258447468084722e-02,2.140242674686305621e-02,5.158658654948736211e-02,5.357505158777702003e-02,6.974245861154260596e-05,3.274346959339169763e-03,5.148765596267316363e-02,6.996793955937297138e-02,1.998441701750040453e-04,1.631686355546330125e-02
2.026970618242883784e-02,5.650438759933891497e-02,8.466832254258999102e-02,1.067541912390580217e-01,8.379660552848543784e-04,5.387877991362310069e-03,4.142171890570687381e-02,5.094691604062258350e-02,1.218144542838700724e-02,1.061752289912464703e-02
5.942618982461829458e-02,7.694615006437251215e-02,8.809667811495329459e-02,1.350889982405103495e-01,8.740571484641488764e-04,8.307695636294002220e-03,2.556194491493396850e-02,1.600357712929026746e-02,1.747310134165409520e-02,1.044858963641807914e-02
7.741084783110344092e-02,7.544519633084545429e-02,6.739048960054236370e-02,1.247071962855316046e-01,1.890051276572939532e-04,1.090723417283857161e-02,5.247489587177426619e-03,2.321637233854391413e-02,1.247940147224024625e-02,3.670675726430987912e-02
6.981385767442498114e-02,5.887393456785205981e-02,3.850025941452406286e-02,9.031734494425650017e-02,1.218069000563254964e-03,1.252708540041389679e-02,1.626211353550821928e-02,5.352810895591990359e-02,2.406806646097927813e-03,4.648919722225518941e-02
5.430577257435933308e-02,3.902793341131283872e-02,9.472945543006519933e-03,4.962276424471622621e-02,2.603752057991644449e-03,1.344572196100204953e-02,3.689034231256501511e-02,6.316621552896620195e-02,7.844609944584909206e-03,3.228743031689448872e-02
4.220369762569644440e-02,2.238653349642236862e-02,1.859069449617192435e-02,7.300787865845269169e-03,2.790887131297529848e-03,1.405718977058761573e-02,5.702570641809431851e-02,5.086894004500051164e-02,1.802504167241441441e-02,1.216131942833964356e-02
2.446157624219546731e-02,8.028944424658214507e-03,4.457251996673329553e-02,3.712800097391823900e-02,2.148007883381038846e-03,1.474304399954477415e-02,7.635244298036387989e-02,3.096617034506261856e-02,2.865523858744028693e-02,5.393594449447519819e-03
9.973243326967126676e-03,7.993187640766325971e-03,6.770140593803204709e-02,8.146196508260997171e-02,2.228973199515856506e-03,1.615191747667679353e-02,9.291141664259926214e-02,2.042917164302789773e-02,3.869135536573045653e-02,8.203758100320850816e-03
5.336261443665653303e-02,2.683882838901558571e-02,8.829122367911604319e-02,1.221165847856693215e-01,3.229693085806042020e-03,1.820162954886681700e-02,1.060200742002637142e-01,1.559669688771961327e-02,4.711621572015779746e-02,3.778602363287481523e-03
8.028874658412823995e-02,4.433026406617630172e-02,1.046939639602266769e-01,1.557675751465977532e-01,4.009247399266016587e-03,1.921556697656592524e-02,1.152112072225151135e-01,6.074922997325486913e-03,5.340377659550248068e-02,1.391004966216968612e-02
7.120607520071510488e-02,5.536734925050530720e-02,1.150009346521689430e-01,1.805099411458236380e-01,4.322117600413664419e-03,1.776310325819123459e-02,1.174252343400539189e-01,4.505653834951280773e-02,5.712891677796325812e-02,3.431546650326636194e-02
3.800052306363329441e-02,6.115581269844216905e-02,1.227062632907702788e-01,1.976250263304231147e-01,4.865127971481425159e-03,1.526310837224651926e-02,1.119788617554477034e-01,5.635639888038291440e-02,5.941484651222841279e-02,4.291959416205237687e-02
1.739530551146606374e-02,6.804905842347953870e-02,1.332650539938685375e-01,2.079881247491363050e-01,5.672229914638302582e-03,1.481062677005597072e-02,1.058170878659348696e-01,8.207304151604376957e-04,6.250068031627203924e-02,3.718936595944324214e-02
2.938435647524844513e-02,7.669842717286623479e-02,1.434544158284120907e-01,2.052677257787927367e-01,6.306959653225860558e-03,1.717451134660948064e-02,1.057229901988367693e-01,8.777220005553745819e-02,6.483386144638743354e-02,2.999582431660063539e-02
5.047340774487444476e-02,7.723551620379023874e-02,1.428705271827825918e-01,1.787766951958395523e-01,6.780534708402950403e-03,1.972540276513146812e-02,1.077140645550922898e-01,1.274192007552289729e-01,5.994884806373033254e-02,3.335077492045088882e-02
4.207187503784223792e-02,6.102942355500137056e-02,1.296124488806380537e-01,1.283451553765331821e-01,6.854032458782719633e-03,1.938080501036851602e-02,1.012417226287856270e-01,7.978599179010625875e-02,4.493037983654554063e-02,4.341646875895210922e-02
2.184492511556657829e-03,3.457302947516888852e-02,1.156691136043072055e-01,7.469702857942867036e-02,5.911812025464942451e-03,1.531773588045878820e-02,8.188556820211020937e-02,1.556027470180505745e-02,2.700540902527464107e-02,5.033553589865613631e-02
2.920170737536241859e-02,1.531899560905582505e-02,1.115744775731562916e-01,4.730923167209965391e-02,4.688273263939390922e-03,9.589496645667132044e-03,5.721081142133653541e-02,8.921203120622377136e-02,1.675771928240741074e-02,5.414123312349197054e-02
2.226541863120552397e-02,1.414867567600286251e-02,1.141369803393842280e-01,5.586642339339942948e-02,5.072156347266148536e-03,6.075992089741823025e-03,4.282999639490474991e-02,9.388440727231678329e-02,1.704572255418402085e-02,5.823679300950168614e-02
3.042714053852948325e-03,2.596373839899208252e-02,1.140350174366635688e-01,7.760700905332164334e-02,7.191045945524940537e-03,6.965407225216048784e-03,4.809907017482233094e-02,3.122794387925044782e-02,2.241424597374033767e-02,5.640269077262530933e-02
4.489580993221882303e-03,3.641401713660610134e-02,1.054570624735556433e-01,7.799103688505328036e-02,8.836976172640847657e-03,9.348463234323454302e-03,6.039271603812444017e-02,4.267894363305504285e-02,2.709496471311227672e-02,4.003733846164325011e-02
2.643891521219270124e-02,3.511885264588577443e-02,8.365999294607129322e-02,3.928066960525612022e-02,8.609537211892953276e-03,8.189075081700497583e-03,5.592457484872760676e-02,6.622044852382777402e-02,2.976900988168192097e-02,1.285473228941057429e-02
5.463452430580516272e-02,2.382799956686974807e-02,4.596108149019571126e-02,3.233473867125993134e-02,7.704058132835120247e-03,3.566977284400736289e-03,3.437365559839558604e-02,4.346884043202718650e-02,3.191580249838173872e-02,1.212004518816382770e-02
4.597882217683131600e-02,1.343309546339101559e-02,2.195923195210027629e-03,1.152163082298939961e-01,7.766022651339417326e-03,7.715557901430246260e-04,2.275194984419561320e-02,2.941817286722855918e-02,3.549831521268333179e-02,2.881774445480624752e-02
5.011830995935180784e-03,1.273374960424814538e-02,2.764845919688231624e-02,1.798555220167349644e-01,8.549390429465729066e-03,1.808758861286406932e-03,3.292542894663520042e-02,4.453221791619110803e-02,4.124922572460974768e-02,4.269532079141209052e-02
3.704274876669436112e-02,2.060218326048948723e-02,3.308847617338198793e-02,1.993442485486177640e-01,8.794373954662473500e-03,2.320186653057982815e-03,4.126993102703734734e-02,5.806193654752446476e-02,4.471707094151688988e-02,5.528333987292874396e-02
5.803556989619551576e-02,2.867728652360269914e-02,2.197952499485835917e-02,1.691530569497043668e-01,8.508805360686785488e-03,2.674478864915425837e-04,2.816890948738712611e-02,5.971754078533988985e-02,3.677492054223082535e-02,5.397657608787367195e-02
6.020501352300475922e-02,3.018719983951606220e-02,8.103786160119284127e-03,1.190440306325188380e-01,9.243734259507585538e-03,1.517489836575584969e-03,1.045971399340715237e-02,9.201088132734726310e-02,1.593758428906312183e-02,2.913838022712028630e-02
5.831116895021015017e-02,2.664707435818043646e-02,4.406361097579747366e-04,9.349271656647931139e-02,1.197029532262757975e-02,2.473416725401912132e-03,1.118077944787878447e-02,1.834630736198029632e-01,3.516791420049785767e-03,5.688388661276874356e-03
5.973050151444776745e-02,2.495985701645113408e-02,6.419380386810322192e-04,1.117633424424420568e-01,1.488953837666910293e-02,7.380138577173195151e-03,2.024243844315862587e-02,2.793793028634109499e-01,8.008949447183735804e-03,2.640416743294101559e-02
5.622407984247045076e-02,2.650323724169175235e-02,6.511278118305799736e-03,1.511806688302716750e-01,1.421890365185690501e-02,6.401309615710667339e-03,1.255401660505307132e-02,2.885076668732959315e-01,6.166383952536739696e-03,2.732531022103452598e-02
3.733841780811397032e-02,2.562362622901384265e-02,1.380186238412153821e-02,1.731465003407614833e-01,8.339895755706162525e-03,5.033104673888953587e-04,9.509461368998904651e-03,2.021207751132929609e-01,1.846316031132019114e-02,2.072279221373494670e-02
8.234198673585301984e-03,2.314294590027404439e-02,1.359731943446066890e-02,1.612622864506738085e-01,3.262579318039495824e-04,3.233667105949509547e-03,1.980081131427325822e-02,1.098163566875284408e-01,4.768271246857749834e-02,1.025495349135294859e-02
1.618888583187684180e-02,2.836253089864965854e-02,1.074194708782531121e-02,1.326791216714404698e-01,5.233006976919330269e-03,1.987854773215664509e-03,9.231339622863647676e-03,7.795472125327342072e-02,7.557209490048638623e-02,1.290393128323806711e-02
3.175377166821880676e-02,3.862889743404655102e-02,2.136930049634456000e-02,1.145098962124109915e-01,6.781113968601917494e-03,2.565216054779407943e-04,3.186098354752925008e-03,7.423654444805594110e-02,8.582562829721236686e-02,4.328763376987888878e-02
4.711920525576996505e-02,3.337005195427455301e-02,5.234416212899438425e-02,1.105574719417324603e-01,5.830558683306637409e-03,2.763316483416567771e-04,1.811941033529294431e-03,3.874866831282394036e-02,7.719371251002410395e-02,5.360039668492071196e-02
6.859279655442307444e-02,9.625793280111105427e-04,9.071838630564704742e-02,9.924218607941266701e-02,4.530536292110550964e-03,9.926664405194142535e-04,8.356872901994822148e-03,3.511607711390769826e-02,6.023633005803271517e-02,2.607323833576113276e-02
9.645563267655947459e-02,4.408399504878660058e-02,1.202207063154477062e-01,6.843335987727097725e-02,4.914575282956570521e-03,4.091886272986426307e-03,2.387935712119652540e-02,1.315538876440242866e-01,5.133846632473104687e-02,2.257240484318155660e-02
1.330691260244718788e-01,8.008354812603039885e-02,1.379140619908442722e-01,3.576121888736961268e-02,8.357892635645580021e-03,1.284358982489333147e-02,5.593494383748072452e-02,2.653249356390324776e-01,6.158810366338705877e-02,5.629401964722448998e-02
1.747071695402257208e-01,9.803260580725227380e-02,1.483897185221861870e-01,2.261463363255216547e-02,1.381545035426062079e-02,2.659739283169906127e-02,1.032249803304194080e-01,4.385459249325694975e-01,8.464345106677992336e-02,5.414597524483701074e-02
1.962586370698466975e-01,9.880541332261562337e-02,1.521581117048003695e-01,2.493518848237943203e-02,1.839337561655174022e-02,3.746503429796354395e-02,1.369619465198919084e-01,5.866508863424466647e-01,1.021376891912967322e-01,2.986397489837465738e-02
1.729229020505459180e-01,8.924612621045129035e-02,1.476409584061948166e-01,2.566597384029489781e-02,2.095642747873777828e-02,4.066752502621884258e-02,1.404678625772234624e-01,6.463634033468885765e-01,1.020321419302714777e-01,1.725313464608100797e-02
1.202833247560606278e-01,8.230310099110740851e-02,1.373631868666417288e-01,2.251102402856391266e-02,2.274105727473836602e-02,4.079165941014947089e-02,1.394753978347273438e-01,6.392727413623737753e-01,8.518147430258965480e-02,2.890777912032681252e-02
8.014050418497674355e-02,8.424856388915576144e-02,1.217864932047045684e-01,2.343073887674910691e-02,2.357384831706851869e-02,4.212083164834048987e-02,1.591233231848864782e-01,6.040426776937091180e-01,5.752300940035523502e-02,3.838544487689804496e-02
6.479179912376510642e-02,8.473227928074876514e-02,9.289985119518574808e-02,2.132253988167793352e-02,2.117202129061586738e-02,4.076166893321843399e-02,1.773130526499262227e-01,4.990435939659026987e-01,2.666998538790282813e-02,1.794182306106701860e-02
5.153616172159321968e-02,7.373651656141670674e-02,5.101884754475304040e-02,3.742379551461234855e-03,1.532791179882884471e-02,3.258316612662712219e-02,1.599572467948919274e-01,2.784897593789677495e-01,4.962807256880480064e-03,2.223476669744670065e-02
3.385288064544026559e-02,6.030046359824477176e-02,2.122737542863038090e-02,5.268942794674987690e-02,9.190017393960598496e-03,2.173470959909192673e-02,1.184624543587255580e-01,2.685764561488958313e-02,2.922808163314891822e-03,5.190463855061366871e-02
3.727310922877814098e-02,6.052025184675020875e-02,2.740590254916702717e-02,9.542055575284602575e-02,5.897597988372135953e-03,1.586995127244117051e-02,9.426723926302481293e-02,9.567330354860296981e-02,1.557241576637219578e-02,5.897673669035537886e-02
7.212080698604601825e-02,7.505258216543696237e-02,5.481925759301680551e-02,1.012084683227690712e-01,6.521148445921692849e-03,1.751103189451958669e-02,1.042102643052102151e-01,3.868517944583853979e-02,2.401481936163378864e-02,4.995214089962441567e-02
1.046959703317277973e-01,8.830180313555933969e-02,6.351768108764946352e-02,7.300035155306111578e-02,9.953193579717254172e-03,2.264993991605813994e-02,1.311945542861243097e-01,9.693338966166387127e-02,1.450409725446219836e-02,3.166997951958214208e-02
9.671674395641356725e-02,8.435382032105552541e-02,3.398903422951517206e-02,4.002389000303242100e-02,1.270584143693355775e-02,2.486910176109234649e-02,1.531655119423472322e-01,2.012625416763415553e-01,9.299962380751630037e-03,1.272436066715892759e-02
5.225022229628700082e-02,6.171092792471067484e-02,1.669695148185797173e-02,1.774411363776137382e-02,1.120271604538369999e-02,2.040068984005177430e-02,1.552960500421406431e-01,2.489999250751339377e-01,3.504544217154434427e-02,7.149781870196450506e-03
6.569085969674029121e-03,3.499978272910492239e-02,5.489307731628924325e-02,8.826714181468650264e-03,5.819807928841088003e-03,1.117367221408919337e-02,1.267593584302639520e-01,2.507255647105144369e-01,5.731990633885196418e-02,1.974617417125731564e-02
1.763861357723209636e-02,1.762205339053754538e-02,5.640927614019039527e-02,5.196305353967400897e-02,3.984038510092043767e-04,2.613726596875106008e-03,7.064894203048976973e-02,2.076630710207418573e-01,7.716827480576296527e-02,3.891113310308411122e-02
2.798848565805302918e-02,6.260831714719018032e-03,2.489660263360373577e-02,8.825363698578396476e-02,2.558206655977260293e-03,1.993748109941343404e-03,1.139348298331994448e-02,1.409982601874249508e-01,8.710733516338101112e-02,5.091502270433663491e-02
4.321678491021664625e-02,5.784025898519411582e-03,4.874295113777588756e-03,8.067349946265102434e-02,3.820123928407857458e-03,3.244631586449912494e-03,2.523465716159159489e-02,1.033233720795408012e-01,7.270655792330962819e-02,4.825499021172027780e-02
6.742289454173981678e-02,9.480925441523889788e-03,6.797009188882657468e-03,2.580253280695813528e-02,4.914774056214229678e-03,2.329949070798349384e-03,3.736993651092128388e-02,1.169844702115426099e-01,3.768743376469513295e-02,2.556245988675006145e-02
8.803080685574247999e-02,5.793017080853630346e-03,5.770792019116442739e-02,4.076894144250118451e-02,6.181700114228232817e-03,5.873225520895784119e-06,4.362651540595318539e-02,1.157278468410890271e-01,9.521017406904291186e-03,1.428014828330719833e-02
9.653435417192082757e-02,2.776531364032511218e-02,9.074637834390092417e-02,8.263290324966936218e-02,7.100485230084777749e-03,1.201127043427863052e-03,5.753735122527381396e-02,6.167294779191426907e-03,7.726297280445236504e-03,5.213858380623883487e-02
9.840459314191631057e-02,3.361020636246537380e-02,5.485781971564332449e-02,9.176805466755576235e-02,6.673737411357226826e-03,9.003594187880752803e-04,7.160333563081487662e-02,1.850347697019369131e-01,2.388203000118482508e-02,6.978592876054053040e-02
9.659565397905070516e-02,2.123969023696239966e-02,2.397524451321209754e-02,8.164133682326546460e-02,4.145465666306896030e-03,3.517181005367971125e-03,6.813822766773096340e-02,2.992198287148204461e-01,4.285037481173295526e-02,7.469215826399466795e-02
8.306375141199032197e-02,7.536714880354219125e-03,6.716588238597535898e-02,6.572549003830623071e-02,7.905902769204627752e-04,2.396631685995448575e-03,4.497233315332609116e-02,2.442857803362085134e-01,6.399978417887831894e-02,8.919335550473776741e-02
6.064543505966604048e-02,3.932570970968628232e-04,3.990667485492641053e-02,5.162673735622682475e-02,3.437835766777215920e-04,3.182207160243317578e-04,2.346449693263646247e-02,1.228774815028838840e-01,8.840153194924645075e-02,1.134084596983313542e-01
5.216636972635989994e-02,1.212142407251049110e-02,1.218785254340037233e-02,4.751443343348968340e-02,1.846813753543363659e-03,9.312411292422433963e-04,2.223876812431222622e-02,7.270202392325252061e-02,1.000801354612355365e-01,1.208856932034470533e-01
6.576532306136355366e-02,3.221976772857317733e-02,2.643765699437147440e-02,5.549963858278744722e-02,4.399807332609580873e-03,5.089385201122871918e-03,3.022624757360269782e-02,7.354926709382646199e-02,7.824048721980420007e-02,9.890237083775341165e-02
7.362125056155018055e-02,4.926835721378544641e-02,7.700562690394638365e-03,5.793470818276781620e-02,3.658592156695784393e-03,5.625379409493547374e-03,2.135126395690566808e-02,3.556094123053725464e-02,2.742214683717369289e-02,7.035027370895165222e-02
5.301329060112713876e-02,5.276666789141726266e-02,5.029665513656918913e-02,3.095415670878845504e-02,1.400266182991776625e-04,1.150403205216859060e-03,8.459773012659871708e-03,1.611987165150427156e-02,1.869950825399400995e-02,6.106451959156394826e-02
2.668132700548418376e-02,5.048619055700560854e-02,5.970030482757056334e-02,2.169104101448700653e-02,3.068689357148286084e-03,2.484941126291110441e-03,3.546932169897160092e-02,7.340212262582462323e-03,3.048563349790685620e-02,6.358074449155787233e-02
3.060498192802586087e-02,5.917468166828285248e-02,2.818821999113689872e-02,6.630588141944511460e-02,1.769692028364957962e-03,2.823687122332101986e-04,3.767320041426969190e-02,9.811813100345054273e-02,9.845852077939878932e-03,5.120200200958580083e-02
5.804745224912940399e-02,8.108377736465292862e-02,1.949099979439655739e-02,7.883180815844560707e-02,3.300165353282662108e-03,7.101880698615978954e-03,1.628691806766781325e-02,1.795030744179831883e-01,2.097490656896028316e-02,1.630717690053773775e-02
6.735632847647328447e-02,9.997705283418958921e-02,5.287506747874627655e-02,7.053905678273904301e-02,8.690401447183193628e-03,1.562983633301878381e-02,1.131511206379091222e-02,2.307544616015660688e-01,4.472458547190968914e-02,2.414353012818733907e-02
3.882008899399315427e-02,1.028350901270531775e-01,6.515639916500047535e-02,6.421561282409346538e-02,1.157436531939857842e-02,2.109458820150066430e-02,2.700509706156433223e-02,2.680125986178695241e-01,5.352192511896844418e-02,5.516870159570644305e-02
2.267069782748334060e-03,9.704916810458633081e-02,7.655727073939008753e-02,6.056553444171578621e-02,1.212004740867763698e-02,2.144934324785881599e-02,2.046764447844930113e-02,2.593816149728907505e-01,4.252680819750655900e-02,7.723587375635959651e-02
2.009060334497692057e-02,9.961673563775158557e-02,1.014275421306742725e-01,4.450904162603891434e-02,1.231555123421403802e-02,1.871445219290373066e-02,3.050543272338286649e-03,1.713287703058424538e-01,1.706611295539523301e-02,9.443219632061349011e-02
4.146736369124966529e-03,1.123508886018275282e-01,1.210505167458709452e-01,1.402508583910729023e-02,1.310902501210875655e-02,1.720015384126141397e-02,2.027230674153467777e-02,6.288821698017421635e-02,1.874391618733625524e-03,1.061436559123295903e-01
3.665264381150036554e-02,1.148181719011952540e-01,1.068766236072340031e-01,1.517990694794499155e-02,1.316526261241543483e-02,1.835166495128166472e-02,8.433980943663727664e-03,3.306002712926317533e-02,2.774550614475235211e-04,1.143719323965186468e-01
9.215461708429228960e-02,8.595359653633556640e-02,6.009607759840424751e-02,2.660629929576862132e-02,1.079873815497282147e-02,1.927045178561477903e-02,2.782790477447921740e-02,8.653303570399874245e-02,2.844703473293332986e-03,1.257495058360380835e-01
1.411913060286263955e-01,3.121938139305289669e-02,5.826435781693069249e-03,1.177417923676062073e-02,6.854002772112437018e-03,1.709068844120597772e-02,5.825030839992442755e-02,1.214482648358185396e-01,2.538777100322158961e-02,1.367081151084126867e-01
1.443614048732840549e-01,1.694460384826462426e-02,3.842487098325330502e-02,2.605480477550194129e-02,4.063714929775343911e-03,1.254107780958243698e-02,6.141836420547241993e-02,4.636990148792627386e-02,8.366132675055633350e-02,1.264188117189751215e-01
8.420099242026407582e-02,2.907656310418175322e-02,6.556136937332528170e-02,6.516996540421805817e-02,3.371616491826130192e-03,8.781979274370422736e-03,4.883907395355541192e-02,1.235241631373028282e-01,1.304874912213891958e-01,8.213979997940937250e-02
6.864366387946943451e-04,7.474917830997221749e-03,6.903251524848424969e-02,7.576771262339697388e-02,3.272075314527609410e-03,8.433208043316851171e-03,4.760494084837042783e-02,2.802978464054017294e-01,1.328477532874242362e-01,2.762386480048711207e-02
5.264808308324687991e-02,1.783713878077869755e-02,5.396674884152360963e-02,4.757575484000994837e-02,3.118459387852897009e-03,1.129096813325358717e-02,6.490761947227904893e-02,3.322575490226610251e-01,9.952568364900692133e-02,1.818103890496893405e-03
7.138641103420052814e-02,2.112980610416404642e-02,4.091746433229725977e-02,2.643574802326521291e-03,3.909314475570108138e-03,1.390725544766737223e-02,7.960487400383815804e-02,2.962706103027843429e-01,6.017949814714035339e-02,8.585821637786855004e-03
7.911595092854720179e-02,5.526966743196113502e-03,4.212650799970561050e-02,5.478565046074845846e-02,4.843191177615910857e-03,1.252050948489162596e-02,7.072571623256918016e-02,2.455126008523739745e-01,3.521356152318379229e-02,1.708920423129726279e-02
7.365777910782189686e-02,6.029454906196999447e-03,4.937655328182682934e-02,1.018185531534709365e-01,2.710245762561140550e-03,7.120660177702309475e-03,4.574354371300640154e-02,1.870706700765325803e-01,3.387841583295858605e-02,1.477243628504237155e-02
4.303537793069492357e-02,8.929131587819896798e-04,5.003803527630656944e-02,1.343444551411082377e-01,2.973902796391702640e-03,2.162547133380441581e-03,3.265095831010103589e-02,7.467903041231406525e-02,5.669346719408359381e-02,2.407944460557113336e-02
6.684636843422129757e-03,1.111640538833121028e-02,3.828567832045440267e-02,1.274034807848340722e-01,7.214021803019610157e-03,3.186435776419216728e-03,4.727766328143429703e-02,7.372429337857147602e-02,8.723810045430825666e-02,5.592513304331357682e-02
5.514417097130059828e-03,1.945244921418095435e-02,1.316213439794993584e-02,6.823638146414744143e-02,5.417226865105476651e-03,1.122265252183516152e-02,7.440423743940423329e-02,1.708153300295058852e-01,9.853810316288091897e-02,7.975685522252842774e-02
4.852104742880867377e-03,3.226871746544001524e-02,1.755427369101799154e-02,8.577540916304433188e-03,2.696442318545560438e-04,1.911412831480937408e-02,8.096431132547908527e-02,1.699741806889237816e-01,7.741012868563186544e-02,5.892843009021592887e-02
1.540990219060209450e-02,5.739075126747287398e-02,3.840511430881736465e-02,4.336097293332495661e-02,1.395412605667936765e-03,1.703313560532219995e-02,4.941267509304457517e-02,1.116140427597357709e-01,3.680528669834536720e-02,3.957234222096418959e-03
1.596404570753533203e-02,7.609223983336446673e-02,4.575853094258250375e-02,1.531937078948470733e-02,2.262651694996754229e-03,4.726676367023494897e-03,9.720551109649346044e-04,7.247857933253741558e-02,4.602122251316431364e-03,7.377677335657684132e-02
8.715637098804306787e-03,6.298180440441474015e-02,5.420498018203502577e-02,3.610454282845308727e-02,6.679775271112948706e-03,6.709814951190067392e-03,3.400582271546104263e-02,9.933508079984469663e-02,1.679117006652781560e-03,1.216071521580608800e-01
3.262700843123582557e-03,2.739380051286936443e-02,6.920141699979398542e-02,6.054077875624949701e-02,8.188421391359545012e-03,8.700057694008164061e-03,3.777232095319053157e-02,1.591112635592504265e-01,2.435636093194713456e-02,1.399259538173929229e-01
8.315093771218931562e-03,3.382140224043231509e-03,7.251147256368187244e-02,5.101782848275947246e-02,7.736098115478835108e-03,4.544969479669128468e-03,3.051175190520113295e-02,1.572629571734324994e-01,4.713872183310470476e-02,1.291652559669641265e-01
1.143296847924583221e-02,3.588340986917286368e-03,5.549641642347252074e-02,4.050474015600508126e-02,7.177853940334974481e-03,1.384407085310311158e-03,2.539481173510481360e-02,5.559554989186961393e-02,4.700355091599434099e-02,9.212297598113958208e-02
5.134496433867908466e-02,2.485383722004069415e-02,4.363714190304673890e-02,5.590298405435115137e-02,6.330902413776219248e-03,2.988555556410980169e-05,1.204514371560882514e-02,6.289305457004078226e-02,2.340939749803821329e-02,4.380453507549431080e-02
7.963930706304733764e-02,7.399910315345199774e-02,5.802501372443311795e-02,8.620420159389755033e-02,4.392451001543926786e-03,2.731800136992653706e-03,1.840054657628108215e-02,1.089523059199073163e-01,5.892937448647946053e-03,7.998755181948910553e-03
7.804889497614385385e-02,1.199900637486726873e-01,7.541702788279197600e-02,9.583961292040465985e-02,1.629208842321435303e-03,6.533004839026524714e-03,4.907654745508170657e-02,1.035914894349183601e-01,2.366258630650578884e-02,4.964623097110694959e-03
6.450433310949217625e-02,1.306907344464890985e-01,6.201987963542492099e-02,6.599813134392625014e-02,6.422405675535004842e-04,8.949824982034589385e-03,5.490720370078282925e-02,1.068936557984812297e-01,2.771521542848407946e-02,5.621905658144033154e-03
6.102932328756752178e-02,1.127394775580395081e-01,2.564798361915744673e-02,1.534328274127196891e-02,7.789323647095443325e-04,9.585532503775045024e-03,3.608282948251494149e-02,1.091146518067773741e-01,3.031092396868319272e-02,4.776243810830301667e-03
6.201202492116241610e-02,9.300486667399274210e-02,1.451280819144265544e-03,2.315910241566174199e-02,2.019653442276301246e-03,9.250399061438473527e-03,1.747874687627654078e-02,7.166400124759633727e-02,4.386326914768411828e-02,4.335729677937972659e-04
4.914641785351113457e-02,8.394846208458597858e-02,8.889244368899873461e-03,3.228503002842834230e-02,6.810801027362837698e-03,7.047023730519797781e-03,1.631348332183435099e-02,6.131076499196044804e-03,6.842467126533963162e-02,1.107985615367769981e-02
2.008276979041608706e-02,7.931867885440654908e-02,4.645516784700329249e-02,1.313000326227283313e-02,1.145405640637485976e-02,1.635038028253063633e-03,2.458217380834364085e-02,5.407198263720752046e-02,9.251867525037511808e-02,3.167036235379189907e-02
1.162005489021983654e-02,7.018085514676734860e-02,9.622108516043278992e-02,2.149215955475813900e-02,1.419257037294585806e-02,5.988492027216981914e-03,2.621647465089329415e-02,1.087100383991047858e-01,1.016155800372224444e-01,6.576628197724447566e-02
3.411753628830312135e-02,5.631850132807440790e-02,1.152578503594870879e-01,4.912621687502522622e-02,1.494830370782733106e-02,1.319697879080414769e-02,1.946569543763295579e-02,1.750698185368450843e-01,8.722017997512254706e-02,1.009199041757903870e-01
4.365152232230965629e-02,4.357151872740278042e-02,6.677373284406522280e-02,5.229925111365092000e-02,1.519474039096073946e-02,1.876130575335000980e-02,1.227667457794104355e-02,2.514701241968338996e-01,5.454861890351163367e-02,1.008181573954839150e-01
4.079776144142185923e-02,3.466560991870713815e-02,2.109091311554163461e-02,3.649432820527739180e-02,1.603715260049291477e-02,2.376699914873749500e-02,3.059359139676522295e-03,3.130901628727737473e-01,2.016225839125914548e-02,5.514028915713237167e-02
3.228222283608658816e-02,2.980402926307345809e-02,7.685794792436269340e-02,2.076728516925133855e-02,1.637516638098335253e-02,2.868181244371260583e-02,1.601958578092636462e-02,3.257592390147948103e-01,2.728376136029956201e-03,1.234605984758456107e-02
3.276308168919531832e-02,3.373116252672725413e-02,8.226469545454243026e-02,1.169858736216996924e-02,1.388193185598829080e-02,3.042697707123552878e-02,3.737762902444018848e-02,2.772073986245516264e-01,1.276290909449386696e-02,2.015297982423254128e-02
5.112892178071900412e-02,5.045263717909946599e-02,9.238300707291030589e-02,1.457560838764422606e-03,8.011923652893363293e-03,2.531531662499475824e-02,4.038132250477730056e-02,2.111144045729440033e-01,1.326261964399208515e-02,5.882177805348393768e-02
7.324967990485563296e-02,7.279654395372668618e-02,1.442703707940881097e-01,2.684556489509654434e-02,9.951827986908444185e-04,1.523400160015145853e-02,1.907339732938325566e-02,1.933805139341744916e-01,7.677006867671037557e-03,7.423243598509229879e-02
7.061784601702551789e-02,8.847520917576771893e-02,2.039782322069211284e-01,5.523216435712121480e-02,4.649850724984560743e-03,6.606136394881373559e-03,1.035668931039004925e-02,2.225947654554144561e-01,4.223399824396637837e-03,5.244170647090982268e-02
3.253354773618748197e-02,9.231928379866760626e-02,2.248362077476922516e-01,6.836254966679303213e-02,8.616671086103417157e-03,2.185314643172990394e-03,3.212508249297540974e-02,2.199130090226839862e-01,1.050162624861292193e-02,2.504140345327076148e-02
1.972839708627166511e-02,8.281446645416641605e-02,2.076112121476984818e-01,5.906330546038119494e-02,1.163464435584159531e-02,6.589254714169491892e-04,4.349478794544668625e-02,1.308347322880926145e-01,2.114096696857431165e-02,1.955847651066845022e-02
5.828034768284308387e-02,5.733048580369032310e-02,1.810537301260335685e-01,4.097463973545841659e-02,1.243487575573903013e-02,2.552552200216358282e-03,4.354738069041486082e-02,2.771671944718523753e-03,2.421698983601993857e-02,3.236280660026683020e-02
7.474628362042540219e-02,2.488992678454820390e-02,1.607472107909281023e-01,3.669718016829768420e-02,8.609787156070879133e-03,3.739905439289806753e-04,2.914757056099593485e-02,8.731802195117036036e-02,1.687435070075631385e-02,4.118244356850855187e-02
6.983708536145702417e-02,9.062587207123776883e-03,1.446272748881422543e-01,5.523750595314238371e-02,1.227981257253905629e-03,5.288744953867484735e-03,7.705030198626320118e-03,7.183852121410015668e-02,2.493022383124433340e-03,3.127852523207943353e-02
3.904062046683354215e-02,1.961882294134461094e-02,1.245373605217054841e-01,8.496754473950916819e-02,4.679927306658246064e-03,8.656671002116974462e-03,2.547223800304686606e-03,7.658815653385147443e-03,1.539107539299578928e-02,1.227738413753252759e-02
8.763433474838060525e-03,3.643417092340937857e-02,9.276238387346155689e-02,1.092144247767708465e-01,5.568329409604256229e-03,6.949395773174446046e-03,8.479096616731750941e-03,7.277785367927061544e-02,2.373959867789515385e-02,5.962247712779423538e-03
3.908327393789400028e-02,3.797343258127737486e-02,4.986909427135827882e-02,1.179747663764626475e-01,2.426989582427492142e-03,3.435588935438743229e-03,3.203313256778216045e-02,7.388179492287458294e-02,4.772884330539721269e-03,1.435431496384791290e-02
2.557909481902881366e-02,2.746610290018068265e-02,4.404439827290879475e-03,1.025389112409020032e-01,1.964705324815010576e-03,1.149504727086395409e-03,4.860048697673695350e-02,1.585273274220717205e-03,3.583916708975513205e-02,1.527248285822391076e-02
1.582473216956467588e-02,1.686396741231973445e-02,4.200110054059121023e-02,5.825421768610775097e-02,5.810190705008426437e-03,4.266166797938649672e-04,4.317337726253951680e-02,1.442357172640643670e-01,6.645482962316802411e-02,2.216188017549072450e-03
4.584674770560897422e-02,5.134855162178102346e-03,9.645549362465498378e-02,1.378432454293326880e-03,8.296794785895638194e-03,1.935460099700898320e-03,1.896409806579215859e-02,2.937532563131436403e-01,6.565206323658213938e-02,1.801720183516100637e-02
4.312270644019315646e-02,1.246170768201224598e-02,1.515687860120346064e-01,3.676157122356638052e-02,9.434272949726254728e-03,2.928718579190862231e-03,2.830275222482306601e-03,3.484945324947325007e-01,4.237334381046837378e-02,1.089177024623489906e-02
1.279412053440815399e-02,2.904632192052368153e-02,1.773431702504026375e-01,4.196289799789653524e-02,1.020138228778641291e-02,4.688577301254276061e-03,3.394873066884291149e-03,2.617738183009978292e-01,1.628400253200350950e-02,8.844626130494647603e-03
2.970329504062286727e-02,3.507027107913125025e-02,1.536007474950073226e-01,2.598086495139751567e-02,1.151169872062086583e-02,9.636867207656260592e-03,1.682380279104747287e-02,8.641061508299974214e-02,3.408676620747790650e-03,1.244701486357833835e-02
6.603050337005211823e-02,3.487726130971303962e-02,9.909736876359877267e-02,2.572907466838570550e-03,1.306922377454756978e-02,1.683665898695094199e-02,4.480556735291012921e-02,9.966237994821278146e-02,1.637477817482218753e-02,1.209665583065476502e-02
7.910624601001187139e-02,4.308467930140164742e-02,5.406368345000730352e-02,2.083937353100901238e-02,1.376792031874997033e-02,2.118677467071687637e-02,6.581106152882419680e-02,2.535695269808845298e-01,2.334912680045837102e-02,5.011992781985549067e-02
6.607951977263371024e-02,6.714507987074885831e-02,4.560030776244807654e-02,2.925284906578514213e-02,1.273157977211950530e-02,1.820116625339157287e-02,6.167109015301126818e-02,3.414506033351216718e-01,2.656603527212264212e-02,7.966428497458086233e-02
4.007431367164376174e-02,9.929763869386430686e-02,7.787830897879727265e-02,8.118785181828406389e-03,9.949385596328026715e-03,8.350093119188026908e-03,1.837093511885105543e-02,3.310414454738629386e-01,3.200360162006457565e-02,9.353132660939481036e-02
1.401088909667842775e-02,1.242763552188062420e-01,1.342382879268471385e-01,2.988658917385278793e-02,6.741322908478016018e-03,3.163539348680815926e-03,4.929715201366895866e-02,2.511458974771069719e-01,4.502151425226134929e-02,1.017150953552668213e-01
6.228979909987699716e-03,1.328429405839575694e-01,1.787506173025999179e-01,5.106307932211134187e-02,5.211659464657712910e-03,1.017011308372132126e-02,9.825626006491106068e-02,1.972264878419265899e-01,6.323325474925073353e-02,1.135267898508056511e-01
1.514673179915306152e-02,1.274976751430515476e-01,1.800665737123406107e-01,4.061855288487287163e-02,6.165860421281167507e-03,1.004994369128173366e-02,1.019727747698609827e-01,2.269429584839445790e-01,7.692021740569210397e-02,1.253704068354418166e-01
1.166728204561761489e-02,1.149468533347572513e-01,1.425375837433973669e-01,1.713949375366842845e-02,8.117222806069976718e-03,5.229520204769615849e-03,8.046585862631773500e-02,2.949087471254147053e-01,7.938286036636975351e-02,1.322971771431831756e-01
6.324809817537623349e-03,9.864883708892117908e-02,9.538118128714771771e-02,2.421461315698407273e-03,9.262967655339513981e-03,5.424287394753278318e-04,6.632025793867704633e-02,3.286428105383973342e-01,7.612464108165990784e-02,1.399555877960633743e-01
7.064248812164008323e-03,8.282732991434929581e-02,5.712429593851290482e-02,1.698560327115670922e-03,9.644020883434934258e-03,6.357564686353959355e-03,5.914509053389901960e-02,3.101801746954350736e-01,7.926367875461248769e-02,1.538883087151619866e-01
4.900418438131249298e-03,7.532562856078847680e-02,3.043781156172958510e-02,4.255686137655380428e-04,1.027931983428024935e-02,1.203822330425884275e-02,4.175178817825220962e-02,2.422183711719375632e-01,8.977215318579810643e-02,1.658874971298670564e-01
7.104401951396566335e-03,8.112331068301852077e-02,1.510935335118742014e-02,1.110292586852263015e-02,1.066810991924394166e-02,1.367127439135735513e-02,2.599891735597825368e-02,1.052853371013283690e-01,9.084829004650839257e-02,1.608821785769757873e-01
1.069633787300217076e-02,9.845951523518926829e-02,4.815966053601549932e-03,2.574886956255429196e-02,8.740637134323549565e-03,6.876085479302125429e-03,4.353589531770286208e-02,9.523374952278049199e-02,6.781132551404754627e-02,1.344829471845116753e-01
1.542585147075114724e-02,1.176435418928422766e-01,1.239829487885972525e-02,2.524600773565124218e-02,3.922780315392808935e-03,5.225701918838573067e-03,9.167613778686817261e-02,2.933057919383761369e-01,3.012199240310530629e-02,9.996465229810880260e-02
5.558530623343878319e-02,1.186673601209663198e-01,3.791255471755602263e-02,3.222190132673572426e-03,1.358784438584360703e-03,1.334116865775331756e-02,1.250050648945750520e-01,4.135463289953741350e-01,1.007863839775184622e-03,7.865049497835958914e-02
6.838088535161697401e-02,8.568271173410060837e-02,6.044433601423179064e-02,4.543152192335556810e-02,4.347422340773905713e-03,1.241046585605555704e-02,1.098362194501962541e-01,4.165242790998026634e-01,9.901268588546494054e-03,8.492325364433499224e-02
4.004052532203669634e-02,3.315167400116269397e-02,7.011929365495182809e-02,7.014460671037436867e-02,4.404262620634250523e-03,5.486083502519618037e-03,6.120380355415535462e-02,2.990729983018599603e-01,8.334365561186919680e-03,1.165203169944878103e-01
6.257251157415488763e-05,1.382073362183260969e-03,6.320194232319564787e-02,5.884391530979620616e-02,2.301205679088833521e-03,2.255573047081135731e-03,1.931322365313824577e-02,1.233747858597144670e-01,2.886360760482193852e-03,1.492415874655247665e-01
2.215811292881841518e-02,8.879982776086540325e-04,4.158073202772901572e-02,2.047088712670827940e-02,3.182267056451995113e-04,7.211636191646793488e-03,8.793392840973430352e-03,2.409391614308344781e-02,2.339569675579471902e-02,1.457694558102635707e-01
2.816369889294380660e-02,2.269010062974049363e-02,1.776011951618590781e-02,2.279898251428984571e-02,7.159276011029793406e-04,6.241761570856657268e-03,2.508007856334675337e-02,8.925715572271526732e-02,4.038867878213586032e-02,9.010884585495701482e-02
2.519246502218202427e-02,3.554539653156979506e-02,9.783638800176266276e-03,5.635723827712614542e-02,2.712045375524265497e-03,9.864166564653876340e-04,4.659164975352632354e-02,2.466477702835778163e-01,3.604395568097792241e-02,1.177947725273039044e-02
2.924484711385946008e-03,2.208637103166374849e-02,2.207287787725481162e-02,7.579858117546969809e-02,8.164038135977944380e-03,8.720275982184196376e-03,5.367297342754254186e-02,3.450245408460790308e-01,1.255246046993844199e-02,4.328219646800283982e-02
3.819108183893782371e-02,2.092775504152590699e-02,3.759734975925095590e-02,7.982021642319876709e-02,1.265380910765540219e-02,1.005979509182476639e-02,3.913299941812915794e-02,3.271199440984014495e-01,7.437558208780991123e-03,5.874245664692161195e-02
6.379146827653078833e-02,7.762826116298859880e-02,3.451829198085384909e-02,7.247591505629918940e-02,1.533904298199786562e-02,4.842803561580036505e-03,6.611306405457790560e-03,2.679869355718327850e-01,9.105263279455266812e-03,5.177384342927972283e-02
4.293155228870321194e-02,1.162948566880022405e-01,8.291375367847486980e-03,6.502278906264712111e-02,1.663176555072030938e-02,1.680969965422847824e-03,3.376035387447487435e-02,2.612006151261694886e-01,1.170001078756525981e-03,5.069755229048768241e-02
9.891386469874714066e-03,1.184202594224438576e-01,2.437122051175799609e-02,6.238641795930024991e-02,1.581532830463569517e-02,6.433672106602619616e-03,6.677518341101068566e-02,3.072359054724559391e-01,1.376932520692394739e-02,7.854840557023946845e-02
5.390691198546344182e-02,9.717129479990063712e-02,4.166479960581686431e-02,5.413166260890250187e-02,1.203587497890534590e-02,1.015353303543571097e-02,7.760373233274464599e-02,3.293031976974573616e-01,2.819713822564914874e-02,1.335528314959995300e-01
6.727459905627353187e-02,7.425955728263380906e-02,3.485239503641351932e-02,3.058021371850795644e-02,6.659348043469566318e-03,1.255384503962966164e-02,6.247732439165976093e-02,2.900572174614260423e-01,3.886945731250757846e-02,1.850656539146315060e-01
5.535303743972334878e-02,5.337921349814210570e-02,1.040211325892066892e-02,4.575076360964047250e-05,2.378874465734641397e-03,1.100217596991331405e-02,3.279510181631503651e-02,2.487571784322669677e-01,2.863745130490209095e-02,2.134871068537468053e-01
2.979018942250583057e-02,2.739812759093036496e-02,2.188445927967347382e-02,2.206760020814283949e-02,1.505601859527402886e-05,5.280208719348271698e-03,6.742648794514759930e-03,2.763417188167984206e-01,5.751805639117778257e-03,2.359517074050759278e-01
2.580917868284272887e-04,2.983442058335492031e-03,5.502234476419082254e-02,3.172596390942176298e-02,1.934304798743222359e-03,4.489027752462486994e-04,4.846916052562154874e-03,3.561527062814344169e-01,3.679365260171731100e-02,2.638593934235125005e-01
2.463825740653393867e-02,2.683112551036958768e-02,7.887409867340154646e-02,3.622900413359881472e-02,4.003255944506857109e-03,2.972677613383861456e-03,7.544392751951626425e-03,4.101566316807753743e-01,3.856364768894158385e-02,2.686671449760120733e-01
3.768768391906856391e-02,3.139836151997745656e-02,8.130167493444820370e-02,4.225783379536977163e-02,4.179084040112066023e-03,4.251942166437863366e-03,1.536545303765677120e-02,3.925160267635647848e-01,2.767480280642768686e-02,2.254505823078702953e-01
4.260796332599006697e-02,1.144025581601923469e-02,6.095414184741466956e-02,5.293031459445497744e-02,1.116402398834845421e-03,7.549715988250684656e-03,3.084751745294097083e-02,3.186150281547825980e-01,4.466511753194969681e-02,1.576535706025092576e-01
4.044484081129746944e-02,2.315597598663044279e-02,2.893872299095432560e-02,6.639041985090189668e-02,3.216702246149128527e-03,1.185374097993756315e-02,4.198352383580995772e-02,2.280086470552408207e-01,9.526866672631326138e-02,1.055133370069226140e-01
2.555125780397330196e-02,5.062571641617089058e-02,3.007283517230496632e-03,7.190518952999847002e-02,5.934265434874160319e-03,1.302695310872643841e-02,4.045486625651197043e-02,1.500961794576729236e-01,1.383980969727690857e-01,7.480993514260894650e-02
5.652831154784995673e-04,5.669308285731571723e-02,3.016403330537750782e-02,5.592727147414985889e-02,6.288567422819003883e-03,9.358270277706453449e-03,2.890072134700559861e-02,8.988827671244978279e-02,1.382974514542020805e-01,4.335009472130929575e-02
1.913299257167349818e-02,5.064134676311248667e-02,5.825328586534724018e-02,1.489033628893749774e-02,4.968117612212592446e-03,3.810397233715859255e-03,1.159913086285074488e-02,3.895373358759265242e-02,1.029583463872048577e-01,2.564724904070709785e-03
2.421922205849007595e-02,5.276905879621451856e-02,9.884709811901754017e-02,3.978913754206898912e-02,2.500971041092346376e-03,5.253650568702126090e-04,7.535683067336245572e-03,4.040125070541349117e-03,6.170669873319760412e-02,3.094537757564943745e-02
2.077284752721881775e-02,6.462447170344133573e-02,1.460607632340728268e-01,8.216632550615100838e-02,2.744057555187674746e-04,4.184260847153308959e-04,2.293442134476708638e-02,4.149302480800205750e-03,2.687317671989175941e-02,4.216017466262588637e-02
1.802573684670704182e-02,6.402647180834619700e-02,1.666629046964334393e-01,7.987160871923473793e-02,1.863463331454908323e-03,1.291537062769168489e-03,3.362867858259903364e-02,1.195984175532786853e-02,7.269661729532875261e-03,3.871628326669074305e-02
1.887071109459344254e-02,3.638310171939253962e-02,1.374328780426683494e-01,2.316657036128267483e-02,1.652025307991554460e-03,1.249681778030115259e-03,4.273848713112300690e-02,5.728915201771592192e-02,3.859322834802295099e-02,4.033007539350312587e-02
1.832909811896295607e-02,1.212062882567886257e-03,8.196965568470671037e-02,5.131516652848378685e-02,8.224288941211492380e-04,4.459683812378441737e-04,4.685927649269565343e-02,1.225930149764035554e-01,4.916276642348690190e-02,5.429026741362177194e-02
4.448264074452652761e-03,2.076262804822581742e-02,4.561306963630930300e-02,8.939215275082153245e-02,8.665338548593188098e-04,3.196864611977243403e-06,3.902270583193327008e-02,1.562893499409989118e-01,2.939386600132048305e-02,6.593955555951368230e-02
2.553144862259914410e-02,1.953823261970983813e-02,4.300738284558845020e-02,7.622919430259945950e-02,2.119403316985500087e-03,3.001839166218918690e-04,2.411539787135395449e-02,1.570543351445108093e-01,2.305929855170920154e-03,5.455680977918900276e-02
4.910384617970758869e-02,1.679246510747667634e-02,5.024368361435150449e-02,4.499601955221169819e-02,3.955501884851611409e-03,5.310517175865175996e-04,1.749277421486105863e-02,1.755043329714016664e-01,1.777073144558683621e-02,1.914766555757071997e-02
4.308017881602357879e-02,2.062985854106821199e-02,4.159921220660381391e-02,3.028356523712848539e-02,4.950989239319668507e-03,2.049543187566225542e-04,2.459289101353500512e-02,2.319412519426818919e-01,1.071310135754824019e-02,1.558435022041492445e-02
2.193675494458124930e-02,2.222109168533446810e-02,1.670675524023612635e-02,3.561909233997220120e-02,3.186522870824696433e-03,3.885014579822472589e-04,3.270303293397443245e-02,2.830014992179759048e-01,2.836547332737342046e-03,2.350139786254049068e-02
2.022597148994179084e-02,1.980855968172405904e-02,1.019821200710449571e-02,4.781942124515501519e-02,1.583987924752364336e-03,2.089656825376327246e-03,2.915350635662343828e-02,2.840957190013242428e-01,1.025022879859466447e-02,4.669013022285195026e-03
4.088704621623483193e-02,2.127418365994178731e-02,3.464981021280737206e-02,5.879515453155199911e-02,6.728690782824720690e-03,4.413344208829049140e-03,1.910321658899387723e-02,2.476203533777392718e-01,1.418474787628224917e-02,1.670465566632561849e-02
5.473003181800766698e-02,2.380297013659102637e-02,6.470667034982742483e-02,6.449354935846324244e-02,9.631170357674004659e-03,6.016598015460335874e-03,1.485809443004266692e-02,2.079307223172969787e-01,1.898665096173267341e-02,2.137948695431542492e-02
4.440803906955990976e-02,1.845382879284730021e-02,1.048696677952328793e-01,6.069010953994970203e-02,1.036125670695019034e-02,6.828069434466639727e-03,1.604814414449425714e-02,1.646354960055727013e-01,1.801222643067756576e-02,1.552350409278577953e-02
1.691388473329107078e-02,1.303117874294755681e-02,1.462754567325986188e-01,4.894167370064700373e-02,9.736222581011521118e-03,6.686400735043519436e-03,1.572472684270547968e-02,1.134989156160563090e-01,3.048402611363302400e-03,1.799570097418192599e-02
1.530932199297552025e-02,2.210773451992056188e-02,1.718148407663795951e-01,3.464678827334369271e-02,7.341388641193331843e-03,4.569856478038784517e-03,1.611379737653553107e-02,9.117341895050834477e-02,1.886691587827568281e-02,3.226857491702483927e-02
3.648448545668586673e-02,3.838950976898601597e-02,1.722293870323028386e-01,1.710811404443571271e-02,3.660544426198363444e-03,1.049440444199898660e-03,1.959964242843791407e-02,1.184056484046666913e-01,3.000047516863896258e-02,4.055959815817238023e-02
2.891870844423746062e-02,4.402852283110526149e-02,1.584900720480720004e-01,6.793706393169842220e-03,1.042445815024551237e-03,9.978253385181708873e-04,1.671659767479738434e-02,1.462146684120001205e-01,2.291157923040526914e-02,2.796306619014049880e-02
1.050341390766425936e-03,4.268919103100411727e-02,1.476581035400393316e-01,3.107870922199583441e-02,2.138811300137895234e-04,3.535686916843211068e-04,3.677689122975929831e-03,1.309031951983015973e-01,5.209964509345109580e-03,3.089544958347882880e-03
1.893115501816277496e-02,4.656546013146755508e-02,1.368694295661766203e-01,4.479282376226721707e-02,8.681325988435608688e-04,8.919288220526818420e-05,3.346221429304957820e-03,1.057640190413166176e-01,1.412673830952390630e-02,1.327705772279403652e-02
5.228854300177818160e-03,4.339232516467306233e-02,1.107057030267116077e-01,4.695764967138667256e-02,2.964980500603408859e-03,2.457735891331639094e-03,6.486684662469237826e-03,1.106032090083964720e-01,2.789049663142689414e-02,1.401564205166432216e-02
1.952647927822356855e-02,1.471684616403157869e-02,7.404362036068248831e-02,4.864447655551580596e-02,4.198598142361924766e-03,5.706129055635681714e-03,1.494421273902550584e-02,1.157371601755479984e-01,2.296049954987080394e-02,9.002255792218291641e-03
3.059761337511991350e-02,2.662551622056902323e-02,5.268726179713006247e-02,5.860718026608190828e-02,3.861602731281105552e-03,5.025316061751852921e-03,7.096007600646647533e-04,8.409371517066067947e-02,1.153619935690244555e-02,4.900790134680505818e-03
3.713742117789683300e-02,5.319742255869961550e-02,5.573776499444998977e-02,7.235772649889507524e-02,3.469750949437217825e-03,4.991002601121436724e-04,3.281659654109678192e-02,5.003089100457022709e-02,6.522034005106622234e-02,3.931597502912666589e-03
6.291824800068637757e-02,6.014414458392391971e-02,5.891198096462485490e-02,8.002193449256056468e-02,3.513311512089300950e-03,2.644295030562031270e-03,5.396105468744308298e-02,7.480643148805540821e-02,1.091504652106339013e-01,2.054271821535222711e-02
1.020275029150268936e-01,5.807308146292478046e-02,3.723970112575387265e-02,8.175162085135531664e-02,3.087421938054530669e-03,1.130701350056206042e-03,5.219829770871351610e-02,1.651217713230364037e-01,1.222038257693174174e-01,3.669736121567135356e-02
1.177464996852043005e-01,5.087903148511843665e-02,2.101428906893340609e-03,8.517944303784688587e-02,2.513831843172742789e-03,2.453473082382641359e-03,3.955113735179289353e-02,2.743654605415176695e-01,1.078250212443850886e-01,4.600163511670415928e-02
8.764347946967047942e-02,4.174347565524026693e-02,9.232071514343836299e-03,8.644390551130914924e-02,2.799243149366930153e-03,4.036876896837193057e-03,3.266379648194785157e-02,3.517186585790258446e-01,8.430752188742296482e-02,4.996913997083886338e-02
3.200252854231230848e-02,4.002824624687550265e-02,1.984950956654739015e-02,7.015124240575104642e-02,3.302878662265438213e-03,3.356045922707473570e-03,3.519185580264811569e-02,3.741320625699396940e-01,6.716479013174607438e-02,4.619608207843247522e-02
1.000299880395569274e-02,4.840501616411607699e-02,6.185994611902768947e-02,3.623878403938046028e-02,2.841678397960631288e-03,3.162314577746201845e-03,3.653978121978430221e-02,3.554428960881413913e-01,6.176440687653216716e-02,2.921743450453961888e-02
1.855321694508826197e-02,5.942033080034081483e-02,7.593374707386821298e-02,7.740855537744899435e-03,1.908601996877618218e-03,5.131264002405884483e-03,2.586879498246520345e-02,3.240213177119345977e-01,6.366993035976094284e-02,6.134879241255596430e-03
9.366032314902985462e-04,6.845119037571258114e-02,5.301034692000272663e-02,1.596472097480667457e-04,1.577189282173253621e-03,8.571032046340082075e-03,7.125227089249802463e-03,2.847218139463101871e-01,6.290924551103058149e-02,6.958673511260544606e-03
2.462104820246076298e-02,7.431381541974846350e-02,1.823270045705631046e-02,1.540507261556271421e-03,1.614198343070101472e-03,1.222934759256682699e-02,5.393980632607974293e-03,2.261538839370151044e-01,5.272771552826902713e-02,3.390817604195016030e-03
4.359026971822331509e-02,6.999631613808213193e-02,3.013699868893122275e-03,9.910956803595039749e-04,1.412507975952732387e-03,1.520298659884851064e-02,6.202040804539106153e-03,1.607640152444773374e-01,3.505705163016802073e-02,1.372727805088242228e-02
4.946588770510588345e-02,5.035401307513428376e-02,4.319721605368627079e-03,6.971434194022813752e-03,1.395562103871826002e-03,1.614890458639915358e-02,3.664656392912391501e-03,1.167572491047641492e-01,1.653427189943804110e-02,3.895957438877492574e-02
3.801101315086986843e-02,2.481832932162934130e-02,7.925754845098050699e-03,2.921876036122360992e-02,1.985860388267391644e-03,1.374659529193977998e-02,4.860105283393039918e-03,9.500588534182716205e-02,1.903754657188296093e-03,5.658202734108829651e-02
3.333567254485603117e-03,6.657466411206356197e-03,2.013499942748426738e-02,5.623676856351142450e-02,2.406713343471924942e-03,8.631526821196885274e-03,6.544778997011157021e-03,7.708149703938310671e-02,8.418768122324287936e-03,4.442102353541008825e-02
4.849727759018181150e-02,4.480265737261724529e-03,1.927653806226591743e-02,7.009649381901625342e-02,1.874317288873105685e-03,3.455663539735137103e-03,4.924175387856927384e-03,7.161103477520254501e-02,1.681790590312658498e-02,5.793643673350692275e-03
8.787644334954876346e-02,1.659399889135940165e-02,1.053436230178969590e-02,7.108835189639314822e-02,9.415065362266037503e-04,4.657295144908642041e-04,4.359114026137322212e-03,1.052320474388265953e-01,2.512294381132414850e-02,2.470008716843633337e-02
8.691994788885173961e-02,3.047102152798512181e-02,1.269195661537487335e-02,7.193755213434528673e-02,5.625127930643394978e-04,1.633317740474998824e-04,9.931585961606061858e-03,1.589894377698475025e-01,3.403016414530381228e-02,2.554848860271382791e-02
5.700734457556981549e-02,4.124931411751925348e-02,2.591725495790101960e-02,7.357830340843828087e-02,7.431168981850329053e-04,2.137808173733505386e-04,1.856814855721337226e-02,1.627510245526994637e-01,4.518132021819366156e-02,1.180037813239465105e-02
3.592925001004537711e-02,4.657773287725890804e-02,2.813793864730432248e-02,6.205667433864042737e-02,8.491937551628652228e-04,4.178170962281565343e-05,2.424492817552307763e-02,8.359600612516361606e-02,5.779998107118652917e-02,1.218686258944738122e-03
3.517122674134653959e-02,4.761976399190822468e-02,1.125573833513266592e-02,3.221774281136938894e-02,5.618221871402410365e-04,1.575603617941840565e-03,2.599834732713617383e-02,1.698424222579111853e-02,6.441634793122320846e-02,9.373391015372038726e-03
2.932537256244105786e-02,4.957649723739204761e-02,7.716533482319903013e-03,1.368084574051050932e-03,2.114721513857342272e-04,3.142337423885391019e-03,2.444513817051893745e-02,5.418732021128309234e-02,5.989856151299361581e-02,2.119386665301851991e-02
2.819749400350704278e-03,6.004068679298479871e-02,1.760631874887881934e-02,1.099270760839516151e-02,4.043901606815761946e-04,3.007920948958787283e-03,1.671649604941703032e-02,2.694180084372498757e-02,5.206326640233277514e-02,2.057425884255039902e-02
2.660749684560879957e-02,7.626410577355498266e-02,2.645417168116366916e-02,9.156029761058811015e-03,1.132810549351667175e-03,1.591206681859019725e-03,2.217394850990274911e-03,1.411089681674991200e-02,4.998126130098055203e-02,3.374368303086982580e-03
4.098645674671798356e-02,7.907584857821328694e-02,3.949299003016105286e-02,1.526233498216286386e-02,1.504764436657271337e-03,7.421107458032868932e-04,1.110300952576308113e-02,6.679522782732418007e-02,4.601993210728642925e-02,1.165841248802048161e-02
4.658222563301801789e-02,5.411188162198016932e-02,4.860571100725480376e-02,4.175079121378537372e-02,9.631984775153894967e-04,5.399937533153379571e-04,1.290743314096066963e-02,1.427452596199570434e-01,2.629097719429012922e-02,5.987280221194496953e-03
5.245235175292996960e-02,1.355779069947139065e-02,4.640323865414987259e-02,7.920553165449566169e-02,1.581239134247019551e-04,2.959898704233379814e-04,1.231808942619948277e-03,1.723768794885310041e-01,4.484853783918091481e-03,1.440877104314721574e-02
4.962559008620995304e-02,1.806913661691936582e-02,3.469626542515646256e-02,1.081541132861908033e-01,1.229768397277879654e-04,1.422208701023105560e-03,1.606185375741129781e-02,1.600143714809897366e-01,2.601118207339376751e-02,2.637857349712871904e-02
2.508285845355690685e-02,3.060928321372478889e-02,2.368434458680628713e-02,1.143249108212637116e-01,1.292445178917252030e-05,1.586004366392290222e-03,2.872826526581539683e-02,1.681087376320186122e-01,2.783709416388452373e-02,1.903789060732259328e-02
1.653565428393974357e-02,2.652191818206928522e-02,3.118846514548292287e-02,9.436563616251969489e-02,5.687658805872761051e-05,1.079096890156495481e-03,3.042597445900860342e-02,2.156052788900822692e-01,1.596085253832621453e-02,6.434584719483986415e-03
5.401515691310624506e-02,8.188164422503863005e-03,6.645603915615828916e-02,5.660648670349783390e-02,3.232704037052727838e-05,4.120442574406269496e-04,1.919866039194501744e-02,2.602056396433368723e-01,2.113068535863347683e-03,2.793846426525310300e-03
6.921938103260755204e-02,1.533357473647405447e-02,1.057164809520109300e-01,1.946112756546400022e-02,1.086892226997523048e-04,1.339016507362987291e-03,2.746910854743319502e-03,2.852754396218052935e-01,2.215230215760497987e-02,1.900761432400082697e-03
6.207416968709977834e-02,2.464554651406097169e-02,1.054440531419186533e-01,1.528883045596996859e-03,3.700605653633921334e-04,4.142004637171102684e-03,2.672228979246894093e-02,3.335871167048119479e-01,3.532995848882720252e-02,2.281676171658962582e-02
4.436509736389476766e-02,1.080525403643137726e-02,5.307532086245116132e-02,7.615824131669227809e-03,2.672028938375812287e-04,5.740056719697055748e-03,4.006369918211585140e-02,4.304229927155630575e-01,3.220024422734974606e-02,4.961640016756683341e-02
2.331492760361264863e-02,1.302251161257413602e-02,1.355045993765359273e-02,2.801464882030153120e-02,5.404433231792026265e-04,5.241659105962136710e-03,3.683337628860295504e-02,5.257427849858934410e-01,1.631540665587973699e-02,5.829540261626275227e-02
1.342033585467891470e-03,3.213055502490731047e-02,4.884280815959856498e-02,5.274087556788897846e-02,1.181852021971794989e-03,5.125806484759473126e-03,2.402973689654490375e-02,5.462163649440574531e-01,2.430982959325307061e-03,4.342313392422585128e-02
1.089031394163725470e-02,4.705556393662364140e-02,4.503946580554525625e-02,7.936513726277169556e-02,4.793981219062285132e-04,7.411071970554251528e-03,1.355979013325866490e-02,4.783852251430610880e-01,1.647806841933172409e-04,1.903089076942940383e-02
1.245936646407329144e-03,6.175379580791556106e-02,2.445006946486462732e-02,1.048250746538897243e-01,1.100009568348873489e-03,1.030716195096049136e-02,1.021751959200127916e-02,3.737692023162125232e-01,5.455825486798100178e-03,2.135658246711963273e-03
3.570971577031114425e-02,7.303532460295342199e-02,1.810678344537708720e-03,1.181706263296959936e-01,1.840196731455276879e-03,1.078923322905527872e-02,9.889792850534130653e-03,2.868831284640638302e-01,1.323304624878127514e-02,1.554043102165428812e-02
7.262903296070860604e-02,7.951798251965805364e-02,2.873703481542559321e-02,1.082649992853459003e-01,1.177536210687965415e-03,8.701336222987871710e-03,7.034347248064812437e-03,2.365117652948529881e-01,2.272170259358265859e-02,2.041811484568596680e-02
9.551501511411525369e-02,8.562036562092617542e-02,7.274682740646019885e-02,7.758101421297636247e-02,3.186030837271123595e-04,6.307941562497040335e-03,1.034519436148453311e-03,2.219357150560405112e-01,3.612346443618275754e-02,1.815147147029408381e-02
1.006589378718377586e-01,9.143520810513489083e-02,1.190284007044769138e-01,4.300188517847287201e-02,3.094569316072403524e-04,4.859586939308399231e-03,4.598842265931643580e-03,2.381654647992600404e-01,5.129037169492401543e-02,1.080469991379537711e-02
8.929555796346820562e-02,8.999800744435683397e-02,1.546145570550791215e-01,1.820775747228542754e-02,7.321932375946996804e-04,3.743642561342874677e-03,7.582001918371824439e-03,2.627946288651719087e-01,6.283978634844195055e-02,5.017427751030066347e-04
6.579120540710335641e-02,7.686941909070633960e-02,1.850500760971565684e-01,4.789800757302904721e-04,6.684211527876924262e-04,2.822409088447836410e-03,9.999815666342705411e-03,2.628327081870533988e-01,7.069403472659227528e-02,7.154217877587715213e-03
3.951674114327623222e-02,5.506544943938521119e-02,2.230037577839860119e-01,1.507314733992195718e-02,3.416154460597883098e-05,3.239369411451938682e-03,1.675936817333638709e-02,2.307929232009444387e-01,8.173330781176184334e-02,5.310558523066969024e-03
1.467878309728500551e-02,3.004351855709900404e-02,2.633002392252719037e-01,1.777337148518377125e-02,5.750750103697104942e-04,5.017735542047007703e-03,3.205754411742632592e-02,1.891288766445461955e-01,9.894788179903303560e-02,3.862819456864587803e-03
1.609189351206887636e-02,4.892838876473720039e-03,2.903600478060736623e-01,1.697113798359345740e-03,7.891703814355196253e-04,5.827074602544414332e-03,5.573890899407188404e-02,1.550320836945371650e-01,1.148766686531910997e-01,8.020083241494637555e-03
5.498254327789280776e-02,1.868916859184255666e-02,3.097654938534795677e-01,2.513954024262416917e-02,5.737300499536383911e-04,3.555869334219985151e-03,8.286604967450819648e-02,1.215810254614764635e-01,1.234168236968673921e-01,1.348426100298177758e-03
8.423011334290958496e-02,3.865415652867250362e-02,3.447203122263219344e-01,2.403836824896928709e-02,1.233259715210306999e-04,1.043620799073455285e-03,1.094282397592371558e-01,7.042086943213579642e-02,1.326642574955258225e-01,1.833256097413952720e-02
8.376128490244526270e-02,5.393662459120902863e-02,3.850320031490563899e-01,1.907742212229389042e-03,1.028729232453512964e-03,5.194515466594188009e-03,1.351585386382009035e-01,6.138215746957078472e-03,1.517800812688421264e-01,2.803358575589092946e-02
5.519473247894345069e-02,6.477049075317908855e-02,3.683696088340411845e-01,2.794967675054797068e-02,1.209510928126811746e-03,6.553406723732554257e-03,1.562443146236419389e-01,8.513781814992950336e-02,1.653599280656945503e-01,1.970176231131222366e-02
1.418127581902869916e-02,7.050480614214994779e-02,2.555706572612577721e-01,3.941548097755138980e-02,1.181349151412278706e-04,4.476535954359036479e-03,1.641113930866976989e-01,1.211880748424075255e-01,1.424745350799266341e-01,2.771543868309626034e-03
2.705779298760824236e-02,7.071289633663487006e-02,1.111998931608519092e-01,4.000338491230316651e-02,1.194091544340808962e-03,3.897740705211940942e-04,1.597071326938425684e-01,9.812544217952029468e-02,8.322538320245045917e-02,2.007235452528113168e-02
5.554493940188828804e-02,6.884883315592131570e-02,4.271681722882752358e-02,3.376464154298302461e-02,1.122593979477928740e-03,2.579349270062847831e-03,1.557614290137203650e-01,6.111549040570511682e-02,3.384728741003296959e-02,1.351750989649463247e-02
5.625671282915401666e-02,6.980333658200774116e-02,4.767509704280600835e-02,2.296812774291526887e-02,2.368430830889105981e-04,1.962060871557969738e-03,1.534419863335999279e-01,6.780894477610101279e-02,2.994337531729929225e-02,1.345443868970501444e-02
3.003170068614434418e-02,7.322731315117012030e-02,4.123154671543002164e-03,1.620102300842779161e-02,1.232774321226371090e-03,1.440026328679199375e-03,1.329017601272731997e-01,1.216748021056441725e-01,4.085601648299250210e-02,3.624991607669420662e-02
5.764527163760869641e-03,7.424022476388619785e-02,1.464623563838299836e-01,1.857906983294563275e-02,1.099184106061624555e-03,4.457226862532810696e-03,8.056873048767763945e-02,1.847182356565552908e-01,6.854130062671371509e-03,3.448012517300497876e-02
4.044825161437483330e-02,7.090658563267071557e-02,2.989496445831904547e-01,2.243894885670557129e-02,7.872006497142862219e-04,5.032915737020079300e-03,1.126897775986639150e-02,2.384215709672536099e-01,7.417505955367738324e-02,1.120022548486149586e-02
7.261193300512251703e-02,6.581298998113711829e-02,3.347636679202328769e-01,2.188788233836563152e-02,1.087244183095864656e-03,3.655897566807279030e-03,4.774489049336966967e-02,2.933158617160186443e-01,1.406204759917516756e-01,1.266693228205068543e-02
9.098759863173105922e-02,6.005880498569395737e-02,2.803634537320380260e-01,2.421548819829615409e-02,1.250658772328176868e-03,1.711524551854004192e-03,8.347531808423257205e-02,3.448001753120565893e-01,1.520908912239193611e-01,1.865758290705614442e-02
8.025206981118616911e-02,5.144468579557927995e-02,2.307931372103901868e-01,3.482272633246696891e-02,2.976906344985323595e-04,2.013361070576814708e-04,1.005519016214810324e-01,3.585451325297738245e-01,1.325992317244523433e-01,5.863046273670972398e-03
4.820412679605729639e-02,4.026766716449872718e-02,2.046739966654055609e-01,4.497945182193185260e-02,1.085340457644964202e-03,1.971058958821543788e-03,1.049921725656723509e-01,3.125775975499683890e-01,1.162646343691920575e-01,1.180977978571869612e-02
2.369692444456016414e-02,3.199242467376037929e-02,1.730215269014978852e-01,4.634110586730690040e-02,1.215703203077549838e-03,2.789827458854440920e-03,9.518050299955008176e-02,2.302517722881050888e-01,1.016449499317912258e-01,1.946514900930507511e-02
2.438159919863756159e-02,3.119203203599314744e-02,1.503887821001698988e-01,4.396616020877311404e-02,1.683975285187797196e-04,1.488418349714786893e-03,7.655232327578352647e-02,1.556915670496136495e-01,8.105630526593787799e-02,1.160460967677006024e-02
4.293336951788770395e-02,3.509592086802523075e-02,1.585699981097924427e-01,4.303924663986152116e-02,1.413168278855918844e-03,1.457514453566984567e-03,7.533432832319268690e-02,1.134072275437326693e-01,6.486802950905019849e-02,2.907496784601638733e-03
6.343935645170302451e-02,3.522126562638736025e-02,1.739463530239732381e-01,3.514823096377101691e-02,1.111542085905478780e-03,3.509396662269825915e-03,1.144266866999695681e-01,1.047811417103664544e-01,5.549405990019547902e-02,5.417183204715745118e-03
7.550592807191980338e-02,2.561001688758301337e-02,1.892652239551230742e-01,1.161885378158919110e-02,1.083930452745622607e-04,2.964295529003510305e-03,1.767501739792918802e-01,1.215265864320772271e-01,4.585397024116535936e-02,1.104558568445735724e-02
7.394652971106550898e-02,9.435615814411543040e-03,2.424308747241710471e-01,1.767060953463275852e-02,5.075789732863325620e-04,1.317163456417304443e-03,2.169576761510631502e-01,1.417714838782571929e-01,5.334679718617253708e-02,2.730666902697680143e-02
5.827114008366173631e-02,4.204672981806122957e-03,3.242021743044671278e-01,3.320367623839616533e-02,3.025183021813194020e-04,1.122912668057696618e-03,2.105446218496965227e-01,1.329979467726966347e-01,1.002708649199257201e-01,2.069154425725996602e-02
3.254826170054251483e-02,1.078984176387808372e-02,3.540665096623947794e-01,3.021835202510864821e-02,8.392983169593800068e-04,2.413401572516504171e-03,1.715683303955593542e-01,8.543917523710453654e-02,1.594864729617948285e-01,2.801437414315051822e-03
1.386866951695884913e-03,1.370277871911489836e-02,2.938996100055883964e-01,2.094364557579338898e-02,1.771696802912705519e-04,3.237380377274454071e-03,1.255471362936904922e-01,3.091114929616159759e-02,1.767944134997534444e-01,1.765373445871660715e-02
4.524005156981775189e-02,1.591445587907854356e-02,1.906765858045441631e-01,1.349294537849632207e-02,5.545798492885331945e-04,2.975459900770942821e-03,8.547031072681375574e-02,7.434292804175308272e-03,1.417995066808534210e-01,1.613779709317226044e-02
9.087611246855525904e-02,1.529724297536026907e-02,8.196696086962662608e-02,2.693351599862211197e-03,1.627425126684584208e-04,2.736702369812508886e-03,5.336906899355893519e-02,1.650687751732981406e-02,8.528399404191218391e-02,1.625604432676645839e-02
1.152763917553949191e-01,1.144339230775682018e-02,3.684967607112663024e-02,1.579835199713478314e-02,7.108763890317517341e-04,2.774836502656743194e-03,2.845260921634691978e-02,3.139618511905387099e-02,2.332784418477343302e-02,3.144592417708415300e-02
1.033447564470566099e-01,9.717259595460556523e-03,1.301634757737098191e-01,3.633109316360691454e-02,9.128172903160634106e-04,1.953325584690502725e-03,9.796346516148737513e-03,3.571382003556920759e-02,4.151704256815876015e-02,5.082134298459312777e-02
6.939142914165993825e-02,1.351467532412577166e-02,1.191434785941191676e-01,5.279925818600430393e-02,5.773311383197855763e-04,1.877511214502903343e-04,1.736512311392404001e-03,3.880663108444139253e-02,8.040917387065259214e-02,5.666365115072929948e-02
4.028938709906879079e-02,1.817712957011343930e-02,1.012802661715515862e-03,6.447798061495431388e-02,4.975733124028241649e-04,7.262127514232031254e-04,3.355476530398386267e-03,5.463616852897145576e-02,5.837461950990344151e-02,4.775590081887666483e-02
2.260701820138840204e-02,1.788282420710471388e-02,1.203358922268402409e-01,6.811208977468698189e-02,7.154664952991356868e-04,1.834379443902784887e-04,3.609180892781635105e-03,7.360523226933486651e-02,8.395744560270281681e-03,3.519240086539385248e-02
4.353563882809096189e-03,1.434592608858827403e-02,1.597649497151971409e-01,5.790760562071724932e-02,6.320106884106034941e-04,1.304597064498718654e-03,9.367027066886015815e-03,6.854297938477876828e-02,6.155637953801039453e-02,2.516862333858649672e-02
1.496778947281261936e-02,1.315920335136750927e-02,1.312383017179925004e-01,3.896382345494716487e-02,2.157138963840824928e-05,9.951389025691951759e-04,4.013387010294600446e-03,3.443941813751259795e-02,6.683799318862525263e-02,1.639681897630671306e-02
1.957820954050863357e-02,1.518882358396761792e-02,8.018816057038165301e-02,2.754984675241200359e-02,7.018818097088091275e-04,2.502190366260754746e-04,9.469870658362210258e-03,1.819974582855493281e-03,3.736061629216324426e-02,7.119596044267652649e-03
4.628655085376756628e-03,1.798311865154165676e-02,1.147726924350352812e-02,2.985383789740999813e-02,1.019657714949145444e-03,6.646063544110070382e-04,1.755768332807407933e-02,3.788193343276884811e-03,3.186801264391530761e-03,3.696053502944391354e-03
1.441297982760789652e-02,2.201114949171165472e-02,8.355185726394460943e-02,3.046713383470689429e-02,7.046319605142489177e-04,1.340332132007638396e-03,1.321545936413548276e-02,9.541065167512720324e-03,4.725048228251865767e-02,1.706560727799596652e-02
2.321565688267256469e-02,2.799851020168050292e-02,1.813415134544114071e-01,1.247245703269363182e-02,4.102077227524739697e-05,5.051800500903730774e-04,3.710211857544861228e-03,2.864042375668490736e-02,9.273699247226496745e-02,3.039557815662494514e-02
2.091857628127929969e-02,3.153083670642921332e-02,2.413762974822076246e-01,1.723456542913933895e-02,6.069214837397882015e-04,1.115606520359155394e-03,1.180774577997463146e-04,5.851428080800177844e-02,1.303494283781542473e-01,3.624430777236138657e-02
1.166193419773125552e-02,2.790194862804783529e-02,2.457543215566936334e-01,3.548493344618344758e-02,6.015751108652144961e-04,1.371724217816591967e-03,4.182237365928579212e-03,9.373122430074090627e-02,1.491273029628497615e-01,2.924569941775096577e-02
4.384805455287345884e-04,1.945929647185730416e-02,2.071365784827494394e-01,3.337446044223387615e-02,4.674505870804387931e-04,1.582160433871509456e-04,1.023526511185476363e-02,1.016623925132201928e-01,1.459213410103944730e-01,1.360370595965815915e-02
1.127818729183854320e-02,1.202805101717066213e-02,1.527682041062731755e-01,2.462839553760751143e-02,7.327044871498806936e-04,7.754912621691684334e-04,9.933033868742977696e-03,6.389887712422477606e-02,1.271202798651643318e-01,8.596974030369219574e-04
2.146511893973689078e-02,7.141836692592893124e-03,1.157064694660147469e-01,2.156319879764036912e-02,8.378272792594701219e-04,6.991425574035807933e-04,1.527005596839579610e-03,8.349648224867108753e-03,1.060712023286606159e-01,9.776780320509874389e-03
3.409777952373062304e-02,2.871216594293865641e-03,1.284478695375485813e-01,1.869617902369514334e-02,1.098899767912859897e-04,3.369068520651200558e-04,8.524869068098139130e-03,2.458324191596886199e-02,9.994229609968263706e-02,1.501850118100766726e-02
4.485399974364731590e-02,8.945838256709374471e-04,1.957169801806278031e-01,9.037588427748179803e-03,1.467617283471761092e-03,1.591685652077315610e-04,1.372803365951577766e-02,2.667748950058061036e-02,1.214624904972443631e-01,1.594219041113686605e-02
4.684977080772848024e-02,2.621972531809655532e-03,2.696914221799988076e-01,3.113622208860965333e-03,1.504871087659004911e-03,1.306545920255006306e-04,1.477587985438915362e-02,1.543995431132389601e-02,1.636322504256609578e-01,1.026480558493299972e-02
4.586772124276192880e-02,1.955570600545032765e-03,2.843606484991318406e-01,1.626759004820198251e-02,2.177978937344999697e-05,3.944863704386880696e-04,1.512149549975464607e-02,4.879348266085564538e-03,1.952467103496732248e-01,2.694214319400946994e-03
5.325431857467993052e-02,7.587696372475961210e-04,2.288194956455926743e-01,4.359730892939889940e-02,1.070101559971624143e-03,6.119008508876264910e-04,1.334390675975282228e-02,9.590965251000662870e-04,1.856309966872219386e-01,3.171521953223725493e-04
6.235120439765836492e-02,4.923841717637307200e-03,1.571322629376151747e-01,6.322974409581896826e-02,3.171186294228641660e-04,3.642940993180705106e-04,4.506879976851571948e-03,3.308741930951213280e-03,1.356626702421482034e-01,3.747069393278172622e-03
5.381199805061644831e-02,8.181803125409906063e-03,1.135730868348037992e-01,6.233848710223774403e-02,1.424621298050429002e-03,2.545005738030694641e-03,1.231067401674609818e-02,1.110384980546676691e-02,7.413377706843242432e-02,1.714508254413923960e-02
2.876987878936689003e-02,8.088531335314971468e-03,8.065002069260528150e-02,4.777071261374739308e-02,2.251158721725601657e-03,3.795059386138541213e-03,3.013752527592457667e-02,3.430824190855163297e-02,2.487872692445142891e-02,3.493149567654438292e-02
1.241773566345343201e-02,5.864917348854145965e-03,1.647615552726241703e-02,3.261520650614766620e-02,1.420763952510260353e-03,2.549563147763728253e-03,3.831077186306425936e-02,6.618274161918094589e-02,1.495421202531941121e-02,3.983460642394536649e-02
1.731417253939408415e-02,4.942300750125546913e-03,8.067151360941758609e-02,2.155843253425658579e-02,1.626428395440970354e-04,2.226140037339451668e-04,3.167012513178785876e-02,8.536649185176328758e-02,6.463031448261921663e-02,2.759226465175854126e-02
2.740347714158137063e-02,6.190897516190418427e-03,1.620018069207339595e-01,1.012771289723844552e-02,1.092722780210461089e-03,8.210857980011278950e-04,1.585633168241954230e-02,8.264590540114959138e-02,1.277879347812919675e-01,1.272161435408523597e-02
2.688149235373069393e-02,7.736583345237355198e-03,1.751958059427181358e-01,4.477807452598918728e-03,7.406765896172514069e-04,4.134132974053487822e-04,2.295610707639849941e-03,7.283227757789720314e-02,1.751444902087109512e-01,6.476354550878122771e-03
2.168068366456661622e-02,8.462517842829383671e-03,1.137402581448650196e-01,1.410771636682772723e-02,2.345600468112269907e-04,1.376948396978642196e-04,1.707271927341286015e-03,7.243879675835292187e-02,1.743583748611030604e-01,2.538584987344218516e-03
2.112445155978957823e-02,8.908640849232884323e-03,2.447381206855102700e-02,7.639026243014935581e-03,6.039567813377381099e-04,6.564261482988262286e-04,3.653232603092821090e-03,7.762884645554359031e-02,1.351257170699639298e-01,1.000319680205192033e-02
1.731448614250605256e-02,9.516524334590227216e-03,2.458857804553410409e-02,1.114342616175424162e-02,5.765053919673034062e-05,8.802818130923320810e-04,1.532471354645974573e-02,7.319083146528831962e-02,1.034488037357124968e-01,2.839294435571011049e-02
1.321647883573505823e-03,1.004454424403322145e-02,9.277880629356086845e-03,2.466984957383326973e-02,5.515124277396284266e-04,1.510269384735796238e-04,2.952049591365912828e-02,5.347157124686891666e-02,1.114769221138526695e-01,3.733126527495257696e-02
2.667822986460485768e-02,1.034575926430596898e-02,1.123104717301247613e-01,2.324186089417554918e-02,7.175354946957864443e-04,1.477279317725621816e-03,3.817575856522731348e-02,2.545848080831004251e-02,1.531471018315096189e-01,2.557616756621610907e-02
3.916424210188810401e-02,1.048313034901655894e-02,2.293879731585346526e-01,1.391626858139082337e-02,8.072414797350520223e-04,1.357413982113233860e-03,3.270545191005968383e-02,2.108750695333585362e-03,2.058666467234105402e-01,2.697455098699717748e-03
3.501022247646159297e-02,1.034187253803897644e-02,3.144837269529695556e-01,5.302193489231346590e-03,7.234245109974020167e-04,9.722612397498581573e-05,1.728873179505916943e-02,2.466026578765906016e-02,2.527172854419769132e-01,3.301975019419411267e-02
2.682590757843521939e-02,9.942759287635341559e-03,3.563672046753489364e-01,4.512299954088782802e-03,1.887170593106112209e-04,1.002385764036354968e-03,9.443398475802453410e-03,4.056890556841751677e-02,2.819689810849018707e-01,5.388298819008235929e-02
1.793110410423437440e-02,9.753975805169316435e-03,3.631526269165640253e-01,1.910864165274943696e-02,1.428242895726158099e-03,4.370718593095739945e-04,1.954270541892358728e-02,5.072332559596623436e-02,2.853222019223639050e-01,6.300494391906347191e-02
3.549747029494829554e-03,9.914205718147526408e-03,3.506267658891110139e-01,3.071764541441012950e-02,1.499092142193825770e-03,5.696787756397314823e-04,3.652708605845592787e-02,5.682598558884056211e-02,2.652005143274401289e-01,6.288976221135822442e-02
3.874904805717616779e-02,9.680639798400328053e-03,3.392282515102443829e-01,2.595402668519588077e-02,2.511820672632098352e-04,8.376268353395195133e-04,4.082084706998342916e-02,5.560102554943547465e-02,2.349328915691207831e-01,5.463644698525702004e-02
6.180615708045787693e-02,8.447899093351838445e-03,3.316912406725729401e-01,4.629519808687512263e-03,7.963216359601960797e-04,3.489262416857740411e-04,2.738926364157242416e-02,4.318314063737105357e-02,2.048929028793183282e-01,3.807537774260542213e-02
4.336058713498052580e-02,6.658286906658242646e-03,3.014886410343193823e-01,1.662365443877042437e-02,7.498651725420311769e-04,2.764910698009919376e-04,1.006475915521986252e-02,3.386142508673643803e-02,1.716824234499353397e-01,1.639663373941532137e-02
1.345353089066787453e-02,5.121156573442605005e-03,2.259539566883952411e-01,2.303172607030755381e-02,3.382969637491030660e-04,6.583009221645789739e-04,3.132008267762144416e-03,5.941569601184155947e-02,1.258160082602091390e-01,2.266623381155686168e-03
7.290052368572469410e-02,4.194509294038152244e-03,1.181082380255498165e-01,1.538860001277020904e-02,4.304964801370980958e-04,8.693144171048678348e-04,4.895109332457537980e-03,1.308578030487799193e-01,6.677926410073214969e-02,9.829137377585200896e-03
1.028391234448001179e-01,3.810470294166643564e-03,1.146900735874751241e-02,2.324764380172243509e-03,7.656874584872323678e-04,9.623102404287836196e-04,5.076531741333017121e-03,2.124886583504936588e-01,4.852034848357274915e-03,5.498324047639772949e-03
9.941755610342220550e-02,3.577303589271677020e-03,7.390040876492492972e-02,1.117972360274738404e-02,5.477946328158756492e-04,6.168523319710156544e-04,3.286983304906597632e-03,2.561349714787152232e-01,4.868306031806433898e-02,2.429337062045464415e-03
7.716784653821157081e-02,3.004079276144707138e-03,1.435144547000994364e-01,2.373378279876262043e-02,2.276017084451201862e-04,1.672198092981928863e-04,9.904045226483294134e-03,2.536476044493987669e-01,8.902613620249391624e-02,3.461077230725998974e-03
5.122841712774375833e-02,1.943247374625456901e-03,2.117158833811610685e-01,3.434084317151823995e-02,6.799231954665098691e-04,5.796570840211520389e-04,2.886680682194320974e-02,2.339779435468762325e-01,1.200634194725154202e-01,5.439483493747135356e-03
3.237995519125722726e-02,4.413532974876723143e-04,2.702047023529177139e-01,4.283679612806582521e-02,3.073783727654757917e-04,1.707320439232871175e-04,4.864053068453531858e-02,2.163281882016958590e-01,1.492889247564924693e-01,1.775494418450034029e-02
2.490698924089928407e-02,1.558212509514319199e-03,2.819274431821006677e-01,4.758188492435378586e-02,4.558453836629448083e-04,3.759508639432173173e-04,5.534161589543893506e-02,1.946559676479054646e-01,1.735085327683507928e-01,2.546834935061761951e-02
2.364718218578659714e-02,3.819288011473786441e-03,2.266412713227331510e-01,4.219942415712021194e-02,9.964947063849567167e-04,5.545459576489507368e-04,5.138309049643488557e-02,1.663322031693106884e-01,1.752831686149350920e-01,2.753446659295614302e-02
2.121841729911812593e-02,5.694843750116606630e-03,1.418161964770050798e-01,2.259338324742688267e-02,8.667646342737577673e-04,6.881754773773353243e-04,5.263433805071619093e-02,1.432045274556454084e-01,1.464186770541207328e-01,2.855572769043186743e-02
1.942028491295480844e-02,6.797389037353319258e-03,8.953640817085098402e-02,2.287094555435370373e-03,2.077024626366778663e-04,5.608207538575428648e-04,6.346385483675445749e-02,1.285501913042021160e-01,1.071019186428453368e-01,3.099243659357646397e-02
2.527483484110149697e-02,7.253545375994634864e-03,9.159669350452531722e-02,1.604086641163561186e-02,1.495737602856359689e-03,5.354805643706746134e-04,6.443865199228872298e-02,1.108231521260312907e-01,8.579405475575482831e-02,3.276092607866431389e-02
3.571870524439235695e-02,7.322062902400921190e-03,1.227420568781517202e-01,1.264427438132243245e-02,1.420074432934617095e-03,1.787815747262139644e-03,3.654991044893050878e-02,8.443588016657102568e-02,8.825463555637690083e-02,3.218710392304535012e-02
3.646999464429016846e-02,7.247264938128430631e-03,1.557377180270455297e-01,6.518964286941794466e-04,1.537505852550108735e-04,1.495145041958122981e-03,9.206863263615803691e-03,5.563661933255021480e-02,1.009830753538926568e-01,3.045934074854962301e-02
1.968528143620566426e-02,7.314712664629135705e-03,1.860612367920633503e-01,1.058364795660399899e-02,1.137349846185425721e-03,2.244152304609683957e-04,4.192799436074306357e-02,3.180243682698059848e-02,1.150088846067873899e-01,2.822143589316715093e-02
3.854199085901613940e-03,7.716667744508292660e-03,2.166901717255704518e-01,2.051826922252208973e-02,1.278773277213818608e-04,2.792182898023841528e-04,4.618771389262944782e-02,2.193468097514237117e-02,1.304838693762165047e-01,2.423228814180583904e-02
1.394702801842682797e-02,8.368966632940963782e-03,2.404589444425865030e-01,3.125289191964745333e-02,1.364147246335436657e-03,1.614010709039792081e-03,3.228049358099217836e-02,3.452762449547366885e-02,1.450771448855845969e-01,1.912313217987831118e-02
1.386322058667830738e-03,8.897678985983661915e-03,2.429285239837668253e-01,3.801029821174345402e-02,1.225468534147883650e-03,1.758613247052998301e-03,1.563952159407748857e-02,5.805352994750546947e-02,1.526868382890558262e-01,1.730068289664675810e-02
2.083642726025857275e-02,8.857240261698673747e-03,2.131499206301895044e-01,3.132586858656637163e-02,7.541143445057177732e-05,2.476364631391105302e-04,1.141564066669715181e-03,6.061223506253013427e-02,1.504468984105237772e-01,2.246435652944158215e-02
2.912284381524558527e-02,8.091709607369990120e-03,1.490084505166046902e-01,9.238994666899468314e-03,5.362013252087968881e-04,5.809498562056913994e-04,1.263673406257479100e-02,2.637409526119496167e-02,1.362879506609883939e-01,3.144823009864459312e-02
1.522963025692865985e-02,6.925587585699842334e-03,6.221920415709374097e-02,1.700946656170462118e-02,2.284215425083161843e-04,1.769773035548879688e-04,2.360033940640086231e-02,2.198549098563732512e-02,1.050590873063653452e-01,3.493573061490955894e-02
4.964757493682903783e-03,5.818085292114612631e-03,1.721699197756003732e-02,3.319563414025630127e-02,8.345786029447090169e-04,6.701640473072221615e-04,2.480370263552887297e-02,5.168832117241245472e-02,5.949817862971773508e-02,2.672523098663264277e-02
1.570804435457063414e-02,4.790549838456323317e-03,5.342452525823800091e-02,3.498209466389028827e-02,4.312208089287457736e-04,7.466025601565517500e-05,1.329025395415996645e-02,5.773253737339217873e-02,1.980739371320530337e-02,1.066102891572744474e-02
2.456998948442408112e-02,3.548441811163965259e-03,3.517458653204917629e-02,2.717913939263339601e-02,4.016462866681934927e-04,2.992185354401895217e-05,1.727807752809999275e-03,5.768801778786682155e-02,8.370916097756302132e-03,5.002262216386736161e-03
4.397012034728572938e-02,2.110766967208610977e-03,6.688503245115190454e-03,1.524835086653882239e-02,8.422659866545943166e-04,1.116042455902171516e-03,5.674023453078862883e-03,6.057700750789193900e-02,2.460238410084628416e-02,1.745503229859836011e-02
5.744666572307715463e-02,8.532089357523155258e-04,2.677286950718953812e-02,2.320020402467004497e-03,9.274847770704352460e-04,1.386759302880408249e-03,3.669880194120712490e-03,6.150031828352826857e-02,4.327457984449155359e-02,2.856348996429152950e-02
3.388879419208653404e-02,1.047649226097696444e-04,1.839192062953787232e-02,1.011861630384067005e-02,1.070831057744844233e-03,1.322499156741384829e-04,1.126453255189227912e-02,6.144726266822345129e-02,4.263970884296527930e-02,3.758955240233505940e-02
2.248216989393746548e-02,8.163240179105170358e-06,1.935794885705294927e-02,2.262472451356210140e-02,9.989872627663657495e-04,1.445273746768792377e-03,2.682780404444254189e-03,6.787797026105210629e-02,3.137019692080569161e-02,4.110786267925393284e-02
6.778120799000798835e-02,3.450022867393775367e-04,4.467480877045662546e-02,3.476686385132693458e-02,1.685600178695321333e-04,6.484652028780842114e-04,1.738049305063147504e-02,7.457784504817292770e-02,3.471231132008763959e-02,3.807910473783029243e-02
7.173670890686778545e-02,5.868509737167345013e-04,4.470984483689866007e-02,4.069468976924250220e-02,9.484985922017913872e-04,1.140133940589526827e-03,2.977278890744284798e-02,6.603667562249310174e-02,5.026503253531600796e-02,3.006746388408148077e-02
4.784416564945397771e-02,1.660315338856467073e-05,2.697604425365136838e-02,3.399844550145701000e-02,1.250465726731414713e-03,1.564110102764987558e-03,2.207727425153744455e-02,4.516208245235167618e-02,4.143168995721957515e-02,1.900694869873031240e-02
2.223126541408268833e-02,1.671504549020903915e-03,1.316554703322930231e-01,1.706815875927477494e-02,5.877471198305613898e-04,5.268176171616280714e-04,1.090598588119623662e-03,3.201302331845991972e-02,9.372089481962202900e-03,8.792976547800408424e-03
3.028077967016331272e-03,3.528208304197394396e-03,1.851121799587610861e-01,1.025408321576230710e-03,5.764929607493802079e-05,2.361143997998537553e-05,1.617306651660604250e-02,3.538617648474401411e-02,6.687241265332719009e-02,5.022801855322290773e-03
3.917245758799416111e-02,4.355524205955635733e-03,1.629215847224279312e-01,1.416246641032096847e-02,2.162425892756496596e-04,5.339937048559153555e-04,2.046658090673193764e-02,5.059000058618929457e-02,8.583272263983506012e-02,8.081973302795197878e-03
7.576867536538570147e-02,4.014284089015324533e-03,1.176359908231527640e-01,2.146145169732134941e-02,1.279026857853316542e-03,6.285478548349165279e-04,1.492278562335365259e-02,7.728945212437220158e-02,6.753657385009655123e-02,1.072472787291290156e-02
8.183394954925514442e-02,3.447922776661680681e-03,1.003211024699478121e-01,2.565237099261881426e-02,1.941839732586520201e-03,5.720944431495538244e-04,4.739234615704815412e-03,1.109414145912502314e-01,4.986801612582984766e-02,7.419182764651619660e-03
4.795836455677986165e-02,3.097408757936828162e-03,1.067434045572252244e-01,3.285560632740981701e-02,1.163710528214921547e-03,1.704524006962640330e-03,7.561827140107097063e-03,1.277509984188800740e-01,5.483701259446804172e-02,1.455665032818350768e-03
3.347015644256394820e-03,2.548114229500641776e-03,1.037652821177979801e-01,4.538426193920964274e-02,4.110300347959762132e-04,1.546684719629792598e-03,1.678686960611676035e-02,1.086159011668048902e-01,6.871094301618886624e-02,6.356609007211306249e-04
2.045406416637270131e-02,1.708688075955382048e-03,7.772482541629599506e-02,5.382097019329578486e-02,1.018938493489620093e-03,7.567460222630352550e-04,1.734367170626078397e-02,6.924087081057235527e-02,6.974955343450039980e-02,3.602768308626259214e-03
1.917525199275919856e-02,1.015097943894139893e-03,4.203072382511039567e-02,4.720167177071144665e-02,2.093803593068555404e-04,2.779575638260956298e-04,1.215915208735954614e-02,4.083614882579861965e-02,5.550338224619682376e-02,1.212754701647686915e-02
2.762030532781600475e-03,5.938410213496526317e-04,1.186047985329248718e-02,3.035488777335333677e-02,5.578922423022580554e-04,1.647785229153428627e-04,8.009593116198249554e-03,3.138465549446314840e-02,3.765157427129853934e-02,1.956184705619990957e-02
1.889865050190276535e-02,1.720900700418082508e-04,1.253841430765614828e-02,1.912304893632566297e-02,1.331819417762147232e-04,7.572898099367525058e-04,3.061518801147035916e-03,2.847866225425924741e-02,2.316290674072204667e-02,1.943986000499536501e-02
3.236234416721518042e-02,4.731408197323641682e-04,3.818289207126993740e-02,1.907711133215337848e-02,8.692752407771831046e-04,5.669424420782536366e-04,7.471983921657435884e-03,2.585995508034513030e-02,9.784121800770543415e-03,1.099030273868848578e-02
2.895103768642964814e-02,1.386522237219703574e-03,6.173851971640685610e-02,2.080445370007365583e-02,1.244117928452691778e-03,6.389427531813995009e-04,1.435496040380252088e-02,2.313900497248892046e-02,4.175430595128561823e-03,2.120712369990512478e-03
1.959561934183497514e-02,2.299404357875752154e-03,6.551593474831901576e-02,1.596284564488981844e-02,7.095906523156282316e-04,1.320306803235756811e-03,1.485261305940663301e-04,1.397996343733635786e-02,1.244927366581122241e-02,5.979004124672990901e-04
2.224575963491178671e-02,2.737271130295508212e-03,3.804535716275912749e-02,5.771121307944068399e-03,3.913102577992703674e-05,5.496175231570557280e-04,3.551227103491926690e-02,2.157442833506479848e-03,6.560248775330216123e-03,4.230776758571032706e-03
3.476578903699267808e-02,2.817846405994060138e-03,4.919114283679235089e-03,7.093228181509672776e-03,2.603492001891706304e-04,3.201706402195374245e-04,6.612656383116667647e-02,9.918899087430198616e-03,1.130261785006519450e-02,4.156626208328202850e-03
3.577513977642112625e-02,3.295703939108722298e-03,3.342578199304574449e-02,2.177733614624467740e-02,1.352697055473905399e-06,1.006779574736888199e-04,6.906919420242689511e-02,1.964350539911167981e-03,2.718592925250901474e-02,4.282200659466980919e-03
1.534917214407860789e-02,4.247880364239309606e-03,3.606604164807904189e-02,3.185442730777451881e-02,1.763577006502188116e-04,1.056528359259186790e-03,5.021001219217273437e-02,2.436332770505698214e-02,3.077145838300671815e-02,1.746267660418508033e-02
6.721758121491177781e-03,4.894816369204044691e-03,2.597757710354050772e-02,2.856634590639278715e-02,1.706230281864528828e-05,1.093713810960822647e-03,3.587646581872853263e-02,4.252082503544610259e-02,2.539889802213652140e-02,2.792642546620770216e-02
3.729767634579825904e-03,5.142610704228201511e-03,1.726669739088317751e-02,1.644458945514530590e-02,4.603194308746303494e-04,2.195298722538700353e-04,4.298272793318871909e-02,4.972785577888045455e-02,1.929659754519483239e-02,3.063098995091383808e-02
2.099013538676599080e-02,5.760117831986106239e-03,1.065115287479876868e-02,1.206688207469979596e-02,1.228544242644436261e-03,5.911223296939018684e-04,6.298348866866917972e-02,4.102583381954532510e-02,1.500198777301494507e-02,2.721530633101326702e-02
3.487195639885701942e-02,6.840768407973115035e-03,1.973195960806521654e-03,2.020472513306639448e-02,1.704899627346263434e-03,8.738869776799076689e-04,7.434661571784417777e-02,1.573081219559576208e-02,1.141979398306879750e-02,2.434271899760120234e-02
1.834643910179918277e-02,7.526241716857682076e-03,7.541327062287948683e-03,2.395060572900268442e-02,1.069689289821089840e-03,6.481589988111646598e-04,6.603992635602569383e-02,1.001399420382232536e-02,8.613434371768865366e-03,2.495308759628493342e-02
7.906204887318520752e-03,7.254065566825933058e-03,1.287317820523185136e-02,7.781094754159932972e-03,3.218900100038795840e-04,6.205506911544913726e-05,4.597195536159030121e-02,1.536268638849812816e-02,6.412661058465312508e-03,2.339696932029897841e-02
8.711813640417911953e-03,6.392986906575839380e-03,1.179007529108234628e-02,1.996289738084391918e-02,1.162810742840701293e-03,7.884034084884544540e-04,2.850197975654441759e-02,8.404889570043979491e-04,3.420764651946408066e-03,1.395660159485661612e-02
