4.005457448717671121e-02,1.627457782603939501e-02,1.055277334602723778e-02,5.152044238233084716e-02,3.499753571709351713e-03,3.337622060070091420e-03,1.702410463957183817e-02,3.335787144367584611e-01,1.489131186434751279e-02,5.571987694096267735e-02
2.779860460389535146e-02,1.581647349255827992e-02,1.430679035331076758e-02,5.757490974077854318e-02,3.348838431694819463e-03,3.463172064731236035e-03,1.456337014495762486e-02,2.470181954344026765e-01,1.555261224272619369e-02,4.957700818418493000e-02
2.249286405984622650e-02,1.690713433542466101e-02,1.862359875584328542e-02,6.476545006991718534e-02,4.189750745281822265e-03,3.497959907592739816e-03,1.157145191623513286e-02,1.599399712280202002e-01,1.596165686354574648e-02,4.628057744293651715e-02
4.387707845795412245e-03,1.872537471778907767e-02,2.483611048371800120e-02,7.241351564482319259e-02,4.622897449611754889e-03,3.235001635719553757e-03,2.194142833829155082e-03,1.314572792937725165e-01,1.511834903724572181e-02,4.990650079718346455e-02
4.327998922208004667e-02,1.896557476560774627e-02,3.230214341389397309e-02,7.647413922044418721e-02,4.284904342051058454e-03,2.794627548095568112e-03,1.053550545165116321e-02,1.409938983234303445e-01,1.339930189382871825e-02,5.424684451811750269e-02
1.033006857996634081e-01,1.746775978664327419e-02,3.934392074034721853e-02,7.379014511493664497e-02,4.370396366717399853e-03,2.388803092529201422e-03,1.767513805518189374e-02,1.132135730102601795e-01,1.218966557547709710e-02,5.241023109883179154e-02
1.377610130342814543e-01,1.646924637328592983e-02,4.549307388045856909e-02,6.903258363199321623e-02,5.216116729323431317e-03,2.187113961941764169e-03,1.572923364736704410e-02,1.814787224588560940e-02,1.197971935725735369e-02,4.708094515660638663e-02
1.313284026213854816e-01,1.714372440132191922e-02,5.195729608318336301e-02,7.042552012090044777e-02,5.535099723051883046e-03,2.092598171420937542e-03,1.097615772729860530e-02,9.010008155112883554e-02,1.187493246125543613e-02,4.407155891507483908e-02
1.058304777592136148e-01,1.815581682203631572e-02,5.981059284075274096e-02,7.941776178891314653e-02,4.762908792077252471e-03,1.925470719490963859e-03,1.168232017220115042e-02,1.434691201245227310e-01,1.059140608550289409e-02,4.098128661274282047e-02
9.072769624442875158e-02,1.798193838996979543e-02,6.865541790627424645e-02,9.268804820401613243e-02,4.097786885893681293e-03,1.780475492256609719e-03,1.905697715214910853e-02,1.381940884930369096e-01,7.396239634747120949e-03,3.099524422112435312e-02
9.094039083697195991e-02,1.660651272990531710e-02,7.793145046777612273e-02,1.105052703437069267e-01,4.208358454776476611e-03,1.515746114188965248e-03,2.823958159701632845e-02,1.217525059741204341e-01,2.788816072877268841e-03,1.494042339033703481e-02
8.930478857415917460e-02,1.470927619823350976e-02,8.777786613649181391e-02,1.306041998227686629e-01,4.028801059472871329e-03,4.288560950215984744e-04,3.496652607294975512e-02,1.253985841865556117e-01,1.677403324508136345e-03,2.293511558886663325e-03
7.339080225281877090e-02,1.304669719192830951e-02,9.581995047946140209e-02,1.380160922701470227e-01,2.810965238696954034e-03,1.569491296043736299e-03,3.758193595684549554e-02,1.399352843303960925e-01,5.046465012756958662e-03,1.723269314272281305e-03
4.925060731582438928e-02,1.223656980488403191e-02,9.459622138820807102e-02,1.190461672950840905e-01,1.324757257902937913e-03,3.374315776458657046e-03,3.612095572505304164e-02,1.434071339479374985e-01,7.947523799865853847e-03,1.291990339606108665e-02
3.006665740012903765e-02,1.152744163819135852e-02,7.661065765937362382e-02,8.408454911653140407e-02,4.874182268924473092e-04,4.049508814997639962e-03,3.304242728497499421e-02,1.256207858489543638e-01,1.100997728912933918e-02,2.335450912078843380e-02
2.165616085989850031e-02,9.220643618916547074e-03,4.335245951463569808e-02,5.529456105567050195e-02,4.808399333094074551e-04,3.427008898863853625e-03,3.024346464430220996e-02,9.976178739500006498e-02,1.313988713528259356e-02,1.280772060493090385e-02
2.025501955003657789e-02,5.623030748323393918e-03,7.572722987279081885e-03,3.122322124547539934e-02,1.004129548817948641e-03,1.113710898816743650e-03,2.370383277448880402e-02,1.052990596195728795e-01,1.242822608459652131e-02,3.147191267192070430e-02
1.742515402867920657e-02,3.011718034799792856e-03,1.588117795030342949e-02,1.079905422427734907e-02,1.299631754314592869e-03,3.049551596270873560e-03,8.840714408159963678e-03,1.716989072257310012e-01,8.042908394039947895e-03,9.957160988084462483e-02
6.947932872795509023e-03,1.582272322963160791e-03,2.461002633635613057e-02,7.298674596250796787e-02,7.874859779565839728e-04,7.234263908139321013e-03,7.959911032707805284e-03,2.649784587567573513e-01,7.334069715256015358e-04,1.609756798043819603e-01
9.089433357259913554e-03,1.064595926879919816e-03,3.402879558255608727e-02,1.250813768895563671e-01,3.691583774276680765e-05,8.435281721862142312e-03,1.336412342917877444e-02,3.039967871215989437e-01,7.359156051065287793e-03,1.874349449786126276e-01
2.248051928699206989e-02,5.086868678978089496e-03,6.155017550796677145e-02,1.419640045268621420e-01,5.023655418460372824e-04,5.614828497949812987e-03,4.012422650518023860e-03,2.495478221398318708e-01,1.313884111058162205e-02,1.780995589745203167e-01
2.864555681933633399e-02,7.023748504807878455e-03,1.019050501117999552e-01,1.298105526263459986e-01,9.573891000772803434e-04,7.225016085961952087e-04,1.021593344511556069e-02,1.539708991991050047e-01,1.450650664488924678e-02,1.592859720410227109e-01
3.042260390381109833e-02,5.426309604878123971e-03,1.276886273410471895e-01,1.074506661295902277e-01,1.878628037639481401e-03,3.619272884882612264e-03,2.023385215844051080e-02,1.023927550407333908e-01,1.243149465521229541e-02,1.549309861057447668e-01
3.153500660454568172e-02,4.385980588236107654e-03,1.218359040898402412e-01,8.249844484525679922e-02,2.863653037635889489e-03,6.424063774132033472e-03,2.603862432843793290e-02,1.174805778275173906e-01,9.642197637441901267e-03,1.609833228584614251e-01
3.270194586831623451e-02,8.643942752670975838e-03,9.853809519289206953e-02,5.627512637868745810e-02,3.428141995577976830e-03,8.126297027007711379e-03,3.124816698873961532e-02,1.493910270082104974e-01,7.224027187321973090e-03,1.549381871929221832e-01
3.641444347783098778e-02,1.765981417481067919e-02,8.239519152934765556e-02,3.781963578502406387e-02,3.803686644819935427e-03,9.070075112750571392e-03,3.747688687749421016e-02,1.579445244604113785e-01,4.325828272464709093e-03,1.264485297238821804e-01
4.831491973457106848e-02,2.706795086284919868e-02,7.939734552262750489e-02,3.645785868517919387e-02,4.423236932465354591e-03,9.241084521926694675e-03,4.390196232616026817e-02,1.615734286165241562e-01,1.015702751745394938e-03,8.934398554734636344e-02
6.899182019207042438e-02,3.401531194620047854e-02,7.943043827093948517e-02,4.327260147078497432e-02,5.219864211834001136e-03,9.143970343424437722e-03,4.653109891399054288e-02,1.873073684336655775e-01,1.185771964846045468e-03,6.422296286041337399e-02
8.928210093151607574e-02,3.905662628802922254e-02,7.396236462430171021e-02,3.735054485961236681e-02,5.706534275727024631e-03,9.574559351086959699e-03,4.046051494194091713e-02,2.157927216217863653e-01,2.341753263208366364e-03,5.748237118866753731e-02
9.923605012758038302e-02,4.441624112470511643e-02,5.868938328890613287e-02,1.512588876536196877e-02,5.625426174312876844e-03,1.043508823029970500e-02,2.834242638841269132e-02,2.056213566776794177e-01,5.177711732296630225e-03,6.010159059468574150e-02
9.914470020438936881e-02,5.111675686922354661e-02,3.089201658419702887e-02,1.996731679008935736e-03,5.403700625796305397e-03,1.097205504644645745e-02,2.124698731158836812e-02,1.501433512773378276e-01,1.130332669389632477e-02,6.283875450257421502e-02
9.585782022474950703e-02,5.619802141247624838e-02,2.355569782085151914e-03,3.435552589258212240e-03,5.774370104340720983e-03,1.097270914918281604e-02,2.455037031497798658e-02,8.894847925523326204e-02,1.807569385794758482e-02,6.563926344135667668e-02
9.082632505056786876e-02,5.451049624770604868e-02,2.269195528774069562e-02,2.218918689859046903e-02,6.802535904865828278e-03,1.054911671595763767e-02,3.009999179960516635e-02,6.081922134728110635e-02,2.150865930978932555e-02,6.861984512362508115e-02
8.195224184160097847e-02,4.674650589592121985e-02,1.988472117204796372e-02,3.394836065954787846e-02,7.488960348705677415e-03,9.435823694890925484e-03,2.898517326332939251e-02,5.407036059250547311e-02,2.106095247690219566e-02,6.345266348322722849e-02
7.560778562415979009e-02,4.238531320223414001e-02,6.341739292894499336e-03,3.331997451400166288e-02,6.951334492457657971e-03,7.842117172596880376e-03,2.242843447240536539e-02,2.778872546756227732e-02,1.934168962868543229e-02,4.338392316953060268e-02
7.989707543147288316e-02,4.818215547524370285e-02,3.635897468316500077e-03,2.704460019236107349e-02,6.071730406753884056e-03,7.263011293170930881e-03,1.390729009136781533e-02,2.128541180064214694e-02,1.866784525371392028e-02,1.200951713391296312e-02
8.441510256939238621e-02,5.647221057023592977e-02,2.208808547435782768e-02,1.477016232649912622e-02,6.788128706097206790e-03,9.236492607799235213e-03,3.191882803262961407e-03,5.928181772612620137e-02,2.031498894036135386e-02,2.659862272117574297e-02
6.831644176832898929e-02,5.379400508703927747e-02,5.769150160085028539e-02,9.480960710138066488e-03,9.300458238016139079e-03,1.349396410025403663e-02,6.412242400171611414e-03,8.034587482776095468e-02,2.514864752704509474e-02,7.295861373358736301e-02
3.248971755741932033e-02,3.995369634372088197e-02,9.574780003042074328e-02,3.818157579436081556e-02,1.150422738131566015e-02,1.754112050436501188e-02,9.881902656164972751e-03,1.067653047672686983e-01,3.186564745469474408e-02,1.192953237392442023e-01
1.105214286981793560e-03,2.841430460588033335e-02,1.135370491503738810e-01,5.033427676179292459e-02,1.174286014023812053e-02,1.824634393137510024e-02,1.297839653694635338e-02,1.246483688646112808e-01,3.623300395388588668e-02,1.490316023188840711e-01
1.084660529803465126e-02,2.825577713535584734e-02,9.716670545014258198e-02,3.842430948072788482e-02,1.056946670043958786e-02,1.492071565662379459e-02,2.561308689259077231e-02,9.466732514614721594e-02,3.598418380089114799e-02,1.600638891096409777e-01
8.516047414210265593e-03,3.682945717467792091e-02,6.233472302090318357e-02,2.243453261509847224e-02,9.550030583658134994e-03,1.054819756609731707e-02,4.064875383981457480e-02,3.066348240863777871e-02,3.556565569176921987e-02,1.706156994079364164e-01
2.639430123563535173e-03,4.949928361708649804e-02,4.268429186870671688e-02,2.518141730084017677e-02,9.773477009908989460e-03,8.313117129114179493e-03,3.863442605920317657e-02,1.258782290612485422e-03,4.075657141385941734e-02,1.890763470710722094e-01
2.376414041537779770e-02,6.394846292766140361e-02,5.347158008818228558e-02,4.544013631623918664e-02,1.144819207917776617e-02,7.953231171536682270e-03,1.638090294771544705e-02,3.512620706729789599e-02,4.856384113222438070e-02,1.979957857859212245e-01
5.047055543565896057e-02,7.452050236264430583e-02,7.973548769157165483e-02,6.781546060919571572e-02,1.388683382846793261e-02,7.749007344894321900e-03,8.456615170719052402e-03,1.141718767705604126e-01,4.962952414505387294e-02,1.839983242777285810e-01
7.351786512665950402e-02,7.514658515044671250e-02,9.824418622869954265e-02,8.289507587451128146e-02,1.608273758788153138e-02,8.243626933031104193e-03,2.483077571131286562e-02,1.919999536123235262e-01,4.235867749751838496e-02,1.619325195548811380e-01
9.242190135853443900e-02,6.998393790646181833e-02,9.610438620482615601e-02,8.366183586540985873e-02,1.747453005508149346e-02,1.078234450646225681e-02,4.084175100264884894e-02,2.454905711616288955e-01,3.667341313587062918e-02,1.515210933221531053e-01
1.147236862862548307e-01,6.979085896918046927e-02,7.082648685672651712e-02,6.187525288801865725e-02,1.780572004679832968e-02,1.362665185749843688e-02,6.174948727959808648e-02,2.702705074867011170e-01,4.018784809630138177e-02,1.530745501752535931e-01
1.392784850580269240e-01,7.496867087738248725e-02,2.966224795174061957e-02,2.406818419581855176e-02,1.709628664385638014e-02,1.291395352946181699e-02,7.354950273199374611e-02,2.644515161338000797e-01,4.802816841852613344e-02,1.632997404407844355e-01
1.495187742113986973e-01,7.333833274554406312e-02,5.823061269940870907e-03,5.034928542727086509e-03,1.611343182662168527e-02,7.452268007749783194e-03,6.158985872595330174e-02,2.280462352390465741e-01,5.203569484049227339e-02,1.882213231420452881e-01
1.308117141702710429e-01,5.908353394824612109e-02,8.331780762679520669e-03,8.929220419449606858e-03,1.530722415348044312e-02,1.703743280642158406e-04,3.447727331843911114e-02,1.763361048903963613e-01,5.390372515032171297e-02,2.211734306306351594e-01
9.297888412113924916e-02,4.300013230309381734e-02,2.364135981731046998e-02,2.535488353306159306e-03,1.348873402946891738e-02,5.164869558480193398e-03,1.632563717733586175e-02,1.379495177041312748e-01,5.976458905008138339e-02,2.334826639629666856e-01
6.444268107481679331e-02,3.745750239226054712e-02,4.637676513995880878e-02,2.180223131379055435e-02,9.692011911065133434e-03,6.795185101097762567e-03,1.929190851784116228e-02,1.258377536477252867e-01,6.548920244426285897e-02,2.044664353040948068e-01
5.720605109143810096e-02,3.989020735650051358e-02,1.192246562660387310e-02,8.653591371587869563e-02,5.443740512451502971e-03,5.117768507089403424e-03,3.110637731535034409e-02,1.172201995544863984e-01,6.134875406183187135e-02,1.405164274820946968e-01
5.147038435545084334e-02,3.846297435859324931e-02,6.588925770670944759e-02,1.720337265966549178e-01,2.726762641241133739e-03,2.004877805068117601e-03,3.009692830535042399e-02,8.504572060047997650e-02,5.094022749922442334e-02,6.108277265713919768e-02
2.745565327249425633e-02,2.825373117717269386e-02,1.204303681796404374e-01,2.255513705894529319e-01,9.848308777108988766e-04,3.638125175895473183e-04,1.141267618282513531e-02,4.834948401126147599e-02,4.802147052943646355e-02,7.829243568414407176e-03
6.860377821397842940e-03,1.319720609007983894e-02,1.140250755455231857e-01,2.180198133152471407e-01,1.378067121731046648e-03,1.007986172093133142e-03,8.302014827314770432e-03,4.707385346471465448e-02,5.190299768033729277e-02,3.468838434272066007e-02
3.673456890975550226e-02,5.617348789696201966e-03,7.319624932761789604e-02,1.730578721667044018e-01,4.159671374506647250e-03,3.900829714764741181e-04,1.924030721429017751e-02,5.320690135938628551e-02,4.530797907192882917e-02,1.662969446818788471e-02
6.433135925746916173e-02,3.118502386495171710e-02,3.747045809781952841e-02,1.374675914233431107e-01,6.720186788388475552e-03,5.229434122931965641e-03,3.784713672208404184e-02,2.224922414638587365e-02,2.164973017396017857e-02,3.413774562484407638e-03
9.112931127019636979e-02,5.704027098047591282e-02,1.223129637115740603e-02,1.290438661064927661e-01,1.020355785259379096e-02,1.424680554456736470e-02,7.934971575617813522e-02,1.908965947900242710e-01,3.815614071215579599e-03,4.363886984965695270e-02
1.039308395461636114e-01,6.702636285088241219e-02,1.895212863645435314e-02,1.238157091691472200e-01,1.526945124566916889e-02,2.391652270125208674e-02,1.240666080907762009e-01,3.305390918399288003e-01,1.498474953250172881e-02,1.186655354665949319e-01
9.982045061278858877e-02,5.619411215447651931e-02,6.336997405135476324e-02,9.301273670114482139e-02,1.984879553276293687e-02,2.895287340652909214e-02,1.370035768692950684e-01,3.296154274558492636e-01,1.280173761268162472e-02,1.716612427159753818e-01
1.003952035775372703e-01,3.947597473222315412e-02,1.072311225525358624e-01,4.024779431720638956e-02,2.216353963052344195e-02,2.934782603939687512e-02,1.137892360486809501e-01,2.273051954195514646e-01,1.076349441767410382e-02,1.828702808591207707e-01
1.228844352253460198e-01,3.327962633961489142e-02,1.214975497884844269e-01,4.029609421323254899e-03,2.317978011953727990e-02,3.018543821781363018e-02,8.345951112534787109e-02,1.541022436583312782e-01,2.197887009884025300e-02,1.737045152275135118e-01
1.570969362118792567e-01,4.073691070124352970e-02,8.469073979572368238e-02,1.671952932453264762e-02,2.378211159300680846e-02,3.346536420195944661e-02,6.970383869555130119e-02,1.843931012290471738e-01,4.775658951678516534e-02,1.565390077009901904e-01
1.816260868997083000e-01,6.018855659004623132e-02,1.157974043895238295e-02,1.605488517166284157e-03,2.314246932709194612e-02,3.499473243490427987e-02,6.795091102754126366e-02,2.811169720637514136e-01,7.416654362641267317e-02,1.219286251570601692e-01
1.853921091025319545e-01,9.298441572708147917e-02,4.957709285924130627e-02,1.967487772484177028e-02,2.155908912042136735e-02,3.072901966177973149e-02,6.029713220441771521e-02,3.417026037873945876e-01,8.450424875815795711e-02,6.802960605215706280e-02
1.693944288868521886e-01,1.324582895812201344e-01,6.358855251670579578e-02,2.637369207526547507e-02,2.096610023761697264e-02,2.252907044602580483e-02,4.210955394514843964e-02,2.965635421360439672e-01,7.577399872188096686e-02,1.520384458019187306e-02
1.429662921892967398e-01,1.584437146832342047e-01,4.634000809805376847e-02,1.096898720164213477e-02,2.132553488151962134e-02,1.594111346215290950e-02,2.872496000983694453e-02,1.930832574573981553e-01,6.022757243472437461e-02,1.194088159858876924e-02
1.202591996991606293e-01,1.567901688776150437e-01,3.932846924155011109e-02,2.104026242122255391e-02,1.995468042616060228e-02,1.360357005760002083e-02,3.385563406126549518e-02,1.467747207130053466e-01,5.407171280927226820e-02,6.368831137630925898e-03
1.099272673683837076e-01,1.359323063950383659e-01,5.506496342052253495e-02,6.112584760413827811e-02,1.550688917101817645e-02,1.272777463591350834e-02,4.684758772802891102e-02,1.915437683286201342e-01,6.484877876216618708e-02,2.328525818095227712e-02
1.063337975623504794e-01,1.137539438726683644e-01,7.441056517241283197e-02,1.005015419355019118e-01,1.039220042166229090e-02,9.793756897408738282e-03,4.336586407642612634e-02,2.434325513284865128e-01,8.534182601059160655e-02,6.914245214737467504e-02
9.642515456963371423e-02,9.698743752663421813e-02,8.690592657717548242e-02,1.232541655392361685e-01,8.474211106524440901e-03,5.317850951697638932e-03,1.732201914587666591e-02,2.273761945524883088e-01,1.008083234828474339e-01,1.226190150383382471e-01
7.799577993225195738e-02,8.263063309851295668e-02,9.416016840120425280e-02,1.148706884529026861e-01,1.122377992783864416e-02,2.073699945888249699e-03,1.191096540038478341e-02,1.627093672287386605e-01,1.032327459855873347e-01,1.589418027129073929e-01
6.455679651069728964e-02,7.227932577690704408e-02,8.296364541949184657e-02,8.435786051600853430e-02,1.637693553037939884e-02,1.349200691872814734e-03,2.492898812019057886e-02,9.616986610177274963e-02,9.676401464815038989e-02,1.481308003947414409e-01
6.348766778283163048e-02,7.529925215013692774e-02,4.346730332726661539e-02,5.945553065986633468e-02,1.991792897769714341e-02,2.492843311315483170e-03,2.095641169179703750e-02,2.076486162210532810e-02,9.322876150865909428e-02,9.155792677735742624e-02
6.067956454164150776e-02,9.662633947819351810e-02,6.142219280242638101e-03,5.372936384383619063e-02,1.910614663658800547e-02,3.279712093046614849e-03,8.312983009036508872e-03,8.508794530940583245e-02,1.030306146984701909e-01,3.297121546386150986e-02
4.635108130403290533e-02,1.248610805546783720e-01,8.380698848367828038e-03,5.697368051008352280e-02,1.419136676558066350e-02,1.052126370217186350e-03,1.031193720436103523e-02,1.779875748181214967e-01,1.219400245872973992e-01,2.188838498021959678e-02
4.097101761347005100e-02,1.369822178012378155e-01,3.500228922612726862e-02,5.986501163868785530e-02,7.899284274977085712e-03,3.354673092069056662e-03,3.452887461847537615e-02,1.835288258091628544e-01,1.289310060530090285e-01,6.521556641318876357e-02
6.429132728719101630e-02,1.174574534425481265e-01,4.704437323165729795e-02,6.434517606429877856e-02,2.716263782403609793e-03,5.410926582711881282e-03,5.439731954259066637e-02,1.118497352718443028e-01,1.081621701941653108e-01,1.180487971394475616e-01
9.252967765402003719e-02,7.292549332620391900e-02,5.045957503926040699e-02,6.632801023039421040e-02,1.618454677862407338e-03,4.054101937691515639e-03,5.347302048261511065e-02,6.484026018515087753e-02,6.862860482958403618e-02,1.296960602373403992e-01
8.345652409143836103e-02,2.800378332116804092e-02,7.371665729816348489e-02,5.299554181256140029e-02,6.727549933953918745e-03,4.651972136124554215e-03,2.802296371473553607e-02,9.944939529823210167e-02,3.219320479897540971e-02,9.796336878071273957e-02
3.625380059256370913e-02,4.239455162722319606e-03,9.881283882826523424e-02,2.452560405609693212e-02,1.178719259686030960e-02,1.088898924408391103e-02,4.714452106599891293e-03,1.529379070917601668e-01,9.009249939500358142e-03,6.255265332839891890e-02
7.272965303801215246e-03,8.847700828393135347e-04,8.009310590487864201e-02,4.868529720373059727e-04,1.367055121896275718e-02,1.858831145277043545e-02,2.578210769543994030e-02,1.408978399035724915e-01,7.702171650503577063e-03,4.509181629194979057e-02
1.938573801347507480e-02,1.081301613608132844e-04,1.985040214301434652e-02,7.560879117505905564e-03,1.153498486261607218e-02,2.167294906959762318e-02,3.638578916250770345e-02,6.303287490682341065e-02,2.914345428109970521e-02,2.751358631628045281e-02
1.706700868253477332e-02,9.799816459962288132e-03,2.770237254423496900e-02,3.023301754795284374e-04,8.237658471055224474e-03,1.992204753322156935e-02,4.998427604149759118e-02,2.565315383537884047e-02,5.674274801539133661e-02,2.078497177492906120e-03
3.025884831093426583e-02,2.269889999458412494e-02,2.742846104397936996e-02,1.097744014394249484e-02,6.210818875311143773e-03,1.712696795680259884e-02,6.695458328956985228e-02,8.757700075281624197e-02,7.634149003269874445e-02,1.046844448040741560e-03
5.972526579416020248e-02,3.310791310170011631e-02,2.882684565245367814e-03,2.039071701318603824e-02,5.063317607433606357e-03,1.500201595971303002e-02,7.272615340418886465e-02,1.082154024374524376e-01,7.012580714741661891e-02,3.386939082234865367e-02
8.149040726484022001e-02,4.531051702471590448e-02,6.626241914628066589e-03,2.143074914968657804e-02,4.183535601975162804e-03,1.246340578192592363e-02,6.234954465735014634e-02,7.328194854478574383e-02,3.861927274767455037e-02,6.940746142479636838e-02
8.181869101292195412e-02,6.033830135158419622e-02,6.480744566646667176e-03,3.199948557887572279e-03,4.626611824800315811e-03,9.292778206559906135e-03,5.013271982979626562e-02,2.047065287199687639e-02,3.360919634581327128e-03,6.245242780654959580e-02
6.805615354171221099e-02,6.762618112336547804e-02,3.543422636802740638e-02,3.742930247988673215e-02,7.111191461813102729e-03,7.367356382187682795e-03,4.854173401260796633e-02,1.388115481612964275e-01,1.617537914928830409e-02,1.639011091300717621e-02
5.027437678868847126e-02,5.863039519817952322e-02,9.857070526591912851e-02,8.202733247055513099e-02,1.003656789920711993e-02,7.689576241691619025e-03,5.096727210307747113e-02,2.143653682116861414e-01,1.922315685422633716e-02,3.892392069149557682e-02
3.269656648349623246e-02,3.835773235686525812e-02,1.472995015170379951e-01,9.926731511112545092e-02,1.082198396576040944e-02,8.289038523353626370e-03,4.376668253609944381e-02,2.018584033312078030e-01,1.336157993303962316e-02,8.757736558296766449e-02
2.003825650569324157e-02,1.980945828844736870e-02,1.350047704495804246e-01,7.393009070413401884e-02,8.858144660942292303e-03,6.896491406965394796e-03,2.736535179641109983e-02,1.366965106175936917e-01,2.297882408786569922e-03,1.287760134097258868e-01
1.562127825387747346e-02,1.408138379985829705e-02,6.560214748921633365e-02,2.287861035237278434e-02,6.256397083013932880e-03,4.435322627111432450e-03,1.689178146040595102e-02,1.039292941054686809e-01,3.271988176500111034e-02,1.636337481985644937e-01
1.858360581113915888e-02,2.324573912896345240e-02,1.790518294301937305e-02,2.398734786486464085e-02,5.264325069856249512e-03,3.727037785493947115e-03,2.401634427131334182e-02,1.375600063885882851e-01,6.773588334679231382e-02,1.935263019432190978e-01
3.071515522780166041e-02,3.931214427737866196e-02,7.154763318594421773e-02,5.391535496094910368e-02,5.749347855805535951e-03,5.591130764413937242e-03,4.388770204815505005e-02,1.962867672915569739e-01,8.202175956889787289e-02,2.099593833387296826e-01
5.066435580980956088e-02,5.591592046925996512e-02,7.845967306793333318e-02,7.423727684490880052e-02,6.127902973901116178e-03,8.036360465588221827e-03,6.012460451618997781e-02,2.417916849399106838e-01,6.367770779711770524e-02,1.850399721367168848e-01
6.004252515524292205e-02,7.679794953252346013e-02,5.676945028907409707e-02,8.995724577405406208e-02,5.797881735570926606e-03,8.518631503518166864e-03,6.028898916641443895e-02,2.808361361089107278e-01,3.173223999004750467e-02,1.035416712059093192e-01
4.160348995953112167e-02,1.020541905042598729e-01,3.948107712691567572e-02,9.231894362857648306e-02,4.964439462346994202e-03,5.566201059640609079e-03,4.558178712674816613e-02,3.224967045576303537e-01,1.371945589399773888e-02,2.924686899721579050e-03
1.068065196315484688e-02,1.162077165273252277e-01,4.308228151182432603e-02,7.275680651588517511e-02,2.556646425234707348e-03,1.077453061702612772e-03,2.360314782925895805e-02,3.458236198133708972e-01,1.656637317790436367e-02,5.981243566963750924e-02
4.851908747260822927e-04,1.066032373902915387e-01,6.298325840821014654e-02,3.775895868054798127e-02,3.277994209257317423e-03,1.022798185555618203e-02,4.464048786496456478e-03,3.258230132645064669e-01,2.962825325027573439e-02,7.863848187128764933e-02
1.394144704245382956e-02,8.453594394522583044e-02,9.221898890047570962e-02,4.143056355731813793e-03,1.168124661222079419e-02,1.889838034676150080e-02,3.971328216280529955e-02,2.672066291132679794e-01,4.288231573410859754e-02,8.769771225735668863e-02
3.173367356450328136e-02,7.112930385923102450e-02,1.248465588049672143e-01,1.525116571232766095e-02,1.819105381239648905e-02,2.372912342819964715e-02,7.350839777112987139e-02,1.952065491420859333e-01,5.046375387328450729e-02,8.978375036483862703e-02
3.725161341029265688e-02,6.929588450719217918e-02,1.464831269327845631e-01,1.890624223274356419e-02,1.926848091107878982e-02,2.393275727728945423e-02,9.428511467905818788e-02,1.160964406865017812e-01,4.683442558453199817e-02,5.883926321564658668e-02
3.487706463330769724e-02,6.420560900970415097e-02,1.440860321352396556e-01,1.519904535356709357e-02,1.611422967496030367e-02,2.158045842068940720e-02,1.015465887520414501e-01,1.034905264288047896e-02,3.006223399437151986e-02,7.974587804146797756e-03
3.218614100934721889e-02,4.613307652329139835e-02,1.221809410665775086e-01,1.442258063795596491e-02,1.195786381246355737e-02,1.820867659966042898e-02,1.003033481256154213e-01,1.213776715784302546e-01,5.189485017045339724e-03,1.242354250317481874e-02
2.861097133103803619e-02,2.042074174224927513e-02,9.421887626515361436e-02,1.607940364737507968e-02,7.643368990648921613e-03,1.340863260051236572e-02,8.943895439325122432e-02,2.344373473470901525e-01,1.932562070575125773e-02,1.452965655564314278e-02
2.313224449925181322e-02,2.659492465333370206e-03,6.965848571219493413e-02,5.816931467399050898e-03,2.310330334316885569e-03,7.651488526028506904e-03,6.668954391386278102e-02,2.902120440969457871e-01,3.619658331786770183e-02,5.642662597367677918e-02
2.014403627815688699e-02,1.693178775453779011e-02,6.045601910869401185e-02,2.623405410469342725e-02,3.778319923217987771e-03,3.150607924889354920e-03,3.697765920237570253e-02,3.050731782915795942e-01,4.054355878350093811e-02,8.082407281181033798e-02
2.239978895250171673e-02,1.862298738605874110e-02,7.485809041380768469e-02,6.764562460307607661e-02,9.282242152653505732e-03,5.007264510483097619e-04,8.538267787560612637e-03,3.215623360841647349e-01,3.156209990084384021e-02,8.067036664791694955e-02
2.826458925912898185e-02,6.680391807705070295e-03,9.233612029716950498e-02,9.558526550359570939e-02,1.259546013358444141e-02,1.755515114704571823e-03,1.133843139965292832e-02,3.547286454766967467e-01,1.618715900515633327e-02,6.336244953775063693e-02
4.027764015789411095e-02,1.149004291086486856e-02,7.843545867049221687e-02,1.017899694390862059e-01,1.175477830304809922e-02,3.008260671829985754e-03,1.562005926790333357e-02,3.863959441260487737e-01,6.378047750552153818e-03,4.171530665883221162e-02
6.323940503553664161e-02,2.424816830677035961e-02,3.733616597192236652e-02,9.344168492239983415e-02,6.354570338142594144e-03,7.165725059905274277e-04,3.909782203338986808e-03,3.881162418810296111e-01,6.510884725075529768e-03,2.394476963598296537e-02
8.683048584667588110e-02,2.872882503462631520e-02,1.179277754184230795e-02,7.678529851532864270e-02,1.231408114444476490e-04,4.102299436749232489e-03,1.131835173483210569e-02,3.419634313614441923e-01,7.468858266677283649e-03,5.525914701785955563e-03
8.570609014669815229e-02,3.229274385514328133e-02,1.742928384590142557e-02,5.511633389685090950e-02,2.922585225333144618e-03,6.531634298133282522e-03,1.596766073999607294e-02,2.566878149317151636e-01,4.930173237794777293e-04,1.652255521351688947e-02
5.014627742378508640e-02,4.188245496681933938e-02,1.543409347270582356e-02,3.435607747298306813e-02,1.054043435787984642e-03,4.150037960116642957e-03,8.118390131836662749e-03,1.590203454041564934e-01,1.512165420351939925e-02,3.245688578132179675e-02
5.198203898653153826e-03,5.588205956060644103e-02,3.186037696631813243e-02,1.220871931262800490e-02,2.618121038852810889e-03,4.056158528110638583e-04,7.352032014120027728e-03,6.541676219969369543e-02,2.904379335696727696e-02,3.560753796601767718e-02
1.613049949513630649e-02,6.131293960483170935e-02,1.087155177761411629e-01,2.867456610398065597e-02,5.507464978289246596e-03,3.748246830615544443e-03,2.706015010038739094e-02,2.130069153596929332e-02,4.034371324031597872e-02,2.910253351215432577e-02
1.160206619946608543e-02,4.157936875926450393e-02,1.669195867443973302e-01,9.452962547277005134e-02,7.226472344788241638e-03,5.287305589435947056e-03,4.402113799648570136e-02,9.603359133035935247e-02,4.730120253210471498e-02,1.159391093903117467e-02
5.689551209711127960e-03,2.237249153544497177e-03,1.804795508669738702e-01,1.577657264533952053e-01,8.215770467057469800e-03,6.476920116609627930e-03,4.956954386367457693e-02,1.550992794156031973e-01,4.196554060168056211e-02,1.751159625922424357e-02
1.195801658718221791e-02,4.536413717663893147e-02,1.676611957588432789e-01,1.847771549147502745e-01,8.555698420760482481e-03,8.695760511670551710e-03,4.738764410042169833e-02,2.029992401930472978e-01,2.030318162737673390e-02,4.140837463740733304e-02
1.915316921947959883e-02,6.677778552874637230e-02,1.640026255050051895e-01,1.742839738537573235e-01,8.183872050636585224e-03,1.159900063037606899e-02,4.871692974476223709e-02,2.374549244380768365e-01,7.475307297130959205e-03,4.170096997369746733e-02
1.416004268488108356e-02,7.040321907373947585e-02,1.761176726799670300e-01,1.450671501477351633e-01,7.323589417292308487e-03,1.296414940948216292e-02,5.119011250653391493e-02,2.450456643525163458e-01,2.565048227610481138e-02,2.340562131705586565e-02
2.113054686966636848e-03,6.899348726852046199e-02,1.711870610404291615e-01,1.044941846670789654e-01,6.416482201109009915e-03,1.130408020583746967e-02,4.218770104830872614e-02,2.218087597227605956e-01,2.750849601941907085e-02,3.903393138017357752e-03
2.429975216341823466e-02,6.448015007338364635e-02,1.230660267479780356e-01,5.531655567905928439e-02,5.751191474650150029e-03,8.293437647800151052e-03,2.271555968087655281e-02,1.766737336086929289e-01,1.712482379324112292e-02,1.032688087867233116e-02
4.755214626876111406e-02,5.571150974740672612e-02,5.357040277659004535e-02,1.527460108160937600e-02,5.204257416651826215e-03,6.665832980576579143e-03,8.238038010861335747e-03,1.166740967665658435e-01,3.628933816584536086e-03,2.210988265475819295e-02
5.884244184020104296e-02,4.930705797464959850e-02,6.800054440036399500e-03,2.991855528260436124e-03,4.471575670740363627e-03,6.579580468411043263e-03,7.815075305797190841e-03,5.739148198541677015e-02,3.194835767969121058e-03,3.260404533418705814e-02
4.314356942476143403e-02,4.992156824832334749e-02,5.906717230428485017e-03,1.408218040863497972e-02,3.679339596958848026e-03,6.424603421362957631e-03,1.674222794885503462e-02,3.032299343889880566e-02,1.245484256601614784e-03,4.118535586482093697e-02
5.969837538525608195e-03,5.010177433043850465e-02,1.175925669585119182e-02,2.863952676315559276e-02,3.404734554373126370e-03,5.849072739077215526e-03,2.514816216381433184e-02,4.024253457292519681e-02,1.155292969332199528e-02,4.745708039237533232e-02
2.523916809669698655e-02,4.093902636715523319e-02,3.272920973434698816e-02,3.478418574506698946e-02,3.694562788584050683e-03,5.563517507933546380e-03,2.664869424969106698e-02,4.423393277119307132e-02,1.722563127608436537e-02,5.012999635120684444e-02
3.094463150743592336e-02,2.752368868524423043e-02,6.040384932929030587e-02,3.357738255195508170e-02,3.699534502345316802e-03,5.720580678713818069e-03,2.418442286365017624e-02,1.337654247816991160e-02,1.294875950587416613e-02,4.795165560539028926e-02
2.065258223199256671e-02,2.479671761876256139e-02,7.812864362724174228e-02,2.782958050505597927e-02,2.918211924238646102e-03,6.205773678391142238e-03,2.616974364170328304e-02,2.742302513544304932e-02,1.802682655102615279e-03,4.153997813571357056e-02
1.600996622472835446e-02,3.777115523074946191e-02,8.641990939516971948e-02,1.737283818098796923e-02,1.915038229629034520e-03,6.837611496866807630e-03,3.165214972380593628e-02,5.351745562712040272e-02,1.044247585801265713e-02,3.323010784881708091e-02
2.103492413766145860e-02,5.185833742749863806e-02,9.656272042742081174e-02,5.346000514492602225e-03,1.262832349445341127e-03,6.579921355596710791e-03,2.770408182077441911e-02,8.089888223600695538e-02,2.126636108888595861e-02,2.453103238371044659e-02
2.005208515696790816e-02,4.786671759861051145e-02,1.137245011104000836e-01,1.147965539629218837e-03,9.800328474125527111e-04,4.527339839038908680e-03,7.451665198944987765e-03,1.267286674738788144e-01,3.078996293836755091e-02,1.365021132530112521e-02
1.508777160412002032e-03,2.387232524754315244e-02,1.323334933383500667e-01,1.002534734412989341e-02,1.166976367978329789e-03,2.017169200143642191e-03,1.804613968936728124e-02,1.716890927890617757e-01,3.722492641033327276e-02,1.264942407185418866e-04
2.643435445104447626e-02,4.208300502884586292e-03,1.385721661424694218e-01,2.192877144570416770e-02,1.702281918754227795e-03,1.559393259995376421e-03,3.121173378943136595e-02,1.774678085693310869e-01,3.661520782978879007e-02,7.604748479748808104e-03
4.550088605606415065e-02,2.167062306218357423e-02,1.220522285804507001e-01,2.028523112341008156e-02,1.715581471675257322e-03,2.925984302410924824e-03,2.732748978476804216e-02,1.284027934463906895e-01,2.842949619826045868e-02,2.487548573672110699e-03
4.712293001502569634e-02,2.782025836419492471e-02,9.336643267436706140e-02,2.632054764189192386e-03,9.962430455546797750e-04,2.811367744650793230e-03,1.848828396691972603e-02,5.380432645026387434e-02,1.869994376920130694e-02,3.170828682831049877e-02
3.790589086596148072e-02,3.109560599560673086e-02,7.516877674314208224e-02,1.689993884379896796e-02,8.718117820018835007e-04,1.762211814960881837e-04,1.685773895748536588e-02,2.532672056769796898e-03,1.502069363901876835e-02,6.753944617207277568e-02
2.683833949771486163e-02,3.725576439431264181e-02,6.816965257479538909e-02,2.638548528008030636e-02,1.993842209829592080e-03,3.259068269721821214e-03,1.967559276692371767e-02,3.408717882854393755e-02,1.922379812992476220e-02,9.370460374645489532e-02
1.694665318941561069e-02,4.278663413167715229e-02,4.946056239871196580e-02,2.779858500305849162e-02,2.789570652615303275e-03,4.382017813149866221e-03,1.850214527192219072e-02,5.788051982859161032e-02,2.724517615974164295e-02,1.014834600780197271e-01
1.183417468651507855e-02,3.814475725054800037e-02,1.354927934736778472e-02,2.904108809581673611e-02,1.843102708404656224e-03,5.766208099255541383e-03,1.613274185472935926e-02,5.867420668706752052e-02,3.586105677264398578e-02,9.661492136880797665e-02
1.563920084213366035e-02,1.910398047634809249e-02,1.248110240127800648e-02,3.346432123980917772e-02,2.095945521299236083e-04,9.626384362348774232e-03,2.097040354969837220e-02,1.086256795515298627e-02,4.544462129296387293e-02,9.568588609903737330e-02
1.999655208962934985e-02,5.308483617357948742e-03,8.395423462839593856e-03,3.853133482908213669e-02,2.619783793115540134e-04,1.359617843311187839e-02,2.982741562197058216e-02,5.048235221264404937e-02,5.349348983033785226e-02,1.080321372068705210e-01
7.574624534156314953e-03,2.012295271229729704e-02,8.041647453661678394e-03,3.833323912582278781e-02,4.414669182239241464e-04,1.375932690534758043e-02,3.127176741242074232e-02,5.521335104988721321e-02,5.067181918353840658e-02,1.188766779350816510e-01
2.101066719308603697e-02,1.844946502802927157e-02,7.145421257257653438e-03,2.982817004710745443e-02,8.709644836111465763e-04,1.009889331061256980e-02,2.307853106531582502e-02,7.637527866130183925e-03,3.102217694396821809e-02,9.846411037258802346e-02
3.871845209860278608e-02,4.399929837045774179e-03,1.164766408680712947e-02,2.094538626647124077e-02,1.539858239962091119e-04,5.972948673278046655e-03,1.282104979259241287e-02,8.349800614177040059e-02,3.786522426547940263e-03,3.631596908869674095e-02
2.409638092045542426e-02,1.285327442561398116e-02,2.593775643850462775e-02,2.269070107726884819e-02,1.306712596618682430e-03,3.504880055874107572e-03,4.417980779496601985e-03,1.289293397220334370e-01,1.430339041578889553e-02,3.633507059438983305e-02
8.757735326276171878e-03,2.317948354409814227e-02,2.705461176534029039e-02,2.909465723343505200e-02,2.689573669898668445e-03,2.112300521456789322e-03,3.857981187610443584e-03,1.446263980422970719e-01,1.809629705259617471e-02,7.028885043954863354e-02
2.689268200055647609e-02,2.171232336761538123e-02,2.592801917412551962e-02,2.332668527349697138e-02,3.515229464420076971e-03,7.529571324826998943e-04,1.225853147930826802e-02,1.459185595204856578e-01,1.589371919086207674e-02,5.051499890807652215e-02
1.853302474668921951e-02,1.635376627162521065e-02,2.557147566318011475e-02,9.234790433202428456e-03,3.444156974405854915e-03,8.941967024617780788e-04,1.962107778693193000e-02,1.386880737853438683e-01,1.301899914610405405e-02,1.477950366328547455e-02
5.150857642043310883e-04,2.049229464521698518e-02,9.954061079725209232e-03,1.138585090750416154e-02,2.222319286243664132e-03,3.046337286526733419e-03,2.514416869437422278e-02,1.215202292774474474e-01,5.714876845039342998e-03,8.642264686231797277e-03
1.192034325965998960e-02,3.487826577097034170e-02,3.423373477509268625e-02,3.507496514038899171e-02,5.203475686161670609e-04,5.462484276281687721e-03,2.590025839721266793e-02,9.820981890593008523e-02,6.390170290878628180e-03,3.157881782001169951e-02
2.384536629629561630e-02,4.686888265682419979e-02,9.201509213722312841e-02,5.311540328928128496e-02,1.223442876619384653e-04,6.923059093424110966e-03,2.064215002045450068e-02,9.181210013087347244e-02,1.395763394823648987e-02,4.587374238984837094e-02
4.244939514955394649e-02,4.897719910168325808e-02,1.208920769905600240e-01,4.236310430125436732e-02,9.592996821324296887e-04,6.620608608367563840e-03,1.689135951250474166e-02,1.378715595273915795e-01,9.534851360326276198e-03,2.882045933768312765e-02
5.866521633574373756e-02,4.527603586971404304e-02,8.670321523965750232e-02,1.071015557429198795e-02,2.695842661499992313e-03,5.177810017503206921e-03,2.352632613545386359e-02,2.384634045878459285e-01,2.317390525567317866e-03,6.698791223359163577e-03
6.309392500762020517e-02,3.897991018584694156e-02,4.873531190576207116e-03,1.853251297307751538e-02,3.709377775398874696e-03,3.405008662589004229e-03,3.589265082968617904e-02,3.265574571215154598e-01,1.073493135166059959e-02,3.513965622481629580e-02
6.500734124667537084e-02,2.975227953199295269e-02,6.948001573518597374e-02,3.078521952542540019e-02,3.780826548934629674e-03,1.642481838375970098e-03,3.986151076347474453e-02,3.186145922301429900e-01,1.086665915465426235e-02,4.216392579817471176e-02
7.548334858321885388e-02,2.421493254497405004e-02,1.017701914435230615e-01,2.627478287259240805e-02,3.592916696406705558e-03,8.512323877939679964e-04,3.177995637832408543e-02,2.175350304798921164e-01,9.139914413050559752e-03,3.192460921374064980e-02
8.539600349325818240e-02,3.039417971622076706e-02,1.057270043964869261e-01,1.444930484708260507e-02,3.770673038939971466e-03,2.307964875360107339e-03,2.311961812308056807e-02,1.211069712884169230e-01,1.596356815498462672e-02,1.968438765287047060e-02
7.912373465631999947e-02,3.926924574360594195e-02,1.032364311777800164e-01,2.569448547796894869e-03,4.290585003443776052e-03,5.530300630421041905e-03,2.382499691699381875e-02,1.086891161626189622e-01,3.227015005774471618e-02,1.306524901918249340e-02
5.756524427868042748e-02,3.114303733361392656e-02,9.116327226540205109e-02,1.294736929216877552e-02,4.360964883899106845e-03,8.273606186692582590e-03,3.137809214155527077e-02,1.593265630786258880e-01,4.735584796098132876e-02,7.091326163998070559e-03
3.421681487713339881e-02,3.457242942566832872e-03,6.314696063996211306e-02,3.821986702296113064e-02,3.331053918909095135e-03,9.263487690647425471e-03,3.743537757731527083e-02,1.938142909583901730e-01,5.213222565913045586e-02,3.493958455271747518e-03
1.873229657451329702e-02,2.525254100941654381e-02,3.194684690220791351e-02,6.636416517686348493e-02,2.034536779765634424e-03,9.266027355374415256e-03,3.551315837107314743e-02,1.551074885023922545e-01,4.763418408786253277e-02,1.462852523992628877e-02
1.030440782430795503e-02,3.959231527246803023e-02,1.488240978867738824e-02,7.961449212798116237e-02,2.064938501353432831e-03,8.872838800303530990e-03,2.158923393155095030e-02,4.195034303039174572e-02,3.867577206882164692e-02,3.598807578534394397e-02
1.285491092845805414e-03,3.936156369947005351e-02,1.822431304198831453e-02,6.868900056428320355e-02,3.361669504222646564e-03,7.421068936701986224e-03,2.587415100417461266e-03,9.397067719701140964e-02,2.815652377380739591e-02,3.777426615257167830e-02
1.217482779984915310e-02,2.942075599005223793e-02,3.739564088597775032e-02,4.546390319589031781e-02,4.118078413508821645e-03,5.057913516325308716e-03,2.538127486155593651e-02,1.817209919451332756e-01,1.953010258980893143e-02,5.240930033759234538e-04
2.342790185036747533e-02,1.246505910196105821e-02,5.450647070982547054e-02,3.356334938665959944e-02,3.410550508838678697e-03,3.529374400839158793e-03,3.379511327782202396e-02,1.962059814174685890e-01,1.570017290029025042e-02,6.300574557030989842e-02
2.537872702448260021e-02,7.671098437969731121e-03,4.628442420673085922e-02,4.496689262938576709e-02,2.223730978535339714e-03,3.744779474075126107e-03,2.738103836084436471e-02,1.843618114464370683e-01,1.354419095950636608e-02,1.137656431376304345e-01
2.252339725508691742e-02,2.469324841603339621e-02,1.226998493901729735e-02,6.737496944708702695e-02,1.705872783823394198e-03,4.426411614199455939e-03,1.658127967243430353e-02,2.033872045057391054e-01,7.447120401013059346e-03,1.283211298564783942e-01
2.323795813134873697e-02,3.479392432499164856e-02,2.200652491705268332e-02,7.907660226446111551e-02,1.924184237041344243e-03,4.078801118644241087e-03,8.514535604208058744e-03,2.527692233368018515e-01,1.106397227183151914e-03,1.063427109071124754e-01
2.437249128081447197e-02,3.975873615171648251e-02,4.310128813460355202e-02,7.520741599862235116e-02,2.359439791635529766e-03,3.090717912782008168e-03,1.526646434480575859e-03,2.907098993827992861e-01,5.199087000147302982e-03,6.544365194742318703e-02
1.301553173933960722e-02,4.146077548864274265e-02,6.406754420316208842e-02,7.064671487747539724e-02,2.566027225428595300e-03,3.157275265618552946e-03,7.076358221226553176e-03,2.943982455435951717e-01,3.388090203606970111e-03,2.736279315186814290e-02
1.642885598639085357e-02,3.555133086304007595e-02,8.751254439936478891e-02,7.414830069015221348e-02,2.400584926069947167e-03,4.648945082443747823e-03,1.387980896651759381e-02,2.774869361791767464e-01,8.404791946048629191e-04,6.152127534730826748e-03
5.138279299258310256e-02,1.709477243151320131e-02,8.916682596345414102e-02,7.210422601650363916e-02,2.041104437504673297e-03,5.058430092007370517e-03,1.218450875370024646e-02,2.583687901768234041e-01,2.467264377845257081e-04,4.231196004455733094e-03
6.984571038899672901e-02,8.962875303045713879e-03,5.882485580870585457e-02,5.001175159910446755e-02,1.691826803742243340e-03,1.620479494686060317e-03,5.510978055184652565e-04,2.343312697296505986e-01,3.332124033226761296e-03,1.345406088495929714e-02
6.163380567506824420e-02,2.914253548684982154e-02,2.428384397154600277e-02,1.926643339214128073e-02,1.371284374773459186e-03,4.429064206942598392e-03,1.535675016556430593e-02,1.974389591702397084e-01,9.363863295817342891e-03,2.086891059926473946e-02
3.974717664485724611e-02,3.214315743852689394e-02,1.023094691864754983e-02,2.615266775960392500e-03,1.109995375589021595e-03,8.720354806707717593e-03,3.097072711153084010e-02,1.605606154914621941e-01,1.283716211071682205e-02,2.072122014963981643e-02
2.562293104748818162e-02,1.772441228266158700e-02,3.068177295906275668e-03,3.774115627691240760e-05,9.541891534138557647e-04,9.125865748989462831e-03,4.613730303431701207e-02,1.389430805829870164e-01,1.015063447051065340e-02,1.791919701665395034e-02
2.282412196318458000e-02,6.372861471336725789e-04,1.796234584766470341e-02,6.350338306484461584e-03,6.822726148202343721e-04,7.473021916346766526e-03,5.688009124809041694e-02,1.182193617064185437e-01,8.176665987949076342e-03,1.518968258556591816e-02
1.548301455326434040e-02,2.379374382224470463e-03,4.388351079042987490e-02,1.856486570035992614e-02,1.497768536491573405e-04,6.030737297373667781e-03,5.462906552136195804e-02,8.106539885035676796e-02,1.806351358961624798e-02,8.543221673136418282e-03
2.687083702292274515e-03,2.828796899868490922e-02,5.919602413537461416e-02,2.218383423556199996e-02,5.138512129916172465e-05,5.352327588135025530e-03,4.086594043785470726e-02,4.908990458216196812e-02,4.010991845122272720e-02,1.613962307506315585e-03
1.429314732643114337e-02,5.676234923849837050e-02,7.272436173378729607e-02,1.729274633569819961e-02,7.206298508543397584e-04,5.742606981218624507e-03,3.241466018337418875e-02,5.308877003356502616e-02,6.112510324570007147e-02,7.967483103282203133e-03
6.203381452264919091e-03,6.356377705138872847e-02,9.263621329760970968e-02,2.133622929912958044e-02,1.752995124807866113e-03,8.002011002326246680e-03,4.326200996707602747e-02,8.228705327148519433e-02,6.895680934900381975e-02,3.050030554093981910e-02
6.993203063215143109e-03,5.156563813705641180e-02,1.002506163506214076e-01,3.903252461674727031e-02,1.631773309760578506e-03,1.165318046151491913e-02,6.722013631550560753e-02,1.020833528165481230e-01,6.373626469126515703e-02,5.289335059372526210e-02
7.081067057017361235e-03,4.277991217374620125e-02,8.238900870842399971e-02,5.319607100010064621e-02,3.716949179556422673e-04,1.437500902289446693e-02,8.550223966778805473e-02,9.921509179514594046e-02,5.245647942970806110e-02,5.861083757684558415e-02
1.976267105119708812e-04,4.747474964435448308e-02,6.051795552389550858e-02,5.013537703325134098e-02,6.427292375132198990e-04,1.462878000043737158e-02,8.729914605015495765e-02,8.264083808226327377e-02,3.918052506182994471e-02,4.854812909954667882e-02
1.653234698220059414e-03,5.767726037353054780e-02,5.756318006286627320e-02,3.762076709643803057e-02,7.345136493818135194e-04,1.347701844149620798e-02,7.661148832643559226e-02,6.219569296495470329e-02,2.567235314517241074e-02,3.767458464087541925e-02
4.283642138586347958e-03,6.645664066789354341e-02,6.482292096030443929e-02,3.297929104185071819e-02,4.297510161955369083e-04,1.251662974741946793e-02,6.185531529754696722e-02,4.510302054496374835e-02,1.726776225090373429e-02,4.074248099476741186e-02
1.181910420200432341e-02,7.597231245862968996e-02,6.740225051403218870e-02,4.569673135615318071e-02,2.342902585784629034e-04,1.161141192581420165e-02,4.714457375408484530e-02,4.241535599728159245e-02,2.098435573069633298e-02,5.901774932861011264e-02
8.449168846473280314e-03,8.635376711623100887e-02,7.422482646126921102e-02,7.605255022960055733e-02,2.967233679731987170e-04,1.016433223282090827e-02,3.457038021508873626e-02,6.721853031626709440e-02,3.720454466851345204e-02,7.791602657324316061e-02
1.434712430087168103e-02,8.969558480301048631e-02,9.820925668494026595e-02,1.176581089104246497e-01,8.626756983390005892e-04,8.902774058248630329e-03,2.666251964682342379e-02,1.195134388718375046e-01,5.682926821493181069e-02,8.294430359450288837e-02
3.572693875036518640e-02,7.868152903755760985e-02,1.289759966407129921e-01,1.552036209497749120e-01,1.967209317919467373e-03,8.616003106416291260e-03,2.219300618964487742e-02,1.711551893569181193e-01,6.766218493757460151e-02,7.542372603362673678e-02
3.347443215997317895e-02,5.632291490209848095e-02,1.467166556191248084e-01,1.731503227773327769e-01,2.917060879417675365e-03,8.599791792592344913e-03,1.525607746136968881e-02,1.783143787218844367e-01,6.363464776239535770e-02,6.382760879869044113e-02
1.333388670344147833e-02,3.396784457614589192e-02,1.468153014221338648e-01,1.714163949346692584e-01,2.771864021090320648e-03,7.971952094301976849e-03,3.662109915630047674e-03,1.219827042988422955e-01,4.957291041645949664e-02,4.908812580728402764e-02
5.583674392762022834e-03,1.910561888468125316e-02,1.355617324922883671e-01,1.609087049154713234e-01,1.467845602462815920e-03,7.133583269187350126e-03,5.474274895178364055e-03,3.754319076386260223e-02,3.651447182092134452e-02,3.167629484625743286e-02
1.494748448409043660e-02,8.562417390952722571e-03,1.162495642572913268e-01,1.463377603034397845e-01,1.665990253322388245e-04,6.551442772431307487e-03,3.839480645761735034e-03,4.702696538703118705e-03,3.024113538901114853e-02,1.987111231060961769e-02
1.633778320726556738e-02,2.304543636336935444e-03,9.096879257306698940e-02,1.261060508524657342e-01,3.891904007726478757e-06,5.594272492563389342e-03,6.634595664758730776e-03,3.528793901178702008e-02,2.631641638186837592e-02,1.622159164593356406e-02
1.411801291358348760e-02,9.354481314774482081e-03,6.445115494826625380e-02,1.017468994472084526e-01,6.002858043623464672e-04,3.979745057959601338e-03,1.578524106844883881e-02,1.174777623623834699e-01,1.815111138155610718e-02,1.020775359799687421e-02
1.694126999533172168e-02,7.068932181853491460e-03,3.825848354119587569e-02,7.587621859900471610e-02,7.515340599481694665e-04,2.813363628207547762e-03,1.712005803102461046e-02,1.555097789234560768e-01,5.371766449623211967e-03,3.128874862081684922e-03
3.309799609793238201e-02,4.122381668115225953e-04,9.132874030313630972e-03,5.023217731456944279e-02,2.495045614408112158e-04,2.601328468328548225e-03,1.216071744978219210e-02,1.097356897389493019e-01,8.493064570124411045e-03,1.247459748212921896e-02
5.767638081737176681e-02,1.753032933338266770e-03,2.289581462439785331e-02,3.249752189894297705e-02,1.433272200169385924e-04,1.804503540598119708e-03,4.461295841813722567e-03,2.839818437289411482e-02,2.134756559295439629e-02,9.105602915129899777e-03
7.209574178978248038e-02,2.400122290519067329e-04,5.135066474356524829e-02,3.116981387466123340e-02,9.456438606166850391e-04,8.933453575425546241e-04,4.312832049147725770e-03,1.526414377229084497e-02,3.249859222008234100e-02,2.431235818627561045e-03
6.308016029159374538e-02,1.478434764016037326e-03,7.085467964654204587e-02,3.919427671955771214e-02,1.640117205669762001e-03,4.298324779594043035e-03,1.263771150200416159e-02,5.542132288565303558e-03,4.118113979646149947e-02,5.930766361276624578e-03
3.923795649240935379e-02,4.173151241112363526e-03,8.364331676177039210e-02,3.882235878303227222e-02,1.038133948843584760e-03,6.256597238690483204e-03,1.921022628166649260e-02,1.411390583418455080e-02,4.732539733115951469e-02,1.796362557180890968e-02
2.309515247385712788e-02,3.070164666115044426e-04,9.864642673597555367e-02,2.484415350792093524e-02,5.156353062847993541e-04,6.364454381599595964e-03,2.580405883650175453e-02,6.662459306686595306e-05,5.282009616457843809e-02,2.632060829836985194e-02
2.893818474902669705e-02,1.298701799128231318e-02,1.252342098161230710e-01,6.860754809347412164e-03,1.519693198994213380e-03,5.949072799156546187e-03,3.636162570464297750e-02,5.826800440024668126e-02,6.174122978131111467e-02,2.532123114595019597e-02
5.421277632505448058e-02,3.003214972932653770e-02,1.610867036894834958e-01,9.776452655149609622e-03,1.142473470244577622e-03,6.057657260561210774e-03,5.214978549597457103e-02,1.468475070042766228e-01,7.677397528818025174e-02,2.050038946739172335e-02
8.666125929446828746e-02,4.363902145583305886e-02,1.856791909514525218e-01,2.844606150894764957e-02,1.109474565977498100e-04,6.344608743399768672e-03,6.974979626483254758e-02,2.421051368188319453e-01,9.286924318277384183e-02,1.917216788097365204e-02
1.091618766854102196e-01,5.078124053808383970e-02,1.792645150037301682e-01,4.946236827313610362e-02,3.260188015930482537e-04,6.004029724986267337e-03,8.411685851455141805e-02,3.154360094160956751e-01,9.958478145348992339e-02,2.217725696495920565e-02
1.044792704638270037e-01,5.220132242158302682e-02,1.496066116461222117e-01,6.880795557245995842e-02,8.486578873889374540e-06,5.307190285114513420e-03,9.226067534710018225e-02,3.461152585852083630e-01,9.408345361063875922e-02,2.606884317534264098e-02
7.055702959455964485e-02,4.997447183492623179e-02,1.261665764464318384e-01,8.623673505337235701e-02,1.773771203326654554e-04,5.228912893725269628e-03,9.396230043151972133e-02,3.364081133165215953e-01,8.544700463103530041e-02,2.993300283092201544e-02
2.775623151239717951e-02,4.639757320612799413e-02,1.324266589961869689e-01,1.037383108908818546e-01,4.219958104013476867e-04,5.599329054119826787e-03,9.029327116678156906e-02,3.053843402233824000e-01,8.391641221927452488e-02,3.612027759110154890e-02
3.911105646598276447e-04,4.340976659958453721e-02,1.725853162753731851e-01,1.194249158140891637e-01,1.282997268337722182e-03,5.441135438620594428e-03,8.244031265765233707e-02,2.682280481787112647e-01,9.481771089932411467e-02,4.559479430607729644e-02
3.256078688381422101e-03,4.128932019218820026e-02,2.228573452723660586e-01,1.309406201230678413e-01,1.610884379400562326e-03,5.209750453259412613e-03,7.165058115204803180e-02,2.345330941365482147e-01,1.188806808716224850e-01,5.667142896914509342e-02
1.058902443774310809e-02,3.864880671306356041e-02,2.261310903913640313e-01,1.394722658424623618e-01,1.485843744003215302e-03,6.053195823328744521e-03,5.943256366637252042e-02,2.193078638396631919e-01,1.414027262589294398e-01,6.805771544014015129e-02
2.856690252469631930e-02,3.499624671066991349e-02,1.348829877598441418e-01,1.424966393826222755e-01,1.664496703827156830e-03,6.866940727212630588e-03,4.831048081932961397e-02,2.284192651887613501e-01,1.290270106810802730e-01,8.003366892688124068e-02
3.362310851525097954e-02,3.194959407529044532e-02,2.440966298486381067e-02,1.290498873054684859e-01,2.109236411671098262e-03,5.442550967168419129e-03,4.267187591564665372e-02,2.375929676604209284e-01,6.363385516453969049e-02,9.182400453053073119e-02
1.784939586326388106e-02,3.061638299478642092e-02,1.680073032861914839e-01,9.233970257198484410e-02,1.924185018357103946e-03,2.605889874777592933e-03,4.550821414277728821e-02,2.165363392366805861e-01,2.542534726521983313e-02,9.984996668881511439e-02
5.339950515919693677e-03,2.960697107687836060e-02,2.416511533920547294e-01,4.339678612020136939e-02,1.230860999419746901e-03,1.663475833291691922e-03,5.143107307612707069e-02,1.691672575665394140e-01,8.774919196980254799e-02,1.005708355316697333e-01
1.532344046085771724e-02,2.724735839594520648e-02,2.525968313759491823e-01,3.329721571582689062e-03,1.171880318691679527e-03,3.554825757213833041e-03,4.718244375661095197e-02,1.243407417336356569e-01,1.036990482465054708e-01,9.334753426020296618e-02
9.490900990640828080e-03,2.432689207286343330e-02,2.245821460534677960e-01,1.507345078262290784e-02,1.658123254815733897e-03,5.839084788110782825e-03,2.549889598514640601e-02,9.843841109113307675e-02,8.953623828009983632e-02,7.884341594093080552e-02
1.694403300305389638e-03,2.303469029665776435e-02,1.673106891908532068e-01,1.148695126828383137e-02,1.474043624665935699e-03,6.552355577216265395e-03,3.188510229006579627e-03,8.611625367872303982e-02,6.380777577639576426e-02,5.872889146542273342e-02
4.855081986600137331e-04,2.343861260460351759e-02,8.892007666815168743e-02,8.448093202336902710e-03,6.555669596184685683e-04,6.063226476961561945e-03,1.972844454257359492e-02,7.108316721843140062e-02,3.143898602005663206e-02,3.855002072795520734e-02
5.485731635355676691e-03,2.210916297770793015e-02,5.007628899151642110e-03,3.194744152811439947e-02,4.502221372289789535e-04,5.235889514961602521e-03,1.669407309401474415e-02,3.696760908056299921e-02,5.890986934220485659e-03,2.442141607968498218e-02
2.020017851249388680e-02,1.574576020896187312e-02,6.926722431190684981e-02,3.872299067501711045e-02,1.163008164515150298e-03,4.426977470797245282e-03,2.700094431493647341e-03,1.378094398067928814e-02,4.203101516531560639e-02,1.534951981337050360e-02
4.697018156582679488e-02,6.587612324986315271e-03,1.265046450223859253e-01,1.819164398682444200e-02,1.911973040865953604e-03,3.973247249848105810e-03,1.338759396687498604e-02,5.222003704211140851e-02,7.062907792647211969e-02,4.735359563393864296e-03
7.163789926851768519e-02,1.574438802802092217e-03,1.714228423260455714e-01,1.513526496985282549e-02,2.094575764392946505e-03,3.744612053028189939e-03,3.164579394207042706e-02,5.116821485649539897e-02,9.161121743228257952e-02,1.061780152265357803e-02
7.529679046833101519e-02,4.306652471121125841e-03,2.159982350473669266e-01,3.594815940513351737e-02,1.716595601934855922e-03,3.129631724362158269e-03,5.087242163432444814e-02,2.007258874873142640e-02,1.123064825051649784e-01,2.704112856324791120e-02
5.972244953359153591e-02,1.060781276911672635e-02,2.559726649003179477e-01,3.448432994023720166e-02,8.639207201135384699e-04,2.453425926866127215e-03,6.190596687123172542e-02,3.369808131455660771e-03,1.375670512083354002e-01,3.809633195592038862e-02
4.208681376114457862e-02,1.410482482663063565e-02,2.591533688882875497e-01,1.891351144398043319e-02,4.506976676188796248e-05,2.577131795750020431e-03,6.047326100548351679e-02,3.844006114717149480e-02,1.546007118353752430e-01,4.026080318424517246e-02
3.035468070196677484e-02,1.332950028342799742e-02,2.005683000741047273e-01,1.377940045036446168e-03,1.728420148619291071e-04,2.785719892450976704e-03,5.569100236632173323e-02,1.099442906093814759e-01,1.388680043327371050e-01,3.523137825722481853e-02
2.369852186844866732e-02,1.113704727364967992e-02,1.037683761563103213e-01,2.187912439669622428e-02,5.815141761397661733e-04,1.594786943025177858e-03,5.369398204027205079e-02,1.577715727817354530e-01,8.610654191678321356e-02,2.565554175018657651e-02
2.827186067286448917e-02,9.671964332644894177e-03,2.311720514025514261e-02,3.651983646269132966e-02,1.027733476088029101e-03,3.604300463978075963e-04,4.352248169389225790e-02,1.441245122245875254e-01,2.479280823604375697e-02,1.038917352210308107e-02
4.936792027526244742e-02,8.538921040218347414e-03,7.950115675096198348e-03,3.835537984762743546e-02,2.341156499775519145e-04,9.460505486410057110e-04,1.445962386212564649e-02,9.576507314538276749e-02,1.549268693387744443e-02,1.018919869964521850e-02
7.371759731631948032e-02,6.868879262440772716e-03,6.218572712538608313e-03,2.790859442738616303e-02,9.941045575116483866e-04,5.242079827246924791e-05,2.200680971362574401e-02,6.271428195253933580e-02,3.092138884133383003e-02,2.632159106657119829e-02
8.007263857398648488e-02,5.013835330818465844e-03,4.045536857370035655e-02,1.360173034971377815e-02,1.187954664178187672e-03,6.322212539859710118e-04,4.487578881535378428e-02,5.501385508609798330e-02,3.094297660710600834e-02,2.638534945375237487e-02
6.436911464264429006e-02,3.733513099503911123e-03,6.452882180895769260e-02,3.082049714389085114e-03,3.451541629350710571e-04,3.552816213881041007e-04,5.219701810968795097e-02,4.362705584970412442e-02,2.398854600455966810e-02,1.274869466394675833e-02
4.053416050973157603e-02,2.527400047901633140e-03,6.026286986214540037e-02,1.885232403922165387e-03,8.914347200501737049e-05,1.883232276833489600e-03,6.038866086867545474e-02,1.340060403620047663e-02,2.278038234364645684e-02,9.552075924916953722e-05
2.047367553307299221e-02,3.440709595485882955e-05,3.773057543189286406e-02,1.464924498992437908e-03,6.773798608707018529e-04,2.482331638417332835e-03,7.806954738877526501e-02,1.184525230080967981e-02,3.802344332804370730e-02,3.577508955681293727e-03
4.534519545676403245e-03,3.862010800872394799e-03,2.254372010408683957e-02,7.309622768183267859e-03,1.762749752617251160e-03,1.969977496975675382e-03,9.557292087698932015e-02,4.297575424310111011e-03,6.064288359981172966e-02,4.755956875776956583e-03
1.096533209530177640e-02,6.645028440006540624e-03,2.496209572266902890e-02,2.502599265300961551e-02,1.981714409304466927e-03,1.492955345639198923e-03,1.013648884656267735e-01,2.935486946331290758e-02,6.902483697649632044e-02,1.119017383390197122e-02
2.630527544305534537e-02,6.861020255175974761e-03,3.585159790583374029e-02,3.824350553573928335e-02,1.296977041191496333e-03,2.139100790850053096e-03,9.756610620374077392e-02,6.162962515527777713e-02,5.379200952489066045e-02,2.036187197517713363e-02
3.942186539270381429e-02,6.026607560743701270e-03,4.662178259511468720e-02,2.612355806089363200e-02,5.128843295398353248e-04,3.358555127091654956e-03,9.471737237169634838e-02,7.915336568778073845e-02,2.311317249889850017e-02,2.511279242046380103e-02
4.944672803587991938e-02,6.420481854668355637e-03,5.084789265046153056e-02,1.223181027251108929e-02,3.333673309442916058e-04,3.533608246953513776e-03,9.622002549544063366e-02,8.349379309491200551e-02,8.683969598985272556e-03,2.415178285734881358e-02
5.536702763217240392e-02,8.041125435988732625e-03,3.427270390396163630e-02,5.015914307260622290e-02,9.212122115014699042e-04,2.343315182129250378e-03,9.374712280632425954e-02,7.315747407461298257e-02,2.620636193731594454e-02,2.262032656624229227e-02
5.032419937287952588e-02,9.407410804250332728e-03,7.748842415464876621e-03,6.367650168312728731e-02,1.628789212773083936e-03,1.162391919033162972e-03,7.877965347499381321e-02,4.726771901866179404e-02,1.776776549823845530e-02,2.383422504443532403e-02
2.482698193823471011e-02,1.012425198418996988e-02,4.792471035829960063e-02,5.585016120856509114e-02,1.369747058558730066e-03,9.768309426737473676e-04,5.360762454102181024e-02,1.780387071492016415e-02,1.137003166927966907e-02,2.278193506503680202e-02
1.605201230982177679e-02,1.103954512662457324e-02,4.864960029581577583e-02,4.266934341216679916e-02,6.060871438483239718e-05,1.365280550701294861e-03,2.884558466345568326e-02,1.070967953287126247e-03,3.767867451539362589e-02,1.185014209770678291e-02
4.816201717955683609e-02,1.246454314726191774e-02,2.273073046159083954e-04,3.023548991622446169e-02,9.172254619409668432e-04,1.614150384321385440e-03,1.536556393114456992e-02,2.013469643108965756e-04,4.030276141650322025e-02,5.649454890065256675e-03
5.328501022780270102e-02,1.368148425656371542e-02,7.800244146431853376e-02,1.608507953123739648e-02,4.450469364945295421e-04,1.756555135753730878e-03,1.873304658494735417e-02,9.916048933455122449e-04,1.718941228123577886e-02,1.615182636745029349e-02
3.886867983515406716e-02,1.421755735943160473e-02,1.565776557138379155e-01,1.347514687151611396e-03,9.688215637511606894e-04,2.134217259216988471e-03,3.433948980881922075e-02,8.322890515413787493e-03,2.123018531046374016e-02,1.512256194424910043e-02
2.246437479101008952e-02,1.441257723149242873e-02,2.020043458886033316e-01,9.034350425367224102e-03,1.981274929258517673e-03,2.353929693385029779e-03,4.800981254705916079e-02,2.410189183064730817e-02,6.151012488543660534e-02,1.514039604048549384e-02
9.144344345332261481e-03,1.449956621866548175e-02,1.860715122540020916e-01,1.287368500185318010e-02,1.701242850408546262e-03,1.662119001648313527e-03,4.662773108705031005e-02,2.886530109846944733e-02,8.630896363519857672e-02,2.677450938574688424e-02
3.986205968794111383e-03,1.424474507680101483e-02,1.011563189998128387e-01,1.079042348806124804e-02,2.735586405625401569e-04,4.974929769326021838e-04,2.775548257719027967e-02,1.584989232810628257e-02,7.566677373428819242e-02,4.117878222706709140e-02
1.122825711278864665e-02,1.370360644055723318e-02,4.288818229375590541e-02,3.362640672529817500e-03,1.041141953027332600e-03,1.061875390729034949e-04,7.646494383577390544e-04,1.580778719159420947e-03,1.605911073735140013e-02,4.145649320347016137e-02
1.192422191890878461e-03,1.326090140441015149e-02,2.219062021461644940e-01,6.953908046844576793e-03,9.909978254115966827e-04,3.750831547098890648e-04,2.635663304346409080e-02,1.135535367625637587e-02,8.854735772932198490e-02,2.454810984552735845e-02
2.451200006660915823e-02,1.298270947137214644e-02,3.845209618130330798e-01,1.421827626087347925e-02,1.718398656155693685e-05,2.508003650185852609e-05,3.933423801879276649e-02,1.650474406456364090e-02,2.064002086796776214e-01,1.582485101212130919e-03
4.724252742861589915e-02,1.283424831272084524e-02,4.697231012553860774e-01,1.356122523831690060e-02,2.702175370537607344e-04,1.233405459883504893e-03,4.022216479868813421e-02,1.800776924103291571e-02,2.862407035921836762e-01,1.860615246658894884e-02
5.026792438535926388e-02,1.289697294773594141e-02,4.578620643376689614e-01,5.734486306283335076e-03,5.953359432457384654e-04,1.796086709166573028e-03,3.659809297710849701e-02,2.668745939451549684e-03,2.964520993979058439e-01,3.391446319410232335e-02
3.444272074466188382e-02,1.263394424126409489e-02,3.824059242611611564e-01,4.638360064957434623e-03,1.418066972668188342e-03,8.514567598691159811e-04,3.150687352243816686e-02,3.634644456801636864e-02,2.532911245525767963e-01,4.048509799682049881e-02
1.274906276182661072e-02,1.114700139622494882e-02,2.965122692360686041e-01,1.255444986567319857e-02,1.126077072507737512e-03,5.842883711295555546e-04,2.198270895280707293e-02,7.541678758089678802e-02,1.981198518715260315e-01,3.489288269649960111e-02
3.062256469648581489e-03,8.762511666751958070e-03,2.474232295511082647e-01,1.377298582258652641e-02,1.691639764289138044e-04,9.952836373094695391e-04,9.135275036582044678e-03,7.409608030045289340e-02,1.584368507042729635e-01,2.406031319513684055e-02
9.293674356880367304e-03,7.001541305287798528e-03,2.524159625727285805e-01,7.750187220632863069e-03,1.068758454629837847e-04,3.343199060725517537e-04,1.775770680297276277e-04,2.010510831351305233e-02,1.383659559012336560e-01,2.033639172034062623e-02
1.116120744235800030e-02,6.603139208365569647e-03,2.741155977696838608e-01,6.476835446888231512e-04,6.636655736079010012e-04,2.840762304209404343e-04,1.451350254977999341e-03,5.044061028720420170e-02,1.273629137405490053e-01,2.732966702275223952e-02
1.751092926947296971e-02,6.713408143982581636e-03,2.529451979804729356e-01,1.350068853691330575e-03,1.282690511766169548e-03,4.709450141263586773e-04,1.575408833900636407e-04,9.120295494724371677e-02,1.081848960174036783e-01,3.788357355233949730e-02
3.060836047855283737e-02,6.093976741156679512e-03,1.813626962381265362e-01,2.211741290924396260e-03,8.181167836983667526e-04,7.851522280123184516e-04,1.412701875247697600e-03,9.397934186057245454e-02,7.100401882550499977e-02,4.300291351289693698e-02
4.320346622903581402e-02,4.454104850670472827e-03,1.104967371442815566e-01,1.048970523021359839e-02,3.449091302247625740e-05,1.275518770245874251e-03,3.358490080484916474e-03,8.332328512415243527e-02,2.641948929106707061e-02,3.879394560974631229e-02
4.791034390497715678e-02,2.813008328197989707e-03,7.165093584337751953e-02,2.393282037191923201e-02,2.833589590727534453e-04,1.323446780327841230e-03,6.267866745961091918e-03,7.635368700069856962e-02,6.211475087733441328e-03,2.755231571193475851e-02
4.539053475740802146e-02,2.465381939264979158e-03,3.472877669045036642e-02,3.097066762501631335e-02,1.180878695535646743e-04,8.999689973149739997e-04,8.702710144243390455e-03,6.975599754899877714e-02,2.564736001850332833e-02,1.399435588170690192e-02
4.158402366173333947e-02,3.091176138135617694e-03,2.808210887136629308e-02,2.739252460354068761e-02,1.615678238407119245e-04,6.720503069074197167e-04,1.365061523471675434e-02,5.781629385071221372e-02,4.863973276988746430e-02,1.001883576705304892e-03
4.132547332684836233e-02,2.953452627903992329e-03,7.609673584233164756e-02,2.016107568517923679e-02,3.485710580927052276e-04,7.427090543998147651e-04,2.564472071690270319e-02,4.127133290913151398e-02,7.536437193733683260e-02,9.191341379714224047e-03
4.553935727456340926e-02,1.698664575694193608e-03,4.783482953377293789e-02,1.470775634085965886e-02,3.889800462803473719e-04,3.560452653753605045e-04,3.843892834334829145e-02,1.960013993017957479e-02,7.488025714041612879e-02,1.253852444137589645e-02
5.019622834612191831e-02,9.090091294044607903e-04,4.242503364383601316e-02,8.856402121000028771e-03,5.168946240489114517e-04,7.153915711736619784e-04,3.604625315717968626e-02,1.056979538456489717e-02,2.616463043879088332e-02,6.965907326833047086e-03
4.860232034071737539e-02,1.011824132555340979e-03,1.112884051654661893e-01,3.633307006749126548e-04,9.122414819764596613e-04,1.454001460580475573e-03,1.320861917202372469e-02,4.522471948086994459e-02,4.154250159042405244e-02,3.879265529424991490e-03
4.068837489095833426e-02,5.475795513134877786e-04,1.064267346424244698e-01,7.653359287733705121e-03,9.706213220967335785e-04,1.100068613862318669e-03,1.241541379996626872e-02,6.640482622585269779e-02,7.696717390651020008e-02,1.439724426405966998e-02
3.860207500301863354e-02,5.758962282159895123e-04,5.087333488590482095e-02,1.130571663662239580e-02,1.936032914181508508e-04,4.482605624861105533e-04,1.688673789581391846e-02,5.451012663835681782e-02,6.490639743362039416e-02,2.070675039121055300e-02
5.265470123021576826e-02,5.995364240419954333e-04,1.061408112142921134e-02,1.116721166995021837e-02,6.933496180350341796e-04,5.916619454838596606e-04,3.834120835271921830e-03,1.240487652887425039e-02,3.009447563855495791e-02,2.022523858541269356e-02
6.970276279510453921e-02,5.244413842278863262e-04,6.296049996108721292e-02,1.034803511715152308e-02,7.339107208302388672e-04,1.362521202741007144e-03,2.953366207334206378e-02,3.083184926775742879e-02,4.439774851120217337e-03,1.458235483337754629e-02
6.021921681155464889e-02,8.147985741762170300e-04,1.135305686590291074e-01,9.955016357591923645e-03,1.789085476614863399e-04,2.096711331560197934e-03,3.616733458569237197e-02,4.912283765894395055e-02,3.528877846997734158e-02,1.160386326547936664e-02
1.575090959009224634e-02,4.636582098976774029e-05,1.654911453943813948e-01,8.756943181183831498e-03,3.397531262846631038e-04,2.722063298030654669e-03,1.663699318440045594e-02,4.634867637377729221e-02,6.365210456761483115e-02,1.738365327827518306e-02
3.493644034028053902e-02,3.151440168433726745e-04,2.077587486737998701e-01,6.165199239279455304e-03,9.878188956401767230e-04,3.049938763698249906e-03,1.829886755358798786e-02,4.736535345094999849e-02,8.664922008492950689e-02,2.927872578464099304e-02
5.796408483722830657e-02,5.301298384609517706e-04,2.233550147463829738e-01,3.512950087654825165e-03,1.786302413711453796e-03,2.578651469581602282e-03,5.202110759298692738e-02,6.708293024577922925e-02,1.026125035813616193e-01,4.035344746879075684e-02
4.875524959060201918e-02,1.298319580407762902e-03,2.090267883961504647e-01,2.158260837261482754e-03,1.855872374575686387e-03,1.809942344512782166e-03,6.937418331139069694e-02,9.446003114814129076e-02,1.128308314688434011e-01,4.515984985046976596e-02
2.520437274559264584e-02,1.502029380135047349e-03,1.843858835794326689e-01,1.640218223098672710e-03,9.348951756774243624e-04,1.723973643710123137e-03,6.161565449987091436e-02,1.061968662563156363e-01,1.187982986703786520e-01,4.112559127081849564e-02
1.376384354259387044e-03,1.690125842482816804e-03,1.742076317828758214e-01,6.853637130498279814e-04,3.374541388689278570e-04,1.792879289959601729e-03,3.580467305649782939e-02,9.146384553546069163e-02,1.220937743279623400e-01,3.197867677851485430e-02
2.037747247889303698e-02,1.890319218462227589e-03,1.870821961085021301e-01,7.460031667434975557e-04,1.036595570547255889e-03,1.106558676462106273e-03,1.250133650293054795e-02,6.117530459957310623e-02,1.255269584683264550e-01,2.738846053183777163e-02
3.774745724331154267e-02,1.636957699062428686e-03,2.141699257404734991e-01,1.661446613240503099e-03,1.906134261630930112e-03,8.470360150316439112e-04,3.556691290219386563e-03,3.665097177842540493e-02,1.326837645967631762e-01,3.106133816098124306e-02
3.877627410191410856e-02,1.105562384462708669e-03,2.344690826674339368e-01,1.826751660482844571e-03,1.296030398693934519e-03,2.537531988212894749e-03,7.476850698694989614e-04,3.105089363174064199e-02,1.436092419184203384e-01,3.388528066567825930e-02
1.080760559330372177e-02,9.490047580820926880e-04,2.196257183179128325e-01,1.993221208629710611e-03,4.581555540970912556e-04,4.712107303093585053e-03,1.389683972811699142e-02,3.920862138647440015e-02,1.480446613212421103e-01,2.720663656322467108e-02
3.963007167819357357e-02,1.327500722482175986e-03,1.540843328118230993e-01,2.454795977384194479e-03,1.469705756134779759e-03,4.493829940317144861e-03,3.156989847988028730e-02,4.530482162111474503e-02,1.290030244755920319e-01,1.590837166272960485e-02
8.651292416491196402e-02,1.866047893054721771e-03,5.844668709258426381e-02,2.802549666194204502e-03,7.765649201228308875e-04,1.858646353376024662e-03,3.845879711420916586e-02,3.984098651913767219e-02,8.171331843545459606e-02,8.529342276625445293e-03
1.098833558646699349e-01,2.321297336165067948e-03,2.007767060787589430e-02,3.183015131786500959e-03,7.073714671743834212e-04,4.708097859509906345e-04,3.126760759995463046e-02,2.479000031146991190e-02,2.586192973749713159e-02,2.326593262825488000e-03
1.110418873933023270e-01,2.648971867653434308e-03,5.122470212009673507e-02,4.193868669992034844e-03,1.490774370083541769e-03,9.545734228354895053e-04,2.386591253326911938e-02,4.513363895648277169e-03,9.809125475008275905e-03,9.831950618256226487e-03
9.922156991171414420e-02,2.586255998631768836e-03,5.415587982446078141e-02,5.358398307477663450e-03,1.014547488868504464e-03,4.648298645418095522e-04,2.796764162343716789e-02,1.878579789782674342e-02,1.663676866659486581e-02,2.376714321009385303e-02
7.771424166580698234e-02,2.035358815061228278e-03,7.578467726686616279e-02,5.427191410862960454e-03,4.321214541379575643e-05,4.436784027677547794e-07,3.727970724179321960e-02,3.967779009900224835e-02,1.486781454569158223e-02,2.812242413988576273e-02
4.823478307440791368e-02,1.596896703709946210e-03,1.330194050226644609e-01,4.402452347353771889e-03,6.137064874515393061e-04,1.724523162282430491e-04,3.876840949417278276e-02,4.930016637682915065e-02,2.927849385124849796e-02,2.209787263388750950e-02
