1.287723736035669905e-02,4.906390112813736881e-02,6.078931552791320622e-03,5.892627752159270522e-04,3.107623933160873989e-04,2.648341003320975350e-04,3.758925387626945499e-03,1.659150311625403468e-02,9.885320298171684783e-03,9.197843687863133241e-04
8.863405013191319112e-03,7.322562461589705862e-02,1.257834692747642445e-02,3.803298748501184740e-03,2.752153438685773709e-04,8.054415938020552173e-04,1.034812541708760719e-05,2.550671477894158462e-02,6.612753178115944597e-03,8.305566580445075371e-04
2.846423098620207755e-03,9.499660632476419897e-02,1.747736656653199952e-02,5.135747737588559209e-03,2.465204738259351032e-04,3.967909930523700452e-04,6.146582083148389476e-03,3.069673229671166306e-02,2.058854649440905720e-03,7.396320285696855127e-04
2.681493689443687975e-03,9.468685816591992932e-02,1.743674487985033203e-02,4.359938018034354226e-03,2.250474950071232653e-04,3.245258689792102991e-04,3.088011956433566602e-02,3.300458631182481145e-02,8.778576453770254836e-04,6.311123144461745814e-04
4.647366112836052998e-03,6.766689454464902553e-02,1.314081384800455492e-02,3.538095039604844793e-03,2.109142508516028704e-04,4.902322450797317417e-04,5.785857480053065854e-02,3.059020234404349545e-02,1.574898811614078601e-04,5.416411698353459144e-04
3.872563146314337255e-03,3.953467665599139091e-02,8.548151104913621554e-03,3.089362593843246723e-03,2.039884909547842317e-04,2.247079203966677232e-04,6.488462489058352545e-02,2.332531018248825208e-02,3.253227996991817257e-03,4.808263325654484944e-04
4.443669099261272730e-03,3.606008823071465974e-02,5.095366566477198093e-03,2.071569374929696332e-03,2.038946573112077520e-04,9.217726071014366784e-05,5.358937821630929688e-02,1.622205148649816589e-02,6.773899366827988884e-03,4.326245653950837756e-04
8.019149222615332140e-03,5.721978238299727654e-02,9.795232613933754166e-04,4.065287853023076873e-04,2.100086606860123275e-04,1.615890765151553913e-04,4.779546282938928331e-02,1.294044718716966247e-02,9.204248834352434308e-03,3.926507990390162438e-04
1.144060391245348487e-02,8.726666156919671291e-02,1.205872286124618289e-02,4.016109126315035166e-03,2.214618237641760936e-04,1.905661678765006558e-04,6.144235345275862736e-02,1.115733897786152368e-02,1.049550326413673830e-02,3.681631106365022030e-04
1.118263569870066830e-02,1.105146682033880667e-01,2.129739280740103324e-02,6.514904964443801044e-03,2.371907111612129508e-04,1.400868176145936641e-04,8.010444161420389453e-02,9.319284211091429654e-03,9.271948907678469187e-03,3.604775288251377578e-04
8.259564850109738302e-03,1.170158703506637976e-01,1.881083264349846240e-02,5.392598779319166674e-03,2.559876556978311012e-04,1.220556620602198891e-04,7.915114312741379499e-02,1.076511922233681570e-02,4.296742916213487987e-03,3.643823052859383564e-04
6.707340245722264588e-03,1.120552329420280574e-01,5.918146377181776260e-03,8.637621433306313413e-04,2.764708957596150973e-04,1.558379938698976821e-04,5.126454614175882107e-02,1.532423164409277110e-02,1.792542685609414561e-03,3.766593532219593855e-04
7.631811343451115268e-03,1.132383825106407366e-01,7.123053393285505575e-03,4.579441674876776926e-03,2.970668964006100625e-04,1.884818849553504549e-04,1.162539275182887348e-02,1.499796746100697832e-02,5.454484881097397195e-03,3.973877372552615827e-04
7.419005086871783422e-03,1.203558589815208746e-01,1.755084076842659130e-02,9.504216575632043126e-03,3.161782548322546573e-04,2.089921866346529844e-04,1.591468160560535056e-02,5.159719610831080272e-03,8.963743243513799114e-03,4.255249373189426095e-04
3.170444788393789182e-03,1.042540236382858421e-01,2.997417720541561970e-02,1.350099999037334200e-02,3.323414357830895135e-04,2.403517291117344512e-04,1.711712138147149231e-02,7.237176954672632292e-03,1.744828018787248497e-02,4.564611558543736430e-04
2.790563091353576858e-03,4.382509524714970489e-02,4.007392374002462926e-02,1.435036295817335682e-02,3.439960312607436184e-04,2.859601071346690084e-04,1.868464154573323127e-03,1.317624650286719316e-02,2.886377220609044267e-02,4.852082206429507894e-04
6.274387241775775809e-03,4.602312386872655509e-02,3.676928906204626757e-02,9.817161470220922559e-03,3.492706677272723950e-04,3.327629256952606895e-04,3.848734820184383440e-03,1.232491384827175476e-02,3.454124500685822746e-02,5.116998212515596039e-04
6.729992909518253859e-03,1.341271365799603932e-01,2.255878580726582497e-02,2.658008475003857327e-03,3.466008635861799652e-04,3.764280158693957988e-04,9.336988810937491695e-03,9.203056242892353189e-03,3.079000544536531284e-02,5.373249185745219416e-04
6.609197283242336518e-03,1.964612023141951991e-01,1.392626032698344833e-02,1.163711933386263027e-03,3.353316687309117021e-04,4.202528731636390766e-04,2.163727835068296121e-02,5.981088754829051550e-03,2.282766052666057588e-02,5.538902166124903392e-04
6.967587238877096835e-03,2.188775312675020346e-01,1.889162967796816778e-02,1.128596961537673207e-04,3.145385712992912973e-04,4.634318130296245699e-04,1.589783829657554631e-02,3.502287123594449107e-03,1.621864087777829394e-02,5.495816569590700933e-04
6.644302041435886340e-03,2.037840769455691037e-01,2.878820369983938268e-02,1.915969268756734538e-03,2.818267003025962895e-04,5.014961423957977737e-04,4.269904336773256565e-03,3.171748480613171498e-03,1.141922396058994531e-02,5.328499639349473316e-04
5.449772940658782934e-03,1.708091876282258337e-01,3.369492967116473336e-02,2.508574124622637257e-03,2.359239445217145006e-04,5.318879964690366099e-04,7.006343602506918435e-03,4.285420175514889803e-03,8.461572823877234334e-03,5.211861130517321267e-04
5.484159624408979986e-03,1.319364338747877063e-01,3.331952720396570700e-02,3.235522292258718319e-03,1.794061245466784275e-04,5.538971440129900363e-04,1.873355469942464963e-02,3.521378742746368237e-03,1.028205861550773002e-02,4.900826262595097196e-04
8.146170237678057244e-03,8.118683545761111453e-02,3.088170784226045712e-02,4.943537971862067837e-03,1.133075905389834410e-04,5.661199537217197816e-04,1.495947602727595339e-02,7.683307964089106188e-04,1.751826437225315405e-02,3.955695420137473814e-04
1.190824160571324515e-02,2.664603648873242400e-02,2.701192694321093851e-02,5.906693489145555843e-03,3.122048678521204977e-05,5.665219589488758789e-04,1.057767504232541220e-02,5.652078655946482511e-03,2.441955572377225298e-02,2.839610006043956575e-04
1.482257252896260549e-02,6.094293361553863864e-03,2.261252164623726510e-02,5.328630138637146033e-03,6.930870995832001929e-05,5.536928225084138599e-04,3.168153984115489735e-02,6.255938715302344216e-03,2.470761371260598097e-02,2.468868513846334553e-04
1.712118089813939245e-02,4.101047490223407033e-02,2.000035763517048551e-02,4.685933824128738975e-03,1.738594016942257917e-04,5.268931609077728492e-04,2.185203215566233759e-02,1.408467254901036312e-03,1.948161586483617563e-02,1.857304888220499752e-04
1.916397837140244864e-02,9.626821764205190091e-02,1.882859682757808545e-02,5.240849105894581847e-03,2.751385577294136720e-04,4.855070047463696235e-04,9.726162538889705431e-03,4.225446909530155074e-03,1.509431120326224472e-02,9.874474833627020442e-05
1.896753361571549071e-02,1.170326255641465779e-01,1.546187054836440505e-02,6.338217177673762144e-03,4.012198237348198518e-04,4.290351155923624246e-04,2.956511510412579424e-02,5.239102175146442310e-03,1.425707067586883328e-02,3.981895954298936150e-04
1.439077156861275249e-02,9.058130838471468993e-02,7.244783110963477421e-03,6.003088782937891776e-03,5.650621834940672359e-04,3.573898434127152136e-04,1.977891666863504025e-02,1.757457344037579704e-03,1.335868965912905861e-02,2.651903917493977870e-04
6.733317404376334449e-03,4.738178838136490600e-02,3.868723077897356661e-03,3.146395608007885106e-03,7.029382313471806273e-04,2.709471395427888430e-04,1.075636595276555085e-02,2.056018803713591074e-03,8.779402462697311407e-03,1.510670633530489715e-04
9.329467706215840506e-05,1.595463366430771232e-02,1.165914347900537558e-02,3.948578894238122467e-04,7.807162305183203447e-04,1.703856446862499977e-04,4.525816260673415359e-02,4.699512974610881889e-03,2.137238596665184780e-03,1.345970405182348329e-03
3.049176453351009741e-03,2.151673718562199106e-03,1.161163389043020494e-02,1.694048948204106026e-03,9.283622475871058325e-04,5.658595531629775590e-05,6.818714685445181889e-02,8.530740188466195972e-03,2.492903322501640283e-03,3.782839902304286489e-03
4.279848257805899184e-03,2.025207409467423211e-02,6.943747634290629682e-03,7.849904393721092834e-04,1.216721525680062015e-03,6.925940366019739912e-05,6.506471651496036068e-02,1.388668140622574369e-02,3.981182836153260990e-03,5.243707137485519726e-03
6.244221840410579122e-03,4.457132842123583127e-02,4.622765144159006814e-03,1.504619922533561487e-04,1.361666819661955154e-03,2.054848256821101673e-04,3.547530550489313289e-02,1.654216133904104838e-02,4.109708775479280728e-03,4.240102754146787487e-03
8.690366413173606155e-03,6.820532876722482096e-02,6.835811221221865276e-03,8.887478975262311318e-04,1.186411134527357199e-03,3.501556141190367085e-04,3.475636122946516512e-03,1.433326913623646399e-02,3.616903229883869191e-03,2.239612432475715596e-03
9.745476900809232207e-03,8.611776078302024739e-02,1.229765273115351193e-02,2.615794477721910920e-03,1.320214886063731611e-03,5.015028997348231279e-04,9.106241919272306876e-04,1.297029518151036204e-02,1.424020574918403699e-03,1.463339247578461120e-03
9.463840123348953720e-03,1.070733040349904908e-01,2.115920862983783346e-02,5.303356591464476744e-03,2.447305198871484698e-03,6.576539497749942344e-04,2.598349992716426221e-02,1.891027375279180980e-02,2.305504614126578037e-03,1.997040264893565689e-03
8.954793267854187569e-03,1.340417958438026025e-01,2.897831091866181347e-02,7.640918156951271439e-03,3.819045283280329394e-03,8.158244441672748331e-04,5.450995846767764386e-02,2.731234199208666322e-02,5.415828225193246130e-03,2.531996770335435097e-03
7.457765111143389511e-03,1.389445006292447105e-01,2.265352192136730475e-02,6.270118123556407165e-03,3.925574651082573523e-03,9.729897962341739221e-04,5.400222849472514214e-02,2.570313851783542422e-02,7.185675964064482633e-03,2.558604552234780821e-03
3.591933586104777837e-03,8.925484428464330877e-02,3.702361609107945005e-03,5.837145652110749261e-04,2.765287679285824592e-03,1.127772725554606606e-03,2.967691551337319975e-02,1.142129929082624784e-02,9.643911300372169648e-03,2.540038698175398242e-03
1.449278777400815621e-03,2.388376210815638598e-03,3.460270617135838972e-02,4.602950975090173286e-03,1.844861903179773315e-03,1.279221032700710720e-03,1.446905324097414944e-02,3.950317814559658504e-03,1.347470704384141210e-02,2.792336770662037088e-03
4.620722541987556248e-03,6.349050760313595942e-02,4.920249937758053305e-02,5.244809631141539655e-03,1.909835607119131362e-03,1.422899597219298576e-03,2.369502017387414144e-02,1.027309201055772239e-02,1.559793207326231300e-02,3.073560700451427683e-03
4.577109894150637424e-03,7.787138029517427784e-02,4.568399870839297966e-02,3.981382154004381620e-03,2.273022431433750247e-03,1.553546130529360374e-03,3.723672528568955364e-02,9.878846317859183573e-03,1.355894660858011219e-02,3.040556742683062866e-03
3.021278497473365091e-03,6.225394494640745791e-02,3.703906664095137080e-02,5.625753656965992722e-03,2.302393489035519780e-03,1.673632441632421806e-03,3.132243532476803455e-02,1.078406796703929374e-02,9.299217119666056824e-03,2.851071148421294513e-03
2.462245370917415764e-03,4.673179506607821193e-02,3.018904120765363366e-02,9.630915858039006475e-03,2.172203271941216228e-03,1.788055441619465372e-03,8.011923121406206924e-03,1.645101587782956884e-02,5.781635749817809651e-03,3.112161742226854204e-03
3.109192658297400737e-03,3.688234802526594441e-02,2.230228213439841220e-02,1.150207754111950802e-02,2.164321460432579516e-03,1.885839745693552311e-03,1.218407021152832434e-02,2.354562669106590941e-02,3.102232903413412995e-03,3.904927434982159978e-03
2.657832055227161983e-03,2.562156157871946227e-02,1.222752678111981885e-02,9.639103922872972047e-03,2.205955973043439121e-03,1.951106244671276489e-03,1.087654303088025735e-02,2.565746309793997398e-02,2.825811461771285176e-04,4.340647979986646081e-03
4.903108506964767898e-04,9.689328875628065371e-03,4.126512583748805953e-03,6.955956665988232562e-03,2.165534137770686561e-03,2.002525667701764329e-03,1.517892943680914687e-02,1.945794359808827173e-02,2.563127011077264220e-03,3.797355156480669656e-03
5.085432496635061174e-03,1.426724611059001190e-02,1.112747520946612322e-03,6.613963161856835707e-03,2.075935121495121362e-03,2.070994020089048527e-03,4.751439166891153337e-02,8.239930125630495067e-03,5.483571646640037975e-03,2.915653623165861616e-03
8.696481636665625431e-03,5.033409296005121603e-02,1.907040573411849941e-03,8.531225114351548983e-03,1.999990112581079543e-03,2.114833798383521177e-03,5.690772076349152886e-02,1.646692530986210677e-03,8.470878918121999696e-03,2.564375873591910864e-03
9.354178584097181531e-03,8.441105628371535496e-02,4.060540368867716389e-03,1.010676868210468905e-02,1.924209907926911029e-03,2.065279164778835701e-03,3.349525186202018806e-02,6.396051878354206896e-03,9.249793746666517755e-03,2.636346760995211206e-03
5.253130558609110309e-03,8.075198270925261490e-02,6.786396862032978081e-03,9.367673861693161241e-03,1.820364292216626861e-03,2.008905001064131488e-03,1.213562788854269294e-03,6.039474095027946854e-03,5.569450326322450927e-03,2.559826187213962937e-03
3.430128990095069903e-03,2.218964578692972714e-02,8.944556035085619514e-03,6.720664237790653812e-03,1.695928428556967016e-03,2.095499917353804697e-03,6.107100198311426163e-03,4.446686380992247341e-03,4.281988612311203504e-04,2.229036570796821479e-03
1.186315226862220788e-02,5.713524402440153110e-02,6.672180771602428430e-03,3.708671244927388890e-03,1.565785569886504400e-03,2.143269588999594921e-03,1.759440141141686148e-02,8.738756312840342474e-03,2.484725514727778866e-04,1.917507815114536133e-03
1.431293703326158226e-02,1.036554111412337220e-01,2.699338601923040402e-03,1.348260718599061329e-03,1.428232396610487490e-03,1.815764828802881887e-03,3.807985564199177497e-02,2.161027124926988285e-02,6.238177996125264003e-03,1.757139213681593480e-03
1.141667073937753345e-02,9.857290313798032499e-02,1.462466593041692256e-02,2.684995453603400092e-04,1.277933825985282969e-03,1.517596387733036395e-03,1.243411749030461436e-02,3.268753893877970190e-02,1.185764954309166674e-02,1.577837923452410796e-03
9.402715879229455592e-03,6.334818578542969481e-02,2.070859344549910372e-02,8.481344826499006857e-04,1.117195145614176830e-03,2.307168031415353024e-03,5.930436461558716982e-02,2.643236948857143748e-02,1.103072030629691572e-02,1.164349671448810901e-03
1.161034441502997380e-02,2.788492500438534069e-02,1.908552734624953395e-02,2.117049441320122127e-03,9.498549806443261356e-04,4.212798964930294758e-03,1.255323123465965918e-01,2.140411613202064262e-03,5.493568774508393940e-03,6.890941140214973349e-04
1.467429976463840123e-02,7.410485629395699263e-03,1.618048207142545186e-02,1.827473457693293887e-03,7.760133976155807450e-04,5.569150244963055191e-03,1.382048663467588534e-01,2.187524665146248909e-02,1.999119155614237364e-03,6.329007039544708212e-04
1.376065232812563079e-02,4.519962583398598292e-03,1.781520078770263554e-02,1.265259560388884517e-03,5.950471698232764504e-04,4.966224918452977720e-03,1.034936832527222628e-01,2.839458303792203459e-02,4.691125920045270854e-03,9.776982601962698471e-04
8.690953772242923647e-03,2.519177596597075089e-02,2.360057407381364533e-02,5.842943223904880495e-03,4.077992630831880233e-04,3.037905288040117398e-03,6.577322038676240712e-02,1.989486372393117763e-02,1.178505954446419472e-02,1.079369588397435537e-03
3.565876255358745375e-03,5.155017650989427574e-02,3.002081127649583805e-02,9.564449042920281086e-03,2.145852306414330283e-04,1.478691644196103655e-03,5.436745409549576663e-02,1.287798897528819909e-02,1.869537282360981406e-02,8.506164913638901166e-04
1.589227912273702891e-03,5.175102458349836038e-02,3.500934871961199762e-02,1.173712548544648786e-02,1.469448466546526783e-05,9.543231400582427582e-04,5.972440530198806080e-02,1.739009907473454755e-02,2.361100685202277907e-02,1.116118596839798648e-03
2.048684081931604131e-03,8.494093623624375533e-03,3.799077920299134825e-02,1.308231026535921875e-02,1.914511120927337568e-04,7.987906865196749443e-04,5.671614074224161361e-02,2.730934731022520434e-02,2.875196622376039943e-02,2.106112422113478114e-03
2.472484906448382987e-03,5.053665146594459728e-02,3.592726785016656793e-02,1.289248105955762697e-02,4.032366490436106450e-04,5.037788840605580227e-04,3.793597219250333108e-02,3.033370017305811461e-02,3.481518052849209149e-02,2.678400507722555456e-03
1.496534808453993523e-03,8.916921503935623661e-02,2.335605442171909130e-02,9.128106025010023980e-03,6.235627854639873941e-04,5.143195932001114884e-04,1.843325701022752519e-02,2.231483343262666286e-02,3.709238508589196570e-02,1.782629700875830664e-03
1.293046512189496497e-03,1.036676414277310915e-01,1.915679718504865190e-03,2.741996223452660471e-03,8.559555537877321834e-04,1.093582414996033692e-03,1.478894598249645177e-02,9.741868944603989527e-03,3.168715456643710765e-02,1.593380460645343194e-04
5.708310815922945820e-03,1.069735905247881508e-01,1.430142975544588732e-02,1.125591285303165212e-03,1.096957430088977637e-03,1.419657529754997632e-03,2.846229500522119357e-02,2.217083330274609212e-03,2.361339135147426729e-02,1.887796564587598206e-03
1.002628595873482700e-02,9.919163915448211966e-02,1.258947919095794107e-02,1.008509102986663783e-03,1.342500556939947229e-03,7.936807298624967786e-04,4.784581911361871637e-02,4.650801159368412978e-03,2.254797137242057353e-02,2.729802746100325975e-03
1.225956272539761513e-02,7.095793014631113227e-02,1.810862439080661475e-03,6.256061186762721868e-03,1.604053746016110248e-03,1.776789817245762139e-04,5.854122894442880670e-02,1.361751166711192181e-02,3.070731923941001987e-02,2.981521781677119731e-03
1.273598061679775094e-02,2.298243460364920998e-02,1.231087181698047386e-02,9.275723925631397526e-03,1.895123395499968139e-03,5.966551492930924003e-04,4.967437633781563583e-02,2.019779877665647469e-02,4.044734248444799285e-02,3.202160143633590167e-03
1.313365657896119372e-02,2.062979442470364716e-02,1.147861537511593415e-02,8.710246533849275163e-03,2.196396248863124751e-03,5.535002336027381288e-04,1.907176998329106199e-02,1.840187644368313294e-02,4.442082688000952018e-02,3.569298066916115272e-03
1.405710444501074088e-02,2.170837983382286479e-02,7.263457531333386216e-03,7.145134830106027353e-03,2.483641110566913238e-03,6.274690611739903176e-04,1.907929970200670719e-02,1.020003787014825587e-02,4.369604821318102267e-02,3.956956673326161508e-03
1.588793325243041676e-02,3.041458674057318651e-02,1.081956351631219518e-02,6.923100014994462009e-03,2.802721087118294555e-03,9.448686870515326033e-04,3.958908583383679430e-02,1.586073252406760767e-03,4.437501310348881955e-02,4.299819540442365202e-03
1.953170072191597398e-02,9.448800389704439806e-02,2.323060859306928794e-02,8.198279385954503756e-03,3.211783109293799877e-03,1.255542893625064254e-03,3.139873522974205577e-02,3.548063848991964576e-03,4.850678383503353314e-02,4.653684323386189300e-03
2.379801067722996100e-02,1.214930163049160877e-01,3.487283389281677776e-02,9.451829732698785458e-03,3.619175751399982682e-03,1.408504156208796425e-03,9.966192166778839456e-03,4.746370102750270721e-03,5.114210065579078562e-02,5.049044881440232363e-03
2.531943564328306348e-02,1.092669081527567893e-01,3.811526206982448345e-02,9.129224299934957099e-03,3.902145821152037519e-03,1.523616819107504253e-03,5.296946582828550472e-03,3.042547296775523474e-03,4.787294474706618730e-02,5.467237230006664547e-03
2.320728042315490028e-02,8.636265721575873966e-02,3.818081630398750120e-02,7.798309280979652536e-03,4.260963648612091544e-03,1.863709779789789666e-03,1.413102449331695570e-02,9.813321266187219252e-04,4.236139223658751118e-02,5.906525553640426182e-03
1.980733236387045501e-02,6.448428353172239169e-02,4.498042508173396431e-02,7.312120410075527432e-03,4.990065876270134704e-03,2.387821576629802107e-03,2.535467988460703842e-02,7.606154785639985746e-03,4.072605884783753183e-02,6.373777938314482278e-03
1.563434614147654611e-02,3.702098885978809262e-02,5.628787790219881570e-02,6.963417415136667621e-03,5.625641601962137056e-03,2.543042736016291883e-03,3.678225174096370204e-02,1.601652713946592060e-02,3.939283480158812384e-02,6.854601810116750689e-03
8.681200188205567478e-03,5.136437146520903690e-03,5.930975664061930580e-02,3.797508963284197854e-03,4.958758304291713964e-03,2.035441540677158673e-03,3.918127922432610571e-02,2.276659945056073650e-02,2.720341027859389527e-02,7.360051389931451110e-03
2.663228194069260351e-04,2.167259660843987717e-02,4.802875057232102590e-02,2.168060369942301918e-03,2.401978295737061935e-03,1.423787026993447117e-03,3.296475291023890503e-02,2.474658253273152517e-02,2.716332646267885682e-03,7.939573293844674404e-03
6.738386634755048725e-03,4.137557261101440509e-02,2.923026933623507073e-02,6.928148121618238342e-03,1.136624914040709798e-03,1.113001541410764276e-03,2.806988982606997349e-02,2.330078942536314632e-02,1.987216425016708268e-02,8.566724191469383271e-03
7.862244305502249370e-03,6.027340247212584906e-02,1.310682037937015848e-02,7.414476473725007712e-03,4.048954372052143875e-03,5.595348858067055332e-04,3.018847052591312405e-02,2.210271541885541757e-02,2.884978605751541483e-02,9.132315738324240512e-03
5.092860980984457997e-03,8.230050277950284876e-02,3.952278293423393263e-03,4.552693805342305014e-03,5.462089761976028114e-03,5.158431001612243539e-04,3.681733666032922792e-02,2.103373113068932737e-02,3.014634210051133495e-02,9.695303865684236702e-03
1.682158039520087293e-03,1.039111364032303114e-01,4.226428564221187956e-03,2.085565654234703033e-03,6.075788673782907441e-03,1.354229779775412189e-03,4.363288149311938396e-02,1.590213144621291722e-02,3.533799376905017581e-02,1.049559114076034118e-02
8.527946160955064605e-04,1.192328633730311005e-01,2.242423602336602109e-02,3.489412156538333407e-03,7.355679018750079130e-03,1.404883481871089471e-03,4.544734661518029517e-02,4.288949595125500329e-03,4.308155970322549710e-02,1.141890036217433312e-02
4.127799914444067915e-03,1.292552114876246439e-01,4.845312347165865036e-02,7.832050973418679118e-03,9.008833686668164115e-03,7.358778100270281074e-04,3.339746873065454341e-02,1.198740401712093152e-02,4.351169089813992225e-02,1.190195315595099328e-02
1.049295521640444470e-02,1.417352820198396479e-01,6.131215385230807946e-02,9.501647696389977152e-03,8.249234304973519782e-03,1.073752339559475022e-03,1.199844268576904897e-03,2.971830469022581495e-02,3.526465561954916783e-02,1.191498229320835621e-02
1.837260324722822871e-02,1.586988691922161521e-01,4.671659185100138223e-02,5.082718744439507393e-03,3.528374684448459635e-03,4.355791646722695712e-03,4.082166247882243471e-02,4.555937809722633569e-02,2.777355796402593627e-02,1.232499474931480522e-02
2.211484074878902056e-02,1.725418331146057194e-01,1.811700098085824995e-02,2.070617347734588810e-03,2.321600706610148484e-03,7.486450595875948806e-03,6.199829222127697936e-02,5.442943663111878688e-02,2.852029659588260421e-02,1.357251565442203767e-02
1.939196895268054457e-02,1.814143377046292249e-01,1.844412817768252555e-03,7.224360644797670102e-03,5.403869492953569838e-03,7.864401542043675600e-03,3.530885111464401871e-02,5.107846570630946575e-02,3.466538914998473775e-02,1.499666271718829401e-02
1.683274382275279368e-02,1.940306035533302387e-01,1.042272698069774545e-02,1.059341691936184840e-02,6.079122335428501986e-03,5.413389369715628993e-03,2.589534554141245323e-02,3.662829606477296940e-02,3.792128512998364787e-02,1.588328174785251512e-02
2.217473130313149174e-02,2.049262993663372445e-01,2.108931545106562319e-02,1.511013837597148871e-02,7.913053299740511679e-03,3.235761137527023816e-03,6.978296238024223053e-02,2.124425539847690433e-02,3.456012072332324825e-02,1.540659071855864960e-02
2.987685411470449026e-02,1.829810876808399267e-01,3.880643532615211944e-02,2.128120077856768613e-02,1.200958759110514786e-02,3.835015443131032948e-03,6.278746793719343355e-02,1.443548269862586844e-02,2.766363107009917749e-02,1.144213472944389035e-02
2.362544941059892961e-02,1.096465667974342029e-01,5.372439180718225488e-02,2.744049552833509320e-02,1.568828840922799686e-02,6.287360961730530801e-03,3.109360930042048138e-02,1.379281783992086438e-02,1.986574402200632153e-02,2.400567395819929069e-03
1.547819981379573934e-03,1.573224878073181676e-02,5.608800917161982369e-02,3.223233048369023024e-02,1.672584674925738785e-02,8.052791477286000768e-03,2.274387268478042165e-02,1.036582176307105502e-02,1.072649858818764193e-02,8.997086083832461431e-03
2.942830853288626661e-02,4.689270044757973960e-02,4.460063515016365193e-02,3.348502966154554006e-02,1.554071048285341969e-02,7.787167050432550718e-03,4.411617481473647379e-02,2.504397515349976455e-03,4.837466443896010562e-03,1.672711149685023047e-02
4.211998886603868925e-02,5.992398506436000249e-02,2.263072281357276713e-02,2.774937815329709886e-02,1.280923301720655882e-02,5.515085279081654787e-03,6.345367035974013026e-02,4.125232752720432369e-03,1.184070278863743469e-02,1.730862811634107865e-02
3.948817010853286624e-02,3.963078434278332479e-02,2.658680983620332824e-03,1.545213956277328993e-02,8.367302332675935483e-03,2.227403139523887431e-03,6.056351253602318407e-02,6.714671495901092073e-03,3.049227725272629988e-02,1.247026862522504498e-02
3.180381236888671359e-02,5.977377380386381112e-04,2.130705306063276905e-02,3.572867121886708595e-03,3.351515707305421053e-03,1.781149734511862457e-04,3.837254367373023334e-02,7.217402466961807261e-03,4.472693554391399956e-02,6.105084470252763150e-03
2.291488827983870907e-02,5.163184452410220227e-02,2.841664786956002442e-02,1.460846792722425048e-03,4.445002620909946486e-04,1.140565406847872517e-03,9.497594154522779383e-04,6.233397839367660342e-03,4.412948501635553800e-02,1.413462465429855775e-03
9.987201893251213686e-03,8.300470766378865994e-02,2.519840084132338870e-02,7.454652081535018734e-04,7.833465287805308408e-04,3.757950516233960012e-03,4.540287833194048273e-02,7.970900073169810869e-04,3.540746932688611237e-02,4.926852100629909581e-04
5.430913558224811748e-03,6.166597215955541000e-02,1.295787200397392237e-02,3.441060631776582564e-04,2.423717276771213298e-03,5.079581156520936516e-03,8.252696545213035473e-02,1.065330773208441467e-02,2.757520403958338764e-02,3.084042719589331644e-03
1.606508752849912861e-02,1.876471002869508665e-03,2.627019476269115261e-03,9.693982794053711315e-04,2.818035618675366564e-03,4.703149855082549256e-03,9.989723632524344366e-02,2.334822646228283324e-02,2.044367737783056582e-02,5.791645331264124417e-03
2.024512103336313651e-02,6.206025301224168955e-02,9.153082853809417149e-03,2.964901336868910192e-03,2.041677534010836407e-03,4.868913364576726334e-03,1.115067311718153514e-01,3.044027120612092380e-02,1.251122464610107503e-02,5.864063798185870785e-03
2.629786258491380660e-02,8.998428563854128648e-02,3.550479293909855269e-03,2.285797346622978152e-03,2.427715132988196405e-03,6.657811155307837361e-03,1.340490243861196251e-01,3.245653915386759875e-02,7.310289290259351473e-03,5.426866113265755957e-03
3.806450953299050227e-02,9.137992860422784747e-02,2.776607540606931563e-03,7.581178669409518534e-04,4.432716647644325929e-03,8.352556378108451363e-03,1.611395977850035022e-01,3.609694063745328557e-02,8.326506021221782156e-03,8.602626293927760973e-03
4.230374979530031332e-02,8.736212830847323030e-02,6.089098683893818566e-03,6.190070944353407096e-05,4.533736592072688636e-03,7.790657461244638281e-03,1.736986375793319048e-01,4.297927135985560310e-02,1.499575949863473159e-02,1.492399105758888955e-02
2.320059015754223977e-02,9.561988230103338204e-02,1.769152599050826530e-02,9.023090263969609295e-03,2.693138524652075559e-04,4.947978619544156006e-03,1.665908160522454884e-01,4.824101517454749966e-02,2.385244000292763636e-02,1.927588450914110435e-02
1.314550193490024096e-02,1.141455553575717041e-01,3.858613214096528327e-02,2.111349119307356914e-02,7.040349445038503011e-03,1.842884844806074417e-03,1.548056210318412562e-01,5.128403985304957197e-02,2.986812799834079324e-02,1.847010080634826218e-02
4.228171168077794750e-02,1.188013730512522542e-01,4.807412770819359527e-02,2.538158879932762846e-02,9.358902625170818432e-03,7.147984890028143655e-04,1.556701853904464972e-01,5.775167003206840843e-02,2.829052830550522063e-02,1.483444516264771466e-02
4.908887505470351659e-02,9.244395911775875330e-02,3.151668262454853514e-02,1.903161769827951127e-02,5.091392845391840005e-03,2.227154606070338733e-03,1.671252381643009433e-01,6.765204592729530397e-02,1.770295139566901987e-02,1.265930027414062867e-02
4.033124680826024461e-02,4.535543969740581105e-02,5.225224358361863289e-03,1.084607844616194451e-02,1.047822733619543489e-03,4.345723798451833417e-03,1.633701426304405846e-01,6.950831389196901466e-02,1.611570033200799418e-03,1.300326747642815625e-02
2.985910412757210308e-02,7.814173159053590390e-03,2.153000308612668372e-03,9.565779616064725224e-03,3.454902457033201361e-03,3.621919292272423197e-03,1.175677002966460521e-01,5.135726836458048145e-02,1.281800882431383126e-02,1.332984554790956309e-02
2.230710532415484948e-02,6.351506747013303811e-02,1.372440269116293257e-02,1.322203003796748946e-02,2.179355738205683655e-03,5.956965511634033797e-04,3.611759863328715958e-02,1.569301398965251143e-02,1.863001260555968708e-02,1.177805364681034847e-02
1.475278350392808524e-02,1.006643605598020741e-01,3.242915827973170267e-02,1.419967898009709406e-02,1.556336727242876774e-03,4.377167426647919635e-03,3.438000579168946913e-02,1.897324324366792686e-02,1.418890249422225316e-02,9.649093549060549710e-03
6.373103663503012703e-03,7.652518566625141072e-02,4.173567761130223680e-02,1.160579386107472681e-02,3.342000527418855470e-03,4.036085579296356564e-03,4.977572373250505056e-02,3.404460731206203350e-02,5.035150832490017415e-03,8.624369737886442705e-03
9.801225050579452733e-04,1.283713542707625235e-02,4.996024241353960726e-02,1.193600960281013430e-02,4.291706221930703148e-03,1.441264604896928380e-03,1.959524579217005597e-02,3.017306631634030303e-02,1.622179105674553378e-03,7.891643056205387835e-03
7.622948857234568970e-03,1.027921566701146400e-01,6.374023352911901974e-02,1.842926825321606135e-02,9.450115570981339501e-04,1.842055840390466629e-03,3.180361674566102234e-03,2.688971460056103005e-02,4.782896178343846658e-03,5.771676481156257088e-03
1.238544425295826264e-02,1.277346423240122431e-01,7.287122281192064122e-02,2.580195537116875340e-02,5.664986311634408710e-03,6.981379620501558352e-03,1.269738517137369155e-02,3.889953919614046879e-02,8.554605921657999767e-03,2.019613563248071411e-03
7.545013319827827136e-03,9.014472228320040414e-02,6.315954183832603319e-02,2.597491299891244512e-02,1.095242087943306894e-02,1.277463453237951026e-02,4.629877717143663501e-02,5.855229112711691358e-02,1.308048659122253154e-02,2.553889970121312435e-03
1.104751426486424645e-02,3.414922758356753185e-02,3.388198934386457695e-02,1.631588250979345428e-02,1.145705918266532418e-02,1.438211989928294028e-02,6.481356031751885072e-02,6.905302618637600143e-02,1.311587611948521713e-02,6.301711128979675669e-03
3.156141477406689683e-02,2.012249256277012441e-02,9.550713906392371486e-04,2.535244743980993431e-03,8.084559795460346740e-03,1.149826030646547946e-02,6.218676126022103234e-02,6.711254708947912706e-02,7.406196689959624463e-03,6.800106817099984234e-03
3.717215383721892558e-02,8.154634198851129501e-02,2.446898090843491191e-02,6.787045279364165712e-03,4.443834083384641878e-03,7.115832757991566969e-03,4.670188232020248964e-02,6.087679262232750799e-02,2.199472184643468109e-03,3.821069787251915421e-03
2.783470051622992381e-02,1.414876376623647181e-01,3.136684504993363098e-02,9.682847832715940975e-03,2.383826956276950768e-03,3.290210746108300586e-03,2.383287781681423315e-02,5.351416577145479136e-02,2.325889535473465303e-03,1.079094065925251863e-03
1.794516309461027803e-02,1.623101232141416772e-01,3.249538479159772703e-02,1.188526844721302100e-02,9.060412499853144662e-04,4.550066438461683157e-04,5.007463058143219597e-03,4.238086686244042778e-02,4.366693420431945818e-03,1.742323349264238890e-03
1.365473201207161903e-02,1.246250495288786092e-01,3.822591076532999566e-02,1.624610829504933782e-02,3.030247615437818565e-04,1.110611349528803100e-03,4.263487687098709358e-03,2.713228443693690983e-02,1.905793404022173817e-03,4.051021392305381025e-03
6.673358013519576845e-03,5.393003478343925960e-02,3.788701667629711806e-02,1.669793598210080401e-02,8.446946642039812039e-04,1.505785755606907491e-03,1.498974793055753672e-02,7.697418484522985244e-03,5.656919383073161570e-03,4.403320784437118190e-03
7.840419972873784518e-03,1.818136104987290794e-02,1.350015090297037278e-02,7.627717733939309505e-03,5.365493068654302554e-03,1.556252339575398772e-03,1.074322401556233875e-02,1.710584737521027299e-02,1.221422720114714519e-02,2.766221011841527022e-03
2.097971046034275561e-02,8.210931332889064016e-02,2.394074269142970612e-02,6.489005804297109763e-03,1.058205330108814152e-02,1.688060701955669063e-03,2.357187881065380200e-02,4.052097535269440914e-02,1.181006491877726466e-02,2.222289985674244604e-03
2.407311018478960549e-02,1.211216706288416184e-01,3.900405352661408948e-02,1.680129194560452469e-02,1.328386669696203851e-02,1.506938404471490790e-03,6.912304973318497692e-02,4.756111408173891580e-02,5.470265922504021286e-03,4.302916933581070469e-03
2.301552718343196149e-02,1.079934001878784106e-01,2.016099483424560121e-02,2.042151078838182199e-02,1.349574723469111441e-02,6.911720343127883848e-04,8.335742000912914340e-02,3.207934223903238097e-02,1.513267203368563307e-03,7.007094174512570363e-03
2.825001675875806958e-02,5.955086426346603568e-02,5.285426285767273746e-03,1.962622341137983811e-02,1.283575340020086039e-02,6.527588052831627711e-04,3.993995605951491945e-02,6.132183770045093046e-03,7.865005648597296964e-03,7.696674701352058598e-03
3.517455527205207155e-02,3.788193812703879310e-02,1.326571748163308216e-02,1.547755935230320408e-02,1.109809583950377432e-02,2.092023184976086678e-03,3.421539061361080630e-02,1.405714679723351138e-02,2.313823003078698329e-02,6.596672772385112071e-03
2.776154899873513326e-02,6.602145916832657946e-02,1.009660596617507206e-02,7.989323026579352865e-03,7.183895619247008743e-03,2.627478627012319167e-03,7.657731776261791912e-02,2.383690850739217382e-02,3.730395961021194806e-02,5.779015339301730135e-03
2.673934602057902437e-03,9.616595033031667683e-02,8.062436502921026954e-03,2.381525024881803437e-05,2.104400091266983314e-03,1.444511073643549477e-03,5.698764302299641482e-02,2.659948669930254153e-02,4.220189417902116269e-02,5.365600953526070485e-03
2.358129512137551245e-02,8.604579987592486656e-02,4.406128671335622984e-03,4.442027216923843773e-03,1.707506137073378383e-03,3.208991514120485672e-04,1.296344587059434714e-02,2.477952761249567135e-02,3.887617626909160157e-02,3.669221866805237250e-03
3.562269831622275756e-02,5.131678272316415185e-02,3.867858919166860740e-03,4.249938022851861008e-03,3.184766281563076572e-03,5.218795925248341516e-05,1.677100485087462982e-03,2.244412113635574010e-02,3.289747906801793187e-02,8.363513307675153087e-04
3.533103814510105828e-02,1.919944381581267095e-02,1.266628412863643124e-02,3.107254641275326076e-04,2.161712495263034238e-03,3.795232169747009797e-03,3.018899812048530043e-02,2.634163110051785522e-02,2.514365674092076952e-02,1.102551736336393343e-03
3.268400272859262046e-02,1.507003658506448143e-02,2.553137142475631755e-02,8.137872106479194373e-03,2.187015445231886568e-03,9.011811951714927132e-03,5.508908611350447210e-02,3.566123130733099555e-02,1.133170640734787460e-02,1.400269058305110082e-03
3.124577375851045336e-02,5.511511644848785668e-02,4.556898625136775183e-02,1.970682884966575704e-02,8.770023437998812621e-03,1.267172941851266686e-02,4.442969117771460030e-02,4.059404228878841364e-02,9.011890595834645343e-03,5.733098651838440920e-04
2.800919686053172930e-02,6.989950402680766839e-02,5.449115745257859800e-02,2.676800345441513948e-02,1.268205998985615784e-02,1.337302491649846464e-02,8.917060591084888591e-03,3.492860720296833699e-02,2.773654817803155107e-02,1.695954543552196259e-03
2.052897579099873318e-02,3.108092507868578241e-02,3.828356080414827695e-02,2.392876273214232866e-02,1.089870471101221129e-02,1.177575589082846368e-02,3.226646423715041206e-02,1.877259349413211778e-02,3.608856770342518117e-02,5.283082486589432518e-03
9.947809446019749077e-03,3.945976857459122106e-02,2.537838354014101266e-02,1.755725137232799771e-02,7.448383550457573880e-03,8.974815301030622874e-03,7.643311074248300419e-02,7.196854995704156203e-03,3.503086669420843458e-02,7.195647958322087812e-03
3.548866698632596457e-04,9.307116076888510836e-02,5.267158047250774383e-02,1.751067489239493610e-02,7.590862872366737311e-03,5.596847283122315803e-03,1.090920355404012554e-01,3.494021773009809567e-02,3.299961747848423332e-02,4.135566465274412989e-03
4.533247492756510739e-03,1.106706611762857395e-01,1.029134865821687422e-01,2.242517638485857709e-02,9.895657055386449311e-03,2.876343437087446921e-03,9.301311053787457428e-02,4.592279803271512306e-02,3.462196765006947397e-02,2.144726186577305266e-03
7.149195918619049434e-03,1.042559102382008551e-01,1.214951225088913428e-01,2.199693031488802325e-02,9.367615510209488516e-03,2.554433681373062624e-03,2.050316500023317140e-02,3.214334214741291357e-02,3.595767788077022797e-02,5.592189547677805898e-03
1.424757633060532401e-02,7.663236242360606243e-02,8.775571911754589949e-02,1.219253716925999473e-02,5.499770348225757437e-03,4.334843496445137286e-03,5.781371650478450697e-02,9.086282588841101959e-03,3.129573309068899717e-02,3.410320107055702515e-03
2.376771803492073662e-02,2.180675079584618037e-02,3.335675762124942073e-02,8.946533579179171206e-04,2.429501376754141049e-03,5.989118467130477401e-03,9.598773168510339737e-02,7.024531336403719642e-03,2.136030913036642692e-02,2.036444187711375624e-04
2.214111340913513248e-02,3.688313176924500753e-02,5.075738134309438349e-03,3.148533888764422535e-03,2.503398718456022534e-03,6.937446082796653105e-03,1.114199503174729405e-01,2.020118403555818884e-02,1.170450715982771991e-02,7.482617501600387529e-04
4.071393335817121914e-03,5.601768286022440479e-02,2.500013753274939882e-02,1.944909873704379986e-03,3.225469879717627209e-03,8.183632663079323799e-03,1.389834229250498654e-01,3.889578773942372475e-02,4.114166226702312135e-03,7.738778965044855636e-03
1.610733071831500079e-02,3.010825719144495649e-02,4.550230784885812146e-02,3.766057999512233568e-03,1.153240731129432425e-03,8.564910232240766780e-03,1.657185794176521398e-01,5.491925757629021604e-02,4.754116629434841125e-03,1.697994016408805110e-02
2.398939235963303690e-02,1.562777425736609598e-03,7.060480069526334224e-02,9.952473005874689499e-03,3.134665496581347244e-03,5.763509087320979433e-03,1.607906551834019648e-01,5.389700090876177463e-02,1.491231374363748315e-02,2.288956208963100966e-02
2.310844651125777000e-02,1.424212953383229528e-02,8.235611432200522219e-02,1.374629060393920028e-02,5.863211650839481384e-03,1.093689899193215232e-03,1.346908138839699731e-01,3.677294790422312026e-02,2.036160186961732260e-02,2.260205551618273134e-02
2.262619838103755235e-02,2.006821796238663844e-02,7.245058906485440930e-02,1.166693191983341794e-02,5.174814498729035303e-03,1.392550708081135603e-03,1.204772133557277247e-01,1.811083503813633311e-02,1.833736360350773920e-02,1.802104650845493330e-02
2.142101857517177133e-02,2.781585018503970191e-02,5.969227218139126073e-02,8.436991646711007251e-03,3.056589093788656276e-03,3.898223868491579140e-04,1.236693537870488663e-01,8.607460475280256929e-03,1.512422124827988990e-02,1.287053776296718036e-02
1.512284814394249458e-02,2.622177256019125186e-02,6.327644794809457462e-02,9.215981329427705426e-03,2.114226444308894663e-03,1.911613121476764569e-03,1.263008276246761763e-01,7.656686872847240886e-03,1.874132790909077695e-02,8.529386212695468789e-03
6.382923360729863063e-03,1.157087371331487653e-02,7.571631928999597583e-02,1.266987019370730168e-02,2.642560523753728716e-03,3.506540980190052652e-03,1.181328717026824404e-01,7.923690122490532201e-03,2.913139280821851196e-02,4.195914141172484534e-03
8.953831569329104897e-04,5.269617970670617546e-03,7.663893388948442298e-02,1.425404493288798084e-02,3.351776576173714096e-03,3.713360404921474140e-03,1.000997048028787473e-01,1.180551484544047416e-03,3.833037012100114910e-02,1.337282393339847910e-04
8.258492985130488559e-03,2.166343756950879149e-02,6.083472734784791530e-02,1.274241402879906608e-02,3.355504364817411996e-03,2.244964512280344347e-03,7.395051009244865692e-02,1.401051792243972714e-02,4.003125151527741482e-02,3.051515629773468921e-03
1.726990819698670521e-02,4.315066203398248978e-02,3.837293041836698643e-02,1.029265915821138931e-02,2.700514329725495818e-03,4.734497506377541434e-06,4.531685487164025666e-02,2.643266546018340629e-02,3.666627023581441741e-02,4.025904047414860520e-03
2.373377304205653154e-02,5.595309925952005742e-02,1.540468382658627053e-02,8.192345744697794932e-03,1.818371217312775463e-03,7.121160709830432790e-04,2.891435474526635185e-02,2.213379131925034479e-02,3.413582100266075725e-02,4.722626125569480762e-03
2.247399046312906906e-02,2.920691268592650464e-02,6.703655988875717626e-03,6.779803716981686740e-03,1.432750021179163237e-03,9.430081610533528995e-04,3.913713863451927233e-02,1.860575248543597758e-03,3.303405090247316794e-02,7.086967842377399178e-03
1.569466096405182018e-02,3.789184331495041441e-02,1.442561015895460833e-02,8.675905256765979387e-03,2.670569296963644888e-03,2.649192649323776037e-03,7.229051929118963937e-02,1.993406988238765817e-02,3.111155979623599424e-02,1.075071113306567093e-02
1.272215695290839811e-02,9.707766737283263225e-02,9.307264258538682639e-03,1.629931633773202757e-02,5.874171861062352576e-03,1.840946126444666141e-03,1.001045476255520844e-01,3.190487982679009876e-02,2.916093438259498641e-02,1.353594565717987711e-02
1.865867236721663325e-02,1.043920138912379364e-01,4.817474517986038152e-02,2.521358004387190543e-02,9.211374585039761032e-03,8.845346198097012560e-04,9.065343455286313523e-02,3.367538196199224010e-02,2.715270200070552670e-02,1.413730074102062528e-02
2.425960615108200408e-02,7.105218499175131042e-02,5.474363042291719578e-02,2.660223582710122964e-02,1.023659704396927619e-02,3.067957841806332169e-03,4.517106869552109383e-02,3.104555006658780286e-02,2.156071915018303864e-02,1.295908083284191825e-02
1.368154365664310534e-02,3.826464121297041415e-02,1.152859563459386616e-02,1.896432036143511773e-02,9.091548856703185466e-03,3.854321322810619344e-03,3.890865084286237140e-03,3.047694688954319386e-02,1.292721255181317544e-02,1.057332954957594835e-02
1.473928320476671806e-02,2.129829119590064337e-02,3.971683916538527870e-02,1.113767105640157615e-02,8.152431290717189818e-03,4.167326089074093430e-03,1.031685832529794303e-03,3.460820782790909739e-02,7.994944666850028678e-03,6.846576203350203046e-03
4.299448016046580889e-02,8.920992499331138487e-04,5.203731969223168025e-02,1.116976450291389845e-02,8.603044543878354475e-03,4.622093441125679249e-03,1.473436739114894131e-02,3.884779103816706630e-02,9.865291929491397036e-03,2.191219181030614870e-03
5.327375919614411176e-02,4.703054705835164884e-02,2.685878629637012890e-02,1.781113524337813586e-02,9.698566447436380092e-03,5.325420388015892834e-03,1.820317141984372639e-02,3.536192397687408506e-02,1.382292025659630393e-02,1.161268586907492247e-03
4.570681728696907031e-02,9.394602575797478261e-02,4.379944180665999720e-03,2.444679251536418380e-02,1.081915306629710471e-02,6.548898199770388645e-03,1.065682607150244751e-02,2.152073799732091147e-02,1.564819669737439745e-02,8.056134404319135415e-04
3.210111818569819780e-02,8.880692769337787673e-02,2.125582663816599077e-02,2.602164752447983648e-02,1.165518677861175113e-02,7.831760822847118678e-03,1.417748794497991280e-02,1.188450072433757743e-03,1.759984276942916717e-02,2.376411932501736133e-03
2.015514368839340514e-02,1.522561314409032543e-02,2.028915474897450416e-02,2.134918711522720836e-02,1.131205758075822139e-02,8.028931497652736296e-03,2.324278045377037305e-02,2.012506307137389844e-02,2.385218823084896134e-02,4.260109007678137411e-03
9.354198117377671151e-03,7.199192905107509866e-02,4.911284424501914658e-03,1.330610639919678484e-02,9.657404747036569398e-03,7.638938802127633043e-03,1.026919835952700560e-02,3.584231249920823148e-02,3.400018254134154483e-02,2.360246860312004667e-03
2.446728821772300826e-03,1.058326607671925546e-01,1.522931562177968177e-02,7.184183663527823199e-03,8.214493463328911491e-03,8.652070366573502008e-03,2.796165157904409448e-02,3.812175325711996549e-02,4.293545683854217698e-02,1.108144332316198574e-03
1.376586575418096980e-02,8.149709176150764234e-02,2.748208699500390845e-02,5.972626901687563133e-03,7.830189909309089383e-03,1.082203386628009627e-02,6.376979388462361564e-02,2.606574081425060141e-02,4.562730699402244711e-02,2.834372471016576370e-03
2.092591431881818745e-02,4.325437604602079544e-02,2.653295818463323463e-02,7.763568345188990444e-03,7.226639230629640365e-03,1.117605534536580958e-02,7.847782676834375026e-02,1.175404991488543209e-02,4.192241617118829672e-02,3.009480041765933735e-03
2.274566203056955019e-02,1.865299839162789380e-02,1.893446596033016363e-02,8.403635243771159086e-03,4.995503377495131604e-03,8.433088575929280004e-03,8.440033918218699249e-02,9.024101591592937482e-03,3.715016087972145692e-02,3.550611954699638747e-03
2.212372917596978211e-02,1.514728384920896714e-03,1.796319207911587293e-02,4.981137804651362966e-03,1.215223984523921240e-03,4.774185298766893404e-03,9.962312601913086985e-02,1.764088783590588710e-02,3.651454272246628524e-02,3.682453819959871297e-03
2.300362953057030757e-02,2.993016450378335053e-02,3.078325113272972410e-02,1.881095232168231201e-03,2.910614324519254954e-03,2.515374564413259961e-03,1.162898835399517744e-01,2.748741217307279841e-02,3.984571255439328663e-02,9.510137380781326930e-04
2.720991025045019218e-02,6.097190342810429597e-02,4.615393385060162501e-02,7.241926555922811350e-03,5.559757288732684703e-03,1.988989951033443004e-03,1.118088981411912985e-01,3.674898028114833431e-02,4.529319249646086148e-02,4.600909010369896163e-03
3.405132915617947731e-02,8.683695589283249583e-02,4.418375414586724753e-02,6.849549635338127510e-03,5.661431419068945099e-03,2.889887613429786839e-03,8.783903737006956702e-02,5.277362621943258725e-02,5.479912622625376928e-02,1.045340094602153873e-02
4.127620176198331520e-02,1.147846210400600281e-01,2.398811970620884360e-02,4.089896934958127395e-03,4.673036510917731937e-03,5.001764694524183513e-03,7.222420093868578417e-02,7.213999060530702778e-02,6.857517122977466184e-02,1.455523047673206068e-02
4.627058095520884123e-02,1.497343997968985929e-01,5.849131859179824110e-03,6.074724880403613823e-03,4.798221970566998382e-03,7.393075223962744871e-03,7.416440566940844803e-02,7.568915388163413582e-02,7.783094004371704511e-02,1.614602842283486758e-02
4.774255790835039981e-02,1.674726565808956902e-01,1.261299084776187386e-03,1.192832313190622662e-02,5.060549601005491158e-03,8.798280126483416091e-03,6.779130371485229956e-02,5.244145309897147583e-02,7.622823205427797788e-02,1.563662555068437779e-02
4.665090746438362024e-02,1.350773044129836287e-01,1.416636822579795188e-02,1.236134214002752862e-02,2.321419200738830853e-03,8.981997308105369587e-03,3.819590256436579401e-02,1.604236455332730057e-02,7.866141065430791446e-02,1.525225272358379097e-02
4.434133650350149253e-02,6.293120612813064840e-02,4.571247344277187125e-02,2.952700578096531525e-03,3.083840109991637345e-03,8.610274473258971301e-03,1.473209483668908720e-02,1.093779312242848349e-02,1.048180312999377195e-01,1.754533383727499563e-02
3.976905710718960790e-02,3.445722683470708869e-03,7.811562710218948602e-02,8.580678191948645783e-03,6.340046772234412056e-03,7.967275835724301619e-03,3.553329753158199905e-02,1.809473518553238527e-02,1.307743539055969406e-01,2.194953099283449699e-02
3.099032697439660020e-02,1.000053468562589302e-02,8.297441664746964263e-02,1.160522290657755098e-02,4.546915597879874413e-03,6.895609834750562536e-03,9.720818144836620989e-02,7.394187803417905103e-03,9.090395552227295561e-02,2.456100348012331402e-02
1.999857686881944749e-02,7.754767705353021734e-03,5.951334886709689492e-02,5.172257911457118530e-03,9.915680898612104499e-04,5.607525350282398929e-03,1.560090865904276425e-01,1.489237803881914880e-02,3.841175512651491541e-02,2.231175654119293625e-02
1.268516212070931563e-02,2.612271723445033084e-02,3.631050864964061736e-02,2.214848589754911303e-03,4.763942377798863767e-04,4.367424644968179517e-03,1.726389156239750977e-01,3.917648920389758815e-02,1.891973292313703647e-01,1.631059628595687289e-02
1.253370085403909123e-02,3.209456641026642298e-02,3.568908073848024026e-02,3.835289605224974276e-03,2.920918679909246737e-03,3.019983935760777848e-03,1.504403412840574494e-01,5.441696273591470345e-02,2.752981669476788906e-01,1.033389356841723020e-02
1.728805142834337338e-02,3.406987258784486411e-02,5.080641503248461283e-02,1.509697978022435990e-03,4.677083671522987672e-03,1.804830746720077587e-03,1.245399804198563110e-01,5.688413204105132598e-02,2.832009911804113100e-01,6.684765538155677637e-03
2.283512930034335350e-02,4.691104999137681725e-02,6.294485924738875415e-02,2.536737120327932631e-05,4.194579080836609471e-03,1.476611390762581650e-03,1.132155942845283897e-01,5.439640121019199970e-02,2.546535709379283974e-01,4.738011977835743238e-03
2.754729949101413986e-02,6.449180095356976672e-02,6.844817371389350091e-02,8.818244576783993219e-04,3.135837597558361559e-03,2.006395246143345516e-03,1.005089501300167332e-01,5.733009455694199064e-02,2.170766446398350591e-01,3.465361718611736658e-03
3.155758483719958013e-02,5.393470852971216783e-02,7.578091566376581045e-02,4.713282381526267238e-03,3.037360573135024049e-03,2.640853058089396004e-03,7.513258594054192385e-02,6.634099763967438168e-02,1.715994293548988303e-01,3.228788100289210761e-03
3.360766740535048314e-02,1.161049143210365377e-04,8.282271134511939858e-02,1.057093185684938180e-02,3.430033020252199957e-03,3.223623612397228961e-03,5.585617104875503780e-02,7.244728206908600254e-02,1.239869084314263181e-01,3.921620281017806908e-03
3.091289186622774021e-02,6.117132531944557972e-02,7.478943518865624474e-02,1.273929571160921197e-02,3.039327234600392152e-03,3.921934467831615645e-03,6.022605431633744344e-02,6.900550164429099242e-02,8.901018208996265557e-02,3.760813655106048838e-03
2.332650322839724052e-02,8.389515761654522952e-02,4.826798174044413803e-02,8.778277231735793010e-03,1.759653916906351104e-03,4.325652258288850520e-03,7.556307218161040229e-02,5.965950794923171457e-02,6.931906168967018333e-02,1.872149357150682111e-03
1.641238085869218405e-02,6.433848266582956055e-02,2.313080235862179437e-02,4.006422420351037766e-03,1.075752521969258746e-03,4.190930261883551132e-03,8.162924283919585633e-02,5.337893398058526917e-02,5.215746731373233774e-02,3.343148088387936289e-04
1.680571260473284062e-02,2.705854437719469596e-02,1.985512305643821751e-02,4.618901409079971196e-03,1.977783135253781150e-03,4.011911239721596689e-03,8.228073688152950926e-02,5.411382412227068450e-02,2.869910471479357461e-02,2.169335030203587561e-03
2.279950286993984512e-02,1.364148492660631137e-02,3.213683141644907426e-02,8.352830291172230748e-03,2.886464963219444787e-03,3.859698448778265366e-03,9.453709365213397442e-02,5.629372507359455685e-02,4.265268770034859672e-03,4.854170837818696897e-03
2.377480920354817923e-02,5.102551926717115854e-02,3.450009981083230343e-02,7.189355736271987526e-03,1.432433630042837230e-03,3.004782827761167015e-03,1.173831739591320034e-01,5.137132918934151499e-02,1.290533109722203156e-02,8.066423886524065612e-03
1.389693210526454087e-02,7.205114810345965293e-02,1.482501412421584688e-02,8.222155735862406254e-04,1.711871034492974675e-03,1.462358498822469415e-03,1.303320514239662553e-01,3.926307857690404524e-02,2.213564187446846743e-02,9.713732396171965988e-03
1.821578516068373711e-03,7.593945137281268853e-02,1.243910755609126291e-02,8.455790357570601087e-03,3.167603338706374318e-03,2.887520863367694151e-04,1.196835326629139135e-01,2.829442324936570774e-02,2.540367444630636101e-02,1.076643762739938961e-02
1.797565190510631676e-03,8.589045048986884701e-02,2.673627219216421352e-02,9.392099502352998716e-03,1.756174515408763515e-03,5.680410385745930961e-04,9.030118750138864392e-02,2.213604684445300355e-02,2.221426112472808106e-02,1.481947207957948903e-02
1.939158717999764315e-03,1.122812365113344951e-01,2.654601260643727617e-02,6.482771056525123143e-03,6.661541045527804607e-04,2.809532925089396147e-03,5.218901529808147449e-02,1.613078565957051791e-02,1.476241358389949673e-02,2.132595908198787679e-02
1.181644253508374980e-02,1.216934133908829374e-01,2.925071080358691150e-02,7.681683442232598545e-03,3.184636756073513930e-03,6.837384365105437373e-03,1.089667811352271545e-02,8.680456342819654197e-03,9.215117571164156002e-03,2.519530430359827322e-02
3.104649100690312982e-02,7.846947196769919752e-02,4.755858346532361447e-02,1.622402657580492361e-02,8.314513350963257526e-03,1.041280387943831730e-02,2.737577435730374070e-02,3.278104757425865951e-03,7.010434910001485907e-03,2.450443983186044450e-02
4.598297838790159353e-02,6.149133603524256815e-03,7.111184170476754496e-02,2.686354301775808334e-02,1.242947986945133754e-02,1.190433498984921033e-02,5.436263492860990421e-02,2.910681501556454387e-03,3.205131589249864132e-03,2.312530574547695325e-02
4.996086382527045039e-02,3.342650260313683591e-02,7.634234053279369270e-02,3.129076235891380120e-02,1.328998457350036300e-02,1.222357183815165997e-02,6.631911725794836787e-02,1.697492652180604064e-02,2.689153166821903196e-03,2.436975386808828622e-02
4.825113026625336282e-02,2.123934644410161929e-02,5.442762169220267954e-02,2.634490470757900812e-02,1.088344157884250062e-02,1.185274653181970367e-02,6.435823532309321859e-02,3.376874343270971912e-02,2.871824313729021312e-03,2.645928057252779769e-02
4.425812593803130773e-02,2.179618316740837905e-03,2.380130925239364037e-02,1.706513264205655744e-02,6.686273840936700005e-03,9.529443004861096189e-03,4.886933093857159099e-02,3.770033770600544898e-02,7.221106475450836393e-03,2.559500681882438677e-02
3.542536881527857950e-02,1.675325147008861412e-02,9.957469637419778460e-03,1.157593152224634277e-02,3.431667939190391481e-03,5.842961593578072793e-03,2.280005237997113909e-02,2.658670446016704256e-02,2.098207101862608476e-02,2.055464518951689856e-02
2.372272508114065676e-02,4.522500442061564568e-02,1.709086803145320674e-02,1.257262165727831074e-02,3.278659226060831253e-03,4.123399678033230938e-03,1.643178954230701313e-03,1.964780943775660052e-02,2.921943195705627855e-02,1.366741873504108765e-02
1.833635218470739889e-02,4.223472594932736746e-02,2.933166178389582518e-02,1.524771501308439317e-02,5.249171563378065078e-03,5.577339903635743223e-03,6.475156168467937658e-03,3.351641867076200765e-02,3.118900705194533121e-02,8.977166209064373417e-03
2.428930757759829168e-02,8.616993030815792501e-03,3.787297125602972353e-02,1.496722946642491635e-02,6.220160101028503891e-03,7.096077594617029340e-03,3.573806316174334141e-02,5.993448670633472197e-02,3.214433785889875272e-02,8.663388993134598162e-03
3.481208353695422475e-02,6.068506283825831314e-03,5.272234679975004029e-02,1.430567702374787795e-02,4.928952840570977739e-03,5.934690744533364926e-03,5.768719464755430598e-02,7.639506748174672290e-02,3.356946022445382594e-02,1.014866379601477887e-02
3.878847111056408364e-02,2.425601781255539921e-02,8.327876642999265666e-02,1.880388968517849452e-02,3.657054729528520353e-03,3.855674444589903861e-03,5.429116165258116022e-02,7.499383927906824732e-02,3.121245051244743787e-02,8.727110025402428153e-03
3.434296662081411794e-02,6.422762785800775753e-02,1.185463755657072682e-01,2.777241237398895765e-02,5.204871027067918023e-03,4.499308082080383762e-03,5.990167938550260140e-02,7.247534951374273726e-02,2.212634472210573203e-02,3.863737259278045115e-03
3.273620123677133814e-02,6.818433977626681131e-02,1.350623843028000703e-01,3.432195015042282388e-02,8.945026561185639644e-03,8.107710917568289322e-03,1.177314867025228418e-01,8.890138039214875998e-02,9.286298637859015728e-03,1.576472435164347902e-05
4.583015714314552652e-02,3.512432063104914404e-02,1.214201466677212460e-01,3.388894798205037417e-02,1.120659290271818452e-02,1.114869461153132450e-02,2.060312632851156733e-01,1.221067590101736211e-01,1.622074707493665257e-03,3.906249084121952986e-05
7.006958533739895967e-02,6.269502314413175764e-03,9.009592073655188493e-02,2.818918922354752069e-02,9.552209236812766319e-03,1.102157444753385993e-02,2.585824619614970898e-01,1.514432498493899770e-01,6.563539250028699312e-03,1.640500478347187846e-03
8.937701491586147462e-02,3.121783935068118271e-02,6.436938578771220221e-02,2.109129867132206182e-02,5.169830358043130125e-03,9.056461930846660194e-03,2.571115962804826349e-01,1.633712161055705936e-01,3.969957362529454026e-03,1.205064662044187315e-03
9.437763263710251260e-02,1.876598075651068898e-02,5.502058729633947654e-02,1.462812483078550392e-02,8.548604014157891017e-04,8.143341474934251770e-03,2.476337823524886461e-01,1.621100232276150577e-01,4.213082973407810891e-03,1.206488014192933422e-03
8.958502193447738515e-02,4.188902319514150457e-02,5.212821560361974305e-02,9.087921279421344242e-03,1.797102166859982069e-03,8.837206983595784909e-03,2.607548060213207286e-01,1.562778688828024287e-01,1.154353133033264416e-02,3.208740042039564394e-03
8.116492851635660755e-02,1.225591306393133822e-01,4.072172345957825179e-02,4.162286551215099890e-03,2.854529491807711490e-03,8.858567142783654175e-03,2.691179870120832818e-01,1.465719563650595691e-01,1.188791706237414883e-02,3.538529800634624030e-03
6.860472013970191074e-02,1.666422716077152200e-01,2.141535002857351475e-02,8.812868264273122226e-05,2.936412680016987388e-03,6.076142419275494186e-03,2.368978448969894790e-01,1.284727251086935640e-01,5.386284279738956689e-03,2.095272176630736533e-03
5.077121368531870016e-02,1.461436009235591582e-01,1.015550850481170865e-02,1.503599979489709821e-03,2.388860952853979775e-03,1.277743904488082977e-03,1.734532521145085715e-01,9.997919382057952886e-02,4.010195335876568998e-03,1.204094299733850541e-03
3.142346897961065255e-02,8.534424084469190153e-02,1.632508517047579280e-02,1.668689196651549321e-04,1.548778974637811867e-03,2.578584218934885063e-03,1.210288306174010925e-01,6.547399464468285635e-02,1.370693660498666089e-02,5.608288661245922936e-03
1.516951934055354133e-02,2.339301626869438877e-02,2.839693507913134893e-02,1.855096331242788929e-03,1.116962057472956939e-03,3.745971954743982941e-03,1.052936775186097268e-01,3.477970994572272823e-02,2.083832120405603935e-02,9.063533394221896800e-03
2.329084916554952089e-03,2.522868474426960203e-02,2.718618716325692242e-02,1.192655354624223146e-03,1.441510114690661495e-03,3.243741281226732512e-03,1.100122796203923392e-01,1.544563840590037346e-02,2.068314985935922751e-02,9.866970146429144065e-03
9.726950724945455928e-03,6.823640993729167270e-02,6.852217383992231098e-03,9.157878457521442112e-03,1.986250135869007186e-03,2.838587882053276827e-03,1.010490268619870513e-01,4.137123423212790696e-03,1.165599484542044831e-02,7.832841835192084004e-03
2.198079611547689230e-02,1.056987687234612339e-01,2.264741430161875541e-02,1.710313813454140963e-02,2.231922370029169964e-03,2.918075269253461550e-03,6.896392478094096057e-02,8.351979509268078056e-03,1.836244127517719371e-03,3.641098066103003444e-03
3.209655804306402183e-02,1.161957846128268274e-01,4.634563231585988458e-02,2.070597468110300238e-02,2.202218113352947832e-03,2.948076667677708255e-03,3.575346452719534857e-02,2.331315586868057399e-02,1.418517671356159769e-02,1.650792314574632937e-03
3.703322685847092177e-02,8.258310869731909365e-02,5.411140601031842745e-02,2.022984195541338917e-02,1.800826717150304582e-03,2.760791512705215809e-03,1.913289874684255196e-02,3.421229980282062405e-02,2.368193276125361152e-02,6.553231446763390679e-03
3.647882660107462649e-02,2.017507381715297546e-02,4.755781959966322303e-02,1.859173419482807246e-02,9.996017412301503105e-04,2.594729182405792773e-03,7.955473652710168264e-03,3.909452728323060955e-02,3.188119005386789995e-02,9.955052659995605735e-03
3.293175193474395801e-02,3.860105515735693521e-02,3.776381424862872843e-02,1.750756631173113267e-02,5.772347854791660135e-04,2.532314547013417121e-03,1.660252799163370804e-02,4.199174902082964539e-02,3.955689925523173806e-02,1.189532142035795367e-02
2.857651944311622241e-02,7.461837658736177048e-02,3.148802121171230539e-02,1.667039275304663809e-02,1.110185889958276205e-03,2.465646247853635342e-03,4.824918050771644096e-02,4.374781485183265595e-02,4.470992935225244491e-02,1.285735887367354252e-02
2.387453058575995934e-02,8.450624058953351558e-02,2.556071519840762488e-02,1.561229039351961709e-02,1.737818456782321084e-03,2.357015231041004969e-03,6.160427574916474414e-02,4.178936448457447328e-02,4.520134665107352484e-02,1.302069555999553485e-02
1.968212653195166098e-02,7.784238443537798424e-02,1.853695130951429557e-02,1.467222407124503004e-02,1.397285188117706588e-03,2.258324858222490825e-03,4.978481445209659295e-02,3.753655178925392050e-02,4.212099219579316239e-02,1.263380549177964794e-02
1.788053591174693091e-02,8.039781454265650107e-02,1.612460776003336177e-02,1.401078190302442947e-02,4.817497276293124459e-04,2.189416882853369856e-03,3.739658531487132648e-02,3.625212619400818015e-02,3.851118001381351186e-02,1.206690874450067931e-02
1.868524734447638003e-02,1.084700753645181232e-01,1.944721486070787736e-02,1.302353646643945352e-02,1.086436782945987209e-04,2.127448403814571291e-03,4.736508637234024266e-02,4.045134795676130074e-02,3.562242230364117551e-02,1.114175647244847536e-02
2.033248451079572305e-02,1.383835821852863468e-01,2.017459133105494601e-02,1.148075561117048796e-02,5.737533785454473553e-04,2.063700509846419767e-03,7.135099177857036346e-02,4.780331907114898637e-02,3.262853929489151900e-02,9.384675149002237940e-03
2.236123643820907281e-02,1.311897938983471457e-01,1.333595162558650141e-02,1.026918246974665994e-02,1.297044734533115773e-03,2.009227157153824390e-03,8.790073705291169548e-02,5.469276101899787912e-02,2.909376202130679531e-02,7.258189528431499039e-03
2.609039968554142594e-02,7.977500693456776593e-02,5.000336165169206627e-03,1.007459892049211714e-02,1.762526603757608732e-03,1.968314951272675736e-03,9.435666494941523375e-02,5.951831521473513464e-02,2.558908031721118803e-02,6.279598790305671550e-03
