2.129322891918122157e-03,2.535550705562883769e-02,1.174454029271674270e-02,3.451556099314532448e-03,2.023920104920006943e-03,2.032405534552206468e-03,4.954591763139283567e-02,2.160180101797967017e-02,1.431568960957575395e-02,5.652674686874236548e-02
2.798763487627294131e-03,2.769606199995404763e-02,1.295150975150472297e-02,3.362710668440219500e-03,1.947891865093558626e-03,1.866791139216265058e-03,4.439837332074375587e-02,2.318248516370474341e-02,1.879068945076602104e-02,5.137695689137969368e-02
6.585534849174831023e-04,3.041743100801981917e-02,1.305835120004147400e-02,3.282208959551149476e-03,2.027476281706841726e-03,1.646204550728361206e-03,4.004388157827636074e-02,2.296845205161705816e-02,2.881196570152522868e-02,6.118646245033696612e-02
2.507628048950114388e-03,3.185292846942158751e-02,1.314634234446405113e-02,3.195565767660747507e-03,2.188210039190850980e-03,1.374336092270190927e-03,3.995640676196680202e-02,2.098411286377377741e-02,3.871439897866384150e-02,1.073340580527024773e-01
4.476248464068975468e-03,3.266851996820917259e-02,1.375455104426170569e-02,3.002530951599958337e-03,1.870984401484360529e-03,1.059208159119423651e-03,4.191885320575763907e-02,1.811713827220927386e-02,4.521838694815490112e-02,1.687030934921033565e-01
4.573379994134401348e-03,3.523018714917031113e-02,1.469879062060764664e-02,2.754797145362278439e-03,9.707681740699109375e-04,7.122411686393026768e-04,4.062789632302128001e-02,1.416560712391280730e-02,5.275572504125331658e-02,1.917709663486042437e-01
4.447241310183655885e-03,3.843721877949460991e-02,1.560045635214775059e-02,2.695983554580139076e-03,3.570343870521755720e-04,3.394189198586221290e-04,3.343114766264004833e-02,8.998607691141335616e-03,6.618858755063783406e-02,1.495957415395395007e-01
5.984443631658235146e-03,3.657799226471695336e-02,1.476896609043127327e-02,2.758283238745469403e-03,6.396460578378028059e-04,5.749075122228353716e-05,2.208576530562046322e-02,4.601793215937273994e-03,8.124507754003455762e-02,7.868430359580880218e-02
9.073509466744691943e-03,2.701868892417319881e-02,1.009799521242577512e-02,2.404664916990319982e-03,1.192360306420089553e-03,4.626596951299793243e-04,1.046430957708995545e-02,2.948663395266845101e-03,9.031183192133854232e-02,4.206939781557358926e-02
1.222650332113005972e-02,1.600634256932641566e-02,2.643472063079639178e-03,1.539704813831999433e-03,1.220612027756960835e-03,8.490169432031052094e-04,2.372918656286217114e-03,2.879036722186636629e-03,9.516959171209508905e-02,6.254399091611118067e-02
1.428574372458839108e-02,1.238905392833395541e-02,3.160283355318232144e-03,1.005125018165662493e-03,8.397045060085885819e-04,1.218089396506001751e-03,1.133372156411702712e-03,2.115003602246775735e-03,1.031317769860354422e-01,1.064411679875010286e-01
1.492692576944982738e-02,1.827231703952441472e-02,3.838123542372604436e-03,1.405046930899718494e-03,4.689614553040072765e-04,1.595789717485054026e-03,8.446145951092168952e-03,9.809897827104114947e-04,1.118836969487579519e-01,1.288004374426400811e-01
1.450388903665322977e-02,2.921369659224963555e-02,5.694289446354933865e-04,2.183817579188639980e-03,2.070158374746036180e-04,1.947991596547086080e-03,2.056704718097121520e-02,1.016192882632650741e-03,1.115018560191043812e-01,1.193563274907506050e-01
1.365663465959772276e-02,4.034180843556798429e-02,8.033907334795678881e-03,2.567550187835759574e-03,1.397852676940613799e-04,2.188085759056522701e-03,2.788064600698095946e-02,1.786930422858602676e-03,1.022460698799250722e-01,9.803444792516188833e-02
1.251818466968197298e-02,4.936533025106394634e-02,1.595329733044088122e-02,2.522401466796248860e-03,1.989918661676579764e-04,2.358354486944142132e-03,2.411257531608703916e-02,2.329856409662013454e-03,9.567677651607063571e-02,8.034893885067721786e-02
1.056975304130354683e-02,5.494361136686413266e-02,2.140658141408865317e-02,2.417563675151314807e-03,2.314303602952286004e-04,2.619544086349578221e-03,1.364228707535427437e-02,3.522321994459787220e-03,9.601149980056240818e-02,6.720748673979884402e-02
7.659043383387608046e-03,5.369750026915362517e-02,2.325722779864680331e-02,2.675386088302331242e-03,1.326247046687452965e-03,2.861258099811433628e-03,2.666798325397226697e-03,5.824046265315536292e-03,9.621146342566692933e-02,5.586537950173464662e-02
4.743738561042833667e-03,4.199499567935263689e-02,2.409766791873713815e-02,3.478751575849653097e-03,1.899941374056535789e-03,2.705171404287351131e-03,1.169235610758209351e-02,6.999956420069706337e-03,9.503886724916678352e-02,3.728102909870299742e-02
3.050195066095138380e-03,2.291029712828236350e-02,2.646261822469318792e-02,3.729839828456424106e-03,1.136658612485084811e-03,2.382885167957489881e-03,3.408144410732297236e-02,4.872214726915712231e-03,9.903433672751768557e-02,5.335354152119680185e-04
2.377769626501333514e-03,5.380623800081067547e-03,2.675989229847370449e-02,1.333409219566506496e-03,4.535304084974909906e-04,3.015902002356074529e-03,5.885463957065870111e-02,1.341696496578249952e-04,1.018592223327716706e-01,4.760009824903008169e-02
1.035494875449624336e-03,7.411796844157010795e-03,1.785776398670815487e-02,3.797960340476177164e-03,1.424948864471990619e-03,5.036062175665247109e-03,7.468462584696984596e-02,5.491712798218937285e-03,8.169118863185907686e-02,7.513601189976885919e-02
1.791221929482555118e-03,2.058795084697546615e-02,7.568383414340864278e-04,8.386776125666869572e-03,2.817531323322610293e-03,6.893594908558949713e-03,7.729651213668141396e-02,1.171586186197869778e-02,2.911304672307422903e-02,7.947732651434402662e-02
4.806392687964555592e-03,3.619283929535689615e-02,2.056415519270635497e-02,9.604535836235994495e-03,2.487797939744146574e-03,6.637296025788470312e-03,7.381071858701673816e-02,1.890451912833758172e-02,3.801668641183967440e-02,1.014158803550651577e-01
6.781524251418202809e-03,4.974749896245078684e-02,3.333734457025040732e-02,8.683901756582457221e-03,1.194382231404451933e-03,4.307709361572742944e-03,7.677438431632600813e-02,2.609712790727269568e-02,9.488279057070435341e-02,1.870966620216224507e-01
8.135308897196368363e-03,5.871444889670474759e-02,3.806909686091933254e-02,8.411575237552417969e-03,1.165234885732653472e-03,1.590674573819349062e-03,9.115120948403421242e-02,3.058032237698037406e-02,1.320141046569237864e-01,3.306970716027267110e-01
9.184080989200878176e-03,6.512075928705618466e-02,3.885931172677258016e-02,9.209183755319066966e-03,1.999050654554657917e-03,7.671018673824421433e-05,1.067152568557915154e-01,3.020885403824059498e-02,1.547199572653230881e-01,4.635845231793118693e-01
9.114889471446433258e-03,7.141770554084814204e-02,4.105942731849140243e-02,1.047380990604960399e-02,1.852694406548884400e-03,5.709433538154343873e-05,1.102314237815057996e-01,2.676852103012677259e-02,1.716983776382712823e-01,5.174783404169199796e-01
7.744947179123458543e-03,7.841527255867003499e-02,4.779573458778448025e-02,1.303798978756929433e-02,1.370670708697224434e-03,1.345942210214543400e-03,1.015271112762282796e-01,2.457745972476418558e-02,1.847546652087735108e-01,4.913197235838611121e-01
5.940850108868781301e-03,8.344476767721124844e-02,5.584505678184860378e-02,1.678707678221734098e-02,2.216103881382341760e-03,2.378925604692172253e-03,8.784839615369302579e-02,2.433577004621923293e-02,1.850956341679398376e-01,4.292280831892474890e-01
3.839406476122388112e-03,8.069915899463009357e-02,5.772854872103128088e-02,1.843176511777163892e-02,3.218667358722265576e-03,1.303439470826713758e-03,7.057791494641763030e-02,2.240867927758440764e-02,1.657001570722513306e-01,3.543510446327978181e-01
1.097312637524119460e-03,6.745580466383355178e-02,5.049657438862271280e-02,1.517255564695716222e-02,2.141847232612559097e-03,1.176956572719418384e-03,4.964705850698122869e-02,1.757291751909557942e-02,1.373265792204792501e-01,2.667150688646228174e-01
1.263378625588026808e-03,4.781148383372393201e-02,3.887012952016927203e-02,8.604131933879802588e-03,3.046603026633307588e-04,2.875291999296265399e-03,3.217266391899483574e-02,1.303824965810558567e-02,1.179031390558779313e-01,1.790450638396909600e-01
1.729192937443097379e-03,3.009281222813513235e-02,2.902448840784930748e-02,2.556411665499878482e-03,1.727384375571018073e-03,3.192708556090198026e-03,2.556446753860893220e-02,1.078649431049416227e-02,1.057414487233344358e-01,1.054111021013124372e-01
6.063363610322615579e-04,2.279685149386443538e-02,2.289994727819093592e-02,1.143721521687420580e-03,1.687685640699224977e-03,3.271576437782837323e-03,2.832076572690155059e-02,9.207873528576911507e-03,8.322099153785011971e-02,3.885570329644297272e-02
5.314161393448054924e-04,2.757089461924075446e-02,1.845652116011125068e-02,3.223314831702704664e-03,1.458448165571283889e-03,3.780375987443278935e-03,3.301206626521008269e-02,6.035697914228895303e-03,5.002240849506715825e-02,1.950190857808510592e-02
1.038200853116437710e-03,3.468954487357193972e-02,1.307230500283027702e-02,4.944018499766883804e-03,1.691820326274096412e-03,4.336176256673741035e-03,3.311350671894816577e-02,4.476472987624915446e-05,2.985313979025704806e-02,4.112095366345326630e-02
1.406719075513055296e-03,3.403450493427964685e-02,6.104333919243845955e-03,7.006362623728178834e-03,2.131347754857067928e-03,4.625653706131169565e-03,2.610339522296396125e-02,8.029637802199771079e-03,3.556591188645012724e-02,1.810163375604552025e-02
2.192371783400128005e-03,2.817592527959087573e-02,2.197933367776571788e-03,9.546330470237722465e-03,2.416469257961443521e-03,4.817639712726471020e-03,1.416814730085902072e-02,1.301422667409977280e-02,4.800745761034974635e-02,4.701185072230277401e-03
3.629254605043002405e-03,2.369057625846491752e-02,1.252836646311521543e-02,1.198225780784874066e-02,2.212769983376674209e-03,5.050718760551993827e-03,1.466022336960823812e-03,1.059881366034685739e-02,4.338370985372494437e-02,1.347237955139064802e-02
5.272041972880578929e-03,1.657554310509084042e-02,2.388554372844316209e-02,1.333539155922412213e-02,1.538583894319920905e-03,5.229336524081817233e-03,1.023815852092766279e-02,3.108599170582602815e-03,2.670552423878989889e-02,5.038381273167597679e-02
5.685300561561334662e-03,1.070774450169446890e-03,3.137230216857848919e-02,1.340907418427714042e-02,1.132746806355684711e-03,5.295335186812688555e-03,2.151014457634045987e-02,3.474577341472928019e-03,1.961816293615784718e-02,5.915126231742837831e-02
3.570310045148284567e-03,1.328425536202952270e-02,3.154481528315411509e-02,1.304428623808315431e-02,1.547986545372109128e-03,5.328018016676597073e-03,3.223912283781536769e-02,6.994797166861852974e-03,2.332068627072985886e-02,4.072840859635162847e-02
7.966020144399423930e-04,9.288354182926367164e-03,2.745586975274754218e-02,1.293302174577051766e-02,2.253221907532110355e-03,5.342736433747080627e-03,4.135943138524587892e-02,8.745315115656408095e-03,1.739272224831543007e-02,3.559223576676087686e-02
5.692785592626046012e-03,1.467211665914317301e-02,2.377072198062004163e-02,1.297349164788010566e-02,2.455646388226049096e-03,5.236959933818273807e-03,4.835105411524757285e-02,8.735924031399616360e-03,1.935709574725365256e-03,5.855543137098941781e-02
8.718468104374986136e-03,4.108300144305425394e-02,2.033353046578799048e-02,1.286477352859591132e-02,2.130244751465275744e-03,5.044795200180215641e-03,5.341011516851509183e-02,6.372694859145665996e-03,6.875969956242665784e-03,8.260736074745922419e-02
7.607708121172923610e-03,5.332462876422560533e-02,1.509497693018495464e-02,1.261287709307915873e-02,1.727986607677069837e-03,4.981557509398769866e-03,5.701038400711221088e-02,3.517343788112270789e-03,2.410495478756969831e-02,8.239622524509115919e-02
2.325488993067226662e-03,4.899086769489453125e-02,9.940877946457767067e-03,1.239854815869289445e-02,1.604876352898919594e-03,4.987574370505559219e-03,5.936439522085187881e-02,2.422472572345939906e-03,7.106745332233561918e-02,6.325003686063468411e-02
3.395474869155939383e-03,3.279645530081148203e-02,9.174375819807357654e-03,1.231850662456725025e-02,1.764720298012262441e-03,4.609055751351701265e-03,5.920894091172511364e-02,1.562816768588326955e-03,9.373459683504001272e-02,4.625206971312968013e-02
4.919900011709083844e-03,9.435008356742633634e-03,1.378969181892213125e-02,1.224247215786889234e-02,1.566039604072482763e-03,3.731976800587014781e-03,5.359289440952280659e-02,2.504112795489039402e-03,7.655511172359795447e-02,3.975660193260863173e-02
1.704185819719471109e-03,1.180773606317735841e-02,1.978834013759355262e-02,1.196494034297123504e-02,2.805485921000634621e-04,2.726967588555700116e-03,3.992517275195821280e-02,8.427814251449715702e-03,3.809172365745867872e-02,3.040589458467385722e-02
2.294128920904160967e-03,1.909413233037460939e-02,2.201170038991458189e-02,1.166498044817154169e-02,1.646190650592038425e-03,1.284289015100260759e-03,1.880961854219460536e-02,9.604385755543405623e-03,8.894031184162237702e-03,6.664710299827919342e-03
3.251473111822826122e-03,1.262006698143359508e-02,1.879501049250324740e-02,1.156122951862346461e-02,3.059151339710934267e-03,1.613290572312120518e-03,3.610144058447537635e-03,3.531029185498552915e-03,1.234140382196044494e-02,1.142543791249400233e-02
8.808193324787332631e-04,5.273931698651785661e-03,1.175123253161121199e-02,1.038217843593902331e-02,3.831984584001075014e-03,5.562370151638957975e-03,1.665764983240298688e-02,2.976862935866581537e-03,5.096739873762733825e-02,1.340653279001516665e-02
2.463676138781333361e-03,3.104762269852583915e-03,1.774970767560335233e-03,5.555912991085519732e-03,4.460069816980294713e-03,8.040230339739010135e-03,1.342078994496011951e-02,2.873953390681216816e-03,9.895701986554068796e-02,8.341581457821686807e-02
4.272769807537112746e-03,8.676673356360397119e-04,1.059977103636061332e-02,3.147401825559054036e-03,4.449573900690661013e-03,6.982321677803562943e-03,6.110852200359928252e-04,1.521855412475425252e-03,1.196843622972026677e-01,1.497552481066192209e-01
3.667540183954522571e-03,8.886929928179446506e-03,2.079123249669585782e-02,1.157542034666981558e-02,3.126961724794749542e-03,3.043011934791760038e-03,1.250815644034070084e-02,3.805384712783899375e-03,9.686589023950599453e-02,1.656459505232913965e-01
2.104356826981277663e-03,1.058015212322926078e-02,2.262907990448832785e-02,1.543317726564674870e-02,1.234924397619596411e-03,1.252954031713414797e-03,1.633042710745468556e-02,3.375844140386772326e-03,4.252965478152887641e-02,1.441925384811069966e-01
2.006341561337692935e-03,1.094336115990108584e-03,1.713759611736647565e-02,1.547662791604980520e-02,1.245733983464028484e-04,3.841051689342888601e-03,1.716267978360801541e-02,3.470867969097387717e-03,1.946986417434856328e-02,1.446033496111368555e-01
3.996874843364389696e-03,1.938647729853617760e-02,1.297877895185631236e-02,1.610125050608209388e-02,3.806258292745051805e-04,4.478309235291410249e-03,2.075791180183061621e-02,3.540655960796975591e-03,6.850972846664993288e-02,1.964225825211516618e-01
6.313540236611198814e-03,3.458348800021895236e-02,1.586704898978369416e-02,1.965947126085182059e-02,1.775654115747438318e-03,4.183534326496480063e-03,2.485898270922544395e-02,5.383105612168823887e-04,9.545110720113923752e-02,2.513860938114090837e-01
7.209322660644342830e-03,4.444595653927106010e-02,2.202954099624830284e-02,2.402381842158595252e-02,3.175288906599410196e-03,3.464499368382321400e-03,2.311346210041687402e-02,4.415013405874901146e-03,1.078838225075479801e-01,2.374765985489056264e-01
6.537521376097045131e-03,4.976851934760088275e-02,2.399941009716784895e-02,2.548491543626172501e-02,2.938662240984522139e-03,1.749392832300600406e-03,1.558673279655720979e-02,6.244221911350746057e-03,1.223916750049932473e-01,1.633059273938953782e-01
4.693623767831539735e-03,4.944548061727026961e-02,1.924466695379920336e-02,2.294575637548820074e-02,1.148723017385948082e-03,9.393443746906851056e-04,1.099023057305877939e-02,2.083410549827453915e-03,1.440600673733825332e-01,1.206269655233366128e-01
1.651541258149738425e-03,4.411235170884126450e-02,1.127590695045089728e-02,1.855328114787988675e-02,3.169385247373592571e-04,2.965909014959829896e-03,1.460620264976693512e-02,5.474152760137093385e-03,1.574632430600505506e-01,1.528687203667944416e-01
2.135326292581708751e-03,3.724750444757594231e-02,4.977822102963033735e-03,1.435705708392070838e-02,1.903852682133833941e-03,3.006863773283140456e-03,1.823106671666062037e-02,1.029956338781721180e-02,1.444440784357433338e-01,1.786860365151994867e-01
4.908860140886647100e-03,3.094486119084902467e-02,2.421212344047125268e-03,9.880191347803027671e-03,3.718023804846739156e-03,2.146935382952020344e-03,1.000340097020429100e-02,7.756337244616834901e-03,1.086901196141520642e-01,1.085798629074446742e-01
4.743485948678990809e-03,2.662668660513673943e-02,1.464942119991614628e-03,3.917006318214773762e-03,3.056033525889948442e-03,2.636592134828887740e-03,8.634071536973840499e-03,1.373737041572473366e-04,7.536940581623086111e-02,1.089192958625660734e-02
1.710335602761297799e-03,2.790332553483531458e-02,1.989243547184412278e-03,2.627126456911715521e-03,6.833401206150393863e-04,4.685811367075120963e-03,2.355676594413603359e-02,5.583849262271839767e-03,6.507505719030710900e-02,5.709559727150714803e-02
1.512143664359538384e-03,3.570427998010494014e-02,8.553844410097932727e-03,6.920113431712624288e-03,7.949330563669675716e-04,5.742863249160816072e-03,2.301814815525053681e-02,3.042870468065854775e-03,7.312978024732261217e-02,1.248770926212021751e-02
2.120410359625942397e-03,4.324230218815598020e-02,1.310834735081473773e-02,6.604806976983715675e-03,8.236119058530329100e-04,3.734196796076980334e-03,7.560640719956993744e-03,5.413731031011655669e-03,7.628084050024400153e-02,1.282826432862042842e-02
4.126586463725933534e-04,4.227971797302668838e-02,1.105004053841230488e-02,1.740966583275888350e-03,7.385734263722315389e-04,6.137357551249487540e-05,1.134062176562363258e-02,1.406156398566296359e-02,5.729130747082665509e-02,4.794104698113368229e-02
8.078613939441040047e-04,3.263666774584010610e-02,5.119322414403529656e-03,4.826765526724313693e-03,1.158128248028465843e-03,2.017491136027329320e-03,2.152032260856030083e-02,2.007525729762705061e-02,2.049370507653576479e-02,1.202924322338473906e-01
2.659560098101283764e-04,2.134378234418177547e-02,1.778026754344420955e-03,9.202872366133889662e-03,1.625873526887064045e-03,1.335053724911248975e-03,2.305560088699820653e-02,2.420325218881244286e-02,1.832344941716519682e-02,1.127628881202080713e-01
1.592873152704700034e-04,1.442895689594960937e-02,3.056641581062339002e-03,9.479209464445794917e-03,1.930361027541563877e-03,3.055382110879968009e-04,2.719082050506491793e-02,2.669114139148503692e-02,5.053069883240389470e-02,5.796614001493213125e-02
1.753554079419518321e-03,1.360635524482306860e-02,6.799986553982974129e-03,6.936684593986587599e-03,2.244820528069318109e-03,8.491851478511112591e-04,3.741725879989441644e-02,2.523142680376377206e-02,7.184325181455233911e-02,4.679183622224158956e-02
5.745304427311286738e-03,1.988606756169648826e-02,1.220244322716939646e-02,3.930466445197624073e-03,2.488424610098284757e-03,2.836400598641164190e-04,3.995852784414848785e-02,1.802171001071862025e-02,6.902057492917378079e-02,8.543886641930671655e-02
9.316046072224691207e-03,3.403450671721122006e-02,1.996832512857579789e-02,1.221069493952615980e-03,2.617756503108637379e-03,3.132160006419351856e-05,2.172811172356316559e-02,7.480335528898202427e-03,3.163925156957071716e-02,1.151503418191737599e-01
9.662236481392690729e-03,5.009212147393356934e-02,2.867065308820615152e-02,2.188162723967685720e-03,3.049226448467074607e-03,1.169347518064635730e-03,9.539089899590147761e-03,1.298108774079171496e-03,2.315104841986912257e-02,1.246369625047224899e-01
5.725905502254878196e-03,5.487451813840694970e-02,3.430376666781000811e-02,6.804072766270950756e-03,3.707928040236122252e-03,3.819505380193930107e-03,3.273050228956073116e-02,5.554723386851515357e-03,5.818636945280837580e-02,1.442954927959955447e-01
4.610171894952133382e-04,4.106266744036606714e-02,3.287649916147854234e-02,1.075435510685610573e-02,3.235734239045198225e-03,7.189843202252747985e-03,3.677786784423357075e-02,6.172562258206630917e-03,5.284596067724301599e-02,1.607099684057335387e-01
4.869302685352405735e-03,1.636954695678188160e-02,2.344763582672870772e-02,1.134309377945597053e-02,6.072951860922089088e-04,9.757427551587032066e-03,2.880438273409400424e-02,4.449581643911675044e-03,2.086378086249331826e-02,1.225321414137439391e-01
5.169423374403744366e-03,6.501660040506095257e-03,1.005092688087119886e-02,8.737875287266326160e-03,2.959988585948774079e-03,1.071659127740270251e-02,2.144563727514177745e-02,9.713636889339182044e-04,8.054020362260645369e-03,2.309210039672437292e-02
3.073045482462077611e-03,2.307343542045858786e-02,7.513433015627972141e-04,6.137187690386122947e-03,5.226765574415321268e-03,1.102490466498053448e-02,1.923442030378274409e-02,2.031776517167733880e-03,1.596897712939468472e-02,7.522457972809312721e-02
1.896758259467286540e-03,3.386253098882422569e-02,5.543434259306720055e-03,5.872979198460945120e-03,5.353189953251577884e-03,1.128863573372964127e-02,1.783196562574081503e-02,1.278444592729360493e-03,6.655383305580716072e-03,1.016300432854512770e-01
2.512712886979832742e-03,3.541851933719498274e-02,5.351920927412811071e-03,7.627304831737171005e-03,3.855883802665336594e-03,9.858118360682118636e-03,1.187234952637621598e-02,3.411214115030274888e-03,6.346042215386066276e-03,4.737707773470322542e-02
3.245636914546016702e-03,2.420491114878176031e-02,1.812255502359348160e-03,1.028268458983002884e-02,1.426723802038263244e-03,5.547105310102722238e-03,1.090993947952319460e-03,8.585748230192596572e-03,1.699231257313939952e-02,1.892709697295396482e-02
2.880930799024515251e-03,5.806217648744767777e-03,4.095260812141992418e-03,1.296980460550792996e-02,1.055063949336607770e-03,5.454210253458809197e-04,1.002179534078072656e-02,1.142733580142423280e-02,2.866031977278228962e-02,1.563436337661380793e-02
1.994660737221255926e-03,8.718316829894667136e-03,1.033635922652330515e-02,1.473967858365973597e-02,2.631345887620434396e-03,2.262229239179586442e-03,1.590886334669327704e-02,1.233009699136899603e-02,4.446159970274874557e-02,5.630589499080810439e-02
1.954787639390637589e-03,1.499858654462146029e-02,1.514328311206922587e-02,1.519328306073002011e-02,3.304483013471986967e-03,3.272145790092823373e-03,1.339675673879224191e-02,1.279734396186077081e-02,6.540985512654678979e-02,1.086994689400122144e-01
3.599131945681783955e-03,1.764506105468516273e-02,1.884882813673216528e-02,1.470284476606056531e-02,4.026627476832894854e-03,5.014224477325627226e-03,4.898843287434835429e-03,1.269147492260011209e-02,8.930890374648549346e-02,8.269771734531293494e-02
6.172863017988179310e-03,2.166833260562040647e-02,2.068319407591453357e-02,1.289639184302036022e-02,4.806362406482862781e-03,8.378637733376478880e-03,2.735223222404473912e-03,1.154707203313950180e-02,9.718969909529816265e-02,2.386059471019677525e-02
7.537873779564050955e-03,2.620996883140118069e-02,1.635323813029563103e-02,8.389262360885659658e-03,3.581155575108766961e-03,1.154650068995647857e-02,6.060067409741153911e-03,1.157010175429963594e-02,5.878647357509013405e-02,2.415266072348015713e-03
6.281515337861530955e-03,2.414041648257671258e-02,3.482859973804513631e-03,1.268526328089253103e-03,1.314458937276094313e-03,1.179163083380146103e-02,8.050095956428027222e-03,1.548574224246680384e-02,2.419796108130885595e-02,1.134377123641975779e-02
3.180778428135448092e-03,5.917013935318311997e-03,1.271764478008603066e-02,5.567286852531909067e-03,7.662615838574436677e-03,8.157195102459961419e-03,1.037892530980266334e-02,2.134248227152159283e-02,1.013342779081445044e-01,4.915147572692336875e-02
9.958249093672394132e-05,2.971222820642904078e-02,2.388853392096373582e-02,9.144494833522039123e-03,1.087270706474649865e-02,3.204778438104089605e-03,9.967112069399333696e-03,2.400168426785232942e-02,1.294992724714315868e-01,1.000529032992889256e-01
1.774761101903443499e-03,6.744507994812058704e-02,2.759856522455940084e-02,1.006159125905277743e-02,9.643160832051961631e-03,1.012601856414503459e-03,6.807851936675975678e-03,2.191537033718240698e-02,1.229114417988991792e-01,1.180120809968381174e-01
2.406308986192476872e-03,8.649370243987559992e-02,2.847818715084387414e-02,1.203170021586954380e-02,7.317381572489194477e-03,2.222774115685073344e-03,6.769577343334355450e-03,1.769615020070644529e-02,1.175297066614761354e-01,1.008932029335507380e-01
2.468248486011323344e-03,8.164000466731699546e-02,3.061240423221996826e-02,1.703402908124319534e-02,6.539241869701605328e-03,3.016587919333561796e-03,1.233713316993616076e-02,1.273384547648317468e-02,1.142878677667694964e-01,6.780056974139689330e-02
2.658245831139941211e-03,6.571685410713666575e-02,3.203272580939409142e-02,2.193383695988352852e-02,5.669732167078393031e-03,5.570440131409857241e-04,1.827076795205987911e-02,6.865804835422302174e-03,9.219249884885191704e-02,1.845482189190982697e-02
3.252956816028593646e-03,5.154929587217055992e-02,2.853371089605726343e-02,2.186086203210920592e-02,2.333628164061920651e-03,2.996265408533285452e-03,2.017546476398096589e-02,2.350919940894968200e-03,5.066696022298661228e-02,3.346983456013463004e-02
4.425390349781910433e-03,4.010981926460371882e-02,2.059628246784146050e-02,1.634789855604574377e-02,2.276545676000166479e-03,3.940623874123104498e-03,2.037028363551910207e-02,1.831834979947011624e-03,5.837130273691083955e-03,4.891185652499704939e-02
6.390243531667257407e-03,2.707152084683672744e-02,1.299189459493201894e-02,9.628733403547281092e-03,5.186810507842246586e-03,2.242125653104259236e-03,2.272454120597171279e-02,2.866311876042641500e-03,3.181762299984657039e-02,2.488214053249081584e-02
8.259066150887405672e-03,1.256630501338205572e-02,8.888967213345260951e-03,5.307223479967299214e-03,5.925508919951475578e-03,7.749006224419552075e-04,2.692924472735991684e-02,1.440389745596610312e-04,5.190937140475202632e-02,1.241017115224394944e-02
7.698577992661645442e-03,1.893787150954956075e-03,8.069992934549628447e-03,3.260215253943692798e-03,6.297293242276679436e-03,8.416550925727632210e-04,2.839314835068708354e-02,7.440595654299115257e-03,4.193614160392473977e-02,4.895462348615855358e-02
3.641273315176072299e-03,1.474323905410661849e-03,9.493364386835378629e-03,1.571471010356086714e-03,6.784345179395658704e-03,1.376586747391756078e-03,2.308642573749682472e-02,1.614953958063600203e-02,1.040180622798712352e-02,1.089626397609977509e-01
1.318591755347639505e-03,1.334600778935344026e-02,1.214636668126168641e-02,6.855008825223331183e-04,6.030414853283063564e-03,2.244571636464059300e-03,1.571545179426283093e-02,2.215630777231552759e-02,1.255912980871634957e-02,1.303131226975951240e-01
3.344746959257926568e-03,2.947615204918107093e-02,1.460147844429760325e-02,2.973404418242765312e-03,3.941253977768480361e-03,5.225142618463753628e-03,1.755843290496092099e-02,2.355190380125981794e-02,1.282220539325900320e-02,7.838425867190525198e-02
1.749611046052060477e-03,3.633663905545543582e-02,1.568690813744120713e-02,4.428180301273394563e-03,2.708265362795255274e-03,1.059179795661147928e-02,2.831998076837780737e-02,2.016699470078515966e-02,6.909164786164370339e-03,1.414925301641031460e-02
8.220723170233589254e-04,2.974550106587868850e-02,1.462677714258707982e-02,5.025628257255576950e-03,3.992308574352065875e-03,1.499960797407617549e-02,3.111027607199682438e-02,1.456363140034080787e-02,7.580072735057994705e-03,8.289068774421688712e-02
2.098768037480203824e-03,1.851312069634804963e-02,1.088549105173035846e-02,5.754085305466827109e-03,6.691775124483811781e-03,1.476371471522230569e-02,1.711247382156668925e-02,1.094887939492679083e-02,2.923691592240113685e-04,1.092403739356167802e-01
2.487722389422461228e-03,1.130978432274028049e-02,5.528209254309269897e-03,7.193474984059925609e-03,8.187285085233036649e-03,1.039283554311323104e-02,1.856930138681681282e-03,1.085226361680848364e-02,3.021646039480785362e-02,1.270519553473260788e-01
3.805693957075837602e-03,9.275086865723194615e-03,1.908652702698541547e-03,7.665097659612718668e-03,7.134054889406448580e-03,6.114651748821034287e-03,3.596709730637164069e-03,1.182988680151576648e-02,7.025590430508375783e-02,1.477160732739468130e-01
6.658220779196662338e-03,1.175590002987568841e-02,3.548337696795851419e-03,4.064440519500471180e-03,4.568109482872229066e-03,4.894122662089066614e-03,1.783915308494294152e-02,1.152489806667592910e-02,9.227540037203167678e-02,1.320617271042846819e-01
9.591580649156295282e-03,1.844936251104815558e-02,1.102873352634715746e-02,4.094344104995483423e-03,2.183627563897988684e-03,5.483860632223364930e-03,2.631096568928967608e-02,1.041195388442986945e-02,8.781568182690895064e-02,5.950197646702309190e-02
1.099747116818021973e-02,2.519652131077963070e-02,2.052147859461163348e-02,1.255506100062367576e-02,1.675796918484419556e-04,5.086926333861731091e-03,2.178777942173579923e-02,9.293370174003960996e-03,7.136231721615961254e-02,1.975752254151458276e-02
1.098752261370857831e-02,2.542443436521841724e-02,2.566891364550518556e-02,1.611049950202615016e-02,2.249695802757447228e-03,3.374320360099580026e-03,1.217000256622696903e-02,7.013991752214508366e-03,5.800471896982339198e-02,3.792622870843889715e-02
1.052238516418521098e-02,1.599262748838011644e-02,2.236894557669871081e-02,1.369748678801004094e-02,4.767848826802217714e-03,2.056683752561337154e-03,5.180865202254597394e-03,2.897786780863091487e-03,4.725415023316985319e-02,7.569900275217545868e-03
9.856229154570262177e-03,7.012340350514183803e-04,1.224777302767465249e-02,8.120553710842361508e-03,6.026925369795794497e-03,1.205665836866199681e-03,7.032784105966722200e-04,6.729125061497430059e-04,2.975091544332280832e-02,5.609331721015718003e-02
8.892411012887299973e-03,1.823306674243118861e-02,4.797943399177286971e-04,1.773921448476623811e-03,5.056362045551999682e-03,1.482316304647947076e-03,1.029234484834511826e-02,7.194057239955951389e-04,8.437360672200695799e-03,5.237031237564224867e-02
7.762947771446305351e-03,3.049634992153000060e-02,9.999804576913774723e-03,5.374951649633458346e-03,1.694238184537224731e-03,7.170288638485823596e-03,2.315793868260418789e-02,2.228581060338027421e-03,5.334307066936536113e-03,1.326782272299846868e-02
6.308146280291056576e-03,3.615107916435802288e-02,1.944671550345630773e-02,1.294940979282108162e-02,3.184594280032729437e-03,1.356251369506597526e-02,3.291795547725830107e-02,4.261850120871732081e-03,3.244237172853028928e-02,1.070787893429158144e-01
4.315018044367337387e-03,3.534844927624056221e-02,2.531219301497206198e-02,1.665288580075837202e-02,7.019196776172321843e-03,1.685298432972352767e-02,3.233545705375272250e-02,1.537273812391214004e-03,6.067234322667355850e-02,1.626211993992725535e-01
2.359691156271226994e-03,2.475700968042088279e-02,2.145228022059399858e-02,1.137564829177107641e-02,7.019200710193039539e-03,1.499101902063832564e-02,1.987629073416942449e-02,7.001268030964788620e-03,4.573701857910245777e-02,1.253160433392561390e-01
1.011410507674410453e-03,4.739801824534786018e-03,8.405192124236394308e-03,6.979277698702399200e-04,3.386597423265331943e-03,9.257097547496762058e-03,3.737792733018147247e-03,1.812262678496114054e-02,1.279260410209033874e-02,2.234043595124214285e-02
2.345468841056381733e-04,1.282539485661369702e-02,2.291183167447794367e-03,1.004149678762981078e-02,4.158566021143828050e-04,3.502756536235586849e-03,4.040598210396919784e-03,2.469369664734702083e-02,6.873992075298374083e-02,5.466221765770194752e-02
1.939182136082806280e-03,1.525060678671166792e-02,1.184953435707645619e-03,1.078008977048766290e-02,1.244205915991214266e-03,1.330968662944320181e-03,3.472792684805799243e-04,2.060536403191228980e-02,8.571718374915707206e-02,6.504823375535158381e-02
3.775901892880344658e-03,3.805333880882888053e-03,7.417934997065354051e-03,6.739026017299793066e-03,8.553863299659785575e-04,3.454425154121653057e-03,7.553806983819881180e-03,6.764620231077048823e-03,6.574799240360890140e-02,6.095046723108991232e-02
5.548919307268900675e-03,1.087341240970044788e-02,1.318013910334680204e-02,3.989448343232724833e-03,3.184467869952124514e-03,8.008973368610863147e-03,1.564026516897516761e-02,1.020050490614544079e-02,2.603709834764394646e-02,8.900803365528890676e-02
7.651762661021972722e-03,2.306480457154962832e-02,1.370594054471712189e-02,2.822768148579747702e-03,3.294962426369909235e-03,1.276626185607916512e-02,2.950360310206683739e-02,2.533378345412728300e-02,2.247242025432754850e-02,1.169650189698604181e-01
9.935326293561251229e-03,3.433867793110419175e-02,1.474182496108359351e-02,1.967628501045876738e-04,1.597447487581836120e-03,1.579780661857522681e-02,5.191464601809637341e-02,3.778722263949952503e-02,7.088550333114257418e-02,9.156988864721574140e-02
1.154994944513946034e-02,4.573159890336042643e-02,2.004435873997422596e-02,4.317639732163889264e-03,3.735833587296857991e-04,1.491787468642259348e-02,7.275619552154641290e-02,4.586241734165202866e-02,1.021695948826614603e-01,1.435280204503215293e-02
1.206699726861892343e-02,5.438761900262164412e-02,2.680958479551142151e-02,8.573266284802349632e-03,2.055965604953642611e-04,9.394434338278622246e-03,7.994774165515836084e-02,4.543978922993804903e-02,9.308704154070079895e-02,7.183807019968423135e-02
1.161541939655750220e-02,5.827003835059583331e-02,3.067093018011182032e-02,1.128532783266681695e-02,3.304199015049673381e-04,2.713748672005528249e-03,7.468451001893529340e-02,3.617049768973238516e-02,3.510456148703521018e-02,1.290354672127710933e-01
1.031150483851389632e-02,6.035059858234369246e-02,3.102677539949683441e-02,1.270574066021003951e-02,1.408844400619197130e-03,5.420016567478356563e-04,6.759042378772228687e-02,2.476576463381495452e-02,4.337944111675841319e-02,1.336395624039731778e-01
8.722763821536024670e-03,6.434081840028882393e-02,3.027510498366541014e-02,1.354301488218183705e-02,1.548190496665404186e-03,4.387644261226068994e-03,6.412495813315377546e-02,1.851173898949352858e-02,9.020815617052199697e-02,7.912288950493831519e-02
8.215018532863719442e-03,6.683558993169130824e-02,3.108406817771229569e-02,1.510376563258060585e-02,4.721748845660128950e-04,9.711011621714414621e-03,6.045470962334102000e-02,1.768846533119904432e-02,7.398460250959579265e-02,7.664392122254361055e-03
9.417191309308641303e-03,5.991924046607544074e-02,3.592199291454677146e-02,1.913318127964272128e-02,8.665958899560906531e-04,1.177034827646609993e-02,5.048054402205798263e-02,1.642738602385993701e-02,7.689565059937073302e-03,8.072540785721180057e-02
1.062023236389701697e-02,4.356901692369909151e-02,4.518216775450153294e-02,2.600878074111339505e-02,2.836451714167020910e-03,1.105084047965477524e-02,3.295806712660634408e-02,9.594909283415378395e-03,7.008932677147970691e-02,1.183091744034529130e-01
9.015889638870290893e-03,2.833112592892301010e-02,5.344516844000023192e-02,3.339732317442255238e-02,6.359400137374004829e-03,1.125364442822987358e-02,1.340774133566826308e-02,2.150785501239493164e-03,1.232990073732745939e-01,1.299648863173139268e-01
3.905868571746695401e-03,2.288221804365439538e-02,5.243698897318678498e-02,3.713054185593243905e-02,9.866588869656635688e-03,1.364250670177107744e-02,1.093709638860390805e-03,1.339535167519768054e-02,1.311154930870323532e-01,1.216560589166192918e-01
2.182966735581464389e-03,2.505331021665880079e-02,4.055488743540106716e-02,3.393995692162043304e-02,1.023047447874291319e-02,1.533313828662418755e-02,1.003147326669256989e-02,1.971932087532390562e-02,9.247474719559636847e-02,8.293388509648741413e-02
6.114554439084839144e-03,2.628539381256355528e-02,2.501919806442098881e-02,2.430654919051259549e-02,6.714862988174245817e-03,1.298756129701353346e-02,1.831376481399279305e-02,2.161996859002420640e-02,2.806743575426745227e-02,1.197034289203029178e-02
7.080780331461826796e-03,2.035943537537182949e-02,1.367515220481478957e-02,1.302958233037796766e-02,1.645304833116746591e-03,7.115521321502579419e-03,2.555888140039680803e-02,2.134149541641541109e-02,2.612449694822558191e-02,6.846251337667784431e-02
6.468161000424349841e-03,8.661789929932382434e-03,9.946888757814430215e-03,6.608953544771564541e-03,2.147619905349306291e-03,2.104021235846030395e-03,2.297843791771955052e-02,1.734955965539545716e-02,3.676586419929714356e-02,1.279186559170486515e-01
5.549264922203540895e-03,7.887555717263250617e-04,1.471248329523602329e-02,8.737679563786517403e-03,2.732036579098010183e-03,2.016582397130123327e-03,4.464189299863554478e-03,5.683524848725715270e-03,3.493519463296458974e-03,1.540015857782728592e-01
3.837292414668804896e-03,1.996391645034383683e-03,2.602624603354821570e-02,1.689736940281092586e-02,2.175112783929059892e-04,6.454189615693207288e-03,2.289320427004147562e-02,1.261974108232351115e-02,6.643587928488946248e-02,1.546857458366147908e-01
1.149528654690976266e-04,1.957143813647371430e-03,3.704543810373108620e-02,2.395153314995077803e-02,4.061494654629730326e-03,1.051554917838652507e-02,4.204061926339165700e-02,2.876454379312936432e-02,1.086318616650854413e-01,1.368693391343482058e-01
4.842370828858579349e-03,4.449454868349260808e-03,3.975740225323916993e-02,2.434312673528881907e-02,4.626646254588865498e-03,9.474951610010020481e-03,4.065838831858755581e-02,3.330480496073891239e-02,1.051264665416661859e-01,9.919090809278989507e-02
8.212410589667816160e-03,4.060333905983143712e-03,3.135602145982598760e-02,1.797186718048473381e-02,7.717390002586013188e-04,3.957445897621232958e-03,2.367684765325987067e-02,2.475544047786736035e-02,6.288688932160536871e-02,5.547460723452315307e-02
8.520695250678309712e-03,1.163630461022406148e-03,1.456576198121409607e-02,7.760612782176296021e-03,4.488892842893545294e-03,1.037172820440500744e-03,8.098812985239459833e-03,9.309171532664112236e-03,5.619557678693440708e-03,3.905452442829675935e-02
6.997721280418243463e-03,8.967675474297243446e-03,6.750087059739274392e-03,3.936423215378933096e-03,8.426027869688596308e-03,3.140708997643546635e-03,2.710820494144737351e-03,6.055688163431408207e-03,4.904028429136692013e-02,5.891178213908329631e-02
5.195359626504266956e-03,2.944339441003537144e-02,2.878192961308606232e-02,1.496791162904178435e-02,1.143847712627116438e-02,5.651686353928707905e-03,9.220647919786792521e-04,1.739562310717737009e-02,9.497762100156258158e-02,7.698735515091630066e-02
3.654992083261464700e-03,5.081264217748180517e-02,4.548865517232442840e-02,2.190744193465737899e-02,1.403456077892301264e-02,1.115107633198890100e-02,1.192746096636828658e-02,2.259385097327458805e-02,1.260024963270467979e-01,6.066798672611442567e-02
2.635941234754861535e-03,5.733363433346311960e-02,4.986591490921850334e-02,2.172714753256102874e-02,1.395418637193901294e-02,1.544235590670251304e-02,2.257362849823574963e-02,2.010539111477665022e-02,1.322805308265233848e-01,3.132944634849058746e-02
1.855671970197895256e-03,4.472047577255929690e-02,3.984606009700319973e-02,1.460103289889461836e-02,8.925467538156341835e-03,1.211365705604509728e-02,1.739497556008595680e-02,1.025686375240673041e-02,1.100015993661037916e-01,2.413941395729800321e-02
4.440712769721979277e-04,2.505901183258488554e-02,2.217667413674244414e-02,3.975176841718522543e-03,5.627519727224854652e-04,1.813171619288250378e-03,3.121965862673018940e-03,1.997114411757199438e-03,6.660125892573126594e-02,3.017213137654061253e-02
1.322019007240066418e-03,1.406603366092462268e-02,9.674793533007201851e-03,5.120028524688752941e-03,6.549035550428832647e-03,6.790344945111701815e-03,1.731078627131196757e-02,7.035963650286936391e-03,2.314203023746341792e-02,2.284452004281967846e-02
2.022717120660772003e-03,1.715724545781284124e-02,1.207586697267902520e-02,7.894421294081502630e-03,8.535023947937899272e-03,5.705399134776540510e-03,3.219199072809177803e-03,3.030970352673082596e-03,1.372531259194489407e-02,1.108247289592393346e-02
1.505711878055958526e-03,2.723354633322975712e-02,2.673444009108871117e-02,2.848722028214897145e-03,4.405114058947426706e-03,4.966378807622398237e-03,3.880338948310400882e-02,2.706876730860176966e-02,6.108174824009137555e-02,1.821305131724185525e-02
1.108130804362312356e-03,3.428691862661464168e-02,4.168303274972814942e-02,7.174940226734511685e-03,3.787259702744806208e-03,1.887716469921285611e-02,8.616936908457108191e-02,5.610084636514779677e-02,1.482407227949383011e-01,3.351258536451911380e-02
1.552722473303279685e-03,3.680507816587670622e-02,5.113174322773907793e-02,1.974978450419303741e-02,1.253095826249490258e-02,3.025751118097847608e-02,1.147906868216547333e-01,8.050706688962984414e-02,2.340356608184562259e-01,2.621711724265939070e-02
2.528451300285186609e-03,4.094002564760339941e-02,6.086031263903426969e-02,3.527099079919756436e-02,1.914669894627924265e-02,3.685718386076627245e-02,1.179987799194236187e-01,9.400107991380579620e-02,2.900025692985236381e-01,1.046701301642800550e-02
3.812511013639671622e-03,4.748163500969671685e-02,7.306734276894813473e-02,5.050372036697017147e-02,2.220377934214205762e-02,3.794144567149586311e-02,1.062264522094772679e-01,9.399762773079659017e-02,3.019110193763265837e-01,5.549671886550502919e-02
5.487042487205944993e-03,4.703981668207298655e-02,7.669627974853948649e-02,5.614691981727412684e-02,2.089186188233357888e-02,3.337967593740037708e-02,9.211777331732926011e-02,8.217821393351168457e-02,2.562422917917154264e-01,8.459833059606119976e-02
7.284053689758701947e-03,3.336402163372197138e-02,6.260045174226001874e-02,4.743781584972537463e-02,1.619985969086720073e-02,2.586427196888511915e-02,7.962011953398179243e-02,6.394087971853752717e-02,1.605870533329877836e-01,8.640315373014911815e-02
8.255917960438402189e-03,1.442271907432944242e-02,3.935123041953498407e-02,3.189816955083174532e-02,1.170239350270223244e-02,2.080929592617076357e-02,6.628922716567811624e-02,4.587390054449295290e-02,6.643624945290736716e-02,7.088967628643277896e-02
7.693045005026355986e-03,4.513163629328442381e-03,2.364185745360144683e-02,2.093117702313039910e-02,1.047355650857505205e-02,2.103531988988013163e-02,5.076280169547930932e-02,3.304039687848300821e-02,3.374917535168586724e-02,6.726646145310295755e-02
6.492631100362328267e-03,1.045732224444983517e-02,2.143387905539734933e-02,1.804415995884309926e-02,1.152527246435287867e-02,2.316207268963465030e-02,3.562436923704064007e-02,2.619507991897042365e-02,6.672958535093695409e-02,9.536671206493438357e-02
6.121547887268460712e-03,2.776075443252117719e-02,2.661291591883205646e-02,1.945321988030073238e-02,1.130120742195246664e-02,2.223462484784296742e-02,2.522237453936601245e-02,2.088983400097441448e-02,1.097771394808057521e-01,1.383310478285340039e-01
5.764635754090021054e-03,4.557202716146892957e-02,3.183206230403921172e-02,2.166837287736548406e-02,8.338519205268976262e-03,1.830829876811887469e-02,2.166014606727735547e-02,1.201981412950516893e-02,1.130148786213277662e-01,1.633971118782537868e-01
2.751941566760315264e-03,5.509736096181073323e-02,3.305559663116851288e-02,2.326699917680443222e-02,4.600557529255356465e-03,1.504404142890439916e-02,2.202050915886932803e-02,1.388850353624820899e-04,7.976697194119183876e-02,1.644461463085765685e-01
3.275970400513513424e-03,5.510469456371148989e-02,2.816384148012387317e-02,2.206030193911215700e-02,2.225074726247602483e-03,1.343132726738392041e-02,2.051629089964698491e-02,8.952247409552690355e-03,4.335938875777926860e-02,1.589018793257011564e-01
8.715461871800897833e-03,4.814484398632010165e-02,1.718354344468843789e-02,1.573252751861484514e-02,6.966533178823620205e-04,1.083892060809588109e-02,1.397908919976915965e-02,1.165623133243827089e-02,1.937700082486407821e-02,1.496791775084054810e-01
9.538613829613530257e-03,3.439602959409397004e-02,2.139279115000578945e-03,4.854448809674925987e-03,1.878425374862836925e-03,5.446480769373173748e-03,3.295288700672472683e-03,1.116453995741602430e-02,3.863352911162973649e-03,1.217211190067127163e-01
5.354833613389058979e-03,1.398510837112885985e-02,1.442142603800287970e-02,6.856211401673506164e-03,5.549246705716492055e-03,1.382320337177055623e-03,9.825969222067850589e-03,1.295913312523981273e-02,3.607748754027206850e-02,7.653960625417539909e-02
4.160540795064280369e-04,7.802319501499144563e-03,2.868327445247068064e-02,1.443677821995211288e-02,7.934187413336806285e-03,6.630932074307580026e-03,2.367367115936011568e-02,1.811534711062393402e-02,6.319988517209662593e-02,3.896191461165129238e-02
3.757082503977084154e-03,2.269757438919774856e-02,3.549178740766769508e-02,1.417295083381555146e-02,7.201504655802895560e-03,8.354668063978741566e-03,3.504821398457780984e-02,2.335187531163697774e-02,6.327928081972494789e-02,2.112199095998701370e-02
3.370468165963045118e-03,2.563402007313034595e-02,3.259093372178009651e-02,6.719069104097744570e-03,4.748722246045737096e-03,7.856637850712874793e-03,4.110728407550024582e-02,2.588714399849246367e-02,3.709029938719574787e-02,6.007498299504310246e-03
1.068175032880381344e-03,1.783257013175326700e-02,2.341569492825620186e-02,2.341323045883748812e-03,3.999466338609035040e-03,8.761673366390066928e-03,4.145240622464858860e-02,2.639032700235386178e-02,9.709003328037715819e-03,2.255936012296630433e-02
8.683717912224073058e-04,6.552290981280116736e-03,1.387729332449625513e-02,6.961726329344325795e-03,6.610781611812787534e-03,1.245147780388038486e-02,3.583122269778487440e-02,2.799705720811930532e-02,3.011966837247812348e-03,5.568448780908609452e-02
2.027101571473254038e-03,9.487082929835856729e-04,8.331161734257208976e-03,5.383697104208236446e-03,1.066836124606961901e-02,1.585150287142128231e-02,2.294947640907166186e-02,3.236219178866671375e-02,1.823250517086553654e-02,7.436375711656077747e-02
3.244913761755845779e-03,4.389996674456992168e-03,8.792016289831212569e-03,3.376521549088409889e-04,1.309903719074241406e-02,1.547736201135479703e-02,3.661354277085182834e-03,3.607620691430726834e-02,4.322423290443136445e-02,7.011691274763681703e-02
4.649788024000942044e-03,1.225357550469650947e-02,1.444328624646037257e-02,7.597372280021321041e-03,1.318170205356145736e-02,1.194809320251695971e-02,1.671865320745586150e-02,3.350326716723574239e-02,6.568693466946864956e-02,4.530256939366891084e-02
5.432321612258521164e-03,1.897874033390416909e-02,1.988071707250247191e-02,1.345680561705421552e-02,1.246709469363201095e-02,9.023897238564166159e-03,2.878566013882719390e-02,2.529859766713987018e-02,8.034037912083802357e-02,1.224672138244649496e-02
5.099179898038774979e-03,2.224608997305864075e-02,1.620596107082244303e-02,1.304214364254642315e-02,1.148782085891320373e-02,9.518771917230854293e-03,2.302961895358026159e-02,2.059686459235752012e-02,8.792318942735131981e-02,2.482887609277568963e-03
3.844629597484220535e-03,1.940053815643314958e-02,1.579730535686441062e-03,2.754673641145659151e-03,8.681250161477803082e-03,1.263056465138754844e-02,9.078259599032368829e-05,2.603056435288270826e-02,8.602163996517869782e-02,2.577043277612450431e-02
1.935425516317760414e-03,8.521839644930504637e-03,2.708975614720928599e-02,1.350709321330834795e-02,3.546169820651080135e-03,1.441354644011240936e-02,2.421671576728184547e-02,3.474582578658803184e-02,6.766335038954096603e-02,8.724800988091455101e-02
3.116272842208431802e-04,4.978215827017334200e-03,4.665271795633932350e-02,2.594374093394679129e-02,1.260161472141706467e-03,1.163023574906930056e-02,3.338549015055040925e-02,3.324002425167309899e-02,3.768338726481040846e-02,1.363390743018611240e-01
2.129227419310159540e-03,1.143718442537995476e-02,5.240983984836664056e-02,2.859384119623880477e-02,2.771493213754571642e-03,5.661806229196960152e-03,2.834123259433822886e-02,1.935845751165092901e-02,1.882421966930119747e-02,1.364393223217343354e-01
2.669300467064646392e-03,8.173847285166273985e-03,4.714349361996387350e-02,2.367407270705476630e-02,1.244394530901630829e-03,7.978869287196355218e-04,2.195303256243113371e-02,5.109956082762735600e-03,2.570288217904639211e-02,9.746612758483537420e-02
1.940291280087590728e-03,5.927991594497829947e-04,3.664863383646146944e-02,1.622828298274499315e-02,6.439282698745640941e-04,1.469695230241975905e-03,1.932484456039565424e-02,4.804450505453967783e-04,4.236467236943398940e-02,5.861291304664128371e-02
1.205885326095657495e-03,7.638264098260551249e-03,2.385277117274688455e-02,9.406123292258131499e-03,1.138156999869382796e-03,3.517517150214291913e-03,1.543821655139986440e-02,1.662528336798262812e-03,4.329122687129058344e-02,4.800149950891305362e-02
1.969787407681385799e-03,1.766023936621676643e-02,1.077333844640767854e-02,4.649338608882036192e-03,8.939365267337176383e-04,6.745998390116444803e-03,9.340723743611960631e-03,5.689931488518895110e-03,2.904365968985862453e-02,7.399382754358012348e-02
3.981914816098250202e-03,2.774543058134072704e-02,3.362930018375456191e-05,1.601773388175995166e-03,1.558193310920166601e-03,8.999665730306267292e-03,7.370670031995787269e-03,1.171082380220752825e-02,2.296065104027802950e-02,1.325936500829845710e-01
4.960256041786053477e-03,3.077260938958262595e-02,7.880608086030336384e-03,2.061956062399631241e-03,3.404143798021349622e-03,7.483065448338826683e-03,1.250171347283673268e-02,1.409376869297600601e-02,3.801839527518000028e-02,1.921513846873222076e-01
3.399834233224453654e-03,2.357248775468942861e-02,1.413657496973111556e-02,7.311361779694345274e-03,4.592098721680235723e-03,2.165907986105229492e-03,2.067688254729279501e-02,1.020082827369778872e-02,6.399420915591955139e-02,1.943381919142737058e-01
7.506764445679801195e-04,1.288357171200387417e-02,1.851752718739014050e-02,1.125707635231673089e-02,3.169860059634281059e-03,3.815683729054401754e-03,2.692370860464817980e-02,2.100716051746061297e-03,8.332547383937465024e-02,1.165949510065144162e-01
4.941269581680948937e-04,7.179817631528377132e-03,1.838626849804215341e-02,1.090692694665860649e-02,2.830599036047846398e-04,6.622547748762488105e-03,2.759222259304398503e-02,5.591136882880369530e-03,8.473887019338552373e-02,1.954828610044688844e-02
1.724998021609412441e-04,7.267978199369017414e-03,1.385185926147822037e-02,7.782997822823855757e-03,2.985238513354153758e-03,5.287430835977477428e-03,1.886859293201717178e-02,8.856687345609877762e-03,6.427568804663624791e-02,1.523064141449065496e-02
1.453903444176290029e-03,9.560048607851839853e-03,1.014722996497226769e-02,5.640599233273847768e-03,3.307257144224685225e-03,2.430167708141315989e-03,1.981289002949357132e-04,7.722713018791558560e-03,2.684461995620177760e-02,1.252166855467728990e-02
2.451816525555916386e-03,1.334432830210744228e-02,1.154616126247173802e-02,5.447689575681468992e-03,2.694453947831724865e-03,1.000064460150178105e-03,2.131857212793249884e-02,6.252345390522168721e-03,1.168698911151090994e-02,2.468061698932236259e-02
3.336629099591051795e-03,1.829854517660135793e-02,1.566195637180019251e-02,5.683331334705651015e-03,3.406993987475137337e-03,1.720830091093345122e-03,3.469563466045019751e-02,7.400729400276115193e-03,3.360878967466729428e-02,2.981535545884141103e-02
4.371913397825998547e-03,1.926718927660774419e-02,1.742093669671058304e-02,5.525424795190483906e-03,5.215331971555390959e-03,3.747270077387677457e-03,3.447157955517761441e-02,9.254163036588663668e-03,3.368204296199005243e-02,1.105568104972363824e-01
5.421244745426157842e-03,1.189299144605428064e-02,1.653256156812111383e-02,5.256174300682003343e-03,5.584769293967133466e-03,5.835334132377133741e-03,2.507735100666693903e-02,8.574820133582152643e-03,1.803712821630344687e-02,1.423955936801081235e-01
6.214570363256748456e-03,1.138894730697328703e-03,1.741833295185615457e-02,5.590759803038278936e-03,2.957714138141509692e-03,6.762185058567992887e-03,1.525892108932777255e-02,5.962025236110224391e-03,1.042451261479764545e-02,1.091917876569462181e-01
6.280997285619855861e-03,3.659899589859406423e-03,2.305975634563719665e-02,7.953585144162063358e-03,1.300115211351522779e-03,6.164001646218926142e-03,8.869697272509215885e-03,4.321301936350220932e-03,5.278961524805045324e-02,6.016034359804241227e-02
5.072667537535324733e-03,4.654713262324493284e-04,3.191075005659013003e-02,1.334418437877129063e-02,4.569279192552773081e-03,5.196914605262059617e-03,2.873070478875622887e-03,4.394691056765910597e-03,9.748059273459540319e-02,3.632526013229298023e-02
3.010438687530699736e-03,5.872875312874378806e-03,4.029422811793366421e-02,2.048395405433514962e-02,5.863097509378325384e-03,5.715451196506484560e-03,5.752989364083509020e-03,5.066826087009630372e-03,1.202073190785130224e-01,3.090708461756181899e-02
1.468588560345694162e-03,1.341635967234182901e-02,4.582785268751580349e-02,2.689580258177794517e-02,6.554860915094323261e-03,8.600012001127380068e-03,1.514474389306584914e-02,6.124627774218818071e-03,1.118924114562374617e-01,2.258088408736771968e-02
7.288531072573932977e-04,2.441402888800627696e-02,4.856104300759831599e-02,3.165926129365115305e-02,8.411179209399301249e-03,1.270212414575504559e-02,2.214854256405584740e-02,8.417590916021587544e-03,9.357181664991823244e-02,5.910639134308963774e-03
5.501421621261597117e-04,3.706517064395598721e-02,4.957428714812536080e-02,3.541470343820286859e-02,1.127521595304554862e-02,1.547798888245274958e-02,2.634818668285778681e-02,1.264979899732269000e-02,8.986280064006423041e-02,2.026013588859826645e-02
2.810535431818401639e-03,4.355037039335528382e-02,4.839543870659034075e-02,3.784133588400327708e-02,1.318977205041221151e-02,1.539444165037015186e-02,2.857418215631502348e-02,1.838462164661302384e-02,9.688252459187181309e-02,5.761257479402631665e-02
4.488019740521423037e-03,3.859912643710824987e-02,4.232372654133523260e-02,3.693123615966188017e-02,1.290177718722619778e-02,1.369107544678925710e-02,2.919072489999575623e-02,2.335580643498720577e-02,9.130066153017417363e-02,9.111661804420528865e-02
4.393737658015636760e-03,2.567316353812362784e-02,3.002480895827131305e-02,3.142701226462368824e-02,1.118438332477334970e-02,1.269547194726871123e-02,2.859460289623759824e-02,2.493967620830526977e-02,6.599515109481313146e-02,9.571792871685286253e-02
3.316751136090439426e-03,1.326647115870186605e-02,1.557421788491787640e-02,2.296852818451168565e-02,9.102541491664034590e-03,1.271479863097385067e-02,2.658912409375318447e-02,2.296768252227914670e-02,4.042807583030672003e-02,6.541125356906160593e-02
2.546946840731128831e-03,7.672054713264464185e-03,5.828193240672451328e-03,1.507829772807259966e-02,6.698134638429900645e-03,1.221321436238944312e-02,2.247464370253278443e-02,2.011767831261634942e-02,3.485467525937377409e-02,1.761079080784479570e-02
2.354337262407023377e-03,8.735896572995071468e-03,2.984954460863062722e-03,1.034907533698012187e-02,4.509527619653719982e-03,1.076384565553257545e-02,1.785558832909067348e-02,1.980185636044001773e-02,4.866212821396927873e-02,2.487013171561332572e-02
2.252436225435327111e-03,1.083612841332944228e-02,3.108652921265002596e-03,8.823734035543857532e-03,4.096776255210106410e-03,9.886331865607271563e-03,1.664558522779271618e-02,2.377535335396520344e-02,6.824241338299466553e-02,4.530174828226423561e-02
1.568826892810331252e-03,9.712271230185821544e-03,2.756820496164343222e-03,8.826884644731929422e-03,5.478387219102180336e-03,1.078524369573980943e-02,2.085645033664799974e-02,3.046515038888857399e-02,8.469691278850041694e-02,4.003707704915474702e-02
3.514018535220390081e-05,8.165336414135606485e-03,2.848302342629270914e-03,8.921827438242399197e-03,6.267439629028538975e-03,1.274402395209187425e-02,2.913988054334369637e-02,3.541860907860115704e-02,9.779473707247461622e-02,1.883278683680540688e-02
1.207738074909754915e-03,1.135656104811217856e-02,4.790355442908674627e-03,8.555477757233576758e-03,4.715941043998239483e-03,1.407973440234626568e-02,3.875428121742217208e-02,3.382584805473674849e-02,1.086349484043035440e-01,7.263056593944177200e-03
3.847015526060110148e-04,1.740729862561573790e-02,7.477313943739478247e-03,7.472178789290661802e-03,1.834393869859944192e-03,1.378403908291780944e-02,4.572238440673709325e-02,2.312454011711943119e-02,1.157232653474741385e-01,2.740829534446194773e-02
2.121412958035785723e-03,1.791518969028721431e-02,1.015138814029491361e-02,6.018475501319672967e-03,1.622907305988663916e-04,1.209042106456150942e-02,4.562661921379632807e-02,5.994113377787497164e-03,1.212209879256873624e-01,2.527703561875073446e-02
3.711254671323305308e-03,8.430591109340185643e-03,1.417800261172538247e-02,5.601019671082764495e-03,1.052723470476078869e-04,1.006923962587397657e-02,3.817544865402852650e-02,8.309114609340036151e-03,1.348625851457015135e-01,2.035544130814753803e-03
3.353680343190925707e-03,5.488485390743227249e-03,2.004887359643324138e-02,7.387656112182569915e-03,1.686523097688365962e-03,8.805671926977171396e-03,2.884866509794635492e-02,1.097038391204577940e-02,1.608161037934499049e-01,2.980938734141975674e-02
3.036381082420585870e-03,1.350228795528958352e-02,2.595664630156634470e-02,1.090314268151248121e-02,4.328520174816297486e-03,8.741297118196550073e-03,2.400052277484013979e-02,4.494284765010199585e-03,1.861009810895704331e-01,3.867767430749904922e-02
4.171639418519904052e-03,9.510147136256419387e-03,3.049471287987662316e-02,1.443084603871396497e-02,7.218619435223392819e-03,9.664527686323167582e-03,2.629569399738980115e-02,7.430754892713642510e-04,1.970890085418953164e-01,4.419032071230893227e-02
4.971680927280583071e-03,3.938876422089883020e-03,3.396282986466412496e-02,1.636388277431739466e-02,9.743959360960398677e-03,1.090744694814199146e-02,3.397765491416583628e-02,5.726075606956372056e-03,1.990192403763026419e-01,6.591383367204116384e-02
3.204296365942944490e-03,1.793107325893044876e-02,3.681393695087300383e-02,1.667822752629150723e-02,1.090838785297424708e-02,1.142621594961689031e-02,4.150768366388934982e-02,1.263813993469282103e-02,2.008104338329212146e-01,8.734912215582196771e-02
4.497222952543237584e-04,2.466194848458508337e-02,3.868888083568794434e-02,1.698587501227803026e-02,1.038632211363024055e-02,1.030787270309612910e-02,4.305861883301613513e-02,1.259515966207734074e-02,1.925271378935969335e-01,7.614965995073479099e-02
3.868315070039914181e-03,2.355020457257378172e-02,3.727879616929028611e-02,1.711197819336875495e-02,8.862922896786059115e-03,7.014633487558328065e-03,3.805543365836093483e-02,6.164263081324075633e-03,1.589130382641003036e-01,3.525862918420552550e-02
6.459786606194335527e-03,1.849276737125229997e-02,2.748546129981925545e-02,1.278341333026033338e-02,6.087648730445985139e-03,8.754770754951437129e-04,3.053320393575054484e-02,6.929506315522262171e-04,1.059044245553791841e-01,9.694553870666007891e-03
8.518338218867910205e-03,1.092991862882084636e-02,7.328016420726574803e-03,1.470071419405740484e-03,6.856643348259910432e-04,7.592397731239126403e-03,2.328875981353802430e-02,2.449497768945067908e-04,5.938333210610846624e-02,3.556263731236219972e-02
9.465972370648575648e-03,4.719156070244012822e-05,1.404903088104397790e-02,1.062036781062786726e-02,6.611568471757749144e-03,1.436420738682117615e-02,1.752212599295143586e-02,1.825787202938224541e-03,4.534585812112187919e-02,9.595134569208559061e-02
8.659299058573908386e-03,1.238246234588212535e-02,2.276771662033117913e-02,1.436835446858248343e-02,1.230754838299766285e-02,1.530810817127681994e-02,1.470292421084858081e-02,1.073183825120584828e-03,7.206818433946979297e-02,1.438239728118350103e-01
6.407447566438895931e-03,2.079269705311750233e-02,1.690482748620605186e-02,1.013855734771470715e-02,1.454749020656813906e-02,1.310837639917333819e-02,1.163835292492418870e-02,2.877577466731231007e-04,1.146266086209635215e-01,1.564033907663874290e-01
3.447915307719057881e-03,2.174398596715377413e-02,8.333870241609905860e-03,6.923524807173817713e-03,1.557054649171081377e-02,1.501224514647473904e-02,6.790406588762449083e-05,4.093857185351483519e-03,1.175641699302050619e-01,1.418384543136149978e-01
9.718127049342517717e-04,1.640028630608822424e-02,6.800161158260993599e-03,9.404368141340548395e-03,1.772551693526492472e-02,2.243780524953208413e-02,2.146600301920590162e-02,1.532952875339175548e-02,3.908239150294347264e-02,1.097000085502082001e-01
5.146119574206197778e-04,8.724096832474935101e-03,1.041748243954051731e-02,1.304173928017154753e-02,1.947105437796839422e-02,2.924002742389908080e-02,4.072000233486550852e-02,2.622180379316908783e-02,9.634067764242200405e-02,6.861083335155192253e-02
2.053934526190214979e-03,1.365426530573597957e-03,1.288920580175530010e-02,1.255900950904826827e-02,1.826723209882731569e-02,3.099256922035461756e-02,4.746684394000434681e-02,3.061947845468651966e-02,2.121775131557492033e-01,3.519102178118723584e-02
3.522306237353966998e-03,5.825587061774532664e-03,1.296812564956088126e-02,9.270970850718700251e-03,1.553377900531291954e-02,2.933129691036581027e-02,4.507077551438869178e-02,2.944503358935727025e-02,2.617557745382781964e-01,1.541203598752139553e-02
3.328333718061792911e-03,1.305265284017531786e-02,1.369197759308211394e-02,7.525830536042240823e-03,1.454188191242338120e-02,2.649101590658004685e-02,4.169059131301135895e-02,2.480545044264042751e-02,2.720275072373579683e-01,4.997911264516393878e-03
1.574583420612565669e-03,1.888944116278400837e-02,1.597718401932108484e-02,7.700711878458174967e-03,1.434294191269658292e-02,2.166479737394181107e-02,3.554072613001048320e-02,1.581612947487500906e-02,2.887235369386410011e-01,3.569068004478535838e-02
1.342001935854839154e-03,2.276325146833486912e-02,1.794723017097711593e-02,7.297431066902378659e-03,1.078605888187057771e-02,1.439449654141969348e-02,1.971300752506198115e-02,4.527861636669132557e-03,3.121160359595160361e-01,6.994675433050258351e-02
5.056522451117219895e-03,2.548169028066787217e-02,2.069435983431245837e-02,7.612371274939658435e-03,3.658987469318354408e-03,7.754174344268867716e-03,1.939013177632622651e-03,5.845450920676739139e-04,3.195497353154287401e-01,1.006967959018107150e-01
8.400729243299131718e-03,2.417805600513535033e-02,2.947874281899354881e-02,1.358326334044796142e-02,1.850551649528599067e-03,6.117612158786792445e-03,5.288580729246310230e-03,7.112035618975681532e-03,3.221827219157522015e-01,1.197467434474624032e-01
1.031347473064022323e-02,1.024885951366875068e-02,4.685068369867741861e-02,2.640078382525385889e-02,1.417661577462064459e-03,1.084805912915509998e-02,3.966582649907740565e-02,2.407237056593486066e-02,3.547824131920932489e-01,1.049041731144204626e-01
1.130864282932613624e-02,2.128006005795340591e-02,6.758448047937350156e-02,4.068194449794437784e-02,3.875241931028476292e-03,1.898364982038616700e-02,8.431037753284327529e-02,4.022354606672415289e-02,4.165110330111444492e-01,4.139124160023649468e-02
1.253271459182045237e-02,6.018613997486084444e-02,8.177363620022533308e-02,4.917846708852356696e-02,9.288524232227779800e-03,2.552764689135983422e-02,1.093529575044152602e-01,4.751064877270486791e-02,4.569271434099179685e-01,4.430243361328328050e-02
1.364468548933383749e-02,8.694574725663493930e-02,8.304927349707227902e-02,4.826331278015819765e-02,1.111004258464346438e-02,2.691644284549738961e-02,1.051696186452983628e-01,4.413929621340156872e-02,4.296122242776077571e-01,1.008265299610583976e-01
1.297390275316129618e-02,9.361779101361054900e-02,7.521927207845192920e-02,4.076853860058045342e-02,1.003526686585397634e-02,2.332148112915175681e-02,8.343426120187565076e-02,3.600784217517939007e-02,3.433418767840539232e-01,1.043868056942209577e-01
1.002872807222381958e-02,8.937450643357708335e-02,6.815161007520054159e-02,3.389661849641692482e-02,9.699539142615081280e-03,1.771469593093528971e-02,5.889945876013059911e-02,3.206687336683373968e-02,2.501194959956941632e-01,7.433173741397881840e-02
6.699977653858724298e-03,8.138073109721043197e-02,6.430573168360534386e-02,3.119918333810820996e-02,1.133113560738936015e-02,1.211318280762224524e-02,3.713539033583073551e-02,3.194447507595851027e-02,1.889590353368561237e-01,3.846846308085716953e-02
5.148974794597945340e-03,6.457292758139912547e-02,5.498851050915243982e-02,2.794398513178788027e-02,1.198131595654679249e-02,5.889177388999303035e-03,1.663929710012910373e-02,2.484770006262231740e-02,1.506992531346102449e-01,4.153432052515605884e-03
5.358523096679587532e-03,3.814969934440988475e-02,3.412417635264296950e-02,1.833623102445870040e-02,9.095219860066052972e-03,1.219139561035768350e-03,2.021191324046218984e-03,8.231342140635238697e-03,1.015749263892767595e-01,3.460230825137809718e-02
5.736118403793946316e-03,1.665994720895516354e-02,9.464467510681015550e-03,4.856159754116257804e-03,3.969874461712741796e-03,6.687376294560839346e-03,1.374232206670106780e-02,3.844193626537279612e-03,3.677854626912353125e-02,7.805916548502975227e-02
5.405383006436981740e-03,1.275654167306845138e-02,5.665647500773538306e-03,4.553178923841530792e-03,9.804074173085457720e-04,8.214732690935675624e-03,1.646049073299929444e-02,7.088719383555198289e-04,7.351187268072219283e-03,1.130426350440459499e-01
4.958360259309182831e-03,1.949691990604134409e-02,8.709314926714013805e-03,6.963503619007490458e-03,5.745218867594166501e-03,7.538471148026011301e-03,1.492756328204777536e-02,9.189629078198174872e-03,5.138074620893787192e-03,1.198124911558206968e-01
5.194022332667306424e-03,1.995960010854270703e-02,9.781046014563902005e-03,6.933046627724531209e-03,1.091535705404123903e-02,8.160833869350498856e-03,1.360650614346277203e-02,1.253819741552266928e-02,2.078895999932500738e-02,9.092654875905258061e-02
5.559618630531093161e-03,7.618894317860460362e-03,1.622610947686118493e-02,8.516895387031505824e-03,1.409415077892998795e-02,9.940160447536990074e-03,1.136629330658313342e-02,8.908094479102027230e-03,3.783948822305101267e-02,4.387020532518089849e-02
4.229826071109227779e-03,8.987109034733504337e-03,2.187883388195887430e-02,9.631987546514560877e-03,1.175466881613266602e-02,9.491087328284247490e-03,6.175752508337654587e-03,5.403509109195776469e-03,4.817140006133148467e-02,6.902048138330698496e-03
2.246589535024511248e-04,1.687275534236394245e-02,1.713062726537843000e-02,6.288211525040043708e-03,4.564948158577007524e-03,6.082403759895440958e-03,5.311346022051251226e-04,4.774995201496139846e-03,6.398560729993313378e-02,5.158641778242412622e-03
5.101055898148604273e-03,1.117838541841790004e-02,4.332250274679753065e-03,8.474511720663602254e-04,2.598581316522643146e-03,2.997837939594253688e-03,6.011600572923903388e-04,6.539604955906741859e-03,7.278448743204313232e-02,5.024096550856131140e-03
9.654765718097165980e-03,6.584580960684923573e-04,4.817224646105281415e-03,6.904669202381280568e-03,6.497371169803508976e-03,2.111524675215646456e-03,3.494915016643017607e-03,1.120003895612074057e-02,6.100280791773616401e-02,2.564241178062102305e-02
1.286959092866216299e-02,8.550123628151880956e-03,4.794112157730253017e-03,8.705707985970676660e-03,8.298301651044743404e-03,1.271523511230049711e-03,5.766279241710428605e-03,1.772249328077165134e-02,4.376662955442784525e-02,3.666710376642295932e-02
1.495331814230711764e-02,1.213809127088204265e-02,1.763884629181854255e-03,8.079010296776878430e-03,1.001351567204243447e-02,1.650959230238489752e-03,1.614406690047146681e-03,2.261116099297631049e-02,4.658900265885917991e-02,1.651551561542365446e-02
1.498119949380693691e-02,1.724532778181030179e-02,3.706989373925951344e-03,8.989115794325493181e-03,1.148017237205722386e-02,5.627687243717669451e-03,1.565109872641698777e-02,2.400383041425469335e-02,7.653538999463124770e-02,3.439583043396352707e-02
1.207424056382787325e-02,2.291871400950728360e-02,1.099149758958355497e-02,1.251615442889321243e-02,1.176907905785971875e-02,8.302984026160826342e-03,2.501831797162118107e-02,2.283548798391245999e-02,1.187809727007928806e-01,8.471024793621613480e-02
7.954844408235248535e-03,2.168622144312374114e-02,1.851349772575926894e-02,1.587158325539165388e-02,1.064924594614428781e-02,8.281297858176635621e-03,2.575329772910291831e-02,2.037056447912151402e-02,1.469027873146368512e-01,1.017119189025788017e-01
5.591055283995624917e-03,1.153409910178884550e-02,2.250845788866748937e-02,1.614758329907146558e-02,7.912688831705377498e-03,5.435494035420510191e-03,2.485808482093103053e-02,1.766415061166531908e-02,1.394884784984392889e-01,8.334940254817845007e-02
5.213772244384668082e-03,5.255368300300555968e-04,2.196309646171516403e-02,1.336410574613175820e-02,3.702677056877146794e-03,1.022488221696297170e-03,2.737726134808111250e-02,1.539093527438182424e-02,9.704531346704492467e-02,5.139679434592587387e-02
4.470955908583434599e-03,6.933385793352859344e-03,1.689287270857366477e-02,9.447524246343109652e-03,4.533809050217571068e-04,2.910852567470383415e-03,3.088349793774585947e-02,1.188754443158058713e-02,3.908103441038040388e-02,2.481607169862585713e-02
2.656899818208993506e-03,6.155717043625969810e-03,9.346701651173341605e-03,5.937576857179609376e-03,3.185022625407679230e-03,5.670124076380514237e-03,3.282493251388587940e-02,4.311603638020263148e-03,1.649653135801012679e-02,1.077817568700442825e-02
1.445819491374077375e-03,3.603718379873352938e-04,3.731733371199276277e-03,3.153643694739742976e-03,5.286162505829430057e-03,8.423894392120113636e-03,3.338474902256752253e-02,6.601430725892831232e-03,6.499503763831193659e-02,1.044835664485195548e-02
1.153941513065890462e-03,1.268141777027066187e-02,2.628826916328072787e-03,4.243546662220697499e-04,8.116569180497419655e-03,1.165781885196317917e-02,3.226802001801364755e-02,1.597423017740122464e-02,1.085621890225024616e-01,2.107872891122794176e-02
2.771112120270898113e-04,2.887135193240636735e-02,3.964570892110498915e-03,2.704344082512271773e-03,1.098886728171992455e-02,1.392085346064554467e-02,2.941414313153423513e-02,2.019814017549504195e-02,1.467142276506402665e-01,3.478382033186417505e-02
6.374043656974970763e-04,4.066873749439165603e-02,4.188558214116594458e-03,5.409771599852217228e-03,1.219579041702902392e-02,1.410075037302933876e-02,2.629509232651754125e-02,2.058268268201736070e-02,1.757213289340832929e-01,4.006722422848737336e-02
8.883715692102965144e-04,3.971058797467847540e-02,1.740222439994589844e-03,7.256249466077137160e-03,1.165508395085337184e-02,1.308356512370989835e-02,2.356427632463525129e-02,2.084479551758895016e-02,1.947516196829937041e-01,2.724022042051441397e-02
4.284071564181368696e-03,2.609761905484580050e-02,4.020900068794622771e-03,1.006032805810120473e-02,1.075016813801250685e-02,1.221840315099082669e-02,2.073701744692440022e-02,2.281903955402251466e-02,2.094472616754346483e-01,3.391703346282315575e-03
5.777690708847068105e-03,6.454829573032777948e-03,1.365557437166164609e-02,1.526826839650272626e-02,1.037470164514952414e-02,1.166654419600890967e-02,1.814048444074451913e-02,2.583649008579964185e-02,2.258607033658901475e-01,3.917880152733977522e-02
4.478646952067602896e-03,1.255036181038026583e-02,2.475270455059905977e-02,2.065215260755430549e-02,1.033105952146788978e-02,1.095979790052127763e-02,1.578082600684359293e-02,2.924517479004232548e-02,2.400174257564687275e-01,6.615942606375914414e-02
3.664588206416066838e-03,2.641621015410907172e-02,3.159864534486923893e-02,2.285411722596185358e-02,9.910569745267668040e-03,1.002759968923614374e-02,1.146157814210991416e-02,3.355906394555280975e-02,2.391863279875450776e-01,8.205644869169237410e-02
4.635741297699093322e-03,3.403829985730822544e-02,3.140789886707921058e-02,2.190832496360102868e-02,8.538327221763706426e-03,9.090561088221059405e-03,2.862856406516520961e-03,3.898880284018024778e-02,2.185659053283952602e-01,9.298189583954337423e-02
4.491944897204728365e-03,3.848344609338281291e-02,2.827165020402224588e-02,2.025036758317700497e-02,6.551266198023461378e-03,8.195192417127692211e-03,9.392174138283523183e-03,4.472794143020476093e-02,1.921958604619209143e-01,9.894720040760233981e-02
1.499157102528951135e-03,4.282299173599982828e-02,2.736766098448465204e-02,1.881615051966045032e-02,5.256660401793978102e-03,7.252287899674831652e-03,2.233773062662614342e-02,4.999049592067533049e-02,1.803276241951642656e-01,9.298010635308193161e-02
2.225489771269548427e-03,4.595831376579311012e-02,2.835490002603645657e-02,1.703816382904674992e-02,5.456632707711143483e-03,6.253867849019373662e-03,3.335711673681623912e-02,5.409700558430371314e-02,1.879241404052540421e-01,7.734013780044318720e-02
4.583483774708537947e-03,4.549521683379727927e-02,2.833246304167845800e-02,1.526063587128940503e-02,6.322803501972606814e-03,5.257721457193604078e-03,4.114313018463105348e-02,5.607994150091257651e-02,2.019695981253196160e-01,6.746672294392090652e-02
5.903763178658169228e-03,4.229199810577396329e-02,2.747885512451979720e-02,1.437428173336109324e-02,6.509044963719597468e-03,4.285336119092061566e-03,4.515159344163162392e-02,5.580879536721564810e-02,2.104216620945257021e-01,7.157588413432708352e-02
6.794436298050510539e-03,3.909485913147182218e-02,2.732706564386973985e-02,1.397983832805178156e-02,5.820259745932167966e-03,3.327494282956625429e-03,4.566085621230743519e-02,5.384235079342330338e-02,2.173433530252294743e-01,7.895081170539795801e-02
6.758075131252648179e-03,3.682256486363302828e-02,2.709328074171773321e-02,1.301738790250427276e-02,5.000205294723175306e-03,2.391742397162231575e-03,4.356880242304612266e-02,4.887102949302783023e-02,2.304442298150491952e-01,7.881563694991849944e-02
5.326069146183674656e-03,3.463874984004044338e-02,2.556943264609881639e-02,1.153954116133432996e-02,4.450488292670617615e-03,1.499966088694399411e-03,3.869776722173624839e-02,3.845200496605473417e-02,2.336707110497027728e-01,7.702280485306700619e-02
2.843087442949160208e-03,3.214656623523696327e-02,2.352615551877656336e-02,1.039886025869475941e-02,3.970650719544941906e-03,6.657305469879143921e-04,2.972951839275409652e-02,2.396110851130734895e-02,1.906331271679970185e-01,8.070332500613626447e-02
2.653008094652931862e-04,2.974076905525326747e-02,2.190230570091629414e-02,9.657426456610725130e-03,3.393202038638196485e-03,1.052706733211672407e-04,1.775697293815486216e-02,1.131072985332830586e-02,9.083210915974279653e-02,8.116134260447659121e-02
1.269479476760161521e-03,2.762726719486250163e-02,2.037612393445996720e-02,8.497054030444036593e-03,2.812162962834067678e-03,8.049322111094423839e-04,7.779703483229316596e-03,4.895167536213405023e-03,2.275332561488025221e-02,6.933066572758797563e-02
1.338606558786562591e-03,2.561686894951327800e-02,1.869980996162572823e-02,6.733652684067828985e-03,2.312595901938635078e-03,1.423070700559457254e-03,3.974413231274580641e-03,3.506646675833892737e-03,9.304812800102185699e-02,5.478754193142639645e-02
8.778799912979029507e-04,2.361315951619679526e-02,1.713688552820676406e-02,5.360279869766612811e-03,1.858946468556089537e-03,1.952562723699005371e-03,5.221561418155376208e-03,2.854952641953385425e-03,1.043853133533885202e-01,5.112935614015611668e-02
1.082772376363298024e-03,2.175148622383892352e-02,1.547824119553113838e-02,5.049504126971225866e-03,1.418895701928106663e-03,2.389630385692819055e-03,7.286241742472686356e-03,4.699281493408466459e-04,8.196791014220275451e-02,5.443360069461564144e-02
1.533902300333297259e-03,2.009861208751113903e-02,1.346294576818544975e-02,5.108139660894401961e-03,1.012814739157361955e-03,2.731530852957830477e-03,7.962698704509276262e-03,7.141166851433495763e-03,5.211867505938569400e-02,5.191478539761915090e-02
8.738437948732374503e-04,1.850473498570300718e-02,1.177421038187217300e-02,4.650207278793449216e-03,6.561895452526365002e-04,2.976190826651354225e-03,8.939592432474776154e-03,1.466228908260125419e-02,2.316969054508751305e-02,4.066884367569464920e-02
1.435156057407205061e-04,1.689761970729570725e-02,1.111699964750214112e-02,3.823069419771515411e-03,3.448159396091189698e-04,3.123512776172520950e-03,1.291812487191692019e-02,1.932426451062836670e-02,5.424150391806339955e-03,2.704525913852537725e-02
1.071285687935637221e-03,1.552886884711199809e-02,1.095602877527687875e-02,3.194957211116318009e-03,8.205079343588618165e-05,3.176249880706539727e-03,1.912505223782453440e-02,2.014553009330560807e-02,3.312944444188224702e-02,1.756055625072201060e-02
4.236295716912603232e-03,1.451494708855969110e-02,1.035282941396723465e-02,2.818426565879629357e-03,1.334662239973331051e-04,3.138992727038614813e-03,2.300408596207631842e-02,2.031598404216827108e-02,5.528146468279542675e-02,1.482936722872587459e-02
5.279784374557927248e-03,1.334119807350344147e-02,9.312803581922039775e-03,2.442198780099335415e-03,3.223852115804494607e-04,3.016136544004388402e-03,2.146782270440982660e-02,2.377535462018940879e-02,6.460543569355393922e-02,1.540908194675466580e-02
2.207584114627273667e-03,1.170183047640508366e-02,8.466877401599190792e-03,2.027059222370882884e-03,4.774328637831238772e-04,2.812853033882995943e-03,1.698497971134691267e-02,3.028065174130060294e-02,5.985694291974701792e-02,1.459839856026316079e-02
1.820869342956972416e-03,1.042523104627876562e-02,8.039000654080584105e-03,1.681042756310842292e-03,5.513376105419060371e-04,2.539014312930507056e-03,1.509948945528669616e-02,3.473748438459897669e-02,5.120835958825908224e-02,1.565318072176584765e-02
3.401744385559974521e-03,9.790608217534463656e-03,7.633955379142381981e-03,1.415466715970981927e-03,5.674906830700509643e-04,2.207090703630669882e-03,1.880934630291655058e-02,3.244704962621738215e-02,4.930068306204821865e-02,2.340833829666321558e-02
3.190419611199546163e-03,7.696312413811656240e-03,6.821111592225661234e-03,1.170232064639430310e-03,6.391847217947286934e-04,1.823117452667056149e-03,2.601742270318608760e-02,2.442848803738009375e-02,5.206453927382433122e-02,2.962416055386726810e-02
3.283937147020226516e-03,2.621664009056836990e-03,5.722962058267330038e-03,9.286150133377439261e-04,7.286592820566803030e-04,1.390071305737208439e-03,3.155657986237496437e-02,1.652586366110349314e-02,5.018716944866295770e-02,2.086683486793381240e-02
3.638342907627219180e-03,2.466972946063372175e-03,4.809661555624778623e-03,7.091595411732860930e-04,6.008979856352630530e-04,9.264866770625980637e-04,3.096364960381294690e-02,1.356609973512062049e-02,4.133419879146602027e-02,1.292766421579815859e-03
3.248332732281778226e-03,2.967725781571473823e-03,4.333169121876683655e-03,5.121563031578149801e-04,3.351712972535878399e-04,4.590220126645955115e-04,2.257469913845771420e-02,1.475294384676133566e-02,3.210054538574842048e-02,2.627795073553480104e-02
2.531800881470576067e-03,1.512970535079061121e-03,4.509154469900484435e-03,3.187142318672081575e-04,4.933046329601631971e-04,1.830089728880734341e-05,7.644032299604889766e-03,1.482843664319285874e-02,3.010705789622823009e-02,5.534504597985121649e-02
2.265289788585877345e-03,6.710833123905001960e-03,5.238418868076015478e-03,1.157706296500991610e-04,1.189429213786734720e-03,5.301412813452918227e-04,9.041918709215591987e-03,9.822310836233574469e-03,3.649477677014932586e-02,9.363387190360038248e-02
1.503973337518732826e-03,7.120766379835063303e-03,4.676934089158326334e-03,9.375787448244086390e-05,1.571426326997418842e-03,1.033224499007371787e-03,1.938568294354327953e-02,6.667133096051363261e-04,3.970238355815982473e-02,1.281276687161874150e-01
8.573415263883123498e-04,5.266532484238621841e-04,5.581990395150939963e-04,3.015645174543737711e-04,1.036030693473406587e-03,1.444624668296703822e-03,1.709716990796900093e-02,9.345746859285866681e-03,1.999909480387016686e-02,1.409426219932323199e-01
3.071997075288645032e-03,1.381780453893057502e-02,5.598287987081204502e-03,5.183098909823319680e-04,1.997725796682249576e-04,1.828195903999082312e-03,4.044280550710098975e-03,1.822450605531826182e-02,2.840013417001982510e-02,1.387704759829998524e-01
2.192086026933238833e-03,2.571587804884607753e-02,9.590615522308746851e-03,7.710895358345569309e-04,1.288218850768036144e-04,2.339682873272929276e-03,1.115966882062274443e-02,2.459668547865390131e-02,8.511241742394343168e-02,1.414835244663476821e-01
1.256510749065225391e-03,3.176299997237583966e-02,1.142057279872266476e-02,1.050048497899799989e-03,1.485539696914866658e-05,2.827278100965783820e-03,2.256516264647565051e-02,2.608006820377926221e-02,1.253842296079760998e-01,1.476197024602327879e-01
3.550009827658494928e-03,3.333703409726502392e-02,1.566289465991046667e-02,1.302963748088856785e-03,1.232224625586417059e-04,2.938024390458876620e-03,3.296825867079877098e-02,2.128714707780971285e-02,1.454502119773774249e-01,1.382972667032450753e-01
3.003965165002976927e-03,3.250346249375837132e-02,2.311360466684317383e-02,1.549423633012938801e-03,1.059954530468699074e-04,2.981588758409002993e-03,4.674144060332661998e-02,1.222231036738546245e-02,1.544883115269903295e-01,1.116367598028077252e-01
1.709690999072764660e-03,2.845001998004074995e-02,2.785534618260429585e-02,1.899855243033285327e-03,1.426414295765276346e-04,3.753395889876631232e-03,5.699159868520198291e-02,2.818476658949011122e-03,1.536647615568316194e-01,8.712096351384333859e-02
1.694048806260860024e-03,2.064699888440034783e-02,2.491457260674997259e-02,2.312142857996623939e-03,3.382559820484395637e-04,4.553924488845120626e-03,4.748839486321464187e-02,4.322807674366646417e-03,1.386701525276310132e-01,7.398309439611870653e-02
2.319086683903151709e-03,1.173464383159419054e-02,1.644521693292376116e-02,2.539860894921626509e-03,4.434916426803628799e-04,2.744648821871730100e-03,1.145382577538698460e-02,9.198491618631465111e-03,1.148434056510427848e-01,6.111689156873149897e-02
2.229701675776159155e-03,5.522070581304580443e-03,8.513522912858645375e-03,2.647070034075806044e-03,2.853199785644642932e-03,2.926731213009631759e-03,3.797453933954444971e-02,1.309724600314791931e-02,9.481134495258115857e-02,4.698926660195156674e-02
1.815313443437152055e-03,3.519363844541021497e-03,4.671823331632895919e-03,3.192144531823846304e-03,6.260114547571687428e-03,9.706834778014337972e-03,7.955961957361777637e-02,1.649805209938296630e-02,8.341111457411180818e-02,5.211380550996909389e-02
2.582136235307083780e-03,4.163828214819239280e-03,4.277952301202161967e-03,4.292818854599390714e-03,9.064571749072698401e-03,1.339982579042638816e-02,1.000453553654780808e-01,1.842981932654061406e-02,7.429645168424026114e-02,8.447164219693936715e-02
4.765158353369203063e-03,5.044196174227378975e-03,5.437472196661259811e-03,5.073686750679358079e-03,9.627634903465211863e-03,1.264662976291779616e-02,9.777178670059784305e-02,1.775601482356244099e-02,6.001858126757611545e-02,1.171694752152293295e-01
6.761894256302883495e-03,5.386330388694232987e-03,7.219607158899287239e-03,4.890743506064212584e-03,7.328703534193399365e-03,9.358162177928810305e-03,7.948036480273540372e-02,1.443330046332313293e-02,4.012849327493472895e-02,1.201000003846959679e-01
7.324518427693573613e-03,6.026980099001971909e-03,8.852868021630539222e-03,4.376554187601266500e-03,3.566028240526950954e-03,5.799851373032391399e-03,5.580227577203142331e-02,9.497427807680470374e-03,2.186329499320925629e-02,9.275550809319499379e-02
7.168111858064310157e-03,7.320115490486975122e-03,9.242402490184648337e-03,4.395349876045333282e-03,8.998043898372415144e-04,2.474192152623573993e-03,3.279984574874220821e-02,4.429664959450576971e-03,1.539566391264115749e-02,5.116787033394257916e-02
7.310133733892391211e-03,8.262167172161216655e-03,8.487268384518579373e-03,4.818831427829677050e-03,4.250808743870285915e-04,1.076382640357404982e-03,7.299959479263847320e-03,1.709572842633151537e-04,2.406278472073440644e-02,6.092203975561991461e-03
6.865329684292088147e-03,8.101235902726933169e-03,7.959779367597685090e-03,5.079097175999927605e-03,9.902060757479686469e-04,4.312558041884586267e-03,2.426382990047172561e-02,3.710934921106733356e-03,3.842492176543375881e-02,3.222143294189424439e-02
4.224372300103556264e-03,7.527437642016372894e-03,8.127253075991146616e-03,5.103858860521724369e-03,1.259532979190248255e-03,5.914055842872819810e-03,5.587597474559660021e-02,7.824416476884818797e-03,4.539133097732456212e-02,5.145575588488503216e-02
5.362645816577610194e-05,7.456156131549851983e-03,8.216905067317406899e-03,5.132591331099135672e-03,1.182100007459740022e-03,5.936955647800551752e-03,7.837829512979913038e-02,1.076784370115034355e-02,4.249289665162979401e-02,5.348049920610645908e-02
3.473371169801135663e-03,7.734638080944183924e-03,8.222860286258347126e-03,5.201945808505259623e-03,1.217843186738265830e-03,6.044288385063510682e-03,9.139023532485258949e-02,1.020076251797405638e-02,3.694152400326639052e-02,5.351285309585705752e-02
4.989543713265250612e-03,7.774273512443887618e-03,8.962657080605767462e-03,5.198254777716394132e-03,1.386010240486399911e-03,6.950943516326712514e-03,9.821719829013311753e-02,6.308960062645904698e-03,3.275599975036679046e-02,5.416914650077426369e-02
6.298435478492151081e-03,7.519077613534545963e-03,9.973490879759686761e-03,5.101054987025869722e-03,1.475640372248663169e-03,7.079094662849587903e-03,9.346671043175525107e-02,1.823756398375391214e-03,2.688548123800451467e-02,4.170341329374796513e-02
8.712880920266032753e-03,7.224993277095363882e-03,9.696122209303617567e-03,4.962908522888516590e-03,1.475191616834455738e-03,4.842649784173918594e-03,7.065241132297861437e-02,1.560299243458085740e-03,1.714909987017717782e-02,1.491858635843144702e-02
1.046764847388939948e-02,6.929130162316565929e-03,8.005327268552410794e-03,4.795155912145293055e-03,1.475717179668947993e-03,1.336364691136217309e-03,3.933252810365559654e-02,4.609911084608999884e-03,6.071295423622429660e-03,6.371134025467791590e-03
9.213725137217767397e-03,6.519164113426901587e-03,6.444697072605335905e-03,4.575902575638882662e-03,1.473213425295670335e-03,6.806243433550268184e-04,1.768999273191956129e-02,8.137483385868169924e-03,3.816477554420645221e-03,9.984236490318520660e-03
6.175731699345466362e-03,5.984471489324573804e-03,5.830023516335365238e-03,4.303568370860314483e-03,1.431316751002499957e-03,4.493564178419738966e-05,1.020632370835227419e-02,1.093175091177748560e-02,1.248487687894557843e-02,5.367124993512472839e-03
5.086533236792071047e-03,5.387895942412810300e-03,5.465269762879459287e-03,3.993729062410677870e-03,1.367634878247282575e-03,2.795685208538113871e-03,1.008178591384459831e-02,1.112204029898956892e-02,1.903082193188997823e-02,1.166458036057922698e-03
7.002839354993038723e-03,4.747539383513438294e-03,4.707423330422979418e-03,3.653894254055095082e-03,1.282800865372983514e-03,6.993680395676491086e-03,1.940865863630596849e-02,8.795307850751065554e-03,1.956111718797087784e-02,9.314292431404858075e-03
8.905461480176693478e-03,4.048254439722894643e-03,3.772629779807932203e-03,3.284537942725134635e-03,1.132958503353579402e-03,1.204328224265416823e-02,4.388005042207637069e-02,6.004481788275109130e-03,1.054415912204329821e-02,3.134518788367307573e-02
8.116738154747228998e-03,3.296969082112844590e-03,2.960800009939367448e-03,2.890753898949741281e-03,9.541267732590621607e-04,1.497428937503325098e-02,6.760592033821113955e-02,4.399171909157496146e-03,5.895713289288643730e-03,5.502664256705875473e-02
5.675958519204517966e-03,2.517586062386983209e-03,2.161279230381175399e-03,2.481725204502608587e-03,8.496627763995049602e-04,1.199236163524276984e-02,6.064676320257708642e-02,3.695619083968443991e-03,2.168424501596614290e-02,6.776517353173008851e-02
4.258540442939423749e-03,1.724372415582257467e-03,1.271116268919424792e-03,2.065051646797736503e-03,7.356940911193139785e-04,3.881999162071388121e-03,1.951223816649580098e-02,2.456992671328267139e-03,2.972666717772941974e-02,6.968945504117399214e-02
4.535372512248545852e-03,9.237820495489744606e-04,4.472490925103234441e-04,1.646707257062005655e-03,3.932686820890536443e-04,3.691711636266244417e-03,2.457329635140892768e-02,2.059944944211200731e-04,2.988422438263778347e-02,7.028357423229988910e-02
4.823853388411766634e-03,1.271659530007892246e-04,2.715168192608384979e-04,1.233466932313993705e-03,4.474302619653699326e-06,6.726854442352938994e-03,4.468624598330891290e-02,1.672261126252356199e-03,2.644907041728666169e-02,7.677222487205105639e-02
3.602371086755430576e-03,6.505829892519141358e-04,1.123016277672049318e-03,8.327251055697704619e-04,9.692233722484997795e-05,6.135732883818263012e-03,4.209357672249023491e-02,2.134351744143584903e-03,2.213379736775801521e-02,8.850795410962060406e-02
1.266784396186738763e-03,1.398686684318478732e-03,2.054459671968489332e-03,4.511302855403835459e-04,5.555838313868650697e-04,4.110662628658170829e-03,3.038450043352389218e-02,2.756400567176890519e-03,1.627559740046784914e-02,9.661440215900825301e-02
8.219140341858680900e-04,2.109746424866261114e-03,2.498872978483749393e-03,9.443574753181512103e-05,5.836347824263034105e-04,1.414777800371702816e-03,1.930085191553865265e-02,5.011632731651745505e-03,7.016338087764414227e-03,8.977374397736768985e-02
2.089676427196047147e-03,2.773653212937108974e-03,2.316545780083023066e-03,2.320656726579004578e-04,1.109570723310463597e-04,1.639711545140773094e-03,1.301259112274814715e-02,5.730152631408035740e-03,5.794559020923434334e-03,6.723686192967934239e-02
2.854457913700749524e-03,3.379247488511798007e-03,2.344248645302460070e-03,5.236493905705264960e-04,9.755512791746691250e-05,4.406524651409383236e-03,9.334742503480448345e-03,1.255151533568009794e-04,1.943447471538767984e-02,4.359186932960568833e-02
3.527335365461519052e-03,3.923494913349367952e-03,3.206249238061489350e-03,7.765228716133008250e-04,4.014680618350246078e-05,5.456950847138711952e-03,6.246950545279112907e-03,9.979230367938896756e-03,3.014344867063107475e-02,3.410821528769264477e-02
4.378855813779704287e-03,4.408832091506047213e-03,4.320571678369231929e-03,9.879105221177555442e-04,4.732588090478592529e-04,2.698916587299243948e-03,1.195973851541653164e-02,1.694652477026571680e-02,3.576214405280854491e-02,3.827594256317812249e-02
5.406521013902320337e-03,4.825993319672231170e-03,4.848007423751638477e-03,1.155984241100360688e-03,1.313348373416966825e-03,3.464867564436770707e-03,3.368488839841153604e-02,1.736370072328867128e-02,3.665335453929417786e-02,4.131852721828468966e-02
5.981955049363007343e-03,5.159467662534562848e-03,4.784376340095095222e-03,1.279889291841499518e-03,1.758486253870031627e-03,8.287017358078229215e-03,5.775934138585016309e-02,1.495976144678163103e-02,3.511744320380819073e-02,2.881935073296907485e-02
5.075759181411071928e-03,5.423493272348467280e-03,4.619465948364627830e-03,1.359808720287523313e-03,1.697915791962145964e-03,7.591119967913586425e-03,6.006301083164179017e-02,1.304609390748199746e-02,3.333245425822897734e-02,1.978003110613898996e-05
2.422768945408724020e-03,5.651387442357263570e-03,4.701926634898837866e-03,1.396948102926583559e-03,1.649008817026030149e-03,3.121943024218734510e-03,3.726584984986712479e-02,1.061989659364944924e-02,3.095555583905091473e-02,3.081539311532618952e-02
5.392052708500536060e-04,5.818754828995920288e-03,4.980826503239483768e-03,1.393466033734961978e-03,1.766713951879193573e-03,1.780136431678119011e-04,1.231438349044849424e-02,6.804754827563783658e-03,2.599509691319074056e-02,4.781342354795073413e-02
1.920365127807006130e-03,5.863919589559660195e-03,4.808518467963140801e-03,1.352407147594678147e-03,1.837589757667130140e-03,1.495720453053404984e-03,5.451091812216030466e-03,3.357939263905565259e-03,1.838061625908274030e-02,4.735928049874955220e-02
1.671902446420079139e-03,5.851895012453004093e-03,3.598143189948719775e-03,1.277628422345061538e-03,1.822665519944253890e-03,4.915847352388363380e-03,9.887709139832815200e-03,1.081292838577973094e-03,1.097117383918635482e-02,3.676940471098321533e-02
9.261584883352464315e-04,5.937484785078450851e-03,2.096522538602695832e-03,1.173694800590924150e-03,1.805097587468571700e-03,5.888457341687568583e-03,2.752822829698756135e-03,1.986166165587313973e-03,6.699701438425581176e-03,2.373790912517220048e-02
4.487218191412296886e-04,6.017597387034633906e-03,1.819741269533217947e-03,1.045751689286700779e-03,1.718579151552055220e-03,2.508282646382572166e-03,2.346754674039782870e-02,7.017576498875018748e-03,6.031260994608124253e-03,9.293731722442818630e-03
2.945113715263769725e-03,5.741788180875265560e-03,2.837484640359953791e-03,8.993897528383581726e-04,1.557230295927131483e-03,1.543158939041177052e-03,4.814586419573044229e-02,1.229278800056548930e-02,8.130344600308330241e-03,1.077426516764228709e-02
5.197488700395105736e-03,5.095006022204009478e-03,3.577065617293660564e-03,7.405031614993267102e-04,1.545048300709070963e-03,1.049907371692737883e-03,4.477915818895069483e-02,1.589402959226638226e-02,1.340742094590614136e-02,3.430026243857808160e-02
5.759538903218459037e-03,4.524612628568340511e-03,3.162868549993859153e-03,5.751390806553472118e-04,1.638577843231381207e-03,3.831131205151225641e-03,1.256789682875570149e-02,1.758484711980908693e-02,2.179550426635098667e-02,4.481968923425395240e-02
5.377036141079743342e-03,4.456325344364745616e-03,2.497396012470447235e-03,4.093433398320610382e-04,1.288702314039134400e-03,7.699784528609086506e-03,2.213604954786203144e-02,1.740029970911920881e-02,2.873068418298231619e-02,2.858774056574053118e-02
4.905101904705819194e-03,5.185557008257816666e-03,2.550789813200729766e-03,2.490088823858690689e-04,3.663318457146276280e-04,6.897044029156538039e-03,3.845458899036603012e-02,1.529343876514368747e-02,2.798092070828704647e-02,1.368582457023378909e-03
3.576486870235576123e-03,6.382306391156872434e-03,2.678726785448583541e-03,9.972975457504323026e-05,2.606298327645133412e-04,3.294120391718878028e-03,4.391015055761008506e-02,1.242159370085403614e-02,1.922038935005207852e-02,1.574646820133090638e-02
1.353852310391131641e-03,6.108481552830742796e-03,1.595028172928899136e-03,3.333724975907069389e-05,5.392042748138535816e-05,7.515376202705990275e-04,5.488602348605638170e-02,1.011846355315642113e-02,8.049033115728868037e-03,4.692799983643276308e-03
1.222571997595275689e-04,2.908858523580555924e-03,1.975453756714788765e-04,1.455985153743583266e-04,6.799091035801089252e-04,5.578742903573749492e-04,6.780423658468964776e-02,7.646175634129910754e-03,6.723291415506073287e-04,1.266158551755275363e-02
3.633494459973954892e-04,2.427330131901683807e-04,3.551511959084072828e-04,2.331330078995460945e-04,7.511468172001120039e-04,1.655982994783188620e-03,6.890809306224299213e-02,3.333917096213047555e-03,5.223062800529545968e-03,1.563011012784856074e-02
7.443448010672297759e-04,1.263235720345951864e-03,1.834669830789137498e-03,2.927852221835790941e-04,3.893569629693117030e-04,3.302296426690949204e-03,6.182035056518910693e-02,2.065690667750633234e-03,5.522519739638524078e-03,5.395522025863393710e-03
1.604812495605057593e-03,5.472861788604031774e-03,3.233980643119143458e-03,3.222407951498563366e-04,1.580383438486058047e-04,5.252295640979965860e-03,6.155914530040351024e-02,5.308276859418790267e-03,3.598737188680425740e-03,2.448522779231352905e-03
1.495406102889699921e-03,4.764820929862688056e-03,6.190476919465188110e-04,3.200774313590525272e-04,1.372473673700888943e-04,6.379285871150412388e-03,6.801669744910161797e-02,4.576605441698935323e-03,3.493719360317131331e-03,7.650351840447107421e-04
3.015583811273852416e-05,2.526769679959279744e-03,3.778517746182003239e-03,2.857875128294879883e-04,9.524992496937333434e-05,5.416083325519663663e-03,6.771472551081517133e-02,1.818465742308498535e-03,7.215040872073311823e-03,8.381971758121819008e-03
1.254576022935152777e-03,8.071796833436077970e-03,4.146634932608603795e-03,2.197838005087971954e-04,2.272413516366995098e-05,2.202160773235791250e-03,5.477410024531036842e-02,1.090961297994296007e-04,1.112849117003041760e-02,8.226482838136022629e-03
1.039170603811647451e-03,4.996174867029393521e-03,4.900323064654048657e-04,1.233936384462705309e-04,1.223980435943860384e-04,3.286815046011783582e-03,3.170664460118837596e-02,1.199143966294540647e-03,9.673979716784950056e-03,2.676317247762584860e-03
1.113078128212466669e-03,2.254368955520459281e-03,3.830898503304376590e-03,1.183166530831718894e-06,1.460318812096410626e-04,1.026141107427758561e-02,3.358126836021177539e-03,2.871570092668413680e-03,4.057145703412917172e-03,1.570714933652386791e-02
3.739311036042755089e-03,4.612248681997742350e-03,9.256130818711019552e-04,1.509637210236283332e-04,1.027008321782051461e-04,1.377849506860868642e-02,1.240243337985833319e-02,4.027561755505737646e-03,2.253204291026698804e-03,2.285870275566547968e-02
7.760747297805827005e-03,1.317082448837913686e-03,4.346749629807400254e-03,3.222630229479751048e-04,8.011956435967969932e-05,7.595719415441554330e-03,9.319691947500385182e-03,2.427562180527885905e-03,7.106787335206635713e-03,2.513494644581225693e-02
9.482298406966991472e-03,8.697737298314137913e-05,4.536675836428356694e-03,5.107371900211225748e-04,1.485159430799795849e-04,6.615806486829237630e-03,6.374472374253165041e-02,2.940146950268320881e-04,1.158650263141862077e-02,2.810388433553882154e-02
7.686638044168699058e-03,5.213508052389698860e-03,8.975949292389588229e-04,7.115008700785197589e-04,1.390331420161275585e-04,1.914444245831502592e-02,1.104804013947921631e-01,1.295769861139120516e-04,1.023826016710867835e-02,3.656622331919615748e-02
5.071175078653679738e-03,1.111345052279020043e-02,5.607077249465254251e-03,9.193768640191582638e-04,1.511254627475741195e-04,2.398888103148700754e-02,1.201500420265339403e-01,3.455389956906487758e-03,6.475695673964556968e-03,5.092976508823197912e-02
4.036307706678993364e-03,9.383031575189505410e-03,6.231346251202067414e-03,1.129031684166198262e-03,3.388170708727332925e-04,2.420164585602796806e-02,1.017125589942913938e-01,3.898514741431103204e-03,4.075706807234036680e-03,6.119034467382338666e-02
3.697588926801150064e-03,1.261530697475783148e-03,5.846654162697104661e-03,1.334856974912103020e-03,3.321914496466591175e-04,2.401374194476612461e-02,7.618219229892436717e-02,1.985451718469306674e-03,1.788330182198809510e-03,5.262430774643082204e-02
2.033120733221358001e-03,1.420987028722692745e-02,6.000706885087922840e-03,1.531108641311472668e-03,1.702036722642057609e-03,2.278741781557945198e-02,5.178982215550950730e-02,1.049549942314792483e-02,1.093133563027694167e-03,2.618694584182602175e-02
1.156152278669208069e-03,2.186385747775910007e-02,2.735133404709516602e-03,1.712605259291838508e-03,2.382792308741206976e-03,1.892156175025237058e-02,3.133431192196646509e-02,1.577976591667186804e-02,8.435783980974258939e-03,2.085012303024887537e-03
4.343659677773078695e-03,2.114102099387727557e-02,5.086994419882008567e-03,1.874889412230207678e-03,1.461896001911892808e-03,1.395051383843072881e-02,1.917696370031753486e-02,1.635269891608943926e-02,2.387446439891171071e-02,5.059727179738985822e-03
6.047923064863510584e-03,1.397607895760126159e-02,1.055125823012983098e-02,2.013168271592757040e-03,1.710992521469814859e-04,9.821596046163063101e-03,1.242830186897319299e-02,1.480546142216495123e-02,3.637504565023674113e-02,1.240743019102298617e-03
6.018669414914328518e-03,5.039765192523517831e-03,8.059083160431369450e-03,2.122346318894877300e-03,1.027327873532264723e-03,5.509878222858671792e-03,6.795706247812362960e-04,1.311272227085634109e-02,3.629357028497430526e-02,2.322217634729160842e-03
5.092237335194095896e-03,1.848395498585343874e-03,2.234093664654034431e-03,2.199660604977653894e-03,9.534597902945185543e-04,9.084176963060488575e-04,2.669672386539329381e-02,1.019410073892884627e-02,2.653999042391736937e-02,3.494889431965998283e-03
4.087431236788669278e-03,6.282133629849238378e-03,7.771928705343178175e-04,2.245009298849925342e-03,9.188513632641183730e-04,8.609825169986352889e-03,5.609712959775203095e-02,4.442696821662243771e-03,1.662747545654716039e-02,3.927072899647728911e-03
3.353482874221874657e-03,8.669440628120207368e-03,2.829426921577261455e-03,2.255611704998614422e-03,1.251198575216020238e-03,1.471371810383459780e-02,7.137717423396519600e-02,2.817523138440603328e-03,1.007543631779043991e-02,4.144833877383262942e-03
3.270464563601430553e-03,5.689214479648182013e-03,1.521543487123559572e-03,2.225389559794723089e-03,1.223650437737912496e-03,1.774746126139039107e-02,6.739177755967380723e-02,8.828840871899801615e-03,3.100154616633567922e-03,5.662360754686329017e-03
3.899574744855258904e-03,6.452343612813136314e-03,4.103386846375925608e-03,2.156514979569362257e-03,5.207287988507114168e-04,1.866601480500428706e-02,5.816281981790868277e-02,1.317942872737820799e-02,5.802393622369990921e-03,8.189851226604200410e-03
4.338024845424194413e-03,2.350564234664341209e-02,6.707434729225182808e-03,2.061126830943690088e-03,1.001896771505202901e-05,1.873238894736874854e-02,5.767393875635352246e-02,1.644440709258358779e-02,1.115155594630157232e-02,7.357998558455427877e-03
3.851718031509964845e-03,3.477645202413304909e-02,1.149835933669133854e-03,1.936738831629385713e-03,3.880234860477817021e-04,1.802159941451421388e-02,6.271538719283885344e-02,1.656627968191554806e-02,8.143659921703171392e-03,1.674998471022611131e-03
2.901379404953883297e-03,3.510491294712177884e-02,7.688533820899921822e-03,1.761888949814047591e-03,1.278944825319296586e-03,1.666893731917666252e-02,6.412923537728208723e-02,1.125940247419652748e-02,9.821111884070355541e-04,3.156881867038665093e-03
1.856149082668066049e-03,2.874824304085630763e-02,1.059221153275706137e-02,1.548435221637675359e-03,1.685621644456553872e-03,1.606241154520667361e-02,6.280384522480672582e-02,2.925647984333435911e-03,1.225046036467611083e-03,1.432353014539576499e-03
3.012393554786472983e-04,2.055801520042147695e-02,5.175714748479631235e-03,1.352042589294466003e-03,1.182396744348295512e-03,1.652077316600453552e-02,6.181728458634851847e-02,3.333834757186003063e-03,4.785462370576492111e-03,5.792223023920775940e-03
1.314410964882278040e-03,1.060976368828191879e-02,2.108390015342363581e-03,1.160530511584077730e-03,2.306632530222003160e-04,1.466119182847386813e-02,5.481983535124607815e-02,5.913497557509989760e-03,1.419563309031145019e-02,1.286700402535926289e-02
1.315609336790218029e-03,9.006622760648855686e-04,4.708913839072844526e-03,8.681418721162662564e-04,2.276097093313352417e-04,7.065239726927633607e-03,3.674595850511427897e-02,7.139374882573035035e-03,2.156463668212057344e-02,1.298933548232129864e-02
1.079630388340670211e-03,9.916975624151568719e-03,2.740836369064324207e-03,5.129754768523101752e-04,1.916138906992113098e-04,3.235649554598366527e-03,1.760049127274880901e-02,8.271081353494564789e-03,2.597575053073581525e-02,1.064555211101377930e-03
4.614742495067425225e-03,1.265751591024017082e-02,4.020991534328744246e-04,3.406700093743316631e-04,7.928832883428329863e-04,8.920659646970464235e-03,1.173590939185222004e-02,7.665699790499404427e-03,2.831430430301519127e-02,1.838161074508536802e-02
6.872929801179026611e-03,9.920755537808838981e-03,3.555005964826328611e-03,3.024949584616094442e-04,8.349125751439370790e-04,7.785104937661922221e-03,1.845092116371914101e-02,3.945747041507312661e-03,2.773793725453597286e-02,2.928588434774423432e-02
5.819478884848750151e-03,5.118514713007452782e-03,6.392163948607425435e-03,1.527505508193741069e-04,5.141188621329227095e-04,4.595529703720011190e-03,2.558153592108221644e-02,1.449407039323646331e-03,2.413671120705385142e-02,2.049686400846121442e-02
1.713560125390670109e-03,8.209622189820802492e-04,6.721595591742190318e-03,1.172005643903740275e-03,3.235129363216832478e-04,2.945497390909349207e-03,2.885964633662191706e-02,5.272400542143460336e-03,2.143935271630944758e-02,4.832902523394153570e-04
2.388625079198763990e-03,1.035902249925772789e-03,3.515000288733841852e-03,1.894797332301800157e-03,2.131807527508929111e-04,1.200621745563324643e-03,3.572806436492800830e-02,5.300905354835375345e-03,2.276533463829527246e-02,1.378581820205308436e-02
3.586301772337766730e-03,1.168618711260053632e-03,4.015691743037403359e-04,1.616143238891155128e-03,6.936650036631187384e-06,2.296495935460660283e-03,5.094444384741651094e-02,2.296557579755950998e-03,2.336510556481316211e-02,1.682537683449345650e-02
2.289963364903967180e-03,6.291890703734470507e-03,1.910279579987566407e-03,9.379761442496626495e-04,8.300512877124961329e-05,5.548891863965551251e-03,6.803810449531956517e-02,9.344959660754829879e-04,1.587011535012368760e-02,1.399025403782099691e-02
8.910916599428290053e-04,1.023520744345613777e-02,1.202945238071026187e-03,8.586441067696856362e-04,1.879988431974320001e-05,6.347061443085986500e-03,7.566647604897612511e-02,2.484710791047509831e-03,1.946777298202001516e-03,7.723600142969320147e-03
9.752248643899266191e-05,1.047234995310733670e-02,1.515216346290630613e-04,1.325349691627737041e-03,3.442297215681212126e-04,5.326827890681017780e-03,6.699005938288925266e-02,2.521540208924374828e-03,9.921860442341029485e-03,3.353326561550365459e-03
1.338974604574688643e-03,8.713682176968729973e-03,2.346133485883945846e-04,1.491088823330891967e-03,1.231552026252710633e-03,4.020570942475168441e-03,4.454080231771125747e-02,1.555109396072484104e-03,1.645871942199893245e-02,1.560869264281203837e-02
3.844495361545897678e-03,7.214662231960985300e-03,8.519772865487153842e-05,1.112054193406226054e-03,1.814847356103690013e-03,2.891430894963935381e-03,2.042914690374349890e-02,8.143665662224770698e-04,1.992760918082761568e-02,2.314598837138832216e-02
6.339356159922488430e-03,4.754287219718407800e-03,4.241183594759923969e-04,1.062361064682804199e-03,1.420722204673015212e-03,2.149989489752655684e-03,8.054887538589558527e-03,4.460705072466631359e-03,1.990601365703385112e-02,2.627423026035494158e-02
8.085364900586908266e-03,5.939729085819514401e-04,2.047181181679279607e-03,2.068226076322031426e-03,6.864732264943217230e-04,2.069382774263749288e-03,9.332660859745380358e-03,7.314058806061033910e-03,1.465994304350110022e-02,2.606145951986053519e-02
9.026197749962446004e-03,6.191956674617145329e-03,3.573808449348655873e-03,3.272470021373031796e-03,5.151850640196588586e-04,2.247962107220782650e-03,1.515212146602863685e-02,7.171026835621915896e-03,7.975835712831717828e-03,1.798448797286136130e-02
8.661482901498322035e-03,6.582565603853930691e-03,2.661178882302176786e-03,3.149548389460946410e-03,7.753110282771447223e-04,2.207910998695880762e-03,2.028764961038072301e-02,4.603626584940272853e-03,6.604943111216294259e-03,4.653986635404949723e-03
6.807543760917317971e-03,4.182978881180144434e-04,2.792283774985161336e-04,1.754779853521331884e-03,8.467576105499486630e-04,2.100373920986797673e-03,2.777005245003251119e-02,2.252787504377971699e-03,1.135683198798076270e-02,3.499984842835916765e-03
5.086150840294189485e-03,7.844240449194111314e-03,2.390521693273141204e-03,6.100047844011476962e-04,6.807613046898701187e-04,1.798678752097256171e-03,3.578808794135470567e-02,1.353430982885882143e-03,1.485816026992707421e-02,2.274677290963284318e-02
5.290465957645482283e-03,1.308075428149484305e-02,2.608781219190626274e-03,4.419238400006599487e-04,6.352377551256885172e-04,7.454657970420419102e-04,3.432167610154529536e-02,9.103190224857746725e-04,9.693794726930146655e-03,3.985575939620097929e-02
6.470892309546817656e-03,1.372756104137349761e-02,2.604734428931523155e-03,5.639857011423869085e-04,7.116530467439586638e-04,5.361438759713919866e-04,2.057609316082488482e-02,7.266107529083597194e-05,1.968325947198669695e-03,2.630295348934298325e-02
6.079150032599824928e-03,1.133621752336651071e-02,3.353234364662662989e-03,3.613112078251386194e-04,5.561848115709066556e-04,6.152994292124426383e-04,4.444736798102171503e-03,7.820314374596272055e-04,9.859364373250118982e-03,1.312674892843340713e-02
3.719667032941748139e-03,8.382817180594623330e-03,3.718609239180414514e-03,1.654682248105883262e-05,2.201797026078518705e-04,6.000030320600008077e-04,5.838265043152521955e-03,1.022863179701824759e-03,7.809879037218441476e-03,4.774797966362155643e-02
1.111813612571171646e-03,7.091809847367831418e-03,3.152678353334780609e-03,1.883580246097682313e-04,3.215083863457972855e-04,1.627124514202612539e-03,1.026881098188225060e-02,1.910815279304714292e-04,3.724833823902212173e-04,6.010441936254420220e-02
9.677830748129102618e-04,8.566130589714312030e-03,3.126575607117084397e-03,3.227681155104379900e-04,9.939441125419018735e-04,1.663585717095489519e-03,8.972328614800462177e-03,1.823895013303927044e-03,4.494040082776777113e-03,5.558127939909231208e-02
2.796645333488962520e-03,1.110302529423111417e-02,4.372653449764347944e-03,5.107796549567197690e-04,1.347269994378254331e-03,1.371268649151317692e-03,2.845581602172033396e-03,4.249733489197025232e-03,4.723525652833357805e-03,4.175858502203873973e-02
3.997625351243634315e-03,1.057176739290504285e-02,5.094344756581993018e-03,7.135844458167188995e-04,7.460786896172405449e-04,1.397213053130610819e-03,1.423322326911981295e-04,6.290287247358264389e-03,4.074070609507996973e-03,2.083607130378283337e-02
4.553660414879647303e-03,5.654364245286691397e-03,4.043437096450448742e-03,8.665195640637857535e-04,1.588966271070626807e-04,1.565822495819539639e-03,5.313573893224441715e-03,8.154275998163715636e-03,6.090608193380091413e-03,3.541172184873874005e-03
5.823356903867439247e-03,1.666411099642074560e-03,3.028411712006309764e-03,9.829535136359850416e-04,5.024130845639413010e-04,1.572838277961227400e-03,1.089228039336220637e-02,9.675795525316499557e-03,9.460347060253374366e-03,2.921670969436045151e-02
8.119793177151932162e-03,4.766897793073302317e-03,3.955951283922592987e-03,1.087286165531099703e-03,4.054973778470590852e-04,1.483678503748090327e-03,6.530339032624841653e-03,9.542175731483644452e-03,8.605432085426261216e-03,5.847775098532813354e-02
9.238417522828794651e-03,1.319972161700118558e-02,5.718378756086815208e-03,1.165332835088656472e-03,4.078741079529239625e-04,1.441161235937528677e-03,4.083758210177064821e-03,7.736058403331206625e-03,3.296676808965185975e-04,8.540059063610942747e-02
7.407905843110560752e-03,1.938122029420240311e-02,6.245491324795815827e-03,1.204371559149552484e-03,5.813993933374272125e-04,1.405725831240187606e-03,9.691589752306141448e-03,6.561261375813527523e-03,1.452667786624180571e-02,9.030947489689687691e-02
4.240841308423725330e-03,2.020712416521657298e-02,5.547915993274246324e-03,1.217761394118774222e-03,7.272785961788163145e-04,1.285832694890622465e-03,5.812355905735137017e-03,7.624315352584726604e-03,2.754450579608026459e-02,6.120778662555761279e-02
3.350296789284942529e-03,1.971447261056778061e-02,5.060091294615727715e-03,1.206933579689236811e-03,7.882289097941825662e-04,1.103794102507039488e-03,2.705113534309605550e-03,9.886119748815258568e-03,3.639273416100360231e-02,1.338571221612188875e-02
6.346062279350989793e-03,2.079712916384581292e-02,5.378496372339195038e-03,1.147133976647126937e-03,7.744221569091640266e-04,9.424642091693465106e-04,7.581766435816104759e-03,1.171887001438697180e-02,4.230071254753286353e-02,2.432241252395222347e-02
1.070047356615404059e-02,2.004516310462295045e-02,5.526748949250913714e-03,1.046826158888103896e-03,7.384043585550894954e-04,7.765357357173473599e-04,2.825526022065950708e-03,1.293092137537077933e-02,4.482138081701823873e-02,3.626225874044903402e-02
1.230881967829664143e-02,1.413462961856065507e-02,4.143069269871473351e-03,9.610070569656314812e-04,8.458712857385706010e-04,4.810016937952583298e-04,1.158649650587881968e-02,1.347664762620387480e-02,4.052666518075632995e-02,2.482233854624969413e-02
1.026521316811472052e-02,6.865023658022777371e-03,1.536506182513614665e-03,8.743647566945936820e-04,1.028839036626613343e-03,1.029147716853138594e-04,2.874749534420505126e-02,1.125151055761496564e-02,3.010737554499755969e-02,4.234429445810197409e-04
7.699930463265744138e-03,4.425944069962120531e-03,4.565757261335121227e-05,6.783303192049279983e-04,8.011253704468741018e-04,1.007195829839362545e-04,3.752396250758226193e-02,3.489398194822884713e-03,2.175773271009604631e-02,2.622175455929676158e-02
7.486543721452807235e-03,6.370742879664346991e-03,7.977059294105811639e-04,4.152944748844140444e-04,2.556556958801576738e-05,1.966371424608688882e-04,2.927909613567688737e-02,8.560031512804433529e-03,2.309313694793407173e-02,3.636621147983196828e-02
8.697795826106646117e-03,7.112132811054717486e-03,2.628086001198492658e-03,3.324258746153659332e-04,5.501463703392698310e-04,7.502131212330484565e-04,5.696321696612920843e-03,1.853905465465060035e-02,3.201172154973010164e-02,2.292493123889750503e-02
8.261986150514384619e-03,4.468140163524685765e-03,3.241904216240068266e-03,3.671468213953839451e-04,2.492617078358702371e-04,1.869970753044239474e-03,2.052726326435940635e-02,2.091603009728617082e-02,3.886154452121744207e-02,4.308886049490007197e-03
5.329505802735884715e-03,1.579139799872697827e-03,2.476391751769598058e-03,3.816701678584910737e-05,5.401945257522772431e-04,2.664535098907544908e-03,3.712731256620551562e-02,1.674086827631811325e-02,3.755658616970744546e-02,2.755331692801576624e-02
2.472365828120293499e-03,1.650628883822370229e-03,1.713640239908041565e-03,1.002796950004295308e-03,8.839424836912273447e-04,2.501948029817686013e-03,4.551129628400697041e-02,1.180603336643289494e-02,3.211634452574023413e-02,3.853695005194119477e-02
2.020696795406301798e-03,3.914952094321161313e-03,1.682804591973198960e-03,1.653435618938854570e-03,3.419793402975772399e-04,2.039877419498572000e-03,5.671261788928036451e-02,1.028635586211112778e-02,2.961755584280107573e-02,3.950720412548193450e-02
2.984751100446045909e-03,4.462266949743408373e-03,1.728074658918435456e-03,1.344857500269127856e-03,6.436391294121796437e-04,2.110691590133124268e-03,7.278043732824719669e-02,1.141384551524145252e-02,2.877402135376808806e-02,3.079562983164214895e-02
3.131210370529573760e-03,1.134785245598074564e-03,7.537998208092839148e-04,7.079588667010997373e-04,1.130761047677443249e-03,2.525628548828577884e-03,8.301711195382818764e-02,1.170163645972180887e-02,2.152204034236171112e-02,1.137737405458897656e-02
2.300573502658495324e-03,3.000807834927458635e-03,1.462387788458568722e-03,6.132595678818299981e-04,7.202188025391508116e-04,2.776049376339585414e-03,8.144673198192445285e-02,9.306424302859987729e-03,6.176534753045953736e-03,7.540501286437907048e-03
1.647348036604068169e-03,3.846118184838836010e-03,3.772822548654299838e-03,9.409481238134973684e-04,8.744719713699226861e-05,2.913097824864488688e-03,7.332383023388523713e-02,5.363920657799255490e-03,7.517877884481986850e-03,8.829821415137167548e-03
1.034930585236199657e-03,2.290429343844951719e-03,4.612088270904113677e-03,1.115445806093197682e-03,1.128073135550338382e-05,3.046787167621008673e-03,6.166308460124328428e-02,1.397360827798170124e-03,9.256005340851910373e-03,5.274175875945754169e-03
6.227932980948647224e-04,2.034217269863552134e-03,3.583692559454601436e-03,1.052100683701863611e-03,2.777206248573302295e-04,2.938761025817104335e-03,4.403958957310750988e-02,2.357329868823238202e-03,4.024143677575221616e-04,1.497788718179010256e-02
3.074906139996966357e-03,4.318676644412882022e-03,1.936834208607811705e-03,1.012684921417401169e-03,4.386440792204857725e-04,2.730903387521680346e-03,2.458785661059925340e-02,5.429191904746598699e-03,7.388859539881215480e-03,1.334071984314656040e-02
5.007601901389021996e-03,8.517976700354347452e-03,1.253798744350975367e-03,1.067174775341974812e-03,4.126032465477117101e-04,3.033784058592427658e-03,1.234429723429706499e-02,6.564816175365961563e-03,4.317475357976323369e-03,1.042811365531190471e-02
6.625841566721819148e-03,1.401525827595550243e-02,1.749158559584562504e-03,1.061365712916310716e-03,4.218130251209548987e-04,3.606083481496176642e-03,6.151796825802417074e-03,5.540702863779762774e-03,8.913191410744189525e-03,7.976111271475827200e-03
9.550687454671514393e-03,1.954395123899205916e-02,2.280027483553328897e-03,9.084014110935257355e-04,4.967548271187331721e-04,3.437916005752270250e-03,2.622547869135165126e-03,3.201866217733752729e-03,2.458300400296671920e-02,3.850639859988891399e-04
1.380983416073450730e-02,2.489476671679428238e-02,2.016759629171284863e-03,7.510846130873902703e-04,5.245787594138721097e-04,3.091689004694361548e-03,1.032029273060645902e-02,2.512603075817379690e-04,3.772098321009486471e-02,5.584269045856876668e-03
1.724883900298538816e-02,3.163443679290887239e-02,1.289022202011847699e-03,7.499671633271929542e-04,4.925618886195472787e-04,4.778483039247299891e-03,1.170838654654548887e-03,4.632322757528924487e-03,4.848996986880891452e-02,8.957535064862255300e-03
1.785105403728549575e-02,3.702756360282061926e-02,3.197720334398231903e-04,6.961348049727733881e-04,4.719543701867916631e-04,8.550867530103074474e-03,2.643335818492871178e-02,8.064543458644801363e-03,5.428525143367007172e-02,3.576300123225729238e-02
1.487636398372347429e-02,3.270868562448327188e-02,1.669902471221649176e-03,2.534075051280574187e-04,4.619698008405900857e-04,1.075198006713420744e-02,4.938733682232347710e-02,8.408542471198123675e-03,4.729818569828980745e-02,4.570023124263546815e-02
9.061658347170082825e-03,1.746568348255092898e-02,4.083988370165556395e-03,1.479676797858853936e-04,3.896671774787300712e-04,8.281141613112148400e-03,4.611027339682557263e-02,6.179678861443740207e-03,2.851899571526288896e-02,2.443407752487778209e-02
3.323485805519009288e-03,5.613086903961790608e-03,2.558395534378178193e-03,5.512039937073367948e-04,2.721197738723147284e-04,2.832069068887938749e-03,2.317734041998892672e-02,4.169918998580482081e-03,1.871162629250204892e-02,8.524816117586082528e-03
1.093205774482960925e-03,1.242204529653145526e-02,6.981733856371171408e-03,2.353196807770709803e-03,2.330392623454529950e-04,8.228330791809141320e-04,5.884590161248435050e-03,3.995238679468600222e-03,4.014141891690664599e-02,1.866579847161500133e-02
2.517354225687599978e-03,3.446609207559570703e-02,2.146751000395256959e-02,3.604841649675041750e-03,2.369832741836039802e-04,1.179364649131701536e-04,8.555835880020731116e-03,4.360537260258634355e-03,8.568668302864043684e-02,1.023969655521717037e-02
4.437721247120506723e-03,5.341068697501672596e-02,3.224023868269663973e-02,2.953994717111434187e-03,3.920724156805099610e-05,2.771134624845761254e-03,2.258213546844712108e-02,3.149042588829986840e-03,1.213821540034689117e-01,5.997469266085699718e-02
4.462531661347681096e-03,5.633135130376944882e-02,3.360504847227190062e-02,1.018758866957899384e-03,2.896726489818464401e-04,3.725660631491808060e-03,3.043111656884532612e-02,2.763492357239137566e-04,1.238462638936782406e-01,9.464101289951165619e-02
2.622257069964762082e-03,4.429784870307486994e-02,2.619795831023094893e-02,6.157809950944519509e-04,1.827600917614825458e-04,1.398676244258448276e-03,2.321679490772356538e-02,5.614404776667689285e-03,1.005301033028277446e-01,9.354152426873722781e-02
3.916029463881703140e-04,2.491752655432208710e-02,1.386026928411474360e-02,1.242091589851127865e-03,4.840984006955009484e-04,1.830779241187292404e-03,3.180026688258661728e-03,1.189281950739834101e-02,7.016630935833216565e-02,6.364208407708508985e-02
3.876186280384715660e-03,5.656651402054221900e-03,1.515884505078849299e-03,1.281224165172950916e-03,8.451506697894165540e-04,3.573815788745484875e-03,2.395081213935680575e-02,1.538160320650145893e-02,4.109244927033355727e-02,2.382288400219543384e-02
6.681918459991864276e-03,7.656048633009738744e-03,6.143383848940741146e-03,1.306908869769463121e-03,2.691871718304427743e-04,4.128147364008406296e-03,5.101987201445369602e-02,1.100016305418552442e-02,1.538502719958561443e-02,1.078257829972569491e-02
8.203511345491448087e-03,1.367068179169188269e-02,7.933064159054491887e-03,1.433041326849899058e-03,6.074185675648624896e-04,4.431912816512609786e-03,6.526173896953867126e-02,9.207253373525617433e-04,1.385596966046519912e-03,3.038256527938489396e-02
9.177337777811959627e-03,1.642766015764981699e-02,6.970174488164447221e-03,1.518430839207483103e-03,9.225658830484267806e-04,3.832875279025363489e-03,5.371173264025064925e-02,1.300180409364406695e-02,5.613678961144429221e-03,3.262505559519507381e-02
1.035793300664600985e-02,1.963216956063353752e-02,6.553083113300385912e-03,1.519279571413475896e-03,7.872773830155195465e-04,2.060293965191603224e-03,2.016467862475566919e-02,1.880600605663253558e-02,4.234889707748806971e-03,2.719193407567246229e-02
1.108406228477238145e-02,2.220971035476596717e-02,6.949207725060204364e-03,1.494756158931220260e-03,7.411005495506932167e-04,1.078067701105688957e-03,1.117492708618040599e-02,1.855091558182367720e-02,9.069953092356728558e-03,2.797401373139147759e-02
1.021872287618526103e-02,2.179129236762752941e-02,6.890054786776071867e-03,1.464985846481486930e-03,8.719206006912214686e-04,2.402618339524981508e-03,1.815057707529119102e-02,1.525689348993923382e-02,2.265442137373201159e-02,3.988795690349550283e-02
8.381055198843582327e-03,1.967489795682722878e-02,6.221667372669156121e-03,1.403591604147198671e-03,9.831901714179400609e-04,4.611816306292376363e-03,7.077160001340366061e-04,9.772398737331888102e-03,3.496149728956192415e-02,6.014118097780796895e-02
