2.865522629497919277e-02,8.155193121643438195e-03,3.712892288793245149e-02,1.965791110920311283e-03,2.631215101366475660e-03,1.189085021335421375e-04,2.583206422807777375e-02,7.373475395829658108e-03,1.360842981056450615e-02,2.090944917523002849e-04
5.693994217174138013e-03,4.780864720631955445e-02,1.755689464257241192e-02,1.482962332208426562e-03,2.505893620284855954e-03,1.134062759407770526e-03,2.635636372896635674e-02,1.004154521788662088e-02,9.047172077866283760e-04,1.722768930096590934e-02
1.972431530065093738e-02,9.217500805377709661e-02,1.045321285709403802e-02,9.374400531049770094e-04,2.344173980461228008e-03,1.564971726784304901e-03,3.016233321916371793e-02,6.754836306076518471e-02,1.883549141917618269e-02,3.096538193263246794e-02
5.385886776094735151e-02,1.138188704024111625e-01,3.087768000457816880e-02,3.258747697974794270e-04,2.142999635789845283e-03,1.013481071545977363e-03,3.330176348810478387e-02,1.442023797591981404e-01,3.164847550809710836e-02,3.373549098245155753e-02
6.641184839183392197e-02,1.201422499851439868e-01,3.379638216710919435e-02,3.571337665079043870e-04,1.897879693697208719e-03,9.226621290669794178e-04,3.282129793316904132e-02,1.928660553866207716e-01,2.997589811420691558e-02,2.440737659486152955e-02
4.880141659808667765e-02,1.148341566556311949e-01,2.314703253070651140e-02,1.120968637834450152e-03,1.605935365618888421e-03,2.058350724763438958e-03,2.785988370562516095e-02,1.797870128611663010e-01,1.805939926448601324e-02,7.225859457333312988e-03
2.813028124037344688e-02,9.474076783719910522e-02,8.248131028891544231e-03,1.969070861925417172e-03,1.268744426470490468e-03,3.507331454623114145e-03,1.814897349694998691e-02,1.143421687894202177e-01,3.251993942330278376e-03,1.133339436971939063e-02
1.507913218439979261e-02,6.143875951602589813e-02,6.170670738333336805e-03,2.894196894730613739e-03,8.860960476206743933e-04,4.393039354199600698e-03,4.278903654187560593e-03,3.153333046227229514e-02,1.116292024901197576e-02,2.811601206988822640e-02
7.620657158577223700e-03,2.292887098740641408e-02,2.056864126235380397e-02,3.899177262639326718e-03,4.499058580716180553e-04,5.053858788882692292e-03,1.178538822260589806e-02,4.348877234977953365e-02,2.430980403558172243e-02,4.656202930687981800e-02
3.649205309810339692e-02,1.009174910293583749e-02,3.582330934021497187e-02,5.007329511365511167e-03,4.249067728779670977e-05,5.953274369592544656e-03,2.818950537705725012e-02,1.013236966226299662e-01,3.571520196296254501e-02,7.045329231203560638e-02
3.536818256827196916e-02,2.817826579825952887e-02,5.052226084356680608e-02,6.218191325276080893e-03,5.749222077928845247e-04,6.883195072226901481e-03,4.390392626123069270e-02,1.360890173737327458e-01,4.765236560869336169e-02,9.574816235266635223e-02
7.749914955805313477e-03,3.337237838604022178e-02,6.259542738411157103e-02,7.483855994376359226e-03,1.140390810238163044e-03,7.877960925602049691e-03,5.685509892303085983e-02,1.473613604320781756e-01,6.313010131361099231e-02,1.140305742726715338e-01
5.446464171780730085e-02,3.969114303945545791e-02,7.204282229428619899e-02,8.802671032054964345e-03,1.770473918437301527e-03,9.428273875179304930e-03,6.347807445937599102e-02,1.455979652978285077e-01,7.645556517842237720e-02,1.221829856491039451e-01
6.359073351556518428e-02,5.057528143450306518e-02,8.021029188999184711e-02,1.027484786959843681e-02,2.476330058136098477e-03,1.101113312392068208e-02,6.284404733077526839e-02,1.441997463629390297e-01,7.256623857246105591e-02,1.219491641164053702e-01
2.871954861215681234e-02,4.710733503080567763e-02,8.460244864251642571e-02,1.191038392400709314e-02,3.184332956686447731e-03,1.119934484943317654e-02,6.032113827544184625e-02,1.531732043053184444e-01,4.425843686193177418e-02,1.115471588696226729e-01
3.380234170686314404e-02,1.491997841826995380e-02,7.561958570163461457e-02,1.345615038969485283e-02,3.860376580299838996e-03,1.039608512620111141e-02,6.369799050238293681e-02,1.803198069529199365e-01,5.344243770155604478e-03,8.768228294053920235e-02
9.686785014137402894e-02,3.037682633962933768e-02,4.508557829562497010e-02,1.459707845536338186e-02,4.653514484939584236e-03,1.113652389122300745e-02,7.408728344660690801e-02,2.228612985363999099e-01,2.164751788055436707e-02,5.798858639886213945e-02
1.276775753764408938e-01,6.210121056784870947e-02,9.820283065446011421e-04,1.520548712311606439e-02,5.641109078891985013e-03,1.402723182751553985e-02,8.352580174518701994e-02,2.574860110660921464e-01,2.695898940110798281e-02,4.007880384427965625e-02
1.139804454685817009e-01,7.296569534788620304e-02,3.361070848215243906e-02,1.539527356329913922e-02,6.463872626419605270e-03,1.628145148228940173e-02,8.616449906286306748e-02,2.583019525176075692e-01,1.646646960145083799e-02,4.138562898458874456e-02
7.996468705714690484e-02,7.074235318622812407e-02,4.048694672168532543e-02,1.576212277082984087e-02,6.649795927270527734e-03,1.603897973939480762e-02,8.759372172547100210e-02,2.250966858002265147e-01,9.963612880401935545e-04,4.904789996458573664e-02
5.803274217079076175e-02,5.947057928047336239e-02,2.107644891215298272e-02,1.728699891625895199e-02,6.323789024934405034e-03,1.456538046263622030e-02,9.172581391082661184e-02,1.707023052618106274e-01,2.042199375274278070e-02,4.741264888925160459e-02
5.467157946691354742e-02,4.165427513290524686e-02,7.909137199359971351e-03,2.010944979014685219e-02,6.210366536810969090e-03,1.274675853400455104e-02,8.450278224951880690e-02,8.744478469311842139e-02,3.772956291550234181e-02,3.763004462602686367e-02
5.078049302277731075e-02,2.602375523202381941e-02,3.015594601794527665e-02,2.302240557053182590e-02,7.020132230408113704e-03,9.862766818937640165e-03,5.192820201891661797e-02,3.543872951876846783e-02,4.956045537711540466e-02,3.239355984756719237e-02
2.608408292315923804e-02,1.830226779413229865e-02,4.488880906844097685e-02,2.543334001265125724e-02,8.949570490758946076e-03,7.167265932956168838e-03,1.024725776598995816e-02,1.652585170671163894e-01,5.837900472324428214e-02,3.760088645829460369e-02
1.458984883490091998e-02,1.217951904539042902e-02,6.584791540767927220e-02,2.847107305784740347e-02,1.133326360185771264e-02,7.833061236325534332e-03,8.139477604124756294e-03,2.415923594161784316e-01,7.157824912736732159e-02,4.608923373405290902e-02
3.726379352261065259e-02,1.444017883051418143e-03,9.781276120628076831e-02,3.225388278585902130e-02,1.289095254173066446e-02,1.176722517190378209e-02,3.010874094255218403e-03,2.400977109317008751e-01,9.080171523658535360e-02,4.684221658846283998e-02
1.633714198718180452e-02,2.164814721614878937e-02,1.217235134482724523e-01,3.415263522533538293e-02,1.303838102322321321e-02,1.461122603294194577e-02,2.018982930239665574e-02,1.898236837190753201e-01,1.062690051920933965e-01,3.712797001340973485e-02
2.283332463367110030e-02,3.794559478463676444e-02,1.183382388325412704e-01,3.229915829055068216e-02,1.261453401368227943e-02,1.322562141185787236e-02,2.476017725689571430e-02,1.398211539235089951e-01,1.074638994066658693e-01,2.642755136001736019e-02
2.325366268719490301e-02,3.926467262672426323e-02,9.353043527926256651e-02,2.769313036945269743e-02,1.242914194865295946e-02,9.178250947955988656e-03,1.792231354560251330e-02,1.317874908719835481e-01,9.471926210971039206e-02,2.797512729153111416e-02
3.352674545517142501e-02,2.230760063585462277e-02,5.727477843670836233e-02,1.966794739161399283e-02,1.171285815610463577e-02,5.980449482385998862e-03,6.111428952205358311e-03,1.779051354867922652e-01,7.260873959922475862e-02,4.502373725132997190e-02
1.001063461383212977e-01,4.832340006217264623e-03,1.869067837560406528e-03,4.328713683419596614e-03,9.286144453093855486e-03,4.879406262543723068e-03,7.241473965781354202e-03,2.427979256295364763e-01,3.865724626291837385e-02,6.742034203196338449e-02
1.195064656107395346e-01,2.772856178982407993e-02,8.802785978614385831e-02,1.740146463499292126e-02,5.729763865714142430e-03,4.192223290549450948e-03,1.718448142286871372e-02,2.712770808562632308e-01,1.041104523826704396e-02,8.304011064363317485e-02
8.717757848584303804e-02,3.591168882688010322e-02,1.648207366447715372e-01,3.559413357073494544e-02,2.849573405653764262e-03,1.904192151106330003e-03,1.848198865383337761e-02,2.432305853708046361e-01,6.582838394506150548e-02,8.794471245098062218e-02
4.132089235687141926e-02,2.827584316367475967e-02,1.879485149395587473e-01,4.114140809098704860e-02,1.436545550877084410e-03,1.864976502940947313e-03,1.074217506887282202e-02,1.831384733528093611e-01,1.090288357030834709e-01,8.298070028362049266e-02
1.412429922630819255e-02,1.221904047699972837e-02,1.572154321166416291e-01,3.544365340140088333e-02,1.227898508696964163e-03,4.861464649875787102e-03,3.618380674004867577e-03,1.212760317833989909e-01,1.253387215627015105e-01,6.904595865369900221e-02
1.201810912397025324e-02,4.342700803123711209e-04,1.087824717119579426e-01,2.595131177868597802e-02,2.393035787538415511e-03,5.058195369573260589e-03,2.304173222743089583e-02,6.304530564797364289e-02,1.138693819983379596e-01,5.137718720608638184e-02
2.564091049732893091e-02,3.025334370464065857e-03,6.725580746468451387e-02,1.649582610249830661e-02,5.032075024641829812e-03,3.330888690200798155e-03,4.437854583392297769e-02,5.413191642811364390e-03,8.610002332556755678e-02,3.841161504373361707e-02
4.088553837720305950e-02,1.453899293777460942e-03,2.826585780682122628e-02,6.211257251125966786e-03,7.701257743379299504e-03,2.850751682239192550e-03,6.156495367379909156e-02,8.396151601454789060e-02,5.524217953436912076e-02,2.904077597555711210e-02
4.925288997304899663e-02,4.307242624959628507e-03,1.241720682878192858e-02,4.505129622044893103e-03,8.286483585775474003e-03,4.768051014496665733e-03,7.169874459020340873e-02,1.345944432172280769e-01,2.896269337324689289e-02,1.106120988729307995e-02
5.541384496486485844e-02,7.583100934091266745e-03,3.117855570053015835e-02,1.102113035350224708e-02,6.448004344937616900e-03,6.186969161785185571e-03,7.813327372529413339e-02,1.137792131099618631e-01,1.192694208799332210e-02,1.843304450026095331e-02
7.095268627030722197e-02,8.916540814580448159e-04,2.079698007992545478e-03,9.117843519097687185e-03,4.369657323029809380e-03,3.966242402072185473e-03,8.380999915846178150e-02,3.433265889358429190e-02,5.845493466928090159e-03,3.906945549528649531e-02
1.006205551277248311e-01,1.393293573963302542e-02,7.515898805576858022e-02,1.585257832097200460e-03,4.696913118271938727e-03,1.198857208625250977e-03,8.710030500284002275e-02,3.839568107362649474e-02,2.916324997610403660e-03,2.877558490020384191e-02
1.346285093516609022e-01,2.322328950983389845e-02,1.326904160553079859e-01,3.272737800100796769e-03,7.724503625820424747e-03,5.720168069082339976e-03,8.579395825915404894e-02,6.188060330853183133e-02,1.045771263483814828e-02,1.272993105414711073e-03
1.533014626889694365e-01,1.889147572931520677e-02,1.358505631565420368e-01,9.118108218143405235e-04,1.112278222387054136e-02,6.749277867334644784e-03,7.748499179848403196e-02,5.144599023798890336e-02,3.789795959822016280e-02,1.399099728774140343e-02
1.435081193162635327e-01,5.227026883007176127e-03,9.836750454257912890e-02,5.274082565147696251e-03,1.264738216082082756e-02,4.437991171829592726e-03,5.670726481160155708e-02,3.454080778974877308e-02,6.901008671330348399e-02,5.407395243932800778e-03
1.109691703293370496e-01,1.103859207439667617e-02,5.254256562696718591e-02,1.031910749970144613e-02,1.220785741498074499e-02,1.642615231654746648e-03,2.175557368896636340e-02,1.483482300917225195e-02,9.384642609936552637e-02,3.332184922497521268e-02
7.308761681788557285e-02,2.892275944592059139e-02,8.696208571609718302e-03,1.383590358265637289e-02,1.076703680478151466e-02,1.114252368811345217e-03,1.642002022723330207e-02,5.551141991497332041e-03,1.129372680411176721e-01,4.862833559049137278e-02
4.325627220358431446e-02,4.880376218314462500e-02,3.724581340879760949e-02,1.772193591272235025e-02,8.379070566079064447e-03,2.244097854855400462e-03,4.204305702636935288e-02,1.010872399072640544e-02,1.311057313889278653e-01,6.341654331648094445e-02
2.431802436039968984e-02,6.660440639242272420e-02,8.223469392782561949e-02,2.142451987095899887e-02,4.322944949871156996e-03,1.333652557983561106e-03,5.104315001429604592e-02,3.322536647658158940e-03,1.494868378154377286e-01,1.024633151327268565e-01
1.023192438490741485e-02,7.917425802609873164e-02,1.191758641484803455e-01,2.222077270043516795e-02,1.587792593509761716e-03,4.233034285093523544e-03,5.168362991953996677e-02,5.823529234479999685e-03,1.645063836863735196e-01,1.712185506710870997e-01
8.623307545292342724e-03,9.041194107156017012e-02,1.429477402479094605e-01,1.820308377630419638e-02,8.420796377332017552e-03,1.268890947476161886e-02,4.953786628811816806e-02,2.654915978364217818e-02,1.661561356013349644e-01,2.494144599437361498e-01
3.417775495220183590e-02,1.018758369324751084e-01,1.401468179597182839e-01,8.783832619790300777e-03,1.419180752189638101e-02,1.932246752404958440e-02,4.193140677918023862e-02,7.554637256881865937e-02,1.375289424609170419e-01,3.036588332930937328e-01
5.357431877131314107e-02,1.025249700634246058e-01,9.366002008812682189e-02,5.596686740448633852e-03,1.688797960415609062e-02,2.084957167944413367e-02,2.965586476444326963e-02,1.037496461516674573e-01,6.972683564640515252e-02,3.080280237338086646e-01
5.377674009392080512e-02,8.198649859105201776e-02,1.582801035506930382e-02,2.111981075220531121e-02,1.640404236143152422e-02,1.767304873398280532e-02,2.196648730120892914e-02,1.090635598333457718e-01,1.593940086940079034e-02,2.642858776243122154e-01
4.326941270051047617e-02,5.007967771621530534e-02,4.414968043125916397e-02,3.016966086794444640e-02,1.454973159371105926e-02,1.216147981732001483e-02,2.289096551787663664e-02,1.280694224862890529e-01,7.340358778954222951e-02,2.008545227241743392e-01
4.416473620941464145e-02,2.929973444652795439e-02,5.047945394700597416e-02,2.816203164570244347e-02,1.243934413135979779e-02,6.065737042634333429e-03,2.455195795851837504e-02,1.771592179689470969e-01,7.442209102177760327e-02,1.452316584505338182e-01
6.065763424854291042e-02,3.087626810062130134e-02,2.214916667806448788e-02,2.043030754902165277e-02,9.772107367608865586e-03,2.017371279572223019e-04,2.232720319215161092e-02,2.183740619121665727e-01,4.259991214901868994e-02,1.030544571275741478e-01
7.141841019926277456e-02,4.461295764316015183e-02,3.603697853401209832e-03,1.771610392701490275e-02,7.595362325860651430e-03,4.181591393035005710e-03,2.445215363086510399e-02,2.033665121693969124e-01,3.287229477630031205e-02,7.116338038902123020e-02
5.797080621842407716e-02,4.585509139265421530e-02,1.278598206805245385e-02,2.414654100763692982e-02,8.660261928886347008e-03,5.405702826699953362e-03,3.857258852887267969e-02,1.307261444437283204e-01,7.617499899006316411e-02,5.647959952760907287e-02
2.787649968535188191e-02,1.425339383537706922e-02,3.791896246578484175e-02,3.357815907038735892e-02,1.269243955085106769e-02,4.006993106490259679e-03,5.932548588790065996e-02,4.187389057730253605e-02,1.510413136958989044e-01,6.119423144948114845e-02
3.704310218876443166e-03,4.452246422169350154e-02,6.590779454310138896e-02,3.825307577758008809e-02,1.497936390164597391e-02,3.415246910936285425e-03,7.559763575589767415e-02,2.184766301926020088e-02,2.074515126540992516e-01,6.203819354228851113e-02
3.246203713791653844e-03,1.017430831052113932e-01,9.121847375536695779e-02,3.683672029961849309e-02,1.348736262990631908e-02,4.360745607446364115e-03,8.397828441302221392e-02,4.964179591767894917e-02,2.129297985918553737e-01,3.568237364584062737e-02
3.600441514540770466e-05,1.347462291670292744e-01,1.094005708893004830e-01,3.331433381423808127e-02,1.310850352747923095e-02,8.685317923835295280e-04,9.181402606269785382e-02,6.854631955712239821e-02,1.795603915993106980e-01,9.589445878490331088e-05
3.904310341654415942e-03,1.405470689887558522e-01,1.195233354169690509e-01,3.167109284983151557e-02,1.790048449078967055e-02,1.213714191894608996e-02,1.090687536197555985e-01,1.155945521271981996e-01,1.483313744712140558e-01,1.286500487752733485e-03
6.438634943291283996e-03,1.229618476854056619e-01,1.246767949111469015e-01,3.249984980892164921e-02,2.424872272659714736e-02,2.963401313119241529e-02,1.393435062445587125e-01,1.854577814074452324e-01,1.431146372838215941e-01,4.250563148857100515e-02
4.209189884196745668e-03,8.664969031739189198e-02,1.218173316781337306e-01,3.334850398767249396e-02,2.700627895371054618e-02,4.210836494235359329e-02,1.773515264034562777e-01,2.291689773224587501e-01,1.485100184786183886e-01,9.526788408404122943e-02
7.865665212856955135e-03,4.304712469284178306e-02,1.012000632715864129e-01,3.190988047899265961e-02,2.625339620899818163e-02,4.702194893452369545e-02,2.084006085400652020e-01,2.212359046499854653e-01,1.391605880550429164e-01,1.187111763077292187e-01
2.257302460562389534e-02,4.887781589800629239e-03,5.890698704324055096e-02,2.750299370031669341e-02,2.328812260991560898e-02,4.739384447105718379e-02,2.132447945521392663e-01,1.939528216901825475e-01,1.084628950376782947e-01,1.079895201406867872e-01
2.260588137722761848e-02,2.432082137883634365e-02,3.438434167317635202e-03,1.965679970599860243e-02,1.721158726936073899e-02,4.420945674374860551e-02,1.876704705637472492e-01,1.904785939516679683e-01,5.759074310534555846e-02,8.142569530066207095e-02
1.769145848217977372e-03,4.542354473307602669e-02,4.484140147377788099e-02,9.268065562721760492e-03,9.601113934551120180e-03,3.805184940140460270e-02,1.537915944056363615e-01,2.121409852131605489e-01,7.270815189125468675e-03,5.856145413592958593e-02
2.795391619322608670e-02,5.428222133355153911e-02,6.045146732201353568e-02,9.441068276397385391e-04,5.501159408615047437e-03,3.281630671855607917e-02,1.349447538520425205e-01,2.207578124054859203e-01,4.811834592601001159e-02,4.932974277656223400e-02
5.035407301582403572e-02,4.619415967794107680e-02,3.511796978304982525e-02,1.006590544782100423e-03,6.725485337583495676e-03,3.092577908405058987e-02,1.263558417796043776e-01,1.842046631879911689e-01,1.297580925668477894e-02,4.712254486272476894e-02
5.750950338288433883e-02,2.254145501548573960e-02,7.794896276523556600e-03,1.768676161616520789e-03,9.698731105697798102e-03,2.941347976110583046e-02,1.077890235061309265e-01,1.206005918752087319e-01,8.852973354175661114e-02,3.663975437868183249e-02
5.239678159440531308e-02,1.260463714934241530e-02,3.761666735639669634e-02,4.351364841217782858e-03,1.089892516719651386e-02,2.487153624322473167e-02,7.315605956913116825e-02,8.313856092399299347e-02,1.723954865955178162e-01,1.754692803718817945e-02
4.682165787617623837e-02,5.172904062718418350e-02,4.705693286138175335e-02,4.489188249621620976e-03,9.833498093909567167e-03,1.786473276585311132e-02,3.126315628113056355e-02,9.012827751648264107e-02,1.750680811918343127e-01,5.937041785657388646e-03
5.403021510864940841e-02,7.715391620797669436e-02,4.361991699403036660e-02,2.152595097218738471e-03,6.995152302678699953e-03,1.036084055539879083e-02,7.151163362096625564e-03,9.860163441931517336e-02,1.193710108936402170e-01,6.665903375915000449e-03
7.795458672243150977e-02,7.137795029434847172e-02,2.587002841174652207e-02,3.466183889992605072e-03,2.890034004139690853e-03,2.759806837901035946e-03,3.159469827437038497e-02,6.419448734765606512e-02,5.960820001059097262e-02,3.724736098929820258e-03
1.108865742815052791e-01,3.695822584455191878e-02,1.293209578070424540e-02,1.275499838541287352e-02,1.285049222829612097e-03,5.155189028167210009e-03,3.964152745404969647e-02,3.450049821412829853e-03,6.336406924167978412e-03,1.591964756270212653e-02
1.424611530576078700e-01,8.095131288049978169e-03,6.765800458109932913e-02,2.344200808771089439e-02,4.564892079660312282e-03,1.263094221609686700e-02,4.608814495114581938e-02,6.508063284655069003e-02,5.862798173981326882e-02,4.620001593565186554e-02
1.649148850995360571e-01,5.045840816349678182e-02,1.230556298426628975e-01,3.227721124205892855e-02,7.272393130619492045e-03,1.840606651660442461e-02,6.483292338461428550e-02,1.062880291143170203e-01,1.245901024873733998e-01,7.406446961880305824e-02
1.694047848180349758e-01,8.182258647371176696e-02,1.684590143534843154e-01,3.883553521773613210e-02,1.016802463780604876e-02,2.243292084289594951e-02,8.700365045737681879e-02,1.390979271623173918e-01,1.546421906863384710e-01,9.256722316642027049e-02
1.514517744406793376e-01,9.019044322145911008e-02,2.005593439908976428e-01,4.585098776663608378e-02,1.347527589574129374e-02,2.603991537770221354e-02,9.470644718847166799e-02,1.613718786460536792e-01,1.402865309288203188e-01,9.893483994999566211e-02
1.248554935624649753e-01,7.259595197356412399e-02,2.116585890378190615e-01,5.357879779574321877e-02,1.658188363134227919e-02,2.915415762278252693e-02,8.370358574004420349e-02,1.511200634079561678e-01,1.131312383346798206e-01,9.407085337706952433e-02
1.109663723701378030e-01,4.851100614014065837e-02,1.847728447322507794e-01,5.515380202208251814e-02,1.786196402335819139e-02,2.902311064496072152e-02,5.912686551400452017e-02,1.047946950361449275e-01,9.381899256041464907e-02,8.874478765985352458e-02
1.068064830671154875e-01,3.848153279216702527e-02,1.116226424898537906e-01,4.334636149149018181e-02,1.607530939257591912e-02,2.447422881784680135e-02,2.778995867464834416e-02,4.995397845566652839e-02,6.803643564191966253e-02,9.968628386702534094e-02
8.755420410784135743e-02,3.548927205079353830e-02,1.556234004550413608e-02,2.255133093084083287e-02,1.242305357755647995e-02,1.945356189566940786e-02,5.648275587764913473e-03,1.541461041938272346e-02,2.908711324404573279e-02,1.309121190259257272e-01
4.851413975263355050e-02,1.780835008094342961e-02,5.675225027354705715e-02,6.498582336715663307e-03,9.210640636025035563e-03,1.836422068181329387e-02,1.256850512159274347e-02,1.286819602148396233e-02,4.492850700948421323e-03,1.622289307097849187e-01
1.709501296569297668e-02,1.683802646797635111e-02,7.321408564942660790e-02,2.574453988573390233e-03,6.659832861279161784e-03,1.992755206699125398e-02,5.037384394622831246e-02,4.266449231183382096e-02,1.636770704477404081e-02,1.695230013238451794e-01
1.460982140202019171e-02,4.884574926580517729e-02,4.134929165685670427e-02,6.102680195759562290e-03,3.380908235682548307e-03,2.008645920967550014e-02,9.991474261447126637e-02,9.221089128080202368e-02,4.653425810495002979e-02,1.587075354560806284e-01
3.222050976749474965e-02,6.162622824126175181e-02,5.506113189270266106e-04,1.002960470580843352e-02,5.493224317467327493e-04,1.852390423493580074e-02,1.408937337915779076e-01,1.372824961059258553e-01,6.239429536564353868e-02,1.578078948982697960e-01
5.110610393865133716e-02,5.490855242595658881e-02,1.307419434813927341e-02,1.126103327852285424e-02,3.100395697859608356e-03,1.737860757548839036e-02,1.623525692279483845e-01,1.685392811147653214e-01,5.360553366918767437e-02,1.687972290062396685e-01
6.541036916550319047e-02,3.939440298679437041e-02,1.136980358797772331e-02,7.792280429079910010e-03,2.717507352467642828e-03,1.594746391416355241e-02,1.565054607664049524e-01,2.026060233158863966e-01,2.943591116039014771e-02,1.596907010845436958e-01
8.135327952252081884e-02,2.647221070907927049e-02,4.020240518830919818e-02,1.125363089091700915e-03,8.907083232143563588e-05,1.181488627800575918e-02,1.161639422646885966e-01,2.448983331296081534e-01,3.553327743392165755e-03,1.172068968618901336e-01
1.042320030850526213e-01,1.961064523587083275e-02,3.887140201346953733e-02,1.137710736088558099e-02,2.819673610268802477e-03,5.812184114311197414e-03,4.504492254181131222e-02,2.656444398275255581e-01,7.265879814886963724e-03,7.031788162031742118e-02
1.250697318416630066e-01,1.318584341306921863e-02,1.402582892342308686e-02,1.722514345814216835e-02,4.999802969332943145e-03,1.777126292631060409e-03,3.082508771723588281e-02,2.426008462629950790e-01,7.587084146424727393e-03,4.577649795684216039e-02
1.233721070158802918e-01,3.630073956294734526e-04,3.240535036017302972e-03,1.705044022069390763e-02,6.916007329267978392e-03,2.048181317964090867e-03,7.168921608002376544e-02,2.068116254013875055e-01,3.393341714696489209e-02,3.693258877501853776e-02
9.528346268672062414e-02,2.361695350972538299e-02,7.196902672510665892e-03,1.173762632490403177e-02,9.270875974762223665e-03,5.739056666989782174e-03,5.703152016381532463e-02,2.124607270872649611e-01,4.406452298078395585e-02,3.199314702937928329e-02
6.713662344729787179e-02,5.058596723791633498e-02,1.524480060834134364e-02,2.453129366089688151e-03,1.205295915618348306e-02,1.052858174199088580e-02,9.355499846553469445e-03,2.633819318431202539e-01,3.399935832530486673e-02,3.658494434230417924e-02
5.931243785184195372e-02,6.657287751622582850e-02,2.375521963852382165e-02,5.585095265413557442e-03,1.381626943400855213e-02,1.375938711310297803e-02,2.627531986257703941e-02,2.902908657061495368e-01,2.694044098496183731e-02,4.881632676884375965e-02
5.358190294849576873e-02,5.915428829479715128e-02,1.000824323760260252e-02,4.205317261104655341e-03,1.187024853589819899e-02,1.284817845465490403e-02,2.700776896285544959e-02,2.164026281259366358e-01,3.307931528792900505e-02,4.413656445962492458e-02
2.408030365361456260e-02,3.517564301438539515e-02,2.222018180350165267e-02,7.511951426740665592e-03,5.513725107470382122e-03,7.590762327226863691e-03,8.086867318776905234e-03,4.717086696800700668e-02,3.345346799375186614e-02,1.039518224095217248e-02
2.123490609246529021e-02,1.650889750997700314e-02,4.040730666971963092e-02,1.984258867868846435e-02,1.383706945590868799e-03,1.274049446797997443e-03,3.709110811458412454e-03,1.234663031629457675e-01,1.457176388197349744e-02,2.573800732015463222e-02
6.399397770754872150e-02,1.051254269663388224e-02,3.008391158655027153e-02,2.335176505816672493e-02,4.260410583405190542e-03,3.051139065422725418e-03,3.030048805043195764e-04,2.100555052801881539e-01,7.384821831087923054e-03,3.383274429926211996e-02
1.177142126406473116e-01,1.412939748656004153e-03,1.052697804825253498e-02,1.873626368827551944e-02,3.723387341410501310e-03,5.901619052351422118e-03,7.101867165935740397e-03,2.212598437593587541e-01,9.161256410121949856e-03,2.200992548081845065e-02
2.085794505352282779e-01,3.407433756434601058e-02,6.932579423434698240e-04,1.283709169128101520e-02,4.318292609084600081e-03,9.049735876931981615e-03,6.788404053921674036e-03,2.292594855982600377e-01,1.239574020111076404e-02,1.886202745400156547e-02
3.269219494016910588e-01,7.366377998269479921e-02,1.216734985428676898e-02,8.605132311085809602e-03,7.974081170158568710e-03,1.222142562780142126e-02,2.747376059933330159e-03,2.723435367393897133e-01,4.227922306720719586e-02,3.031568436633666486e-02
4.269130897995865870e-01,9.603913482711110006e-02,3.659578134395478216e-02,3.150526461137464866e-03,1.136930294557211840e-02,1.344485962196988356e-02,1.463459463634722915e-02,3.187745617601165371e-01,6.200228612869474604e-02,3.725604530804033782e-02
4.679720792393580742e-01,9.363301565121948111e-02,5.998173367284100749e-02,4.535604624786470328e-03,9.941603529344030660e-03,1.061539262237732456e-02,1.671504271867967767e-02,3.219962494547810028e-01,6.095801674554881394e-02,2.428927113416185640e-02
4.395254905469698770e-01,7.351651399093728223e-02,5.141794192846785294e-02,8.504784081464260292e-03,3.160581910597848841e-03,3.184125714920596137e-03,1.949988667362214691e-03,2.801858599739852629e-01,4.255501874197094303e-02,3.446226258624694727e-03
3.553840274618056405e-01,4.431425149020901816e-02,2.202293078985069919e-03,2.655966694233630708e-03,4.565311733498882141e-03,5.471742701385257958e-03,3.837125111993302390e-02,2.272601311092286858e-01,1.877589561961386100e-02,2.744251243834599022e-02
2.476500683781174827e-01,1.358834675942814131e-02,6.099051192673488053e-02,9.930427545269671780e-03,8.199879127691694219e-03,9.817757145622562492e-03,7.638599675750788742e-02,1.800137475391433983e-01,1.803816661739871853e-03,3.708365816070356008e-02
1.627290459669717693e-01,1.178621871855019265e-02,1.025160379245319969e-01,1.961231681155100465e-02,7.115694453532521967e-03,9.106917533058951977e-03,1.069605558710245014e-01,1.201040016088940621e-01,1.684343349188201569e-02,4.195527688831775931e-02
1.323555231377516184e-01,2.600721924981318559e-02,1.045434517954902942e-01,2.072357982302300630e-02,4.998865422901800290e-03,8.622890303972004927e-03,1.346554532583105757e-01,3.852922968491194478e-02,2.870531798095209836e-02,5.456879222849864153e-02
1.402241369828365058e-01,2.214277468086164880e-02,7.573275496351040970e-02,1.583912996079708466e-02,4.817379539484316700e-03,1.109634235689541983e-02,1.566019700430777428e-01,2.959659397107489154e-02,4.674900303959023812e-02,6.570946805039507010e-02
1.405371634863277486e-01,3.088252380980760492e-03,4.841079391136473425e-02,1.151239603461648095e-02,5.706243778626726194e-03,1.243102649924664876e-02,1.531187515842801217e-01,4.895199048076627479e-02,7.812807736506954814e-02,5.472987157962913574e-02
1.125329257079864115e-01,3.696757990952053569e-02,5.364373977680446381e-02,1.211229781268187942e-02,5.435318295851429039e-03,9.417211661476385803e-03,1.111440069254719804e-01,4.352987636998015275e-02,1.101070165984279620e-01,2.425414470598643429e-02
7.482439851724445590e-02,5.368812250417302756e-02,8.531771437721603901e-02,1.604552736596476237e-02,4.080188597745774103e-03,5.737772390416285596e-03,4.416631201074993490e-02,6.722736732426742856e-02,1.181223990673189728e-01,4.566136234464385560e-03
4.797468145397029704e-02,3.830674962325276989e-02,1.036620142094014374e-01,1.723559713396994458e-02,4.001500386937712622e-03,6.254292388218857073e-03,1.858352671135246256e-02,1.262738849184346646e-01,9.467661072601424310e-02,1.640462823637783493e-02
2.807454360698536516e-02,9.798945294826467804e-04,8.027666957658506630e-02,1.138403234496134821e-02,6.873643350651527373e-03,9.951642457202139122e-03,5.261325984836014158e-02,1.761125036986551928e-01,5.287027602323725317e-02,4.506759975502777626e-02
1.930993342166169302e-03,3.808940227168731985e-02,2.459855235766669757e-02,3.507032014173335020e-04,1.169105545334226011e-02,1.255860468804874397e-02,4.799832737307935249e-02,1.892866710491461490e-01,4.377188602488594343e-03,6.112567582740154049e-02
3.081029691146212196e-02,6.799903860736822292e-02,3.129256053455427289e-02,9.749295700671099102e-03,1.602678619904155874e-02,1.351148174000083198e-02,1.312889114152797528e-02,1.843727683644726945e-01,4.422685643399903305e-02,5.481020046370685406e-02
6.038313973847467264e-02,8.422518017670231616e-02,6.006998231878712957e-02,1.388879547321905661e-02,1.862921181253401198e-02,1.617409055471042897e-02,2.783496315732794657e-02,1.831710457065260922e-01,7.677539672730027132e-02,3.752118208352401424e-02
8.190856293607944039e-02,7.891756885961780099e-02,5.744812186410414023e-02,1.203198715316596695e-02,1.969562420691074039e-02,2.099743967942032524e-02,4.887785534070945848e-02,1.708656799894736622e-01,7.415071552704047275e-02,1.653369058011928613e-02
9.863818848392814920e-02,4.654616863871875038e-02,3.964351277368541315e-02,8.026546486797766014e-03,1.894818059543870031e-02,2.255768189008229216e-02,3.883349088814586764e-02,1.178488947879232779e-01,3.874383981076501282e-02,1.507991111506115992e-02
1.132475899535107938e-01,5.815761456094047099e-03,1.878439260021186330e-02,4.713061324320188053e-03,1.553796564405747135e-02,1.702351297424274656e-02,9.741072665023544838e-03,3.189473891077086731e-02,4.314309492025490342e-03,5.996681710789231179e-02
1.229087573015369139e-01,5.817186742505103814e-02,7.914787322154118870e-03,2.429051546263204155e-03,1.075187749336166572e-02,9.820818066539498126e-03,9.467433048288786956e-03,3.586180949643674731e-02,3.121040864261476894e-02,1.011549589907169699e-01
1.247073368679445654e-01,8.578639265195348029e-02,3.608311067273364814e-02,2.284995680748165472e-03,8.520921705049876865e-03,9.869491448551155621e-03,2.967802024056447226e-03,4.888331938463067600e-02,3.461815248316196802e-02,1.149368364440532531e-01
1.207248724144723007e-01,7.558898288555687683e-02,4.449899551081402949e-02,5.989788796532950071e-03,1.086583508069947392e-02,1.697999626454503586e-02,3.845049346888727154e-02,2.658531963957576350e-02,1.968894127581832104e-02,9.438691430428232387e-02
1.128545688655595847e-01,4.067974586813240256e-02,2.224451945188516203e-02,1.172073202821158171e-02,1.421611281767266692e-02,2.141742296867045134e-02,6.714623704119507264e-02,5.682588360237782882e-03,3.785682783911926540e-03,5.411249584776581245e-02
9.548775289136918198e-02,9.098795711454797652e-03,1.505127289495845205e-02,1.543970072018301283e-02,1.289450722861473775e-02,1.651264901933456597e-02,7.019409761821661375e-02,8.105092931044680093e-03,2.464653323559171799e-02,1.533965002375506023e-02
6.030899535576451226e-02,6.727245356763583706e-03,4.640789554895154850e-02,1.651628558230608737e-02,5.681981204457465726e-03,5.727309307239116833e-03,4.990590413216811766e-02,1.198821221980361090e-02,3.204241943667377607e-02,7.218690892170288864e-03
1.117143216801125792e-02,1.786577245227802604e-02,6.542583303686404228e-02,1.745870328410268485e-02,3.156375418643672572e-03,4.057817527686104035e-03,1.417094839193599153e-02,2.583355118207196488e-02,2.123071153502702549e-02,6.422817620133132281e-03
3.036470964667532801e-02,3.232699297516378190e-02,7.484509124934092539e-02,1.924975274416263968e-02,9.065335371003159504e-03,1.061440154937166522e-02,2.563202685168876685e-02,1.103427780636566796e-01,8.583263307939692239e-04,1.630714301648453213e-02
4.172575977582605733e-02,3.863593428016064840e-02,7.857913496720672630e-02,2.122195916445059408e-02,1.141753748887695992e-02,1.520099607939595816e-02,4.673068134146244473e-02,1.772451607643771854e-01,1.186362494704127149e-02,4.577413282780404269e-02
2.188815465154311454e-02,2.789176838578612261e-02,8.290806706314768348e-02,2.361098193566688735e-02,1.187565446421551957e-02,1.784923497093973341e-02,3.601820852173378412e-02,1.726639727555207005e-01,7.561786800204467821e-03,6.159832382543283663e-02
9.179178998894732197e-03,1.472752202488267909e-02,8.970558830651380322e-02,2.585568539397078980e-02,1.085543386845498094e-02,1.759703597820579113e-02,1.684311020009886251e-02,1.313158769713658747e-01,8.474488207159897382e-03,5.998882566698515717e-02
3.420778653465922359e-02,1.953762317780241564e-02,8.622256724263499539e-02,2.403315386612192919e-02,8.518948766067109199e-03,1.536987685845666446e-02,2.261057933294061822e-02,1.151979996351583102e-01,2.589222438430196366e-02,5.596292056397989684e-02
5.331203681405830008e-02,4.293333004970989464e-02,5.957834200718581386e-02,1.480744856472351705e-02,7.356934065793787822e-03,1.335872032919524499e-02,4.738810627380869028e-02,1.181824044099117621e-01,3.897542369741021501e-02,5.857945061835970885e-02
7.184017715335276610e-02,7.067587335932244696e-02,2.279443409856803451e-02,1.908526390200757355e-03,9.243635964113481804e-03,1.206280048205196284e-02,5.669144055463019860e-02,8.669310486179333808e-02,4.772790366271845164e-02,5.664809827003459974e-02
8.558330561363799993e-02,9.091358843506550103e-02,5.924565603710059067e-03,5.597284351315100388e-03,1.145668875187169297e-02,1.030148600662949068e-02,4.061302798763384569e-02,3.056135023197904289e-03,5.660872933623391223e-02,3.702488233107499582e-02
8.857670061769823411e-02,9.691771854101892403e-02,1.935139418095145267e-02,3.023490872649486731e-03,1.044877428850421452e-02,8.070950695426152774e-03,2.092461707162324852e-02,9.438373631208318848e-02,7.115490131382561090e-02,7.987718632242922501e-03
8.538825133647726107e-02,8.540311196835061180e-02,4.355369173715591125e-02,4.825100621360327476e-03,7.852669157361524474e-03,7.433032302398292178e-03,1.316707631478481084e-02,1.538037764822869358e-01,8.742079791984724846e-02,5.893747207822638834e-03
8.327983293244570207e-02,6.062029923483203825e-02,5.431027211017940698e-02,9.825627179543645548e-03,8.143810516491462037e-03,1.015378478497346373e-02,1.338699994984944228e-02,1.459012479934960471e-01,8.699623944008508247e-02,9.794938127903596997e-03
8.163949509074219790e-02,3.125057998400161685e-02,4.403577475874383140e-02,9.118081002152342643e-03,1.196170590920253574e-02,1.563719139283149817e-02,1.597032317561314710e-02,7.482588188060669554e-02,5.615047127941449195e-02,4.364574618350172686e-02
7.969626090646650396e-02,3.614915301786724745e-04,2.377615716150411826e-02,5.835344822037680235e-03,1.564418668273324237e-02,2.159106050934680304e-02,2.269983153773005163e-02,2.350214031606014109e-02,1.000046668340471949e-02,6.789246075395322100e-02
8.376676133660379553e-02,3.101845855245910499e-02,1.656083350473186791e-02,4.288540701313469511e-03,1.610565711322905005e-02,2.594681483154128582e-02,3.830320288180782268e-02,9.883645976211627437e-02,1.805288119591892324e-02,6.189631680678824716e-02
9.659743054313350841e-02,5.175080657270324236e-02,3.932512318232319476e-02,6.592469430210972856e-03,1.322806105210707316e-02,2.774777840496415321e-02,6.464383557662954638e-02,1.175722726039563071e-01,1.258678965030285077e-02,3.058193980042494403e-02
1.086687250401391358e-01,4.814310762725429460e-02,7.909496974193450103e-02,1.174835246248772877e-02,8.591272675202862863e-03,2.705772149021126033e-02,9.377426203128633175e-02,8.208611391178326222e-02,1.156539695491223818e-02,1.519714676529317077e-03
1.104064716657221362e-01,2.397555547954557595e-02,9.947458060732830565e-02,1.644973519703724421e-02,4.330375926962320293e-03,2.489252538246041618e-02,1.095844104604926095e-01,2.059452823587597237e-02,3.130083294321501369e-02,7.512576635436592210e-04
1.090850127295770050e-01,2.653158749533509123e-03,8.260520401500481835e-02,1.796173744495207711e-02,2.578433810035698007e-03,2.281736109404717064e-02,1.047411657560876758e-01,3.537953113271202071e-02,3.477418189127003817e-02,2.207388417535585678e-02
1.224779392087838176e-01,2.168395221796007993e-02,4.958687962623506418e-02,1.621466855931644191e-02,4.020076626342179542e-03,2.175851893504524362e-02,8.869245695130804907e-02,6.235520460685934491e-02,2.165460861048586552e-02,4.837753284578256291e-02
1.489676092715172262e-01,3.512226199784040936e-02,2.880809642876739490e-02,1.256917223846107899e-02,6.926291717807340695e-03,2.104977785644429264e-02,7.120624305997463876e-02,5.308864056588907115e-02,9.364552229067522925e-05,6.048514814572374804e-02
1.504711347996917914e-01,4.138600942704918212e-02,2.181533421673103115e-02,7.889714992710577732e-03,8.875284934894193956e-03,1.923377750677567055e-02,5.194043305043736375e-02,2.517002867537241131e-02,1.689362367916676100e-02,5.543518595582840047e-02
8.345744865978531324e-02,3.329265529103257737e-02,1.116851802189466891e-02,2.310245648585238735e-03,9.664018964538525353e-03,1.643105921400452377e-02,3.511743617421099473e-02,4.223158413019309151e-03,2.012306151814435493e-02,4.194451642151995202e-02
4.503252617020545717e-02,1.138627509170398074e-02,1.478459764335163587e-02,4.217483614164787772e-03,1.129309419233718269e-02,1.512184512298323825e-02,3.521572211623534565e-02,6.229455400545693897e-03,1.378420807926771310e-02,3.477358008198559031e-02
1.697471530704197096e-01,1.679097782324565774e-02,5.594024902303929014e-02,1.115716727009568622e-02,1.453399623794836108e-02,1.717917710088426655e-02,5.792335827248748514e-02,2.096319360159982353e-02,5.852517631377071941e-03,4.142726094801379294e-02
2.298615840214647266e-01,4.795483531776014580e-02,1.054706328085471823e-01,1.696952399760466926e-02,1.698617753800059013e-02,2.078166547571002123e-02,9.210053729734730965e-02,4.529524962901167878e-02,1.108856506743209538e-03,5.099335452198675706e-02
2.228883422717721774e-01,7.668462424248258247e-02,1.475581828789013228e-01,1.990836780208929055e-02,1.568774497172814933e-02,2.178396578744080242e-02,1.224449512617601932e-01,6.646401857239180033e-02,3.533810166030156713e-03,4.829382628310173453e-02
1.844559738429749907e-01,8.530527097404209946e-02,1.585272826059871687e-01,1.907498769677293954e-02,1.064678672865007961e-02,1.783440447688648331e-02,1.356011445442972529e-01,6.498234568601189698e-02,7.045504978957858530e-03,3.664008211787585234e-02
1.407937271379964828e-01,6.250068647068465766e-02,1.288130114847533814e-01,1.549178731328374262e-02,4.792079335644903668e-03,1.039968265174082661e-02,1.226836661157841984e-01,3.278859829020917827e-02,2.917472186550619864e-02,3.124207530040228747e-02
1.011134941488696787e-01,2.659265312829477493e-02,8.444825676263825742e-02,1.317812899417121486e-02,1.176496114759733582e-03,3.234600773131574621e-03,9.146450717250002860e-02,1.100400585602893250e-02,4.395078857177366766e-02,3.419076483414153211e-02
7.273855472440132752e-02,8.053312712664165499e-03,6.523639929935673432e-02,1.630984820353784462e-02,8.537043109905055344e-04,8.103903189924607266e-04,6.571257961899625022e-02,3.248194081346754414e-02,3.602031528308553832e-02,3.316130180593767490e-02
5.872497639537105352e-02,1.078692356169663052e-02,7.517671923340958628e-02,2.283635236518197914e-02,2.576261298855189556e-03,2.080848205061144006e-03,6.054393300374681652e-02,1.979680803447313869e-02,1.374511065080454009e-02,2.240156402247089201e-02
5.047177931607279427e-02,1.069358477852181723e-02,7.927843149866081740e-02,2.521286639530460547e-02,3.836470999657042285e-03,3.497204625261230663e-03,6.613979683934230469e-02,7.178267393380156902e-03,1.368402817963126818e-03,7.510557364784110207e-03
3.706794865679029216e-02,3.759448842363411966e-03,5.781101732150159545e-02,2.077702530834332761e-02,2.877550244179433170e-03,7.234549860502797330e-03,6.193652322536082055e-02,2.939969408003245341e-02,3.172315428157846187e-03,9.858283886106530836e-03
1.704587894353933042e-02,8.505938330402139022e-03,3.369832430889364849e-02,1.602874172543286915e-02,1.042236960055736720e-04,1.230627630113455447e-02,4.056222582556665013e-02,5.062182134150895740e-02,2.700949379900816766e-02,3.267252775910536172e-02
4.537388344899577486e-03,2.293904193319073331e-02,3.266344780771557321e-02,1.676209146403007111e-02,2.921550149330966618e-03,1.624738706792675652e-02,1.201010492157775222e-02,7.738959276209210481e-02,6.557225646304122579e-02,5.246212548151523575e-02
2.448437376722404843e-02,7.423256169634324941e-02,4.327656775062493216e-02,1.961050895299262450e-02,5.347630455780636241e-03,1.840996532375861749e-02,1.263559815107454659e-02,9.634367573751649594e-02,1.096504806935353488e-01,5.455130871118596403e-02
4.092364644301846321e-02,9.852334362897613440e-02,3.568982877563137840e-02,1.794390409530601319e-02,6.922654410974498664e-03,1.985542368740448108e-02,3.244571637211753068e-02,9.008296504357710122e-02,1.407113683470975762e-01,4.282653328972134410e-02
4.835101106509204910e-02,7.806425575082595603e-02,8.329305265604325381e-03,1.211411347206453777e-02,7.131112193814740513e-03,2.056850241429836884e-02,4.974813507561738624e-02,6.716597614464779598e-02,1.439230090557816755e-01,3.723352917869692663e-02
4.194946854183408125e-02,4.842683030359871965e-02,2.868001037767998161e-03,9.104899605097483903e-03,6.260749835223861776e-03,1.920331340413450327e-02,6.287308634641480820e-02,5.518297908186187845e-02,1.285975670407871752e-01,4.438268437226046415e-02
2.656820646840891975e-02,5.150022747161314002e-02,3.005507677133157848e-02,1.290569334278393251e-02,6.219505877588194995e-03,1.548288925837523582e-02,6.957217296697196240e-02,6.514912820286845874e-02,1.184606529345693521e-01,5.064287734720987477e-02
1.247871030123161654e-02,8.270599050799558316e-02,8.490917727593930153e-02,1.920831030869516939e-02,7.695073993552674352e-03,1.026006792074158659e-02,6.705859875943223636e-02,8.076250954504761437e-02,1.180514499635087061e-01,4.309072758761433447e-02
3.418266944380150135e-03,1.033596024082354542e-01,1.137790336200087821e-01,2.151189435196609531e-02,7.535407656396394746e-03,3.598835633718368461e-03,4.981499221635100894e-02,7.950825505211392419e-02,1.089523611224059441e-01,2.115208100171901695e-02
1.691495505467767793e-03,9.201627175081687759e-02,1.010838318051624496e-01,1.931492791471816836e-02,2.524318883483400808e-03,4.049705455079779214e-03,2.096441295519739165e-02,5.068743701955465142e-02,8.290645360551095189e-02,6.490040929945919621e-03
3.051485021047424268e-04,6.071044228337910131e-02,7.120699585704087786e-02,1.693399092770595665e-02,4.935565356045970749e-03,9.698649090974106879e-03,1.149543379788784021e-05,2.157652303429803339e-03,5.382428024258016641e-02,2.359477703790069381e-02
1.334316775400209987e-02,2.734074946948882034e-02,4.706930376811654937e-02,1.661162295679670733e-02,8.996635428566568740e-03,1.061278733469838385e-02,3.354552503657386858e-03,4.111809511405090101e-02,3.013635628518733511e-02,1.547363925340165119e-02
3.555889646534961951e-02,5.937026732432131200e-03,2.974025315345039597e-02,1.628308975241449588e-02,7.674923780033810275e-03,7.946503832007810464e-03,2.504244266803081972e-02,5.781351953826920076e-02,1.054845903264099369e-03,1.122606846116016091e-02
6.417664058758144885e-02,4.564846787483088641e-02,1.513709250852113795e-02,1.350452593688179770e-02,4.136590866416212098e-03,4.236025245131174941e-03,4.989461493972963818e-02,5.595425225562678656e-02,3.837761632443498910e-02,2.977671752260844032e-02
9.629082706548369730e-02,9.032824416078601149e-02,6.584651324078591612e-03,9.672097322320436993e-03,1.551816285555429262e-03,3.187965172384693829e-04,7.257843989962271813e-02,6.784389172959907899e-02,7.067820094406236653e-02,2.499318150878365036e-02
1.181049724158776126e-01,1.256175560779881628e-01,5.812827064085014650e-03,8.635870489522910406e-03,6.760972226677909591e-05,6.113534662658264528e-03,9.251730629935993322e-02,1.157737764576851902e-01,7.974882895024158758e-02,1.040922077061907751e-02
1.096751303722922483e-01,1.374604102429378139e-01,3.787007668433072134e-03,1.027026909817625039e-02,1.868618725599891211e-03,1.188536868590539530e-02,1.065686950351202311e-01,1.865203187290649933e-01,7.556017423534770738e-02,5.774239076607148163e-03
6.936735539912798620e-02,1.271750590990458341e-01,8.337634798812901260e-03,9.085519816261364290e-03,5.395092881010552475e-03,1.640607963538856864e-02,1.154797087228796593e-01,2.390391825680000804e-01,7.525448871541060014e-02,1.219042571561638685e-02
1.911289321611162398e-02,1.036895835990001430e-01,2.009752424749717409e-02,2.684238482630405508e-03,9.864459251725354871e-03,1.947564794111813699e-02,1.213186016009803886e-01,2.398710932710980681e-01,6.867873141673105919e-02,1.808864598378434607e-02
1.878105165841206792e-02,6.640851369406979010e-02,9.272017027158664659e-03,3.146340203922313571e-03,1.314458721740087085e-02,2.096500588232967296e-02,1.175314611761882205e-01,1.965460972618683910e-01,2.997886204947209157e-02,1.801404728083905865e-02
3.581746692282377492e-02,1.603960598969699988e-02,2.378189061140348337e-02,2.798899527046817305e-03,1.415043532425707198e-02,2.164618788610105093e-02,9.922421064251514544e-02,1.504119919372879088e-01,3.444336376925005716e-02,1.646823010809734741e-02
3.114378685895469873e-02,2.346958206719065854e-02,4.658072790622293929e-02,5.878109519467217790e-04,1.404185569088959966e-02,2.330852459954363409e-02,7.701558542254113848e-02,1.316811651706090991e-01,7.916488628192620836e-02,1.879942882405322840e-02
9.987231184144131427e-03,2.440268946990824250e-02,3.179605356133483746e-02,2.633643417097025069e-04,1.367651438669477415e-02,2.548007898896953102e-02,6.163909478113965834e-02,1.313898694660275979e-01,7.236342557723192404e-02,2.534888168733013397e-02
1.179070625297966649e-02,2.015827720351017101e-03,9.886623697495985214e-03,4.887261005056506812e-03,1.199285480169517276e-02,2.491329116514289649e-02,4.585149152598554795e-02,1.195414009009591327e-01,3.076604192445724084e-02,3.255395460741808411e-02
1.781835916434931777e-02,1.384342102316175188e-02,4.570508445428364541e-02,1.109393377707919119e-02,8.651952005907508070e-03,2.044518115669349129e-02,2.144687910997856994e-02,7.808552823099203233e-02,9.000435698272541557e-03,3.502998300204465676e-02
9.074376059505905728e-03,4.419811323162515029e-03,5.948173116709845609e-02,1.603885387309315555e-02,5.962366098639991334e-03,1.522497307597457834e-02,1.348062333742551522e-03,1.662153485304430564e-02,3.041442040615620346e-02,2.956824262130551897e-02
9.851924216670961739e-04,2.309102673185618737e-02,6.403119467703703716e-02,2.038151185640756785e-02,6.390227474605361148e-03,1.277055464802808078e-02,3.452587913254081750e-03,3.231215226032360666e-02,3.649736863597791842e-02,2.188916906685035510e-02
1.883038293294041687e-03,1.441914254427676886e-02,7.897582220077969950e-02,2.528898445970568717e-02,9.889629518124653032e-03,1.344793706868211043e-02,2.230902057793034132e-02,3.585699020703206341e-02,3.216985367556678133e-02,2.431620227631437620e-02
6.858389307257869646e-03,1.272955522428462563e-02,1.048416389860669096e-01,3.096830045649683408e-02,1.452096898991105459e-02,1.529570199003981237e-02,3.737370672468261906e-02,1.060708471005666897e-02,2.420448040265349085e-02,4.175774262860964398e-02
1.217627735237959349e-02,3.785855747612720812e-02,1.234994850493706386e-01,3.631026794953443049e-02,1.810144801704144726e-02,1.627032993035825922e-02,4.185681878418823221e-02,7.339940549423654148e-02,2.498527682027899127e-02,6.612145072421375669e-02
1.657064532798958184e-02,5.690823736817228473e-02,1.219019446129835926e-01,3.931826240848842330e-02,1.906499656967072798e-02,1.522036013457638871e-02,4.206090314617927373e-02,9.917249159654885349e-02,4.320980400714457409e-02,8.623040954760621823e-02
8.680414599462522168e-03,6.733045852608343651e-02,1.061362111261654889e-01,3.899435453720312417e-02,1.719060936205073567e-02,1.169093274053342561e-02,3.556095775879791754e-02,5.545241113985790310e-02,7.634003808366765509e-02,9.407670470361553794e-02
2.193414392009617603e-02,5.340052069537822022e-02,8.782253371405338016e-02,3.617200214624208265e-02,1.370122731303836071e-02,5.868123788991163464e-03,1.549094990747902634e-02,3.438947930400184511e-02,1.125098496756729849e-01,8.306422259996050494e-02
6.098183548113140368e-02,9.867195142361066124e-03,7.047764662717034834e-02,3.187493276313761725e-02,9.994149314930061978e-03,8.337878540764917176e-04,9.131374395326720406e-03,1.114518324985683956e-01,1.336784504736111823e-01,5.398327385194413158e-02
8.095270982327956721e-02,3.730274124872057229e-02,6.021899328808297952e-02,2.694847633768083367e-02,6.582351198072175155e-03,6.182872160637181355e-03,2.137446968763781138e-02,1.449539325934562917e-01,1.258460648821036199e-01,2.341842373766209184e-02
7.411507815135988386e-02,5.466574741621602063e-02,7.068146755541249160e-02,2.342697183417312423e-02,3.503158631174544194e-03,9.079560151442558555e-03,1.770098516749929463e-02,1.478478910275644875e-01,9.543160274795703391e-02,1.397435585682410553e-02
5.513229965993899501e-02,3.817013585691174382e-02,9.744876758641321524e-02,2.252562633989037624e-02,8.032123437064833931e-04,1.032106808588741272e-02,5.177925912242298950e-03,1.344029683339886538e-01,6.469306774350697120e-02,3.229109875308957406e-02
4.039357952989265643e-02,1.348074096064372576e-02,1.073035321955573690e-01,2.115627312346759006e-02,1.787418544892288011e-03,1.116356438287090594e-02,8.665257440386601312e-03,1.102930258542862141e-01,4.539724539554731986e-02,6.144826470116385858e-02
4.077889501960841462e-02,4.644695996071278310e-03,7.893050324671302409e-02,1.510628151434553930e-02,4.644248336746207434e-03,1.223455991981473034e-02,1.335751459201320844e-02,9.530290787892169158e-02,3.252747241407055734e-02,7.609484134549007739e-02
6.029717022418953909e-02,1.284580855416300217e-02,3.787799582717307073e-02,5.849236279939261721e-03,7.314691207079255554e-03,1.353125711941497236e-02,2.344260668625968748e-03,1.031945267770008612e-01,2.574488093145609058e-02,6.278830209395111495e-02
8.655813781775278937e-02,2.437463238169674390e-02,2.347058151712206470e-02,7.003451418305709462e-04,8.737376655219380311e-03,1.419463608696025676e-02,1.109479805925530152e-02,1.094228286429946850e-01,3.384235613741818499e-02,2.742598937523987521e-02
9.629238100529501077e-02,2.908130097623056604e-02,3.599086941889056285e-02,2.374504782327049868e-03,8.725156473251928502e-03,1.302242801458214708e-02,5.930499332442123843e-03,8.239897013486892352e-02,5.243575615891274411e-02,1.136877854697357360e-02
8.166533604789993905e-02,2.533097304779994424e-02,4.728531780481579072e-02,2.751898179181526839e-03,8.385959839069735688e-03,1.031298476061950388e-02,1.306360820462227831e-02,3.556791206309248277e-02,6.036166643584992691e-02,3.536011431712333258e-02
5.892061999076027984e-02,1.245188241567615935e-02,5.137703877073516306e-02,4.281655838596288427e-03,8.664931496464179511e-03,8.111902925683202661e-03,1.609651778151052065e-02,1.512842041842222228e-02,4.855210673815417433e-02,3.805051497172613761e-02
4.483031001464096721e-02,1.083687745272496859e-02,6.763499039348248865e-02,4.340487243198465350e-03,9.037443738136155535e-03,7.691672832492582774e-03,9.250357760251919428e-03,4.260316387165279800e-02,3.662474564741172861e-02,2.394781967445219067e-02
3.795451759351650689e-02,3.868922500155814320e-02,9.434826721563736862e-02,7.139111849345665915e-04,8.243089660371499122e-03,7.955319985619449530e-03,3.961961527066670125e-02,9.119778522386380593e-02,4.700009153489901476e-02,3.785225130444845598e-04
2.835140848548057396e-02,5.773177283583336844e-02,9.593070339976819683e-02,2.591019779682921485e-03,6.150924148023426304e-03,7.213047533486847789e-03,5.165811412144712123e-02,1.153327930049004302e-01,6.825738853692213393e-02,2.341617823158456332e-02
1.272725192181679149e-02,5.795858861620656333e-02,5.112919664213336213e-02,5.603789366415187333e-04,3.863162143559108891e-03,5.309662324140713985e-03,5.152972018231476853e-02,9.018232059235885278e-02,6.290318665282809696e-02,2.192166710294025239e-02
6.701832816206826533e-03,4.063783539387468002e-02,1.182508547508413430e-02,9.413442105933117476e-03,1.565970399988232935e-03,2.776819109852228691e-03,5.281898441936112854e-02,2.518790168020644885e-02,1.893719404585710031e-02,1.699978617716636775e-02
2.784298804905475239e-02,1.857357438102652525e-02,4.783110701777810309e-02,1.591560905297011164e-02,1.977065148104761600e-03,7.966218332854209860e-04,4.971590816283995989e-02,5.151280426173391463e-02,2.839769356672956768e-02,6.607095044953892327e-02
4.464789265419852327e-02,1.004095636687165824e-02,4.609050449853993592e-02,1.456831415454773460e-02,6.397898794327274916e-03,5.387202797943810642e-03,3.220035173850324672e-02,1.167553853457650309e-01,4.415878705867892079e-02,8.266216608347064232e-02
4.414451618276941242e-02,2.207808257935110763e-02,3.205619774605888289e-02,9.123664855329696038e-03,8.387940885255705525e-03,8.481343947621481846e-03,8.841629143812179334e-03,1.560765737261987918e-01,3.841658106955942592e-02,6.742192942670394151e-02
1.830731491830967991e-02,3.972784714234287029e-02,3.131893373829584826e-02,7.188074725461599673e-03,6.002864628658048478e-03,7.498482539841689470e-03,4.687747220101446538e-03,1.544005417520283308e-01,3.926430221106133600e-02,6.207116690850057045e-02
2.130646348929840506e-02,4.693221938299632634e-02,4.637939629937021246e-02,1.069981540749422554e-02,2.381021018769326897e-03,4.163117957563071403e-03,8.589781221032637831e-03,1.105002238443849316e-01,4.730257368296517800e-02,8.395342105265174437e-02
4.913201339426356146e-02,5.160803735018936605e-02,6.320391756135347594e-02,1.461544489165933838e-02,1.851636597698128007e-03,3.079817679584710005e-03,1.653983651021768281e-02,5.970107816639126652e-02,4.684718444702161422e-02,1.016066335672609622e-01
4.963612502403813576e-02,6.512385846521469290e-02,6.966869999554441140e-02,1.388835265284073424e-02,3.793655317578263544e-03,5.496029685683591001e-03,3.590620307992447441e-02,4.547646737614198520e-02,4.078834841311414910e-02,8.404464191676006002e-02
3.191811833783423508e-02,6.711889081799320145e-02,6.359892864830622716e-02,8.920615081063548030e-03,3.855802106099408526e-03,7.639673839622394651e-03,5.935325524552009097e-02,6.382606692341825927e-02,4.311810339070037967e-02,4.035115707660569262e-02
1.636257056492679621e-02,2.824397568067276224e-02,4.665503945015150866e-02,3.737153531654963546e-03,1.079861842765715606e-04,5.732765165541284583e-03,7.285430869016180921e-02,7.257764975861624723e-02,5.120141886088964284e-02,8.076494294010369904e-04
1.059609379837523312e-02,3.703907309216779992e-02,2.228458381864723004e-02,1.020766147491512701e-03,5.511749396003701000e-03,1.114930755935690000e-05,6.405438026088422498e-02,5.217484037281570897e-02,5.156006398878992120e-02,1.596381780454932120e-02
5.925799514227976864e-03,8.058430803928252895e-02,2.037022438305847224e-03,3.608083947788705151e-04,1.089454795862141757e-02,6.545170091678873155e-03,2.683458431975398878e-02,1.467848884485879746e-02,4.034457222588692937e-02,1.029049942448826555e-02
6.529818917516092350e-03,8.101426728452050530e-02,3.213935844579969558e-03,2.714215762540291834e-04,1.535466834269745215e-02,1.093123851928577694e-02,2.931154065008683210e-02,3.211178020203135641e-02,1.786479107923705581e-02,4.741913822424269689e-03
2.673911525646301482e-02,5.814433514204853104e-02,2.419913995411598732e-03,2.872056471273171964e-03,1.798430601024104958e-02,1.194506187908427400e-02,7.712260368645870723e-02,8.012664847370046250e-02,1.890798086600816927e-02,1.058387317397136221e-02
4.857387526764170987e-02,3.424778414498449303e-02,1.269269040783521825e-02,7.490670751214336016e-03,1.777369723455348230e-02,1.043171979843742977e-02,9.473642425153226687e-02,1.065211357866013286e-01,5.779947228713400165e-02,2.732134905960649160e-03
6.208519297240719381e-02,1.594926545726540676e-02,2.657294263000255230e-02,1.078270727768138211e-02,1.574923020222629769e-02,8.744253936710756278e-03,8.868476593906535199e-02,1.109635951184191477e-01,6.677208671231962822e-02,2.542820804344572000e-02
5.927463259959602632e-02,8.475196185776417632e-03,2.039389707199422419e-02,8.751939502781361929e-03,1.451865238832085805e-02,8.984547229267517143e-03,7.979433406395519679e-02,1.301420961443339186e-01,3.190489520155352643e-02,3.864395586892077628e-02
4.470580234058944835e-02,1.695985913090108932e-02,2.717913217275731014e-03,1.844302748655710046e-03,1.522877003474969355e-02,1.110131161161326784e-02,7.343434983171184816e-02,1.765382628315034508e-01,1.617934357611177515e-02,3.586162010772839248e-02
3.323566619344277967e-02,3.270541995992836543e-02,1.435749182984956407e-02,5.298489061141883200e-03,1.665902769170859651e-02,1.301246485343346589e-02,5.872578289425705450e-02,2.076819024979269512e-01,3.545066717520492516e-02,2.752089177802395648e-02
3.418982712202145446e-02,3.818052384714350211e-02,1.145042009820993086e-02,9.573477683374440744e-03,1.704508623283923496e-02,1.258758125036791610e-02,2.982380298693881188e-02,1.841561092672934219e-01,2.043016272810985537e-02,2.769993423815411693e-02
4.368390318615351930e-02,2.947192450031978911e-02,2.600111059336189870e-02,1.173772609756219137e-02,1.523251554208567525e-02,9.128377881221297341e-03,4.755959318062200417e-03,1.173523287899431167e-01,9.775345375427741366e-04,3.855403836716776722e-02
5.075963551153957198e-02,1.996144366420445765e-02,7.093123813417123724e-02,1.271093285770572186e-02,1.106321794986878625e-02,3.721289845540757656e-03,3.010261021720908245e-02,4.487578880587102942e-02,1.047537427510295167e-02,4.319001941544715895e-02
4.697193591166314020e-02,1.631671192525374625e-02,1.113107164316265579e-01,1.096104725419718047e-02,6.087726940936371255e-03,1.233215506533816589e-03,3.805731069383633952e-02,1.184310118081556736e-02,2.026532005511825704e-02,2.149307586301694301e-02
3.422701227322488826e-02,6.416468547168244566e-03,1.071495511198509165e-01,4.706229977292502274e-03,2.342565152472888060e-03,3.947139841550227624e-03,3.463925950230949125e-02,5.674639610178202481e-02,4.626040298297618564e-02,1.875332110627249069e-02
2.398310901292334540e-02,1.667555138641715895e-02,6.192670073336919295e-02,4.365510820581373214e-03,2.777446429363583571e-04,4.868004647376266737e-03,3.043583615794918928e-02,9.710388853405443887e-02,7.201434405981697873e-02,4.525184044472737449e-02
2.403841751790826431e-02,3.409815709392619021e-02,1.643951622524798817e-02,1.004539914279078093e-02,3.245361646739738579e-03,5.261714170329353721e-03,2.599912571309692666e-02,1.229152093166021448e-01,5.794438081991696438e-02,4.767996880109181407e-02
3.019412613393944456e-02,2.298673493524247199e-02,6.560656915713213369e-03,6.235858237053578529e-03,6.342091947393576137e-03,5.162050716819923356e-03,1.869516467013630084e-02,1.229761158470900062e-01,7.244505030213853163e-03,5.390674693784332228e-02
3.601853142588442441e-02,1.150284027579874697e-02,3.264329905690996347e-02,5.799294320202120871e-03,8.019393051003756434e-03,4.002920329706425445e-03,1.494560144205842392e-02,1.134879571039279500e-01,8.347343004915611098e-02,8.481419739682176384e-02
4.155754291437367687e-02,4.308715283046169603e-02,6.774831314586672593e-02,1.780555222753776867e-02,7.734940840539219868e-03,1.443840556474813982e-03,1.636578936756457464e-02,1.188095302359599148e-01,1.223128332172476879e-01,1.214867980603261122e-01
4.500298341231990379e-02,5.399928490511513024e-02,9.210192981424070169e-02,2.374366661998040043e-02,5.666617518086575905e-03,3.421488712281811097e-03,7.264966327052303080e-03,1.269876583329674069e-01,1.151690254373736039e-01,1.343409564718451854e-01
3.761654881861051930e-02,4.314697905143170115e-02,1.087812538365871551e-01,2.482872919760848243e-02,1.960239526737819933e-03,1.108086693820665644e-02,2.163846421793863897e-02,1.022543281101361556e-01,8.652858133894522630e-02,1.226133026578513918e-01
1.692155686705492865e-02,1.656403957932711321e-02,1.227820360910825970e-01,2.463822887108173265e-02,1.880154475357238581e-03,1.904500003777622949e-02,5.240586779920791000e-02,4.158932091576415802e-02,6.350634423477305446e-02,1.081568388033291028e-01
5.942552962791757161e-03,1.354718728888185987e-02,1.232677216300185619e-01,2.386389688191168854e-02,3.012868892602237059e-03,2.291550145146140777e-02,6.324123102113735073e-02,1.956296434445920635e-02,6.382027433140620432e-02,1.020926143731194641e-01
2.047657087711774251e-02,2.912098144852815623e-02,1.008069575250162414e-01,2.158843599873407418e-02,4.429086769045980157e-04,2.064402034677636361e-02,5.597582040795152925e-02,5.769453977677879708e-02,8.916566887254757934e-02,9.351373586356247214e-02
2.680972939790827320e-02,1.978998855252800393e-02,7.050394768982770621e-02,1.882934482236649221e-02,3.254918389584216757e-03,1.412001197271979536e-02,4.351739056733273936e-02,7.671650807902685720e-02,1.212911912670075615e-01,7.038033977690630327e-02
2.611061099789297596e-02,8.609463742895891863e-03,5.993601803938884698e-02,1.842244831189465692e-02,4.574053417662238795e-03,7.009919964154572025e-03,2.797421795781319595e-02,7.543363648825683609e-02,1.411294768936662281e-01,3.781687854543819283e-02
1.647882038547355057e-02,4.257149473907621134e-02,7.507190091427810852e-02,2.118196105911354307e-02,2.580488887529011361e-03,2.434103539781284735e-03,7.454201908388834348e-03,4.852836945190115020e-02,1.492308646536345818e-01,8.809088573557916080e-03
3.792315482250509587e-03,6.799042972929821016e-02,9.235900514858619292e-02,2.352708444110565220e-02,7.064977854246261030e-04,1.681238932232485481e-03,9.580222091283844416e-03,2.262443041494906909e-02,1.538063620757105232e-01,1.176611514268404227e-02
3.876861972737098878e-04,7.181898482759288549e-02,8.770755352395993854e-02,2.084348601505114570e-02,2.521341646686032709e-03,3.375609087507443901e-03,1.157509227481822063e-02,3.984655660192421706e-02,1.506161037956067483e-01,2.468635492313709170e-02
2.520320499508542974e-03,5.407443177539231205e-02,6.217023345624730218e-02,1.330994264759588486e-02,1.400933940008461517e-03,4.329416259825774604e-03,8.172733605588738612e-04,9.555103627415142964e-02,1.323990916071780544e-01,2.942003957127121289e-02
2.000341190156076313e-03,3.537783388702717136e-02,3.502103744120804718e-02,6.064650023468111557e-03,2.137604379935066461e-03,2.379114069092576160e-03,1.425972105765713031e-02,1.347643376939875737e-01,1.076912614784945460e-01,2.890632515940077737e-02
1.868650970948408999e-02,3.457931935950894070e-02,2.025322385949371654e-02,2.597615935854877701e-03,6.065661069745279833e-03,1.921913582354796901e-03,1.419538708032583654e-02,1.189389049416915700e-01,9.097642798537033948e-02,3.011064868013372739e-02
3.693412520779958824e-02,4.292743031425233502e-02,1.513356299594436662e-02,7.067214606879747459e-04,8.347363358316449433e-03,6.704016373491125322e-03,3.361871741399259043e-03,6.225723964927768611e-02,8.027794346190363084e-02,3.271632109530587390e-02
5.208843629372378325e-02,3.649272464010398093e-02,7.794078150902600602e-03,3.307650928413017125e-03,8.666509684723830778e-03,1.072340528502205639e-02,2.578693315452063040e-02,3.129478670895573245e-03,6.154801270814021230e-02,2.892826131884819463e-02
7.181863030649202062e-02,7.526483172884595139e-03,9.189137725732942491e-03,9.308751720615871320e-03,8.339051602478940103e-03,1.316882275616026304e-02,3.161174126102087728e-02,6.529998165975686719e-02,3.007701477819246447e-02,1.882133666577524497e-02
9.385243420941029313e-02,3.096042238510537600e-02,3.365883563761396663e-02,1.432254399420822104e-02,8.271238203201801073e-03,1.279270197285601283e-02,1.098442219294816155e-02,1.222034805457520856e-01,7.025082951495733100e-03,1.280892037474501768e-02
1.001103581207147403e-01,6.377906740062808111e-02,5.879914606003507072e-02,1.668747974350540120e-02,7.999430306413958525e-03,9.098494391731130546e-03,2.225306322091010966e-02,1.574581687306374489e-01,4.323836558716042527e-02,1.600252936571380444e-02
8.638228625925914450e-02,8.419718820892818645e-02,7.916268682636512510e-02,1.718912196395988579e-02,7.176421495001704225e-03,4.297496301658538034e-03,4.156075316796980362e-02,1.544208963228671794e-01,7.384620082305566602e-02,2.342571907589453481e-02
7.500580474113627272e-02,9.276505036812274230e-02,9.226470123120873723e-02,1.716950354361589798e-02,6.550087114373590903e-03,2.021241836737875611e-03,3.167549192183609363e-02,1.259588325280291687e-01,9.098660693347790374e-02,3.200596556646200658e-02
7.848409085645534355e-02,9.291874959875517925e-02,9.776220985858287416e-02,1.716597718632357703e-02,6.680600072708871989e-03,3.426425787722785742e-03,5.444463271272182749e-03,9.636731587244345976e-02,9.117663957169930278e-02,4.451750549357013503e-02
7.021251084875360093e-02,8.237780768263712472e-02,9.595554969830469294e-02,1.729155212883917020e-02,7.133270377292984764e-03,6.367683959440204218e-03,5.626577942170720575e-03,5.720017503167224016e-02,8.470272341294361740e-02,6.144662032240554711e-02
1.387285169502523556e-02,5.162796739207894253e-02,8.697397906887882613e-02,1.759723044725702151e-02,7.457356305464911232e-03,8.558448403477388403e-03,1.438044352215208689e-02,1.626641718524699659e-02,8.580637901819705704e-02,7.771797681820570569e-02
9.066628263324859327e-02,2.018473715210542929e-03,7.333827158535034807e-02,1.740951545317309668e-02,7.348956359638014919e-03,9.196246883266289904e-03,4.748210565518152376e-02,1.072761129330685181e-01,9.424663683208997500e-02,8.442231370250835587e-02
2.054714255524891231e-01,4.244668960095609317e-02,6.148477125197109039e-02,1.543421281559659124e-02,6.021008081915623159e-03,7.912851797118872904e-03,6.647608556349157705e-02,1.649828622751781659e-01,9.666173760895822864e-02,7.160675247217904160e-02
2.855561752089618155e-01,5.715816655146300357e-02,5.623076140612635193e-02,1.179506826555203926e-02,3.532371703722675046e-03,5.202034633488178059e-03,6.364056822792128754e-02,1.666833105605637355e-01,8.732105259295148969e-02,3.934159494328216128e-02
3.041437058018005013e-01,4.264929441331699600e-02,5.677437571073386258e-02,9.131392833212856677e-03,2.029168979409085548e-03,3.325188660012873536e-03,4.435234738146723310e-02,1.287122893794097889e-01,7.762370537628107692e-02,5.691520033874021903e-03
2.639535954157564701e-01,1.495666398351958373e-02,6.241504070698258161e-02,9.916361343055842686e-03,3.137032823006032783e-03,3.859425256832354524e-03,1.239659894790454478e-02,6.777563786846613203e-02,7.999863836937465278e-02,8.389676834870681693e-03
1.940951968676420392e-01,1.714159903221750339e-02,7.509511825186908351e-02,1.311836531837863584e-02,5.077846201956203072e-03,5.271903928267479035e-03,2.374830161367743123e-02,5.127152202063142532e-03,8.986618764783256552e-02,1.201298727976207043e-04
1.272826891245371350e-01,4.957013126399240771e-02,9.035390730154034544e-02,1.538628878935015959e-02,4.976736590601506770e-03,5.371344876154938650e-03,4.840761595408685919e-02,6.764927485058180867e-02,9.169965581913711028e-02,1.876647779510597080e-02
7.419494963191725079e-02,6.874121489211983127e-02,9.516271515524978020e-02,1.522374540771285166e-02,2.944591448326663429e-03,4.713813110204048869e-03,5.656374744688762168e-02,1.013389935124896224e-01,7.952491019158518248e-02,3.506381479276311774e-02
2.609325867394292689e-02,5.831270591446707091e-02,8.275989093963069532e-02,1.375185277250767606e-02,1.207868139654730451e-03,5.095836809027717504e-03,5.868908677837335330e-02,1.096703651302077254e-01,6.226011939254722655e-02,4.263674086853321693e-02
1.677039502177528341e-02,1.887404105327086107e-02,6.146141697374160606e-02,1.139607366293457665e-02,7.296393910482471944e-05,5.786522347495858150e-03,5.868372491344363284e-02,9.830666705030993713e-02,4.924447506563566640e-02,4.143299948443950054e-02
3.573145564657739109e-02,2.939837183274280480e-02,4.235684884345945062e-02,6.891214809916372357e-03,2.274354239400150877e-03,4.020646783632361373e-03,4.609320821083151554e-02,6.385089678100847044e-02,4.050087394831760473e-02,3.746386506373131087e-02
2.221195072526120987e-02,6.311132827864546213e-02,2.740452229625821995e-02,6.554584974911743800e-04,5.802461878239094373e-03,4.021034602315807192e-04,1.988407358958312748e-02,2.001830729754448812e-02,3.318536359393171875e-02,3.597384425500167737e-02
4.541768540135970519e-03,7.037125665737026248e-02,1.518557187381671184e-02,3.962462329167564662e-03,7.486100285422483264e-03,3.660187050709601958e-03,6.405236845194686073e-04,1.090472786949948448e-03,2.794558093764216988e-02,3.439677819645216295e-02
2.444062335479724180e-02,5.481476553359417719e-02,8.327590086097479138e-03,4.726212963863166833e-03,5.775003233750077361e-03,3.044760912494364011e-03,1.009919034065467208e-03,2.229790130656437649e-02,2.598840042276656312e-02,2.784741801865506586e-02
3.979606847917738222e-02,3.069237950033695123e-02,9.272386864589239261e-03,3.307789761356798568e-03,3.589306347858888403e-03,1.186899708958905411e-03,8.986408729858685190e-03,6.511727717211526767e-02,2.722338140666429734e-02,1.897847151040137417e-02
5.497200164380608434e-02,9.592651805042635635e-03,1.545590882885248055e-02,2.276804688653503474e-03,4.093008257404071558e-03,2.155207050282168316e-03,1.167880794781347639e-02,1.057086598699249758e-01,3.158870863445653598e-02,1.565854121553938300e-02
5.726071720376163521e-02,9.302477237795776094e-03,2.114766287353303520e-02,1.697713708593170685e-03,5.975025959702133863e-03,5.533961959206940007e-03,3.632955022337229934e-03,1.300269148119128360e-01,3.555338580767297002e-02,1.951533201380209817e-02
3.560754093413874555e-02,2.919076485694657719e-02,2.034211186791909723e-02,4.929852313765188936e-04,6.350246044449748065e-03,7.549207171535443454e-03,6.224344630848682898e-03,1.295366989466563146e-01,3.068295891757395061e-02,2.232507497047931874e-02
1.875343536240684037e-03,4.006135420205236830e-02,9.679166344639941050e-03,1.133233778095998207e-03,5.509899962402667502e-03,6.182271662539866319e-03,8.781398561983552731e-03,1.122230419540886370e-01,1.406372238651058121e-02,1.673609018717044095e-02
4.069633012986013931e-02,2.791068654238238952e-02,8.768566368169430914e-03,2.421862198239159783e-03,5.037816311259684342e-03,2.775382109757650300e-03,4.569971759632801903e-04,1.033879467979152561e-01,4.230690277420613016e-03,7.069223285945913128e-03
7.399286876574158456e-02,1.663787344956916235e-03,2.891023947102238159e-02,3.296660017504032814e-03,4.273362091126358363e-03,4.845021957839226474e-05,1.444279819674658752e-02,1.108492627132988684e-01,1.216190515595444444e-02,3.851124672119006324e-03
9.974990404085358475e-02,2.527119998443313684e-02,4.372876569189286522e-02,3.729598520103428842e-03,2.182659802990827031e-03,1.060801734061461461e-03,2.699198736832938983e-02,1.122742481107457807e-01,9.049697099310990631e-03,1.053864745358271994e-02
1.180413122939008713e-01,2.787406723694021982e-02,4.709061168897703265e-02,3.461043333372894413e-03,4.302858896238091535e-07,1.641424516044338606e-03,3.351048067690149540e-02,9.159053856291618501e-02,1.819664867798023028e-03,2.209216569117499959e-02
1.312846052317767631e-01,1.447270830394473129e-02,3.807892274935953392e-02,2.738889333708470139e-03,6.689089959572419846e-04,3.449504222864411326e-03,3.458915477522245263e-02,5.132366356862578388e-02,5.221999754420150221e-03,3.207198745639230908e-02
1.381620969513505104e-01,1.771346659651145804e-03,2.425981085840211993e-02,2.145565641301555148e-03,2.244144985422631190e-04,4.875615429746764026e-03,2.323663855094466532e-02,1.850095945332878855e-02,1.126351971346284744e-02,3.472719852595650830e-02
1.323396638933898861e-01,1.097925442119221211e-02,1.510791107927734675e-02,1.805528655246517022e-03,6.505949702403088838e-05,2.745934848677380764e-03,9.108681128468239935e-03,1.330446022874336720e-01,1.544726841338912859e-02,2.623632026611863802e-02
1.161858390349077286e-01,9.576466122320664506e-03,1.198675703253048591e-02,1.476012475784052201e-03,6.145585100164195798e-05,2.042895481460675448e-03,5.092792666239180643e-02,2.622081751207095413e-01,1.716367904728734531e-02,9.277862692104585016e-03
1.090632185163118717e-01,2.757590888355180951e-03,8.698874637195172163e-03,1.082538385624732310e-03,1.545157962898533713e-04,4.474403703311939998e-03,7.396976230425789112e-02,3.349904639023792985e-01,1.710941843551093064e-02,8.734969866735543126e-03
1.276356195489954104e-01,1.697197111601516121e-03,9.229232488238070173e-04,7.312373256857747144e-04,9.164045851862317234e-05,2.032675445651653014e-03,6.422081565971408945e-02,3.116707220259826161e-01,1.623000930864826677e-02,2.328247912152400095e-02
1.564800590096154242e-01,1.123011185348007576e-02,8.731797785880675983e-03,4.536794296266948067e-04,7.173141950533954564e-05,2.248732832654541484e-03,3.443203543620734774e-02,2.222281554205179921e-01,1.518469746437737210e-02,3.412157748390164808e-02
1.541213809743555430e-01,2.400862449380553043e-02,1.481371334323076765e-02,1.956229432924965817e-04,1.493766171092406080e-04,4.532416135463348053e-03,3.049579695590796079e-03,1.224502676593185596e-01,1.486920301378568190e-02,4.112039560181333930e-02
9.999978971055462074e-02,3.261336709084180357e-02,1.551304736868707942e-02,6.345428714732876145e-05,2.275242339035203577e-04,4.659195602216957381e-03,2.384973719385981641e-02,3.743805559940930477e-02,1.620890088206310489e-02,4.302652386014514663e-02
2.157911843103841459e-02,4.041932354096137298e-02,1.400935237148879381e-02,3.033936860478240734e-04,2.743997367625186558e-04,4.278075028219746091e-03,4.515079608878832390e-02,3.159893646511256760e-02,1.946639040023160142e-02,3.897850503356269786e-02
4.192587838495267366e-02,4.986845506136778489e-02,1.319365056436961475e-02,5.191261377978892725e-04,3.298401131996422323e-04,3.369889161243604450e-03,5.371215910895695694e-02,6.585230783429572854e-02,2.318493059697161393e-02,3.062999804714183413e-02
8.398006773132243863e-02,4.713239298589682463e-02,1.021753959163786141e-02,7.245127993006863663e-04,4.039862014127746466e-04,1.161512295457678900e-03,4.429185273629500375e-02,3.962716091606464236e-02,2.261482817382184929e-02,2.401260398794385909e-02
1.134506771496988642e-01,1.679914119979123918e-02,7.018776475988078604e-05,9.261815582752830865e-04,4.732004532884085540e-04,1.178503943062533680e-03,2.665968390931795426e-02,2.496774247225645033e-02,1.163893050062105375e-02,2.568623501682826271e-02
1.167091466945735512e-01,3.015414984638184817e-02,1.582014576593694655e-02,1.121322827105072700e-03,5.275717208674426777e-04,1.471741962607420141e-03,1.771687893430604760e-02,6.411601952664734705e-02,9.718885068779416214e-03,3.452753813322075732e-02
7.655458934183768938e-02,6.390981580819661556e-02,2.781881826852765360e-02,1.309840580453422139e-03,5.735214253404403995e-04,4.429268061594958286e-04,2.009532900519681378e-02,4.732583001842185361e-02,3.160200207940556255e-02,4.207649231425002884e-02
1.449899994900433024e-02,7.191254586295116324e-02,3.010897354244245622e-02,1.495474570524615941e-03,6.116967828214671605e-04,2.620602094741871987e-03,2.133087577924335301e-02,2.655672688912597088e-03,4.277240214492140924e-02,4.247180460312433015e-02
2.662779528632273560e-02,6.667813787906136380e-02,2.525454062636639865e-02,1.680081992590167547e-03,6.355739474614496365e-04,3.453624757144911194e-03,1.586478538351095841e-02,3.840082903692310784e-02,4.115627903437005242e-02,3.646506663242843338e-02
3.707410210859370808e-02,5.863794170627813218e-02,1.784488377367399875e-02,1.863016786306782163e-03,6.418720450906392674e-04,2.790133990925053580e-03,1.256649532353477060e-02,7.245236647630125260e-02,3.282440856173841209e-02,2.636935908232038508e-02
4.148051531343262960e-02,4.480439521833703975e-02,9.356933907327844371e-03,2.043791893954958333e-03,6.313983846669268124e-04,1.479580752097916802e-03,1.748072099525922740e-02,9.695120593905566519e-02,2.403107429615554055e-02,1.440862199512906935e-02
4.866253769871636131e-02,2.588467404325854246e-02,1.184462510326154006e-03,2.222412465340998806e-03,6.042290511680669263e-04,8.884518707913868687e-04,2.480632492624793017e-02,9.952080559711784513e-02,1.758861763927758309e-02,5.392537174917803530e-03
3.828365636305878367e-02,1.251122659427308936e-02,3.613169093237238953e-03,2.398160906160459911e-03,5.592824792612126686e-04,1.665666471166669157e-03,2.789415767173389002e-02,8.169829549354477860e-02,1.356178977306538719e-02,4.130446233476301951e-03
2.061434154591704031e-03,9.555214271707556870e-03,4.456563354152594594e-03,2.569470440301580266e-03,4.965801374600669216e-04,2.375778471426062948e-03,2.612524836366356129e-02,5.991714263925160266e-02,1.046027586087433688e-02,9.835023822159932178e-03
3.821765403719309950e-02,9.275751661096849621e-03,4.793749199071211699e-03,2.734552663773024729e-03,4.174638844904922114e-04,1.106437692901507917e-03,2.077673898378365469e-02,4.400440760402102303e-02,7.324016176484369686e-03,1.679439662316003015e-02
6.108072690366716379e-02,3.469751974036850827e-03,7.166603672192038699e-03,2.891538919622354317e-03,3.235112803447295947e-04,1.302547642419353210e-03,1.475878732380938620e-02,3.877880990703319597e-02,5.214062713410937307e-03,1.999722245477338414e-02
6.287963840528758286e-02,7.642652958655842856e-03,9.938324847195593309e-03,3.038275156753737164e-03,2.163736952312462266e-04,2.045576857934915723e-03,1.381143317980842479e-02,5.304040740868551373e-02,5.409770252682822092e-03,1.823254985600633593e-02
4.391088232072203751e-02,1.993627130739268616e-02,1.052440914726395643e-02,3.172350551864994671e-03,9.821851321240185697e-05,5.703004285728737344e-04,1.889427977755786525e-02,7.889854268222459832e-02,7.135569458758558511e-03,1.318878538158324912e-02
7.528748218762048444e-03,3.086141269315959695e-02,9.035299608470988980e-03,3.291299195305465511e-03,2.826861188191783566e-05,8.387384439989991388e-04,2.178072012542116645e-02,8.010578550609535886e-02,8.670458295467097648e-03,7.331535860200364199e-03
2.723126535227178568e-02,3.878240422036478841e-02,7.239409692612134781e-03,3.392699789898770413e-03,1.601829761951922056e-04,8.150190038422658583e-04,1.597139167577591237e-02,3.343309315008814037e-02,9.605916527519350184e-03,2.171281997553743334e-03
3.879745248206638991e-02,4.204122146267507548e-02,5.945332971443692202e-03,3.474195687519511175e-03,2.945086433958621071e-04,1.924560915600138044e-04,5.794824151657859516e-03,3.616483277283015496e-02,1.051692227373801809e-02,2.014542203704520508e-03
3.064204964225022282e-02,4.076577559485665414e-02,4.658334830304638498e-03,3.533561515403585429e-03,4.280910982584065294e-04,4.009098540366359191e-04,2.326796702553424190e-03,8.965681725395023560e-02,1.135736303656008361e-02,5.077105544346554103e-03
2.699085652944197000e-02,3.735862184436814643e-02,2.714891859878943315e-03,3.568804660771829253e-03,5.577034349495325503e-04,1.237256743656484212e-03,9.030793449724645178e-03,1.169377345341636038e-01,1.172014296415079329e-02,6.855727075831383535e-03
3.837431403931142876e-02,3.416040956022776964e-02,1.702754744723009722e-06,3.578239593101383963e-03,6.801796347598876042e-04,1.965410547307498267e-03,1.511031265488469930e-02,1.215201927311611446e-01,1.208270811764974514e-02,8.310647058718962851e-03
4.669617682869663111e-02,3.170835734491125879e-02,2.696435165258365216e-03,3.560537126587933181e-03,7.925045589713859695e-04,1.886858092939952330e-03,1.542380052519852843e-02,9.864482627157325489e-02,1.295547640943657715e-02,1.099703056932808780e-02
3.192141568368964816e-02,2.930510292530920727e-02,3.854439506696411694e-03,3.514775248432875764e-03,8.918687427626804422e-04,1.392024395398506207e-03,7.297984522856583098e-03,5.522620696606329871e-02,1.311423047781310608e-02,1.478592811364422624e-02
8.087193215558707501e-04,2.628698850345682209e-02,3.462050686954707898e-03,3.440488664757313658e-03,9.757369107686088023e-04,1.369174489689568754e-03,3.151034779238520538e-03,1.882744358226728226e-02,1.155610915847871990e-02,1.738586723853921892e-02
2.305214916352400431e-02,2.282443509451440034e-02,5.081249428276392137e-03,3.337702679391770823e-03,1.041924323199412174e-03,1.805233278373479704e-03,7.677451805947026198e-03,5.068958876459937757e-03,1.144831845857156513e-02,1.656674913801873747e-02
2.571019251184323770e-02,1.986201869773375137e-02,1.224465614167844982e-02,3.206951034576382975e-03,1.088655495028215689e-03,2.123955418788278648e-03,3.059735298613298644e-03,6.454811440840873757e-05,1.759907021617210243e-02,1.206324826029775768e-02
4.976975146732683097e-03,1.794911772542633413e-02,2.194297123537349015e-02,3.049283308511452784e-03,1.114605541517967469e-03,2.200275777553124118e-03,8.191933104704975793e-03,1.555586563429833639e-02,2.838471309808893173e-02,5.245898034773700119e-03
3.627684458116731125e-02,1.644312194286786516e-02,2.628903378783008227e-02,2.866261398141105310e-03,1.118934217108631234e-03,2.277936222102433170e-03,1.948145054517411850e-02,4.202412475089564031e-02,3.527769698583662489e-02,1.951751920343206209e-03
7.726951776112686576e-02,1.450134896698563811e-02,2.216402947006687260e-02,2.659942190050180663e-03,1.101311178177432661e-03,2.419051181145123394e-03,2.497356635514744877e-02,6.433104649222164129e-02,3.269441776981161368e-02,7.268994905229844185e-03
8.026636315997243143e-02,1.226255160850570937e-02,1.474101481490203147e-02,2.432846784592118065e-03,1.061926681884910227e-03,2.508627827013116228e-03,2.509934646629150348e-02,6.429747899772413067e-02,2.378602024586750491e-02,8.483125061757069291e-03
3.437191296591311784e-02,1.038394341727008618e-02,1.020347497368425532e-02,2.187918263413677223e-03,1.001487725396296106e-03,2.514265730489140867e-03,2.348679016342691828e-02,3.717840088980083751e-02,1.500975356613824113e-02,4.917683224110402061e-03
1.859607690223588974e-02,8.971739281538564439e-03,9.263075073801982709e-03,1.928468919664071265e-03,9.212021795290696504e-04,2.488630929362367801e-03,1.938123060071538645e-02,3.803197841527302184e-03,9.373245638871189125e-03,1.446784799868472242e-03
3.380197016347235434e-02,7.582121873445552690e-03,9.498425986894107678e-03,1.658117509666982847e-03,8.227512496658365452e-04,2.447907291817116079e-03,9.311576970773763687e-03,6.002136928499012848e-03,6.300674196923221684e-03,7.123651625982942506e-03
2.452707890438448821e-02,6.075539529091497637e-03,1.040512271438607909e-02,1.380717961922241568e-03,7.082498269567896005e-04,2.369092246480072623e-03,4.729638760450638642e-03,1.252725618259126553e-02,4.544732250297877155e-03,9.791222723950349788e-03
3.982554866000040383e-02,4.756688242264048468e-03,1.298183966167257633e-02,1.100281496054057034e-03,5.801957551625488508e-04,2.246849796096706767e-03,1.546145644363420071e-02,3.531752166911485830e-02,3.427633510146177280e-03,9.867530933127192927e-03
9.206661804388552306e-02,3.230830575825454666e-03,1.593496970526516593e-02,8.208939859275325972e-04,4.414098183275199250e-04,2.095422352743122902e-03,1.849321158390602321e-02,3.913899326153048169e-02,2.561519379805215005e-03,9.194771804118723885e-03
1.441911883220902135e-01,4.577859445419531648e-04,1.593674892485653222e-02,5.466303852651084334e-04,2.949679408322278089e-04,1.921956316872800840e-03,1.496575768120832380e-02,1.932304809978043283e-02,1.487265552257472159e-03,8.274562682370390290e-03
1.644984038241260049e-01,2.349746082849284504e-03,1.217661326768311805e-02,2.814682525516222977e-04,1.441270351945392022e-04,1.725180858322825994e-03,7.266158491242043563e-03,1.624800409210426164e-02,1.421847281476724262e-05,5.881791929702367971e-03
1.574407738202598384e-01,1.444295560491822179e-03,7.981489957634910204e-03,2.920251670245239961e-05,7.753664353519928889e-06,1.507761394802075187e-03,2.329252013081878001e-03,5.306211021629997360e-02,1.242244986112718379e-03,1.652301674028193185e-03
1.398262432606839356e-01,2.550286396549804845e-03,6.438495664720191025e-03,2.066364527961912258e-04,1.572937192868033502e-04,1.276931100337747906e-03,1.037865043442454636e-02,7.602389156243580248e-02,1.453076362571776182e-03,2.590390868037508766e-03
1.172048328288414210e-01,6.015961159932665643e-04,6.313162092408884998e-03,4.228595065983261530e-04,3.011730509354077043e-04,1.038562009563386793e-03,1.542091313608733721e-02,8.334227032231637800e-02,1.941705315810989072e-03,4.601462557994088175e-03
8.909055140977606424e-02,1.455667874225833811e-02,4.829114904150340337e-03,6.166882277935666718e-04,4.362119965426755706e-04,7.966344980429631564e-04,2.132657829699024371e-02,8.906076372805052377e-02,4.466810218868917659e-03,3.366353600719581597e-03
6.171555661879806615e-02,3.628104296196665857e-02,3.301095413104752647e-03,7.858155608561480203e-04,5.594478900574796762e-04,5.558384178147622937e-04,3.214035899429155962e-02,1.039925312475254715e-01,6.142495346510346878e-03,8.081257875580128694e-04
4.990630614135094234e-02,5.008771824173495479e-02,5.717745710078521795e-03,9.284560386206351483e-04,6.682062626573143744e-04,3.216827193884617790e-04,4.359415283414437570e-02,1.181508781038725364e-01,7.094401043009905712e-04,6.234161397557177499e-03
6.380531723187439497e-02,5.032203098646712697e-02,1.118282002813536860e-02,1.043384337338447605e-03,7.601649186113787178e-04,9.911045689016591016e-05,4.521776762954048817e-02,1.083195569484465132e-01,1.184307644495567399e-02,1.034949041943641727e-02
9.287677572377250890e-02,4.360913686714382870e-02,1.309360142648748580e-02,1.129961157095759000e-03,8.334093336967114468e-04,1.077314677337535458e-04,3.378852131537311843e-02,6.634781198845982053e-02,2.255713140502971226e-02,1.139945482530115191e-02
