1.289560181755294334e-02,4.711136575672757870e-02,7.758311894646847950e-02,1.926271662823325626e-02,3.265575499528168123e-03,1.103307428699447671e-03,3.535270884427570148e-02,3.443104681137788749e-03,6.362987278219787123e-03,2.672609399561698754e-02
2.463838805146123696e-04,4.448194824095110661e-02,6.431857444328850648e-02,1.456596207684331991e-02,2.759802677613150488e-03,1.415636854000069510e-03,5.062018851005962994e-02,4.789013299239262660e-03,6.289854342543749546e-03,1.225283128790801215e-02
9.872433323358090207e-03,4.045632199113527450e-02,5.116483498564713267e-02,1.101757267378037503e-02,9.982427783831178229e-04,6.347366703586639807e-04,5.415768547970378072e-02,2.632875179995504845e-03,5.037403501114716756e-03,4.939879618453867430e-03
1.567929342031489093e-02,3.531432208915682297e-02,3.528522978987276570e-02,7.836290531596547260e-03,2.158191184124641753e-04,2.376996536482216379e-04,4.961606989422755187e-02,2.038211516101838625e-03,4.420123536001220599e-03,2.496181331026155886e-02
2.376994604995271571e-02,2.087501427688042213e-02,1.520410706733143179e-04,1.881886999095676782e-03,2.001327053177258397e-03,2.402150814961494588e-03,4.923538678875123697e-02,5.285713099417997315e-03,2.113189654620932240e-03,3.837480755167572977e-02
3.514927442410139408e-02,6.934371929018369116e-03,5.509768927229448388e-02,1.982398376789651015e-02,8.242292214870057532e-03,9.815514279513380333e-03,5.555546598792669016e-02,5.984679625505353803e-03,4.893639105799599091e-03,3.840627103285551569e-02
3.842359845787084172e-02,3.459003418621688086e-02,1.019456920321517024e-01,3.610391586327679758e-02,1.480658493014831711e-02,1.740750730474273020e-02,5.948322394049434386e-02,5.319444733527124020e-03,1.468526329757144540e-02,3.166947005154256006e-02
2.721361225773553591e-02,4.373077356350737327e-02,1.131543635841765205e-01,3.937126363686827696e-02,1.683581930452724210e-02,1.948719456760169416e-02,5.405364902131133686e-02,3.719116817776807384e-03,2.098162213326019987e-02,2.613528825879987694e-02
1.521884795677873325e-02,3.620235310337742429e-02,9.520039254132922624e-02,2.952753727106214449e-02,1.349482831377047526e-02,1.603650137383240068e-02,4.190554491775590196e-02,2.567459386387132593e-03,1.982058537093253289e-02,2.049947133073487526e-02
1.780875911722223232e-02,3.417579850361990301e-02,8.003408555025041948e-02,1.786806322810157582e-02,8.835993437307346904e-03,1.172369120031003034e-02,3.093432241475129602e-02,5.144003688005435899e-03,1.430008749529647696e-02,1.457003847060714917e-02
2.996660417806710705e-02,5.349447620331467673e-02,9.217949258513599697e-02,1.653904672974007908e-02,7.661127668144837415e-03,9.747880574274987373e-03,2.717846560611709983e-02,1.144830402051456517e-02,1.168257687161298498e-02,1.585477847646145702e-02
3.959020705265506312e-02,8.588931725207823997e-02,1.263583796884212296e-01,2.715304239237328887e-02,1.110931384724418887e-02,9.570096342377249973e-03,3.038720812056442191e-02,1.582355576123922053e-02,1.571563873161429051e-02,2.580425936685599997e-02
5.050287401621991051e-02,1.112282988612500190e-01,1.530038369262637921e-01,3.889777072803726754e-02,1.593850711100461628e-02,9.595378209047510099e-03,3.486158674558793164e-02,1.385564651998004437e-02,2.251668371318438222e-02,3.195862696164728650e-02
7.397839336438072344e-02,1.202375616952840731e-01,1.493827717048674952e-01,4.053493305532155505e-02,1.807608119798028226e-02,9.317592372753476931e-03,3.625577627020128840e-02,8.430687809708549418e-03,2.456428796964271397e-02,2.394180782444794292e-02
1.056139900162926804e-01,1.189842049273916874e-01,1.250509786895322162e-01,3.315337814501619074e-02,1.693381326767300424e-02,8.734501132640187446e-03,3.647925835016851970e-02,5.633218164824380439e-03,1.823194922974207682e-02,8.197131198813246977e-03
1.261000105084842116e-01,1.159571012391349687e-01,1.074331383473080131e-01,2.621671942655836446e-02,1.525255028131044729e-02,7.449861294415873088e-03,3.879060604570209320e-02,7.764991640114579131e-03,7.050140184980863839e-03,1.554089145971225159e-03
1.223450743493440379e-01,1.133645119960858538e-01,1.074548220641382418e-01,2.438911621313204214e-02,1.503281865486814570e-02,5.406257070879562018e-03,4.066406187260272059e-02,1.308464522380330813e-02,1.956768215605756561e-03,2.254843343206074102e-04
9.913868766696548596e-02,1.098558100687290068e-01,1.135917998440872934e-01,2.566095236065128737e-02,1.582596454607099537e-02,3.892042141141249800e-03,3.700330644337377489e-02,1.915553207414039116e-02,5.058363761934085885e-03,9.256030961932785323e-03
7.046672346699001110e-02,1.035043432282668763e-01,1.122561359115646085e-01,2.766537727490997120e-02,1.657719213815056492e-02,4.238353844166792284e-03,2.846533365338640639e-02,2.399836832200807901e-02,4.821731739455614035e-03,2.243929259109320173e-02
4.471657371234015466e-02,9.133922055558445219e-02,9.880310956742893724e-02,2.750265576547380325e-02,1.647651308116965252e-02,5.416165443963145455e-03,2.014221603107798145e-02,2.633261686616407415e-02,5.503604162458349339e-03,3.145016398319060852e-02
2.212247304370968878e-02,7.292579141834867884e-02,7.652455007726639835e-02,2.173328710617541959e-02,1.477659599394750764e-02,5.054079962337624035e-03,1.359770435265470270e-02,2.591443233818272254e-02,6.409619371565515415e-03,2.845091455671143812e-02
5.250789710169932040e-03,5.506090950165595799e-02,5.569005692392233614e-02,1.378085424531750799e-02,1.211349899232334881e-02,3.283235542776380064e-03,7.766109181764223671e-03,2.257970757725442576e-02,2.665571409130389983e-03,2.065553956789526954e-02
3.917037603782750309e-03,4.640393970460064688e-02,4.464482911918251501e-02,1.263346160583683590e-02,1.058550173917773528e-02,2.857840078402030040e-03,5.725032239775759701e-03,1.637348825823020312e-02,7.286539587276657723e-03,2.858020071326592207e-02
2.389003426972867439e-02,4.685915511014343560e-02,3.808234270920549114e-02,1.887975950167671696e-02,1.072319291565985988e-02,4.685318943132899851e-03,1.022994558074078603e-02,9.773142346344946066e-03,1.808235826680371083e-02,5.717896199477039143e-02
5.543634155156421106e-02,4.776026357291488639e-02,2.509507404436958633e-02,2.239502605679409911e-02,1.019525231605737658e-02,6.124367418846929714e-03,1.368855815108689297e-02,6.526914733863766610e-03,2.275672013869001198e-02,8.210690329357081541e-02
7.997248238794589514e-02,4.238802008085515438e-02,6.872688755844827760e-03,1.692632299700509019e-02,6.715046610935387038e-03,4.736624212977863686e-03,5.218605665415420973e-03,6.452262396513346737e-03,1.963483617439566037e-02,7.808104810048482891e-02
8.632910450174011152e-02,3.078339460340175082e-02,6.855037512347107037e-03,6.185789241704235317e-03,4.531402924429386685e-04,1.225448533129866067e-03,1.172752034183863548e-02,5.003931298528777744e-03,1.214377722347700396e-02,4.945376856502235047e-02
7.649138823080918470e-02,1.493601950808919054e-02,1.462316769248258284e-02,5.086696984744992073e-03,6.652452701213069919e-03,2.214791062962391619e-03,2.179625378798837054e-02,6.722399159421466042e-06,3.698665963965350537e-03,2.132022189771501375e-02
5.915469507802809113e-02,3.213986719729400483e-03,2.192487557341993645e-02,1.505992191041086517e-02,1.204996045835840524e-02,4.417473091831591696e-03,1.897753029337626018e-02,4.866488967702527896e-03,4.054440338775285035e-03,1.028953969352907130e-02
4.291027615609142865e-02,1.845795670691102036e-02,2.794857911382306326e-02,2.015747435736967713e-02,1.374157980736193108e-02,5.455378759693688476e-03,1.242563322988298781e-02,5.742696389708795007e-03,9.188150995777855101e-03,1.381746780332028524e-02
3.337542325381812752e-02,2.592919207324646119e-02,2.951198827189970703e-02,1.692244941214559456e-02,1.237178845630394416e-02,5.914500151035421635e-03,1.032351390210777507e-02,4.301197052927029606e-03,1.019677794064435816e-02,2.105563732496491119e-02
3.163792476621126587e-02,2.968224656823490598e-02,3.440820415784037745e-02,9.293729964760216733e-03,1.092958038354599828e-02,6.541571383038890034e-03,1.099901361779986528e-02,4.806016182995973170e-03,8.954780862386822401e-03,2.473768912055600289e-02
3.384490057197951651e-02,3.834158875733890970e-02,5.289507959550623917e-02,6.171880389783957963e-03,1.092320181356144261e-02,7.631509497156975172e-03,1.051751354004589259e-02,7.886415543290774266e-03,9.104223348479174166e-03,2.505746380760362144e-02
3.438126166642092169e-02,5.051119008160682294e-02,7.602009647192106701e-02,1.041612479861062264e-02,1.091332592538945059e-02,8.494574627830240449e-03,8.044381219793082793e-03,1.043630982342962955e-02,1.127573733947280499e-02,2.751039419715164622e-02
3.160953800331925412e-02,5.452228917783052270e-02,8.063715397320601885e-02,1.594442870736402507e-02,9.877020554807734720e-03,8.417013526807355650e-03,4.152894790278712119e-03,1.000948599029776072e-02,1.299089599126053776e-02,3.432158951849838269e-02
2.808407676600253866e-02,4.514878159128526969e-02,6.009551888511877743e-02,1.725156916384971983e-02,9.380066920040324580e-03,8.141838644148179441e-03,5.136923358666900920e-04,6.597245914964285605e-03,1.288120285314982988e-02,3.765301622914456192e-02
2.312797046488001065e-02,3.113585438131014765e-02,3.358713329991892121e-02,1.652226418958444368e-02,1.115414964554180439e-02,9.151268199011266397e-03,1.254911500657822322e-03,1.165835785082462630e-03,1.227640030270576652e-02,2.921267651320835768e-02
1.146435904001415380e-02,2.334369388688314548e-02,2.005076293866088835e-02,1.861825277112340998e-02,1.470124133339196365e-02,1.150278973205489698e-02,2.313959996204516863e-03,5.293166144568471100e-03,1.292551103970055251e-02,1.332551050583832830e-02
6.330129315151728810e-03,2.399386401065263866e-02,1.985581671888595259e-02,2.383551077136113888e-02,1.846631076528350290e-02,1.378474440706725472e-02,3.393938120734134051e-03,1.154549871285391084e-02,1.484015354284585683e-02,1.833706065094604671e-03
1.929610075981202585e-02,3.048202383525253772e-02,2.742806526746379564e-02,2.933306676473201868e-02,2.179271114308334659e-02,1.510536030066119730e-02,7.728605005274738482e-04,1.658658619478528551e-02,1.614343368779216914e-02,1.760208797793634539e-02
1.869766004499197332e-02,4.190876293276961373e-02,4.239869515659392546e-02,3.405777959190779691e-02,2.476327512161791145e-02,1.591610396478350398e-02,8.040635613780678162e-03,2.042306908756518977e-02,1.446862168861103720e-02,3.358643743037909024e-02
1.065900538585367804e-02,5.814099904766348303e-02,6.097110460441795832e-02,3.866366911856806282e-02,2.732637167160018379e-02,1.716036077339002514e-02,1.835981981101798485e-02,2.296514735269993002e-02,9.039479525209195149e-03,3.567446509057448090e-02
9.608586206382311104e-03,7.720738328723325550e-02,7.420267124940249648e-02,4.307783937030028321e-02,2.958628861794384418e-02,1.921212355571069036e-02,2.483715048504166537e-02,2.268574605382180434e-02,1.737631068532572527e-03,1.376897081606590079e-02
2.022270778911950187e-02,9.501057133568205360e-02,8.145935951247247619e-02,4.698974285729334149e-02,3.208212810877233978e-02,2.106520997723517960e-02,2.946068285906012704e-02,1.899218316370477819e-02,4.083005820364879988e-03,1.890723271127970825e-02
3.182260248045803291e-02,1.050811841975909655e-01,9.060076174801352800e-02,5.074819685873532132e-02,3.444190995888618545e-02,2.067656821931723038e-02,3.644813985350923297e-02,1.467065887106659867e-02,5.897047200988038591e-03,3.788986879355622089e-02
3.323865855840943406e-02,1.016724227261216335e-01,1.013634287033529091e-01,5.335559938731188057e-02,3.435223137873751054e-02,1.697868036374987691e-02,4.331628797007504306e-02,1.193449940310171466e-02,3.418167702406678561e-03,3.109482086342654078e-02
2.794047348361726815e-02,8.691989579387755793e-02,1.037510666407984311e-01,5.168262607555949156e-02,2.986615290135932049e-02,1.121253273136749162e-02,4.377235822209095406e-02,8.528585829730938456e-03,1.413984671963592482e-03,6.444821280553111875e-03
2.793660697893352723e-02,7.091402913078408143e-02,9.653184629509362069e-02,4.454271414013969560e-02,2.271013515726527307e-02,5.828650008352269721e-03,3.744318879236452347e-02,3.023929024320456526e-03,5.648916115840727989e-03,1.580544864413799613e-02
3.681128615849310615e-02,5.984864778475591784e-02,9.060826128787038969e-02,3.509716347429265443e-02,1.674487548353491631e-02,2.359107250226217829e-03,3.085207754971583394e-02,1.430028653606371354e-04,7.182992522862088718e-03,2.188127788672089569e-02
4.753584095890347333e-02,4.685156776942848295e-02,8.629038792505175359e-02,2.511888374390442574e-02,1.226122562969417761e-02,7.883680563500845492e-05,2.804928084650248551e-02,2.618361813022756796e-03,5.394852640097111927e-03,2.028076541276754505e-02
5.430560407625911745e-02,2.181785827994308161e-02,6.638138401888868390e-02,1.070241915246670714e-02,5.025578754625443026e-03,3.969556874607332690e-03,2.438408757558125500e-02,6.788950288698553104e-03,2.408429092858372809e-04,2.587067377971591364e-02
5.905561205184243351e-02,7.987087000888414695e-03,2.819640087701256320e-02,8.679380340921343667e-03,6.170730530217227901e-03,9.735608318814455500e-03,1.338337539455769151e-02,5.464025609914094882e-03,7.277458707225374288e-03,3.205418890112451957e-02
6.758775978369610526e-02,1.818898095917977770e-02,3.646864860448347651e-03,2.137573911806332078e-02,1.457146225701326514e-02,1.418767864532420944e-02,1.581285221139815643e-03,1.460515008508867559e-03,1.338833762533804539e-02,2.590015880070616408e-02
8.169766351924423464e-02,1.644645368711436517e-03,2.159641199966806299e-02,1.585720341010273676e-02,1.363079346989273972e-02,1.489588928936003490e-02,9.334229962843904743e-03,8.625157245257576016e-03,1.331997372298936166e-02,1.974304330681460329e-02
9.436580040160626182e-02,2.823115516716573348e-02,6.242124759976987874e-02,1.376882237822622986e-03,7.231733567565678221e-03,1.379645081027577359e-02,6.786473284779545763e-03,1.272141174502538358e-02,6.143176224938037139e-03,2.765900303954028916e-02
9.645906659560216090e-02,3.326354079169424605e-02,7.908645581637974153e-02,1.367358411135181050e-02,4.144565784129332006e-03,1.340355890590391036e-02,4.341226861520133991e-03,1.516595048700617593e-02,4.386553956096749148e-03,2.666595021652851810e-02
8.965485956620043717e-02,2.331981735967088645e-02,5.828962364224730963e-02,1.664886295003275771e-02,4.469149929085738417e-03,1.208702289145530129e-02,1.001184071241173479e-02,1.907828329130915532e-02,1.375157425651720063e-02,1.011071013651567395e-02
8.427190362994764483e-02,2.716988947315267591e-02,3.061044263162192303e-02,1.763907139989305539e-02,1.244672025630923435e-03,7.101558230647403089e-03,1.659418547840293620e-02,2.578679915122840741e-02,1.824444650837451359e-02,5.862683610984966570e-02
8.114449146461631679e-02,4.698311359854106389e-02,1.875615254408403293e-02,1.643643722858707454e-02,5.147751363617654972e-03,5.687157531604624013e-04,1.244941142155019456e-02,3.331038640022119385e-02,1.404931621693760596e-02,7.295624606851239258e-02
6.774757764278357963e-02,5.323946056468038118e-02,9.711154263369457806e-03,5.526579495269886948e-03,5.850366513195134899e-03,2.260579190308008041e-03,1.514940084651242389e-03,3.733163438923650657e-02,5.154014629999165847e-04,5.378282429660249941e-02
3.965141960835976559e-02,3.316389262579690078e-02,1.067770102311110803e-02,1.106788992467035854e-02,1.273387254728340807e-03,6.140950488069746782e-04,1.331479286383798616e-02,3.497032508149511970e-02,1.580952151467389724e-02,3.984495327296048300e-02
1.331127884616835691e-02,1.071674656515776182e-02,2.981990837963737276e-02,1.966141956139397587e-02,7.203024548962630273e-03,6.157114883405821791e-04,1.352174573514782797e-02,2.846347223307460483e-02,2.603317013376568734e-02,4.461356953182192553e-02
6.921665633168752260e-03,6.998401519523762132e-03,3.418260259198277473e-02,1.924601599343712943e-02,6.029120566897551263e-03,1.780859042654778669e-03,2.094163878211369526e-03,2.388288902496392765e-02,2.786745501184103441e-02,4.713306735172118761e-02
1.877719453504249694e-02,1.271799322275140968e-02,3.452905040085912924e-02,2.196683164116636916e-02,2.492614757383449127e-03,5.331960532017211707e-03,1.372620533267375140e-02,2.505618265481582285e-02,2.534456510695464251e-02,3.880639849130367719e-02
3.441250447463359979e-02,1.408041482471761134e-02,4.530465814647879896e-02,2.993830724627131318e-02,1.538838645967452326e-03,6.699345451905447738e-03,2.474044113860134758e-02,2.940276035042491132e-02,2.089478863574568621e-02,3.867115264762924220e-02
4.633837063469368328e-02,1.708422054176580995e-02,6.014387275119026377e-02,3.128385068533526964e-02,7.107944567708711792e-04,6.323656255913938026e-03,2.618326903999686553e-02,3.102160975955144118e-02,1.304195168875360751e-02,5.673089154145631585e-02
5.722427311932050398e-02,2.930506419832449097e-02,6.538664773611489733e-02,2.137433382198945103e-02,2.627005981551751301e-03,6.255105198123974211e-03,2.003445476766511218e-02,2.761219188002762837e-02,2.364545867786776914e-03,6.967464225554564905e-02
6.914707692126560723e-02,4.072590473629991714e-02,6.147549682067411647e-02,1.080543485837568742e-02,4.856540148827540038e-03,6.529201271894930284e-03,1.089481532520086490e-02,2.254394108303555549e-02,5.548285435089161770e-03,4.829205484090955125e-02
7.997251805300231720e-02,4.117347731553700624e-02,5.446239846319916866e-02,8.722850375831814329e-03,1.978849714740648150e-03,6.043298306071861331e-03,2.779592646137117335e-03,1.950234323370969233e-02,6.849927504500659577e-03,3.323119217627300975e-03
8.966717931131097663e-02,3.905189269836644578e-02,3.971817589994559167e-02,1.117760348585717690e-02,3.797608334068180297e-03,4.934363949519383029e-03,8.701694575689447120e-04,1.734715809612012022e-02,5.825213733182694337e-03,5.337964697225826977e-02
9.859593264857079153e-02,4.270857449387399640e-02,1.356293706321145924e-02,1.133294098379455071e-02,8.533845155364854634e-03,3.470872930439238523e-03,2.177992268911648388e-04,1.244500813375799993e-02,9.134309684960199849e-03,8.164299198795119117e-02
9.748645243207622324e-02,3.808527050138091341e-02,7.226141497295915546e-03,1.225511638131708374e-02,1.345303322536542216e-02,8.243311537758566104e-05,1.511385055587749536e-03,4.862816536201667976e-03,1.609427438022263332e-02,9.316601359514949110e-02
7.530920975298890929e-02,9.383297653030149565e-03,6.854455280371216444e-04,2.056897844636981082e-02,2.117758205657232704e-02,6.175502638453198544e-03,9.905625598093251508e-03,4.772477110850143096e-04,2.081772501463394903e-02,9.567683013505755285e-02
4.237542724391660937e-02,2.856633350282870853e-02,2.660881785766962965e-02,3.149885369358181725e-02,2.808858628454946257e-02,1.216003672356663103e-02,2.094626178058549282e-02,6.025500797570242095e-04,2.147052196167258120e-02,8.754244422636782430e-02
2.702835828399687348e-02,4.461163072437829280e-02,4.296612663270787946e-02,3.209312967829539009e-02,2.779899476228658503e-02,1.336991204808695051e-02,2.575093289080442049e-02,6.315672805583415553e-03,2.106975666197672889e-02,7.205670264176004813e-02
4.405694578398870048e-02,3.036080138118233546e-02,3.046723855334794104e-02,1.943228855096078289e-02,2.054011366117545340e-02,9.318942952585474240e-03,2.320248250314593808e-02,1.090984337498883752e-02,2.177085992937677697e-02,6.289005591701146702e-02
8.304486813529929345e-02,2.655585281767471571e-03,2.460226865141574518e-03,4.216352218764967547e-03,1.232326267817031654e-02,2.943602885007152656e-03,2.141147863873010815e-02,1.130918954301128945e-02,2.377114967184526875e-02,6.865908278612724291e-02
1.270397709290649879e-01,2.297031228653198531e-02,1.791857101564924351e-02,4.267260406060840484e-03,6.461895252032419726e-03,3.816035384520207081e-03,2.867031434850019281e-02,9.000595773000571662e-03,2.692633585826509010e-02,8.513491307614863557e-02
1.658798901940263804e-01,4.135194922879976281e-02,2.221452364259569878e-02,6.735158863791702866e-03,1.516370420306532157e-03,1.091637310135919192e-02,4.664993937927148365e-02,5.666889649314546182e-03,2.957655756181714821e-02,1.039891788935047301e-01
1.958412531374122134e-01,5.101182644283959455e-02,2.069524235396037054e-02,8.618245388814862323e-03,4.297855374258047027e-03,1.801967693072977980e-02,7.054658495120809392e-02,1.817248882326603747e-03,2.907297959000554322e-02,1.181535299373138864e-01
2.218286645065577767e-01,5.669390675103154476e-02,3.225231720660972495e-02,1.530991855824988951e-02,1.117238111600902216e-02,2.347825147027559484e-02,9.335673071478031715e-02,1.959891483955956536e-04,2.626764283942856909e-02,1.213877769757108066e-01
2.532203333015765057e-01,7.110684347539630856e-02,6.731355714023155856e-02,3.093897165406231040e-02,1.889917630934734305e-02,2.553632608387037747e-02,1.102153181771808738e-01,4.174588625732735502e-03,2.625156130539160401e-02,1.132275521589656692e-01
2.849602488699596869e-01,9.935125188317302236e-02,1.132006904360205596e-01,5.447193845611213170e-02,2.720732223367374955e-02,2.453207651383588345e-02,1.183703165086021497e-01,1.129746939931499349e-02,3.215629494938886807e-02,1.024254002426963905e-01
2.960634340416307686e-01,1.265740793256192320e-01,1.425031481712552284e-01,7.857641725132544219e-02,3.547689497843291295e-02,2.343787623995260277e-02,1.143079921517416997e-01,1.483665290190571036e-02,4.073292472051883578e-02,1.000742182792100921e-01
2.781110028781178523e-01,1.319062542564443663e-01,1.415083427756060608e-01,9.608246502513315135e-02,4.270386132795511713e-02,2.478419733760204441e-02,9.587904326572349589e-02,1.309197922958583137e-02,4.620298439839588822e-02,1.099197494690503929e-01
2.374332185437902643e-01,1.089114544771966758e-01,1.195627951754637541e-01,1.050157812058439555e-01,4.692503896834673838e-02,2.723803746855804966e-02,7.003499962096068621e-02,1.065918510095749221e-02,4.682984101470462346e-02,1.236491920738500422e-01
1.569174216012587109e-01,6.801280959539331150e-02,9.168275477169529619e-02,1.079693381332603036e-01,4.662850621395855932e-02,2.756410006042809072e-02,5.364748204017656674e-02,9.671208505831262875e-03,4.622370391116042282e-02,1.245175683590325072e-01
6.562534707979863179e-03,3.131845513209004228e-02,7.381403552112965338e-02,1.102460258370131785e-01,4.504037876326193873e-02,2.643831498343754763e-02,5.762050510138486126e-02,6.906254535427838910e-03,4.769503436499143711e-02,1.020163638978169862e-01
1.871552168911025382e-01,1.908736136179760984e-02,8.217246184241815132e-02,1.113064563648729355e-01,4.759476088223653367e-02,2.772782202156123463e-02,6.899532752119384715e-02,5.893967656753121677e-04,4.620347137255838982e-02,6.661535397255749502e-02
3.438725640642708026e-01,1.615305838367215446e-02,9.843265142939360002e-02,9.322862371267250092e-02,4.970227497388605975e-02,2.883114022223828149e-02,6.025817055202028344e-02,7.071143789919343697e-03,2.970235092510884953e-02,4.278734852217370294e-02
4.233621665473427109e-01,2.980250816315425239e-02,6.168200034735257103e-02,3.510258500549656019e-02,3.619603734404223949e-02,1.901666733474112470e-02,2.240130344659960540e-02,1.551314422698256250e-02,4.959329567197126240e-03,3.988975306377293140e-02
4.620462023562945109e-01,1.369697502517059629e-01,4.963865604165485640e-02,5.094837662391710209e-02,2.678681044180390713e-03,5.092682137173391854e-03,2.263725663127166485e-02,2.761571335683967246e-02,4.229598516820878840e-02,3.674084577715629185e-02
5.055211463155121487e-01,2.421013407288926111e-01,1.605521006870749556e-01,1.190169900857288854e-01,3.253314151052628944e-02,2.994428148148962215e-02,4.870339336203612091e-02,4.384257048277710733e-02,6.380780074057432194e-02,9.468981028553627791e-03
5.506419202607290009e-01,2.704286944697249506e-01,1.844339150040460729e-01,1.370330270794872518e-01,4.851618096995737733e-02,4.004915757243992375e-02,5.248446229725470952e-02,5.887169501021413676e-02,6.754919699408287737e-02,3.074681188798426487e-02
5.634324625713069690e-01,2.300735637670938138e-01,1.353106401257038738e-01,1.194816710138564414e-01,4.566416647215791602e-02,3.610347107046889964e-02,4.876270983883052024e-02,6.619447573274349350e-02,6.289643646349696304e-02,5.013982820874085533e-02
5.282448208933031575e-01,1.975397253265841480e-01,1.056456211458908362e-01,1.064049530034693880e-01,4.205385346825615822e-02,3.095384422441570249e-02,5.005959554160106101e-02,6.429084461817649587e-02,5.462461865613375128e-02,4.045345871033659974e-02
4.625505979044046700e-01,2.215754856173607901e-01,1.511316638342364571e-01,1.202621517697892439e-01,5.131993462054361410e-02,3.283116385605563958e-02,5.525082205849114053e-02,5.674065650647462655e-02,4.272562468782298978e-02,2.853421172162239061e-02
3.828111331558933794e-01,2.709319722956621823e-01,2.306882828730439927e-01,1.460092634699648728e-01,6.826560781109561327e-02,3.827307106431888928e-02,5.380339374821393322e-02,4.673290220751404739e-02,2.953889329127491400e-02,3.710870089548489598e-02
2.810516625610023356e-01,2.841137597843202411e-01,2.596832778402496933e-01,1.517002467224991547e-01,7.634843340536051626e-02,3.989864537807078643e-02,4.371095525772401846e-02,3.349687856417005866e-02,1.679799692502185679e-02,6.091793007683038441e-02
1.617028544345744390e-01,2.488824275412422349e-01,2.065229233021122768e-01,1.262662232561643227e-01,6.836031146424419169e-02,3.696830634342520433e-02,4.308651042156935729e-02,1.563064133743813020e-02,2.126945480997440539e-03,8.489054487721751918e-02
7.671892828915161111e-02,2.040382443325446937e-01,1.201512737852747092e-01,8.717429581328253740e-02,5.383493612762296071e-02,3.516552866552125067e-02,7.127923587575073217e-02,3.292518838685645158e-03,1.302611341214707230e-02,1.055574940710633652e-01
7.930730225905971431e-02,1.764010709209561933e-01,6.442811067444198514e-02,5.237727080604730190e-02,4.391266320445329913e-02,3.734247051341268303e-02,1.210926942456398425e-01,1.475299226602374940e-02,1.744506216467872628e-02,1.282311507943446893e-01
1.510998451243505680e-01,1.565324667720559282e-01,5.524049043861380126e-02,2.519983357585144079e-02,3.851871146491295250e-02,3.983332986287028282e-02,1.650578960809008511e-01,1.209724788054439976e-02,1.176800192296257458e-03,1.533226145041232669e-01
2.126565902203514935e-01,1.319315833588165232e-01,7.319378644934018685e-02,9.560249499598588024e-03,3.361067083942415046e-02,3.882877694272478253e-02,1.845281894377608367e-01,1.988347073963336875e-03,2.911647691949502403e-02,1.696854766386086677e-01
2.045350624873282785e-01,1.058692073466812322e-01,1.009508139060914939e-01,1.368560988047360163e-02,3.030483464873587329e-02,3.485274544272203012e-02,1.788706687147586238e-01,1.558477383518751952e-02,5.295550163574436892e-02,1.612266775544181074e-01
1.326942528078963734e-01,8.070575069082790154e-02,1.222743292999656506e-01,2.944634052090909851e-02,2.883908748830243257e-02,2.872537837979033393e-02,1.544354157330013189e-01,1.802145919479028122e-02,5.510635104962926384e-02,1.251900810097580363e-01
3.963714118365144201e-02,5.055465189312828567e-02,1.182171359850608811e-01,3.343992584238351939e-02,2.343521947059690191e-02,1.897356518615489832e-02,1.184915066386200283e-01,1.078927460245308716e-02,3.865762679438211613e-02,8.400479141982752918e-02
4.062428395032526007e-02,1.718151005189057917e-02,9.466211834826095128e-02,2.052502387717387161e-02,1.263024299677933081e-02,7.252844598570303176e-03,7.938542637526092849e-02,5.120312665456639573e-03,1.982949499298595000e-02,6.775084320318121300e-02
9.457730068648270705e-02,4.914024859255745892e-03,8.361725290485649831e-02,1.282731141302523650e-02,5.618778039491234555e-03,8.836403023540339435e-04,4.406430520731458023e-02,8.687345205661405403e-03,1.267830018863137093e-02,7.883223451847157226e-02
1.215895848052384598e-01,7.566565542121268806e-03,9.320315600244055698e-02,2.392893831169772695e-02,8.778385347636870339e-03,4.553010450229655337e-03,1.556134638319263234e-02,1.780316738082720132e-02,1.886718123921443668e-02,8.533244487980831683e-02
1.321177746580501911e-01,1.910248084173074568e-03,9.108372722923624432e-02,3.734430101144327330e-02,1.478922635100098255e-02,1.310084977863922376e-02,6.885912024421788485e-03,2.256596390605643612e-02,3.027584355245730580e-02,6.084063999024997421e-02
1.493923249047706681e-01,5.709999337306566683e-03,5.774114243740448987e-02,3.296186814984135294e-02,1.368688294252568341e-02,1.706485636631270911e-02,2.648800210731776239e-02,1.708987136606599996e-02,3.884583307098427030e-02,1.926850558431414395e-02
2.008932538483426677e-01,2.608760911625966628e-02,1.672713634825541765e-02,1.451306178367104890e-02,5.999543273769187418e-03,1.268686967840720187e-02,4.573079766939729118e-02,4.625511927676207238e-03,4.144097787782600323e-02,6.804988436874036609e-03
2.864020573763426114e-01,5.743645678716026437e-02,9.076259463657932944e-03,1.407797838340061995e-03,1.801670319185057299e-03,3.496526482394146998e-03,6.206086568442241436e-02,5.831000568700145381e-03,3.724139769803177374e-02,9.043952307535386981e-03
3.435720418244855856e-01,8.717369872220462335e-02,3.357258245992783552e-02,8.930055677259601810e-03,7.172541340492730524e-03,5.076051381849702726e-03,6.676461477300835168e-02,7.241953833926992323e-03,2.664243709532174501e-02,3.333838290168519847e-03
2.900878935117368607e-01,1.027869714151067732e-01,7.666000266940745100e-02,1.564867186998994755e-02,1.204193131489404017e-02,1.006466850738868546e-02,5.109949710868970374e-02,3.620336415708926524e-04,1.393744361986824776e-02,7.545322898608406575e-04
1.373471738666929287e-01,1.012497353259370347e-01,1.247638190257367302e-01,2.898905881996953829e-02,1.825067191987782625e-02,1.197108724394208359e-02,1.763014997008164816e-02,1.046546051337137774e-02,5.766230518159281768e-03,1.276769715090530707e-03
4.541359817865275525e-03,9.084007439571199771e-02,1.437045707818367934e-01,4.550124819041991009e-02,2.468464465802508445e-02,1.312811843740144778e-02,1.566090631664495206e-02,1.546321237861344490e-02,4.498452309784166207e-03,9.565005189956498136e-03
2.015037655207459200e-02,8.078441633244277942e-02,1.191843052443931489e-01,5.455349998712111931e-02,2.798675753908546476e-02,1.447119820062348593e-02,2.984801761522773780e-02,1.265909542426423180e-02,5.651014382885172563e-03,3.998280326914154664e-02
4.293382248767310672e-02,7.419596176043649627e-02,7.239320798561402204e-02,5.277098888575892932e-02,2.679659094216082713e-02,1.435308420211193689e-02,2.659327983719692035e-02,4.189909065395358741e-03,3.598995060466926837e-03,9.537931742681976521e-02
1.452110843715159749e-01,7.089856537625334465e-02,3.646705275306522109e-02,4.822321661176100921e-02,2.374906210216543717e-02,1.125212917868023514e-02,2.823829609628679405e-02,7.872194591434483746e-03,5.446720013711952094e-04,1.401980783630645266e-01
2.531817592104123604e-01,6.949545336433299303e-02,2.334998696665515489e-02,4.620305852343817299e-02,2.099784090408853346e-02,5.992815615870675065e-03,5.092534753880095799e-02,2.143212228431062502e-02,5.419061564174202338e-04,1.204314068840335317e-01
2.920370990386926269e-01,6.771242765681780018e-02,2.396248309467124277e-02,4.240448910453006870e-02,1.698522740809967763e-02,1.733399248335730069e-04,8.444552545329740700e-02,3.060135479087940785e-02,8.948760368217428818e-03,2.950034519502358482e-02
1.836989867779772190e-01,6.588489611733043538e-02,3.636926447827402986e-02,3.605916100762561471e-02,1.039204622544868777e-02,5.593057078206296710e-03,1.053125762998807224e-01,2.976349059182827050e-02,1.475800585051928113e-02,7.443046476212628049e-02
2.022219198811631147e-02,6.620250138613933966e-02,6.617207882497566640e-02,3.384417896396860193e-02,3.118503610104984662e-03,1.051002129804153376e-02,1.011851285140680651e-01,2.165512779358623810e-02,8.174615502078892010e-03,1.361836188927493252e-01
1.601783022596102724e-01,6.546739579577023904e-02,9.483160398639163546e-02,3.411766646216533166e-02,2.963502274789878155e-03,1.235423556957385496e-02,7.502620729287221013e-02,1.504904938984405818e-02,5.474584366405746243e-03,1.567211401101133161e-01
1.497821893103818691e-01,5.693202705400912667e-02,8.514180253300317192e-02,2.508047466793522293e-02,7.755482356815586800e-03,9.122422164149216611e-03,3.573058283247444039e-02,1.495405429163160389e-02,1.304301154725887729e-02,1.628697680811939108e-01
3.961102564488028221e-02,4.453372338550815046e-02,3.467168656307237362e-02,4.977179093828065087e-03,1.034118656181446869e-02,1.838137478913274593e-03,5.562303221103355455e-03,1.959554376677192372e-02,1.251081136629622267e-02,1.573576495764435479e-01
9.076273520437851128e-02,4.417408221449085903e-02,1.040530530849223881e-02,1.246850689060719289e-02,9.300106391775685502e-03,5.454271485541252289e-03,3.657096354490323165e-02,2.489486717671213212e-02,1.231591546513388820e-02,1.236017445693195355e-01
1.950114206436717457e-01,6.151490337031666200e-02,1.358266450939878654e-02,1.772892900338144187e-02,5.807012047222325293e-03,9.646493801207722471e-03,5.030191523254748387e-02,2.771314733536287683e-02,1.372598162604551399e-02,6.187652187194116193e-02
2.259166382446649024e-01,7.958022453471673419e-02,1.092089114810342911e-02,1.616359980861235834e-02,2.314550876990729891e-03,1.200708754757060480e-02,4.976207747547842231e-02,2.651636716771468144e-02,8.698546160176196668e-03,3.645163023893034995e-03
1.568771794225621297e-01,8.087577546865999667e-02,3.160205270683134893e-02,1.464252828054385391e-02,1.581959948088031229e-03,1.615890426198422422e-02,4.271903483413467401e-02,2.200070170542446635e-02,3.232694692517765721e-03,4.392473916385305349e-02
5.365886012903195446e-02,7.407622759788376476e-02,4.267339818456841738e-02,9.751306947265028086e-03,8.769648235078928225e-03,2.311957890042887903e-02,3.402931958490471726e-02,1.604811524689533919e-02,1.099230816378903713e-02,3.416070013546950584e-02
2.776536920820565219e-02,8.328142005909694445e-02,5.340820317898206659e-02,3.278964321872030428e-03,1.956054706452299216e-02,3.015548977606273204e-02,2.704547089574966395e-02,9.208654660949961573e-03,8.262569284000511466e-03,3.492143055194325135e-02
8.310261548019391709e-02,1.086126198955646716e-01,5.764409171336507681e-02,1.755820863050884181e-02,2.868413124200977146e-02,3.417871425044591294e-02,2.667076434717455952e-02,1.009153492976159507e-03,2.668678286954105291e-05,1.302622215158786567e-01
9.101698574778295525e-02,1.138789842493502236e-01,3.948575846538782130e-02,2.157466430281366684e-02,2.974623835770638658e-02,3.449411260945913632e-02,3.250958473217897826e-02,7.210850930980833642e-03,9.275410470203427835e-03,1.839799648127674880e-01
2.971737392232461430e-02,7.081664137435315920e-02,5.260242017746196916e-03,1.715180092275100932e-02,2.304209064088217490e-02,3.217081939753162201e-02,3.683702644173913326e-02,1.217585598484213251e-02,1.986403535904268658e-02,1.561221874865409975e-01
1.884735581762115031e-01,4.784529807779836982e-03,1.232321142438588812e-02,1.750113507550222700e-02,1.543960243897275937e-02,2.815993745230522399e-02,4.029276220672661779e-02,1.227185139137398733e-02,2.730580301019269046e-02,7.275030649708676134e-02
2.462931449404390793e-01,2.975541043697028584e-02,6.979240690140360928e-03,2.703887635931787395e-02,1.182912823039613918e-02,2.318896368205871153e-02,5.657640371758880515e-02,9.507169062593709072e-03,2.468606353164617268e-02,1.453777521414979096e-02
1.823183396374352672e-01,1.348624988159346019e-02,4.202306446420952385e-02,3.753003595970716422e-02,1.132842711106788608e-02,1.926336478751186979e-02,8.569946504480499549e-02,6.060757733782857343e-03,1.729535525200342691e-02,8.133651392475209352e-02
6.761493009320081182e-02,2.406751178218540996e-02,5.549131683904903051e-02,4.434656295853788704e-02,1.186531668019880949e-02,1.917862649990099630e-02,9.987188574670824437e-02,5.505198732955970432e-04,1.903421133660361531e-02,1.308776816942382182e-01
3.972650978517469622e-02,4.819382683732488515e-02,3.822420805282106954e-02,5.044546294697698635e-02,1.265143256979511452e-02,2.333991494676854531e-02,7.917539901635708977e-02,8.415175139939851806e-03,2.992401409105532525e-02,1.696164810679532953e-01
1.030422843476854339e-01,5.090225758031977077e-02,1.422338732559821038e-02,5.462079997879679127e-02,1.229957281245150358e-02,2.841400147300205889e-02,4.434576454465699591e-02,1.597308738045053259e-02,3.460817759960210793e-02,1.912566753563361976e-01
8.730645726398979234e-02,4.385030015198503051e-02,7.852752249497616313e-03,5.188121812237973807e-02,9.873583748206873206e-03,2.958144307049483807e-02,2.599302403368583536e-02,1.409506223693333775e-02,2.729549478007278762e-02,1.736687142721636268e-01
2.374174378546809079e-03,3.966130374476729836e-02,1.715631809167068866e-02,4.427635653851392378e-02,7.440265111554983726e-03,2.359390769941089802e-02,1.798511855713836802e-02,2.126178971906656986e-03,1.828990381185609249e-02,1.089682966464546043e-01
6.998768122614711096e-02,4.052536181809972271e-02,2.050511634526524726e-02,3.667882572471330843e-02,7.774317239002486411e-03,1.151260818734287789e-02,4.572667335859670681e-03,1.069104547990327482e-02,1.177961972135899323e-02,4.118596246705961972e-02
4.571935889488420307e-02,3.800748401782177988e-02,5.786432588650213850e-03,2.478701419124117178e-02,1.035322880157542487e-02,5.288561661585776397e-04,3.585746066279192623e-02,1.525880985700391393e-02,1.058779933383080171e-03,2.933966631673234210e-02
6.346698159318583943e-02,2.589597126374625774e-02,1.368215931480888659e-02,2.148529181101466005e-03,1.199830098362841130e-02,6.126232390495957303e-03,4.620849450794353025e-02,1.156798953274769046e-02,2.137421081773030473e-02,6.656418995890853174e-02
1.550034382323048077e-01,1.032268191249562095e-02,1.683065601375938886e-02,2.388436310592420911e-02,1.062464256410142367e-02,5.011988371586593299e-03,2.702181639107586325e-02,5.021212574865401533e-03,3.441246764417033033e-02,8.940305127244851935e-02
1.565576221501586707e-01,7.237020754098447139e-04,1.517303417000070986e-03,3.794780362242489158e-02,7.256670051266926255e-03,1.895454436674543289e-03,6.678195374830071113e-03,2.877978143340119508e-03,2.789905576537316315e-02,6.621767187392869902e-02
1.041192150035386149e-01,2.426571650850993522e-03,1.619509973717449952e-02,3.596618505350383105e-02,4.779869242677479632e-03,4.166640377347916036e-05,4.378122157782160517e-02,1.442232810263719550e-02,5.498441687961843488e-03,2.097749784289442213e-02
6.795073911485204066e-02,3.972229857262891614e-03,2.595039735489852728e-02,2.560471410850134397e-02,4.601523434205491599e-03,2.847514181404486693e-04,7.447093796968118351e-02,2.691594902503531908e-02,2.043634677553815907e-02,2.161142770072283989e-02
5.824106397408395502e-02,7.214292609802379352e-03,3.261272410200618393e-02,1.213860508562302279e-02,4.876481902691983880e-03,4.223481066075512533e-03,8.019485099639486747e-02,3.195510114947543168e-02,3.949634820992622281e-02,6.196321354589853780e-02
5.019035420042389922e-02,1.628991005506058576e-02,3.738826049526097067e-02,1.965474941294429595e-03,3.182489712137053471e-03,1.232068075679648017e-02,5.813697854462639147e-02,2.649871093196470156e-02,4.608440267355284198e-02,1.023064967205216114e-01
3.435848978276668381e-02,3.490387234288830354e-02,2.422897193214210501e-02,8.669158514863797155e-03,2.677572504918069619e-04,2.047826541201840447e-02,3.593064491447820613e-02,1.747296155658053726e-02,4.000581289923153122e-02,1.312844681935594060e-01
3.379182656028818180e-03,5.739674281466251859e-02,1.897588279942246173e-02,1.724753210229458935e-03,3.630985635836319562e-03,2.428830549527567079e-02,3.674908482479925104e-02,1.129443189479470595e-02,2.695165310318781149e-02,1.277642616893784611e-01
7.962557733865494036e-02,7.190401115768231544e-02,7.321489896342192605e-02,9.930475689744268017e-03,5.562109747775088354e-03,2.481359305092862080e-02,4.924155726462600691e-02,5.881945282962474167e-03,1.576981412546260564e-02,7.398537268733930417e-02
1.537880638177122061e-01,7.721764287111583525e-02,1.024692888253563444e-01,1.132309032496652164e-02,5.111013368459208644e-03,2.519993530672142920e-02,5.012014348525577895e-02,1.534264884161267014e-03,1.274390602283743262e-02,1.668003546989362679e-02
1.408735941645094525e-01,8.465659947849873967e-02,9.581653109284406222e-02,3.661001716956555421e-03,2.201468466457950218e-03,2.439171673077572197e-02,3.775721089827042964e-02,5.659680172598937145e-03,1.665643850011903210e-02,9.119275131921683597e-02
2.906995296294196535e-02,9.957584485586092049e-02,7.856307700539329197e-02,2.799383764267878924e-03,9.613397876142486340e-04,1.957525794111611428e-02,2.740843668862598739e-02,6.003131015358848400e-04,2.070974911770131696e-02,1.080664202997480700e-01
6.403438684800680236e-02,1.141290465294840656e-01,7.735436008771401362e-02,1.420999357412580481e-02,1.528872574960704177e-03,1.249777702734677053e-02,2.507498249972644339e-02,8.064524528510821910e-03,2.166741057636438483e-02,9.059195786003464146e-02
1.564875754059192464e-02,1.190183189993602314e-01,8.927103468686821419e-02,2.408346299955236441e-02,4.068575593200080042e-04,7.902173455562154156e-03,2.115925867198929083e-02,8.158909153189095737e-03,2.380434654552160412e-02,9.167149115693491723e-02
1.388903217285522018e-01,1.085278785461971374e-01,9.180011477668967301e-02,1.799666959765011329e-02,1.497196351667056703e-03,6.788468433425986701e-03,8.124202011074069252e-03,3.076699696015233743e-03,3.129356847666869834e-02,1.138319661492319529e-01
2.422918602860051895e-01,7.772399670779100989e-02,6.825851166335919484e-02,4.286896349218484968e-03,1.556135264901644831e-03,5.605038774159963252e-03,7.742292910425418659e-03,1.583242672933600145e-02,4.220437444516426245e-02,1.096275372373036600e-01
2.120987119166068691e-01,3.014352021759591008e-02,1.652789942769699108e-02,3.237275747280891208e-02,8.897734602343852772e-03,1.605617445049716853e-03,1.644747995132903040e-02,2.028379494573855774e-02,5.167168758607534190e-02,5.894994426384216057e-02
1.119200404497896068e-01,1.603337683398952523e-02,4.883913354433200987e-02,5.101818043226805099e-02,1.673475256862943031e-02,3.909715713226288164e-03,1.595322918740790449e-02,1.545894358361204167e-02,5.448217793777726525e-02,2.529761759829200589e-03
2.561410216693982278e-02,4.254627532345411217e-02,9.516308837527630293e-02,4.601446148625636112e-02,1.937985603738642121e-02,7.248319941289032425e-03,7.423619071464238398e-03,6.400373253464415255e-03,4.532173919573460191e-02,3.606258559187810325e-02
3.407614120143773184e-02,4.831964193355368919e-02,9.419190456911921694e-02,1.826887504207800120e-02,1.387508866909673011e-02,5.972718760761595337e-03,1.068535192397644662e-02,5.163742657574854622e-04,2.442071491191951174e-02,3.627439206434797392e-02
7.135451302927302286e-02,4.467185015747117405e-02,5.711985710064490518e-02,1.068039196034858106e-02,3.522716023275594514e-03,1.573534321446015552e-03,3.465703686400883887e-02,6.768523651051940471e-04,2.028287763548439898e-03,1.374340129867514075e-02
5.796447629767722404e-02,3.977857424737350073e-02,2.822576854427649717e-02,1.938250608287057225e-02,4.506808489712236208e-03,1.713910575255445188e-03,4.923912045955807643e-02,1.182135248818301683e-02,1.103009775930911471e-02,1.582010300573471334e-02
1.465633711890597726e-02,3.704694424176760426e-02,3.558638889188833754e-02,1.090522996688055024e-02,5.810353576003673449e-03,1.537578884854538331e-03,3.999903899143759239e-02,2.647082509735057890e-02,1.807410605290202602e-02,3.037683457448870153e-02
8.567600047216443471e-02,4.427241276488948218e-02,6.556009518738532826e-02,5.859684488827163196e-03,2.021280072087801305e-03,3.404206700543012387e-04,1.040296800549061866e-02,3.416298877976489679e-02,3.292125791520506689e-02,2.715294985223992708e-02
7.890053200481685070e-02,7.036638846954997029e-02,9.031899254667161148e-02,1.314951858933886830e-02,2.359514924661750002e-03,1.156619094760062650e-03,1.977407571257044569e-02,3.111020940380090569e-02,5.810729502371024535e-02,3.390618894896670760e-02
2.730825166469791170e-03,1.083607338212888571e-01,1.011843402436397588e-01,2.106699629142310543e-02,4.474870477375377659e-03,8.244297761100039586e-04,3.153195560457049823e-02,2.241820154610167648e-02,7.744211377356922943e-02,6.585597320831074186e-02
7.440255565182000985e-02,1.342326580542382297e-01,1.074744123905600618e-01,1.779812272819858085e-02,4.161906047018367437e-03,1.443531981704187193e-03,1.866354267919057702e-02,1.263384677846214263e-02,7.631072403796010373e-02,9.601307950463150442e-02
7.210513271691815218e-02,1.334944020313394708e-01,1.174443045959864818e-01,5.686069894420541296e-03,2.544179861882609264e-03,4.175890447564656154e-03,1.214076047165573921e-02,7.673903538316063314e-04,5.778654723983603358e-02,9.294928258534539134e-02
3.129316250372370101e-02,1.196133572260469485e-01,1.293431323120896592e-01,8.026060104809501147e-03,9.440615245900991701e-04,7.835649914505880831e-03,4.662155218714695432e-02,1.267862608833462273e-02,3.240067555296778645e-02,6.688432945175822042e-02
3.592445579543974282e-02,1.128323805914435846e-01,1.346592932651110019e-01,2.088608473127427645e-02,6.243384670494455573e-04,1.051736844414473231e-02,6.904626776797473386e-02,2.082531145905363451e-02,5.261826988362818501e-03,5.459103425497492668e-02
9.621049857431231145e-02,1.086110812607775644e-01,1.263061345682903736e-01,3.102350702238024921e-02,2.194495130141319028e-03,1.170129496715083435e-02,6.741947480289675609e-02,1.741905863416857644e-02,1.862613432607775413e-02,6.697686503280350645e-02
1.219906206892147488e-01,8.487451975063148302e-02,1.075011106483930445e-01,3.383165547764922093e-02,4.655838439738069559e-03,1.246030654409179504e-02,3.989048790592789051e-02,4.923562544749753370e-03,2.902492308303175617e-02,7.835041449842780614e-02
4.973882773882069841e-02,3.955330170402821671e-02,9.286563383063993482e-02,2.872446182416661317e-02,6.398613680107472119e-03,1.422354560846168098e-02,1.554855273962248239e-03,7.936384978325414924e-03,2.215497777710627100e-02,7.352630362104133066e-02
5.582114967421951401e-02,1.741730113565269963e-03,9.633890900672488489e-02,2.357474789356662701e-02,7.837514398965447771e-03,1.737199050438352488e-02,2.326826353088979824e-02,1.490406843216564477e-02,1.000240978556426324e-02,7.391519468406447524e-02
9.573760969586704583e-02,3.086657553573114460e-03,1.165766341898619579e-01,2.758198222538430985e-02,1.064560378936652528e-02,2.040169692645497565e-02,2.542480045919697298e-02,1.628794681611760511e-02,7.419959199596200955e-03,1.007066604463565801e-01
7.451876488808728549e-02,1.614378583326947156e-02,1.374539571840063257e-01,4.184765436764966567e-02,1.388480062750823037e-02,2.094191247922878862e-02,1.887243757480674619e-02,1.500753623401037198e-02,1.650767721483434661e-02,1.430722732273306264e-01
5.135442926287138443e-02,3.423855803818687260e-02,1.451845478550248814e-01,5.879974355437165429e-02,1.475612082781425569e-02,1.830922171684864694e-02,1.843979796485257366e-02,1.161400092062428620e-02,3.167077602760984267e-02,1.772406166416957141e-01
2.462941623806021510e-02,4.521639557663207493e-02,1.420130056239057026e-01,6.884968228355607678e-02,1.355868383722447570e-02,1.363468973724393622e-02,2.705727873156630811e-02,6.111294906435983318e-03,4.916970902370088742e-02,1.877698045123769033e-01
2.780509360674307193e-02,5.804388045872693747e-02,1.403033629145136740e-01,6.776149965606409475e-02,1.334677521172160375e-02,6.836952766435665241e-03,4.921235621614679367e-02,1.907552382169718039e-03,6.244858814283247433e-02,1.640542998339566128e-01
7.016258979019941722e-02,6.808704717443425647e-02,1.455720219821097783e-01,5.968304569619572314e-02,1.478059859442523889e-02,2.842635974151067144e-03,8.941393688149389118e-02,2.464593959328928094e-03,6.126551677136670565e-02,1.084634609696237262e-01
6.800134642611981028e-02,6.196693584461147181e-02,1.471553976728264268e-01,5.204916682825423691e-02,1.580699734318219765e-02,1.167047552688782810e-02,1.294908638194531558e-01,5.855234120676851284e-03,4.539455851090323096e-02,5.218735091301335283e-02
4.352415876176399245e-02,4.365879669549449504e-02,1.263812400244467837e-01,4.741564916325795992e-02,1.543592822605363048e-02,1.307070521342198338e-02,1.380428086977774360e-01,7.471769115823043497e-03,2.629464146952153678e-02,2.974943059653119282e-02
9.999292345837816620e-03,2.622833982068073500e-02,7.803301495018336031e-02,4.245198994150873456e-02,1.350676665688699089e-02,8.109668830523952127e-03,1.129917434584995078e-01,5.682304350447670883e-03,8.921918585877965102e-03,3.290452263854880266e-02
4.825094162902581613e-02,6.258983259002733404e-03,2.149408229381778376e-02,3.328860786392228571e-02,8.266427255064524859e-03,6.731543121235430104e-03,8.742796824042566028e-02,1.562563617684442109e-03,1.219716992950461987e-02,2.115633391646524336e-02
1.018940776254273067e-01,2.518838581651575842e-02,1.794117006019166696e-02,1.976639703844997042e-02,1.702451378657218002e-03,1.393192330203068922e-02,8.443632545731040440e-02,3.478011167145686651e-03,3.490361236485994140e-02,2.091882555671894031e-02
9.517293157260940661e-02,5.607503870537160207e-02,3.516934902897439486e-02,5.634137864006115784e-03,1.428041413367249837e-02,2.300786117237064304e-02,9.097818286528283616e-02,7.734713256369731699e-03,4.674303412760021786e-02,6.881027880429378685e-02
4.514459859518730328e-02,6.433295592345936176e-02,4.442498839487371565e-02,6.192757304533821026e-03,2.531724949551315829e-02,2.663319285647986617e-02,8.492262241789519384e-02,1.048141991176502509e-02,4.439724109932376844e-02,9.871549481971206297e-02
2.186258254798514877e-02,5.027488744673082322e-02,6.018589480591921004e-02,1.730560213882059370e-02,3.213510530836077156e-02,2.585066469993702043e-02,6.641022687380840339e-02,1.380307645948915946e-02,3.738115224276685605e-02,1.166357308350739613e-01
4.389098400605973699e-02,3.818604320792690771e-02,8.728556754771678305e-02,2.795316057917181587e-02,3.429650835025845057e-02,2.457824507138577086e-02,5.169419040386230568e-02,1.945037470879229513e-02,3.023132192868287563e-02,1.482132121189478902e-01
7.035534656451472579e-02,4.565119213804973153e-02,1.224111209209570172e-01,3.332367773463711103e-02,3.325017973886505718e-02,2.312654440013062196e-02,4.950937812982770386e-02,2.450704273995816390e-02,1.882297150554205004e-02,2.075974504509220386e-01
6.566047863218518743e-02,6.575165604436872258e-02,1.605182689056593726e-01,3.534478516911276902e-02,3.249935831683573723e-02,2.061710652597540175e-02,5.365596773833494759e-02,2.433824650814880863e-02,6.801867257710537441e-03,2.744528273852159250e-01
2.418306198576722355e-02,8.334773732771728894e-02,2.020750493055398223e-01,4.791989931709055711e-02,3.508607107880213488e-02,1.844827687370621805e-02,5.222499860536239380e-02,1.892347654987107386e-02,8.724223229195372450e-03,3.136872456372335471e-01
2.709964456669233801e-02,9.569158795263987827e-02,2.468090496979211401e-01,7.587692190155924388e-02,3.899038467876911329e-02,1.806774820042550411e-02,3.735796545696123266e-02,1.211738367940057293e-02,2.980665977851128245e-02,3.194560044311920977e-01
3.473529755946346692e-02,1.090971538680978459e-01,2.796948382456890814e-01,1.016438508369298943e-01,3.855241052535375579e-02,1.800217447797276479e-02,1.202507472525661536e-02,5.632304172366029739e-03,5.455271238766460501e-02,3.180915520566924837e-01
2.357879327759073579e-02,1.270459584780753715e-01,2.829020257810460071e-01,1.100989401615664748e-01,3.299030944641703766e-02,1.580418760591597790e-02,8.417373970353966145e-03,2.021374649838591619e-03,6.515318634445545209e-02,3.262132510342048430e-01
9.884035083691727896e-02,1.504657790422235519e-01,2.661868327539891332e-01,1.114850310410402390e-01,2.926812147738110104e-02,1.163843939895227962e-02,1.166817371814365782e-02,1.115772125260180818e-02,6.333325045107650320e-02,3.220514557670711708e-01
1.306943886010522859e-01,1.796441481465019807e-01,2.629013299006797144e-01,1.214182057414005117e-01,3.292709478703940984e-02,7.762482445114534009e-03,8.058873605766849260e-03,1.922199726918728466e-02,6.358078067778225040e-02,2.658305375801543469e-01
1.101474908939120145e-01,2.087402462048016383e-01,2.881784249737851522e-01,1.347581916709979510e-01,3.983415708858637633e-02,5.229777780428865319e-03,1.767380834842733478e-02,2.325139384974665366e-02,7.079086335183835954e-02,1.573342846450714594e-01
5.076561757142206144e-02,2.279095397255079258e-01,3.201193159184480552e-01,1.380567280396771679e-01,4.137935800969869127e-02,2.941343297834613651e-03,3.691919158314397459e-02,2.138206180580395216e-02,7.659364257689874056e-02,6.222692446975394698e-02
4.202691550773871715e-02,2.363168090279423872e-01,3.321175552272971343e-01,1.338259421041585462e-01,3.605053896563329557e-02,5.618743854912851277e-05,4.224739510740278814e-02,1.292779049684080958e-02,7.550477398570142051e-02,4.354598639872258453e-02
1.372817875041820734e-01,2.434424452299164821e-01,3.266468706996132343e-01,1.349550693847823835e-01,3.135817674190938265e-02,2.523770782399026042e-03,2.798807769279329852e-02,4.394441188464266127e-04,7.353384755902692138e-02,7.676082005082930648e-02
1.746627053218766379e-01,2.530414389885719539e-01,3.212194627822077542e-01,1.424996898775054144e-01,3.347131484194801332e-02,1.911765707898240626e-03,1.131144882173120390e-02,1.471388015280129281e-02,7.857798562836365575e-02,8.799427225821512821e-02
1.344058237032308700e-01,2.558563879003605823e-01,3.148693182019564607e-01,1.421059978748140662e-01,3.901180408238862085e-02,3.124116456699416698e-03,1.462474201882280923e-03,2.668176907050009289e-02,8.866906019214258750e-02,6.270167198708775924e-02
7.116503728664480555e-02,2.412739748528274497e-01,2.892118175527744195e-01,1.216020906081840269e-01,3.993470022573310241e-02,1.112870689835873325e-02,2.130642244364443563e-02,3.564035443194744912e-02,9.286444783399815106e-02,4.782062685802625224e-02
5.432499392856245807e-02,2.059270911118778746e-01,2.349959908857445767e-01,8.466268402796504888e-02,3.321334567557721051e-02,1.776582889063398063e-02,4.566513615413227145e-02,4.135212945712624100e-02,8.211099874102392726e-02,5.855472605273749631e-02
1.009865659431287699e-01,1.514593449770459677e-01,1.616756480203505042e-01,4.513378459768357942e-02,2.222511298047802689e-02,1.801369021905680282e-02,5.208234853540466558e-02,4.270911541759487423e-02,5.760121645492320697e-02,5.605572489841677275e-02
1.656843304329479183e-01,8.559978957538931510e-02,8.596107511483123964e-02,1.320049783632097282e-02,1.121624640185632168e-02,1.090280477889758737e-02,3.116432074823938247e-02,3.885379342034687988e-02,2.796000411101630390e-02,1.788257024875136020e-02
1.741329196055284301e-01,2.219804772526029479e-02,1.896599236550743431e-02,8.717169196628045749e-03,1.943949234837618039e-03,1.798208522371015075e-03,3.478496925022526217e-03,2.947739333335910872e-02,5.318940292626641100e-04,2.943004124293310819e-02
9.027361000340737573e-02,2.956853209497508836e-02,3.881011756693195786e-02,2.130425808822549588e-02,5.410086326735572340e-03,2.708279511540063848e-03,6.701100033305387726e-03,1.478654125764314493e-02,2.104157992865834589e-02,5.830344149037715307e-02
3.274290562307497626e-02,6.918642556631590668e-02,8.930190927833828174e-02,2.655422785683630299e-02,1.061987433787588489e-02,1.887644396787295249e-03,5.748535402003264808e-04,2.372831466336459624e-03,3.345816367623433846e-02,7.538861231234697535e-02
9.976455063722387828e-02,9.390941408383353395e-02,1.236425525581689305e-01,2.865602142026113172e-02,1.321418484736455040e-02,2.331689408965875992e-04,3.408989016414938275e-03,1.613484694252702301e-02,3.501430568001805133e-02,9.138053997961066710e-02
7.577432448286437749e-02,9.788944817395750508e-02,1.289367919708782617e-01,3.139466975519616954e-02,1.359517156050160137e-02,7.393449025767644817e-04,2.648055744321196545e-03,2.248946182313170047e-02,3.035499043079273318e-02,9.233228974733262429e-02
6.187291217075105432e-03,8.615437197332972974e-02,1.107301328175071403e-01,3.573357658461564362e-02,1.402497128576893522e-02,2.588332911826145451e-03,1.193265421896916659e-02,2.273938593004114911e-02,2.836770173623303151e-02,6.781732622739933269e-02
5.630531176732588017e-02,7.591812614420510863e-02,9.316677230847231206e-02,4.207968548584854057e-02,1.748600542935828395e-02,4.921235294418482148e-03,2.101659646691211164e-02,1.946325092666581838e-02,3.420977726036784905e-02,4.041503817460211784e-02
1.038980999169797914e-01,8.074691183045780429e-02,9.288285242962765476e-02,5.161294886669921811e-02,2.471745775103376119e-02,8.390606527957891053e-03,3.381998259727939798e-02,1.222652589076888771e-02,4.590484511704633758e-02,3.756205544885633796e-02
1.473744155493526276e-01,9.994424144880506566e-02,1.056827665459732501e-01,6.321563211889140443e-02,3.273759471311711577e-02,1.252430736516773994e-02,4.940287623148776480e-02,1.569413325076525348e-03,5.749875642662732184e-02,5.440627617118704018e-02
1.658241658239849314e-01,1.220197039647824416e-01,1.204130041394340517e-01,7.340853138622981111e-02,3.746133543706164915e-02,1.564230910683991199e-02,6.237358542842986325e-02,5.678099775998554297e-03,6.313038776725628243e-02,7.115400491335079070e-02
1.174073208345770281e-01,1.367438733573557996e-01,1.344760708989323206e-01,8.191838780665873510e-02,3.818218628081544719e-02,1.824278814377927604e-02,7.319131543745549529e-02,1.983705176560400518e-03,6.042665258195373951e-02,8.543370840343880723e-02
1.225687433134133204e-02,1.453740536738647449e-01,1.513403621384988018e-01,9.125518398927680297e-02,3.787281924258860399e-02,2.267584216293159691e-02,8.418540519865927441e-02,1.024567667094036447e-02,5.261698253649382123e-02,9.996886349765371493e-02
7.201488966514540957e-02,1.540293721712010233e-01,1.675083699944200089e-01,9.720300133333065196e-02,3.810260968528099423e-02,2.818434758987809624e-02,9.117054281172470853e-02,2.105037678755918712e-02,4.545512489788283705e-02,1.013503397424422997e-01
8.911642618507086000e-02,1.576825992129865794e-01,1.704610393111153643e-01,8.916790329284321470e-02,3.640324831469298611e-02,2.994614615339713515e-02,9.154205273974938550e-02,2.619242658845927912e-02,4.125053145273085281e-02,7.926593021412539630e-02
9.110222408410312278e-02,1.440739326391246578e-01,1.545866173257186282e-01,6.625605225129936604e-02,3.069736453424030953e-02,2.534660129942737858e-02,9.107747876332020209e-02,2.935879189247297960e-02,3.843801302586271479e-02,4.747152574977826778e-02
1.495412105155317917e-01,1.130034577190685841e-01,1.301269908204014114e-01,4.185670848959212320e-02,2.324308973279818821e-02,1.866241929325866342e-02,9.187716401979910408e-02,3.138044129217817252e-02,3.574048080648890152e-02,2.616379906337862327e-02
2.524205306510353131e-01,7.720135465056532365e-02,1.078350258230322128e-01,2.538053880703141155e-02,1.775852296921646631e-02,1.671818870604619908e-02,8.662651932004805655e-02,2.796935657854001875e-02,3.259951785288735943e-02,2.165433169265026589e-02
3.189215688355219180e-01,4.782221859702584510e-02,8.684126592515972742e-02,1.238786494392392704e-02,1.537832203470517432e-02,2.090110889955149043e-02,7.408045376220014078e-02,1.930781139144301453e-02,2.753504926265316205e-02,3.321011572830764869e-02
2.938057255568953252e-01,3.167798736022096884e-02,6.727675390393628163e-02,5.487203342564184877e-04,1.533938154587333007e-02,2.614945388305146834e-02,6.636987867923524465e-02,1.204755163720607619e-02,2.123986422304934008e-02,6.136693921345860725e-02
2.048896238197285280e-01,3.541932652162269046e-02,5.997026510853171316e-02,5.455515526942541008e-03,1.714331414012500165e-02,2.779144594904789031e-02,7.320404536043716159e-02,9.294406335823039364e-03,1.960015156439864209e-02,1.006961881543596976e-01
1.245049245834782825e-01,6.001289606135035842e-02,7.205013213487697354e-02,4.510568540559511605e-03,2.029311274945541990e-02,2.629415480522800594e-02,8.873341769388877476e-02,6.051654386234225219e-03,2.845745124486728089e-02,1.343611463090903235e-01
8.653655664512985290e-02,9.278048340038795583e-02,9.397107354414097058e-02,2.324297997351595230e-02,2.350435612634492813e-02,2.403456069566452247e-02,9.778491891731773411e-02,1.353660030669002947e-03,4.567092047413243844e-02,1.434339193613034524e-01
6.719015605633014976e-02,1.125048139123532714e-01,1.101317586262015868e-01,4.021799731488696905e-02,2.551842773557971150e-02,2.069501045623681548e-02,9.011844288751151566e-02,6.755853019345859148e-03,6.221621263861974727e-02,1.246525581900737728e-01
3.220968661241627867e-02,1.091390463567815244e-01,1.159082363989318853e-01,5.381559586202382117e-02,2.585470503898931738e-02,1.474352593065735018e-02,6.954559570028893967e-02,2.126319494541633985e-03,7.164915612114100552e-02,9.918751714868556668e-02
3.521393790634683857e-02,9.590247083960863617e-02,1.171516557081928867e-01,6.817938940435955275e-02,2.415044303883172663e-02,7.340634284575378414e-03,5.140408710284270072e-02,8.854880547968287802e-03,7.507249916057809336e-02,9.534534699013028081e-02
1.266962392436023765e-01,8.910074246213622873e-02,1.160011997969913333e-01,7.947014146632788711e-02,1.981616012243484284e-02,1.531945239298285449e-03,4.841509622367151655e-02,1.447449976360385901e-02,7.493193927061657378e-02,1.165295571609597514e-01
1.916821416682767676e-01,8.082319250631199437e-02,1.059484731487401743e-01,7.497357190210292288e-02,1.293335376790457139e-02,1.469015232623461023e-03,5.841165476850182503e-02,1.120994263604022448e-02,6.799609787951511886e-02,1.370772330906332714e-01
1.695383840756344296e-01,5.375491324476008165e-02,8.383013317968447675e-02,5.012082877458411828e-02,4.651536239486889907e-03,2.472137199937099114e-03,6.832444019230654586e-02,6.479581447120254765e-03,5.004551272275895024e-02,1.383571254264486239e-01
7.142442051570985218e-02,1.745359161269474657e-02,5.920723314097024736e-02,1.870905977664424208e-02,3.257382406707698842e-03,1.576836685569883711e-03,6.789331411514250292e-02,5.414838713046410054e-03,2.616516612853337503e-02,1.306871152504592848e-01
1.559463358866335948e-02,1.025244420986223121e-03,4.600734994903420833e-02,9.807552531775872232e-04,8.523108717918205512e-03,1.383868643539101252e-03,5.333940248074856005e-02,4.814232000661579185e-03,9.587406193750045227e-03,1.219889013384256315e-01
3.168572427456252394e-02,1.086941343753574860e-02,4.836230625690203511e-02,4.822887294858066443e-03,9.420912785264728279e-03,3.255071442075805222e-03,1.955801736412330141e-02,1.955752245552554256e-03,7.824185890407637373e-03,8.905292702257128212e-02
8.828997466400477154e-03,2.252740655805845343e-02,5.706734993716915116e-02,1.187268966599354381e-03,7.138505160162366726e-03,1.477753440808006686e-03,3.814231597027339937e-02,7.026894521795243407e-04,1.436345889803168976e-02,1.205452515561529145e-02
1.057620313273225331e-02,1.791390455978788751e-02,5.746126561354780032e-02,3.455169533309911112e-03,5.377498409578514854e-03,1.347296312326327732e-02,1.086670326263997621e-01,4.468043809873839534e-03,1.698544166194562374e-02,8.007583395929913916e-02
4.254898887388523093e-02,8.635315643483814155e-03,4.192333609990035737e-02,8.668386487623445241e-03,6.098363390582461213e-03,2.536111205185281534e-02,1.634068115144948485e-01,9.066613882086453635e-03,9.989828250627216105e-03,1.328845790873824373e-01
5.449924038794577014e-02,1.230248740145616256e-02,1.731659020283122380e-02,1.240107018130644570e-02,7.503752065701182160e-03,2.901959296930193416e-02,1.797492809973564865e-01,8.190605419008938765e-03,5.024359725620030151e-03,1.251537397151651909e-01
1.787441386763001169e-02,2.156938597512656625e-02,1.803680864915583812e-03,8.989914778635098996e-03,7.107701699876044395e-03,2.390562673683207379e-02,1.609403323100465633e-01,1.831891314437315366e-03,2.469327053245471554e-02,8.136241767686935855e-02
3.493868559808102625e-02,1.413751798060018314e-02,7.559795139803857089e-03,2.134010280607156855e-03,4.529379288527621977e-03,1.568301584787043165e-02,1.284811007851011377e-01,6.564187220016605602e-03,4.471061670167147256e-02,3.835295831838702457e-02
5.300870176725955285e-02,1.433411775422368563e-02,3.092696073875238205e-03,1.257933532559275293e-02,9.358014170835237452e-04,9.417389857521727206e-03,1.025167606187651764e-01,1.666373414767239811e-02,5.886226640738127791e-02,1.876721859854175306e-02
1.723640694588033512e-02,4.605535413739574035e-02,4.611837938213372151e-03,1.429162564460193484e-02,1.727193667169704813e-03,7.547464077386405699e-03,9.459793357971994776e-02,2.782114155951740525e-02,6.194928178571498106e-02,2.717198503654231351e-02
5.309008398416464186e-02,6.538202559820141535e-02,1.038943797015836994e-02,8.240031349442516681e-03,1.049722918541716107e-03,1.175736888067157281e-02,1.097798217689568007e-01,3.386865321929580924e-02,5.327476951168307051e-02,5.536197645804441514e-02
1.115212669991474392e-01,6.954355717162266637e-02,1.225321429487222051e-02,1.076408270411942890e-03,3.768504612157440835e-03,2.161010866430360458e-02,1.418310766449665250e-01,2.945610072977528082e-02,3.680660727701724061e-02,8.906011486121646892e-02
1.055018171751668093e-01,5.839664946701966786e-02,1.234671438416408244e-02,2.523792558271546142e-03,1.026167314886550393e-02,3.184823487292117589e-02,1.671281537775825277e-01,1.827105236061483950e-02,1.848761104981191949e-02,1.128989080995372457e-01
1.963931414027645858e-02,3.104833153488099212e-02,1.349196437867702242e-02,2.729007310131851497e-03,1.454572044282790959e-02,3.533690676531481278e-02,1.575161405610335796e-01,8.738679057174661771e-03,2.660517274741844556e-03,1.156037524727087096e-01
9.899618769239483529e-02,4.953785998895647233e-03,1.243427159616245642e-02,3.374176856402507068e-03,1.440685998106634724e-02,2.960223187428046368e-02,1.080388342806005708e-01,4.712295943869434893e-03,8.910307982397142057e-03,9.720560218468062008e-02
1.772430735217778996e-01,3.374421962476598091e-02,2.408554017612141163e-03,7.575056782874707052e-03,1.085660358432200684e-02,1.892771915920960293e-02,4.773915725578702085e-02,4.478653603811031531e-03,1.427173690904173092e-02,6.728767448416095309e-02
1.822927520631359433e-01,4.708058722521314687e-02,1.551311891127745562e-02,1.225509936554664003e-02,7.744284358595747431e-03,9.903740720337728121e-03,1.397169422651311534e-02,5.465679487635157277e-03,1.047927030852899635e-02,3.193960568469540739e-02
1.468828867950759398e-01,5.229074044625887235e-02,3.083360814262463279e-02,1.043152402565974968e-02,8.194610659191026159e-03,5.276454481807080210e-03,1.321857029657116413e-02,6.460574166833380622e-03,1.499267843209201988e-03,8.868034006142874737e-03
1.269510628364062532e-01,5.603882628925949821e-02,3.609258900121194158e-02,1.353323087773030623e-03,1.035632233156633629e-02,2.185845134744199801e-03,1.593340285568945608e-02,7.053478334786759257e-03,1.353317169722579975e-02,4.719172855897234981e-02
1.454092055148713258e-01,4.983982358919483713e-02,3.435376502637862983e-02,6.670879813971679340e-03,9.635558010596094111e-03,3.217450578194325488e-03,4.025951417870397842e-03,7.228653889863444031e-03,1.618634845846494974e-02,6.447468173974035821e-02
1.880857234379159082e-01,2.619167052579549071e-02,3.166349811691562821e-02,6.125052855217361959e-03,5.773863870504564871e-03,1.015115335847277186e-02,3.749800274392782462e-02,7.566364951261171298e-03,7.396184667617469212e-03,5.272119035394913500e-02
2.331867814125725413e-01,1.525991030867111797e-03,2.878732937658988814e-02,1.901047139530097222e-03,3.387567851332934886e-03,1.394139410648796706e-02,5.826819020491530443e-02,8.880667424920239694e-03,7.256869571594330021e-03,2.755102398979249884e-02
2.586714367628135669e-01,1.485634147854318458e-02,2.484241063391845472e-02,1.104084143082809284e-02,4.631214453969630801e-03,1.215387859275743332e-02,5.863329102788347735e-02,1.039478185633766101e-02,2.180379533760181190e-02,9.704947441249297743e-03
2.437673264952268104e-01,1.575787101100320844e-02,2.336208886997334644e-02,1.592995670828419030e-02,6.178845696581644446e-03,7.547843076755312436e-03,5.038635097277222030e-02,8.879603243512938782e-03,3.381572870238426509e-02,3.250257421441834875e-03
1.924905068469008329e-01,1.714618800227515200e-02,2.804235961263285698e-02,1.449457026605359411e-02,4.880107394179814505e-03,4.306167380570301469e-03,4.227308773528161423e-02,2.219882808757550792e-03,4.102728203831134540e-02,2.579918700502470321e-03
1.336665018093986246e-01,2.058788495334245780e-02,3.572152880177777157e-02,7.486495347141546540e-03,1.962793076272945428e-03,3.784518698331349081e-03,3.606091134154570943e-02,6.640991934071241963e-03,3.869198303647858328e-02,9.604681449716621910e-03
8.455349184387851713e-02,2.123304754544897213e-02,4.039219233961989508e-02,4.151294425819757744e-03,9.488860504444879100e-05,5.014067374874080218e-03,3.778387998829031702e-02,1.256473978913627207e-02,2.401141139285346143e-02,2.995368334563751692e-02
4.918300103277711832e-02,2.074150553441298991e-02,4.219959524905523424e-02,2.119663416908667761e-02,4.827436987923363829e-05,6.933870252398353050e-03,5.320888766659379043e-02,1.399783913944401686e-02,1.950244821114878631e-03,5.922114625398217785e-02
4.783486362826685351e-02,2.042336397065453238e-02,4.598811397085338787e-02,4.181445214550330580e-02,9.370650911637433845e-04,8.501157279656050558e-03,7.452234843207819481e-02,1.270035143083578753e-02,1.683787712761892000e-02,8.536258496918588956e-02
8.791162493567425407e-02,1.631426993566198469e-02,5.206539531655642039e-02,5.728075896025985186e-02,2.502235489892972332e-03,8.276570475659626724e-03,8.599566857575571821e-02,9.951572395514909561e-03,2.519449107328819784e-02,1.016483177999515652e-01
1.097196854035727975e-01,1.142507228986895662e-02,5.453894606446769988e-02,5.935650177694900415e-02,3.806588863310312633e-03,5.806601924977592560e-03,8.112323806469050325e-02,6.385180973163939906e-03,2.506882344001663127e-02,1.080744216765920640e-01
3.877674151896214061e-02,1.675010812305238045e-02,4.934759319272910560e-02,5.078297848485510690e-02,3.732961721862390527e-03,3.038075893204319859e-03,6.664988723853602914e-02,3.048607306353896731e-03,2.278131227876918977e-02,1.019644393224105050e-01
9.721309185061184632e-02,3.205629228761696509e-02,3.935379466497848644e-02,4.086539414290871891e-02,1.867241283508538213e-03,2.749223739361946958e-03,5.413244786085986276e-02,2.182221708927113441e-04,2.048979850440200284e-02,7.962760398626041181e-02
1.785933478232849259e-01,4.080653512007120093e-02,2.949084731766530437e-02,3.283659489864604319e-02,9.388460448003702443e-04,5.188212828496442663e-03,5.034314646336964655e-02,4.901405894894624721e-03,1.533024048631547939e-02,5.099447585403041328e-02
1.418600850469146635e-01,3.164701371349953191e-02,2.004801150721152378e-02,2.418059333642756659e-02,2.983970098738383640e-03,7.686759478210814303e-03,5.121331777007039759e-02,1.034046429614958983e-02,7.012795845670147243e-03,3.611623655588940690e-02
5.720177606938507686e-02,1.423169510064248994e-02,8.831094970142967099e-03,1.658959447217343147e-02,2.896954591891883792e-03,8.057229828376550468e-03,4.757436268818334563e-02,1.342843060014723734e-02,2.479901700631976982e-03,3.599675167964765110e-02
3.635296657322538427e-02,6.509228482078862656e-03,1.729237632707067082e-03,1.485235555130962060e-02,8.354376206912979101e-04,6.507651334155966499e-03,3.858658882700505277e-02,1.405192973930084223e-02,1.017824545504576045e-02,2.545314055992796073e-02
1.077003231371266162e-01,1.185711120978557957e-02,5.891163870807165567e-03,1.663270319475763231e-02,1.734899886303766089e-03,3.565405663792247520e-03,2.883580832026344867e-02,1.671279107754415627e-02,3.123179039540096083e-02,9.252813803126758163e-03
2.053427196394614906e-01,1.704674926640351723e-02,2.998499031810049342e-03,1.380550772859886685e-02,3.803137834660970384e-03,1.359940408766988377e-03,1.349501806857050096e-02,2.311094746002213124e-02,5.779313465719859017e-02,4.621109540562677587e-02
2.514513318750913329e-01,1.155993900759900994e-02,2.165043774452420772e-03,5.193926639649181463e-03,5.699403258702447940e-03,7.842220285270474350e-03,1.487080787894141769e-02,2.744211163450308716e-02,7.865563868487476795e-02,6.076114932649693406e-02
2.206700909107045805e-01,1.924683146690628344e-06,7.264992131035567444e-03,6.707134742613765632e-04,7.605794999243244495e-03,1.327025890233698817e-02,4.884840446401741282e-02,2.377953769666177330e-02,8.624690150453684367e-02,6.353349205207403649e-02
1.389586454646325742e-01,4.378218255131307267e-03,1.341070575112669749e-02,2.142427768869841626e-03,8.340740733077244007e-03,1.593483421887914239e-02,7.698546773830546031e-02,1.424971829796793481e-02,7.949932361470343767e-02,8.329102509215363659e-02
5.632755280254544972e-02,8.541987287661957640e-03,1.875183593469501378e-02,8.718820436395222431e-03,6.987228048784952482e-03,1.722978501028344864e-02,1.012091269477371769e-01,5.275455016426395909e-03,6.113063556794109954e-02,1.224532653367947227e-01
2.430122522963542794e-02,3.560241223647367392e-02,1.894139752290951301e-02,1.070463816001502103e-02,4.619641647734914168e-03,1.844824028989752035e-02,1.215258534101144594e-01,7.323405174088488912e-04,3.576098746557345581e-02,1.500703177688437473e-01
6.425476217132887469e-02,5.754483693432530661e-02,1.469878756913023735e-02,6.719931573576551007e-03,2.835870924439381699e-03,1.759507913940753718e-02,1.215444889620344582e-01,5.626714981991139120e-03,1.243351609848274142e-02,1.403201237813842817e-01
1.400464805145358871e-01,5.696439881265444316e-02,1.216962607936013761e-02,8.419799767885819547e-04,1.639653368657661070e-03,1.241390587629912293e-02,9.256435398255624669e-02,1.034802057154115239e-02,2.095258277809473359e-03,1.049903008223209006e-01
1.869543893524820977e-01,4.145734202426192005e-02,1.468629057110272876e-02,5.168883658359106799e-03,2.523197296833045366e-04,4.817347175474603199e-03,5.342785664751834723e-02,1.355322808218283916e-02,6.602790218616965551e-03,7.802664371215889405e-02
1.805875080436261659e-01,3.517013614593279131e-02,2.038661734791746144e-02,1.099386947848473954e-02,8.939914845137478206e-04,1.173184228992421021e-03,2.512474368949197540e-02,1.436096247902287314e-02,1.543538352383660647e-02,7.421550646426093578e-02
1.500819268021065522e-01,4.726607167867036274e-02,2.859577118371095517e-02,1.100525216115201890e-02,4.154290257404150448e-04,5.009895071411829028e-03,2.240493890610919733e-03,1.402387615568057543e-02,1.830383859895108947e-02,7.748587280024414603e-02
1.209596883646173321e-01,6.238945583789901744e-02,4.021113384531640328e-02,1.489206201835357752e-03,1.862294306867210911e-03,9.611634074035452224e-03,3.020617866484578626e-02,1.465784291135662637e-02,1.559063245795179291e-02,6.820561842628190818e-02
8.887330572999800615e-02,6.128680519420230677e-02,4.931024205088680584e-02,2.106251290746677385e-02,3.806592525107707452e-03,1.589235718159768412e-02,6.497814274230852283e-02,1.662466144884413785e-02,1.264965634987765333e-02,4.666627965070060252e-02
5.310066561893782983e-02,4.044982497319898895e-02,4.420100944355373485e-02,3.143791783834579134e-02,2.670964462598881574e-03,2.097400940910658373e-02,8.128902165038695560e-02,1.739523390854713636e-02,9.811631161250056188e-03,2.688668529534630341e-02
2.876603653242302758e-02,1.404724614911767935e-02,2.297745127387104333e-02,2.419874975945129209e-02,1.845630400435620006e-03,2.260343886195716537e-02,7.896751149746750187e-02,1.402829779755290253e-02,2.480826539908417665e-03,1.759106064643892187e-02
2.647992845788219030e-02,4.039438373180628990e-03,6.005117632279207210e-04,7.562310128535474837e-03,6.882900644665930837e-03,2.178663305214376469e-02,7.652157494842165564e-02,7.592625436210543796e-03,1.148837486773389947e-02,1.541054497240367839e-02
5.088248611113711101e-02,2.351239520004405267e-02,6.973420312089213119e-03,6.494060919335799612e-03,9.649423120909097693e-03,1.984607290931890769e-02,7.410183543957618579e-02,3.634149874455861167e-03,2.736121045944628349e-02,1.540313360007596576e-02
9.499491971127979606e-02,6.157668026083099044e-02,9.799600535594010439e-04,1.460922492469137433e-02,1.033225467859891222e-02,1.630650218920372263e-02,5.029670309311705390e-02,5.524122716120030696e-03,3.643288815730204300e-02,2.033858361592451314e-02
1.194900742928416554e-01,8.932780220089142631e-02,5.323815023061139774e-03,1.803691931977489948e-02,1.016591807496646828e-02,1.103750462138629145e-02,4.022181116940404949e-03,8.815699682484825356e-03,3.244268079171443164e-02,3.188793380439443326e-02
8.621971814005940926e-02,8.855678938430748548e-02,5.928017697109726550e-03,1.543429640133044123e-02,8.591377914897840515e-03,5.631154416274806486e-03,3.244884530390371169e-02,6.836529133841530784e-03,1.588515952366793479e-02,4.036139482542595858e-02
2.292323465943435848e-02,6.891091975342730769e-02,6.281994714516924740e-03,6.305348107211028799e-03,5.382878137142999009e-03,1.940108060914073115e-03,3.320652628280792995e-02,4.737218793168051058e-04,5.399490337087917320e-03,3.609549440955328592e-02
2.084240975214661853e-03,5.016099230185010888e-02,1.055856944858397928e-02,3.576721709896307257e-03,3.153793957037773904e-03,9.381816434975304977e-04,7.010703689121899375e-03,3.135756706934778038e-03,2.035570476068078449e-02,2.449718842163198240e-02
5.127520725022378933e-02,3.795677936048118956e-02,1.616387718048196281e-02,7.018974773373047767e-03,3.845083983233029724e-03,1.971252128457630544e-03,1.668983018812940713e-02,3.101734899385139802e-04,2.253201252483992903e-02,1.668760807704015858e-02
1.251512754756522461e-01,2.617787924463348820e-02,2.033237642842126297e-02,3.273958559347350111e-03,5.570098573767693836e-03,2.387591819682247530e-03,1.315174776948941499e-02,5.965295440109378428e-03,1.339079382319507787e-02,1.162856377669280530e-02
1.595167192338690365e-01,1.119448122927069536e-02,2.206963136998596475e-02,3.527302961044580243e-03,6.590170223023671808e-03,6.097012293677017344e-04,1.738664824338399459e-02,1.137420337946098980e-02,1.836406596152736614e-03,9.883245834808873642e-05
1.187347897195273755e-01,7.863417899181561824e-03,1.909338273946620257e-02,1.033691200750650081e-02,8.355013570824276412e-03,5.892706023336653949e-04,4.485122408153681406e-02,1.418625600213493237e-02,1.676336503733200436e-02,1.836259630573721519e-02
3.452787624176096356e-03,3.326787803136636856e-02,1.089451933277012230e-02,1.568666471345610963e-02,1.113956107018445468e-02,2.326562090733375141e-03,4.117774004848680225e-02,1.405673794916663215e-02,2.392066875401957157e-02,3.431199809724004568e-02
1.416396998225849801e-01,6.183183057696430701e-02,1.840083512569773688e-03,1.873285793259351142e-02,1.174220928527796616e-02,7.544163470923568801e-03,1.691889820599773789e-02,1.113810625509666086e-02,2.036473543524889782e-02,4.307433505804651730e-02
2.288195797966144363e-01,8.151564820118674393e-02,4.017420361376238674e-03,2.099976446688462534e-02,9.138347988865303667e-03,9.877342005089311677e-03,2.354903999866700924e-03,7.514532571547532375e-03,1.220010162087892779e-02,5.061602714626849825e-02
1.928942162773172597e-01,8.412504028353795515e-02,6.936935979733438451e-03,2.442880439582260227e-02,7.352532817004283835e-03,8.330470115878819970e-03,8.910436916829871448e-04,6.164402621158139930e-03,6.714284321751669629e-03,6.234748195075556082e-02
7.124747389390623242e-02,7.250369180124620339e-02,7.148709035311277826e-03,2.637097166587288807e-02,8.796259739328614671e-03,6.714938520059139139e-03,6.073446454362891635e-03,7.293537711599275275e-03,3.302600458619717010e-03,7.416556773678609216e-02
2.600299195996510354e-02,4.840669291687584030e-02,1.900655384507868913e-03,2.201228589242278100e-02,9.068077750584819033e-03,6.453788128092487371e-03,1.754677524914524320e-02,8.073332699649904756e-03,1.539582654346784065e-03,7.979607869853674873e-02
2.448690180864425761e-02,9.795826168202202699e-03,8.860092430765296664e-03,1.226181679013199632e-02,3.000039973882600783e-03,4.358599314437783430e-03,1.438678539228768066e-02,5.610876792167989076e-03,5.485072141462643373e-03,8.011106148603515387e-02
7.065972449737877026e-02,3.075921282764574119e-02,1.797201446330246380e-02,3.427475448658349761e-03,6.878463953826058526e-03,1.198571270658956890e-03,2.351483097056912986e-03,1.743396963353806587e-03,3.892652271966941073e-03,7.717453284638435551e-02
1.986394444101279577e-01,4.809023121972749726e-02,1.826374929217019355e-02,1.284712046133838206e-03,1.296049954547177398e-02,7.820272044340811912e-03,1.073833741008401246e-02,1.337858571491662082e-02,2.494717212702294608e-03,6.387549673772446868e-02
2.654863011991950850e-01,3.824560381946971038e-02,1.214903371205910965e-02,4.527790090138720559e-03,1.259848366194608882e-02,1.419484327700947998e-02,4.582616714790621951e-03,2.429672977826335262e-02,9.862105150424033823e-03,2.994574821625467509e-02
2.021382919515126164e-01,2.730243233026930991e-02,7.590649196887647339e-03,9.056707271298482589e-03,1.065038988625429187e-02,2.157508698464207300e-02,1.905173059296072415e-04,2.751013715750344479e-02,1.693023149699058802e-02,2.090915719145623741e-02
4.705388929714793972e-02,3.338411707750025409e-02,6.171688749505984013e-03,1.408290211674483212e-02,1.167488427351706833e-02,2.888917239752614510e-02,4.529003626423307519e-03,2.102999815012924004e-02,2.261862542127884498e-02,6.753846812133131039e-02
7.951704804431401763e-02,4.202074845683129861e-02,1.975076201064303750e-03,1.701977774974467589e-02,1.388638448814044635e-02,3.189099526913505289e-02,9.090022903142851857e-03,9.506850931863186291e-03,2.294332487343946070e-02,8.907219959329334968e-02
9.971526006346037585e-02,3.177198046656808800e-02,8.680879606444737162e-03,1.521266400824381783e-02,1.266470440036121005e-02,2.828239035794661779e-02,6.842161266931420793e-03,1.892999266994404694e-03,1.634681149717925538e-02,8.247405923666269179e-02
2.903470391031292078e-02,4.192318441139168163e-03,2.244777769761183150e-02,8.041283348513795712e-03,7.612769543750166554e-03,2.003615740664411657e-02,2.972475802896306328e-03,1.114011829696087176e-02,8.679209292627242112e-03,5.952161091901962686e-02
7.503733546524643527e-02,2.464037575355751061e-02,3.380956615029685752e-02,4.837071429979642682e-04,3.625799514497075014e-03,1.077207552452590089e-02,5.688175491153559405e-04,1.622480992433847011e-02,7.462799500407523573e-03,3.264983607562582657e-02
1.524850613796876753e-01,4.593896302241116253e-02,4.051022715470525837e-02,1.320758816956685679e-04,4.701213124358604237e-03,3.327576869357197833e-03,5.001580554525874266e-03,1.421608330097430019e-02,1.326770808262025050e-02,1.049610598126496722e-02
1.542371489761131531e-01,5.896231111793925200e-02,4.336742352714807736e-02,7.037758745378544338e-03,8.639541642974998478e-03,1.056426342815999612e-03,1.591075454346096291e-02,6.577827087164174816e-03,2.057599655079092940e-02,5.902197075709127855e-05
8.096397716932864086e-02,6.328437502503291012e-02,4.352098827483973087e-02,1.217652293574083416e-02,1.013219767216210106e-02,3.113306143813115642e-03,2.859930396948745859e-02,3.498270499590542919e-04,2.502580897043534328e-02,5.417441950342353259e-04
1.412604111467639402e-03,6.256940032088428860e-02,4.252072032518446065e-02,8.970883075918718169e-03,7.755089457850925308e-03,4.552107619555169869e-03,3.983110507267771661e-02,9.790578218140974878e-05,2.648138036909702259e-02,1.222123369207730233e-03
8.957068239040869018e-03,6.718456854612789297e-02,4.442394423249853425e-02,2.170506126993401470e-04,4.426072442913225706e-03,6.087320903369566015e-03,4.686856720299881901e-02,1.829756343882396174e-03,2.699659892657263818e-02,6.422237987736723053e-03
5.536257432953206603e-02,8.396126114944803265e-02,5.398691665297758457e-02,1.105176952233071115e-02,1.835876163050907152e-03,7.077369808621883883e-03,4.587765200600023990e-02,1.493336360980269386e-03,2.893459022665021904e-02,1.645942757474601337e-02
1.331812085114236766e-01,1.078229694953457829e-01,7.011384065808035082e-02,2.298401167585854485e-02,1.279028553226336899e-03,6.871355117597779602e-03,3.638751297748006597e-02,3.883819510402094013e-04,3.381371091533980772e-02,1.917036567220023816e-02
1.648199161809063840e-01,1.257000248414100185e-01,8.237342133356631568e-02,3.464975581391620957e-02,5.044802719640654499e-03,5.620797178472065544e-03,2.184629436148549653e-02,1.083937711652305539e-03,4.091808991903304188e-02,1.498168080779298944e-02
1.447327410164035988e-01,1.253519048427771954e-01,7.850862656327542433e-02,4.023900947421996804e-02,6.664171547651653177e-03,3.814721239418665533e-03,5.611892793711438857e-03,7.934898914586068896e-04,4.761996811241673427e-02,9.956591054776409849e-03
1.172319462634535542e-01,1.043599381441924212e-01,5.841748594257567540e-02,3.609950944777173820e-02,4.560255173422122187e-03,1.924472705128662912e-03,6.075376332558075215e-03,8.492881894802861882e-04,5.043031151287739877e-02,7.612760369226324528e-03
1.259945708184733171e-01,7.492055331104280347e-02,3.665969325501700765e-02,2.707807665046483431e-02,1.583407182637476540e-03,9.073302805603039676e-04,2.908032253296713963e-03,9.793822671548928216e-04,4.470866635468344341e-02,1.114865884747969112e-02
1.613977531725188652e-01,5.432197518371295608e-02,2.564774941804680991e-02,2.035564604105235750e-02,1.264740668315358007e-03,1.708534458874296901e-03,1.674178196495048829e-02,1.353352134208012265e-03,2.765239252104360196e-02,2.217605005716433500e-02
1.653775298507827451e-01,4.896558697481372124e-02,2.104148798738334630e-02,1.553854926304165489e-02,2.556082776884374859e-03,3.094029866478735860e-03,3.785905341305110389e-02,3.969525316851868317e-03,5.153064655881455652e-03,3.291410579619286070e-02
1.028663547096438091e-01,5.450658598918294712e-02,1.225188955376728568e-02,7.469605879321242377e-03,1.829947644973097236e-03,1.932636492566694193e-03,4.406324320426628638e-02,8.714138124712375588e-03,9.506800468083243319e-03,3.138576887636732038e-02
1.476186008327312962e-02,6.673951397705045474e-02,1.949670711078434551e-03,2.405671153353721933e-03,1.038961178458211020e-03,2.559770847677351330e-03,3.578228082187976528e-02,1.117531324181063671e-02,8.506263099290598331e-03,1.781716946232369744e-02
2.403951768173984149e-02,7.937836904383932524e-02,1.900804510449827234e-03,5.384999970922039504e-03,2.702341494660063809e-03,7.180850427255148702e-03,2.419318955504520460e-02,8.742679070726268320e-03,2.520410663807194813e-03,6.135892666125462511e-03
1.152883055138373414e-02,7.885929837305649670e-02,1.213072941805667243e-02,1.738381964009659639e-03,1.771476332165165942e-03,9.009025051857088434e-03,1.278232812725550380e-02,5.696226248368209226e-03,1.199895304951868399e-02,6.969612322803846183e-03
7.234157860702859766e-02,5.902414818776128419e-02,1.915088780764384949e-02,1.020434856562413631e-02,2.127611757291914842e-04,8.637220782921247939e-03,3.094978610258825209e-03,6.693640723267646128e-03,1.471762392107397142e-02,1.588578040200929256e-02
8.216110531961130781e-02,3.431007437420747347e-02,1.591653398350484361e-02,1.023562885287614133e-02,4.291738769757378301e-04,7.938307125518590662e-03,2.105139783927141572e-02,8.958581911845162060e-03,1.422437574264484063e-02,1.976166650140280534e-02
6.135480431001118923e-03,2.146608680195894597e-02,1.052865587390442240e-02,3.151253606848695987e-03,9.160222176556294740e-04,7.481131694722230503e-03,3.177575517421899615e-02,7.482108521825112969e-03,1.413829389257571616e-02,1.145159611146671572e-02
1.118866487254986386e-01,1.382218094043268647e-02,1.116672261814050972e-02,3.236581411557521229e-03,2.272919768686671154e-03,7.265732113268587658e-03,3.772939340202737662e-02,3.671509346188187809e-03,1.026350426091007101e-02,3.715834769077015071e-03
1.856643279139023606e-01,1.070845179469924989e-02,1.219538162091856823e-02,6.436917071440961119e-03,3.957877989229410462e-03,7.546802735968152764e-03,5.434241794543943904e-02,1.887475469036502783e-03,4.832256911172462185e-03,1.675081353556775315e-02
1.695974616584417782e-01,5.847279809485156354e-02,1.634112023050599688e-03,1.028449061987442466e-02,4.255160605768519566e-03,7.815530492485320974e-03,8.320837025277566523e-02,1.763309835980256604e-03,2.971537986681022092e-02,2.638818943489576810e-02
9.603261562500516046e-02,1.106705394859369140e-01,2.327157175590272714e-02,1.879022897848940318e-02,1.649003370488288499e-03,6.556519563207134811e-03,1.009354272590314433e-01,7.323892612696887832e-04,5.221053823873535865e-02,3.504064483922564310e-02
2.986965211977572060e-02,1.446345771513266321e-01,5.337484776937024417e-02,3.333479140806254459e-02,3.514135968696575039e-03,2.865849526757797711e-03,8.729239107448512336e-02,5.317986218958804887e-04,6.185378990526129578e-02,3.709481252915717425e-02
1.499464130585263354e-03,1.510283435218540971e-01,7.636133167661211807e-02,5.070279800544680304e-02,8.290157876939034665e-03,2.242509404257253276e-03,5.194698199736159927e-02,4.677284599671416992e-03,5.952201739134403008e-02,2.347754126245371262e-02
1.050936468355558387e-02,1.317045624057217312e-01,8.520593197315234901e-02,6.254034430616124685e-02,9.504114872849139459e-03,6.284026507720892087e-03,2.320115820624456607e-02,1.108024117007135219e-02,5.239333006213866412e-02,8.423158232376912885e-04
4.132653114795548782e-02,9.770852017440405379e-02,8.206942709006748160e-02,6.274200819548202135e-02,7.160881764177820866e-03,7.172609783170190954e-03,1.811395933767370042e-02,1.269966897892224958e-02,4.393719879143159757e-02,1.680007917012330682e-02
9.175423404949659134e-02,6.959187575958820926e-02,7.531663076685991831e-02,5.454702492719058771e-02,3.977005500562178983e-03,5.107569533621071113e-03,3.008789595316965770e-02,6.201538749494681958e-03,3.274520730733718188e-02,1.434381537581102053e-02
1.115682286402036039e-01,6.429271284927248753e-02,7.090205722519105080e-02,4.538716892172238448e-02,1.911588027861074431e-03,2.308626653213911167e-03,4.198718088627163836e-02,3.728066663078700820e-03,1.902931803557291607e-02,4.497761056970228308e-03
3.840047927984266418e-02,7.987177131880793257e-02,6.814702705074771050e-02,3.785312644720899983e-02,9.590629327982332954e-04,6.836336770066487722e-04,4.517586460074343724e-02,1.015666191685425483e-02,7.052227053722224907e-03,2.134226929882021562e-03
1.236345343507622846e-01,9.982624265284328891e-02,6.459447871499757188e-02,3.042293083003002468e-02,8.546873064391812382e-04,5.028380926685296686e-04,4.319678124607057718e-02,1.120808662390372808e-02,4.356165698202732126e-04,8.103779091702434031e-03
2.784734739799258341e-01,1.081669602515525352e-01,6.061109767013220240e-02,2.349929642151539488e-02,1.898284652185007254e-03,1.111168388379887764e-03,4.153045386912522507e-02,9.538566419545389807e-03,5.014657925537634869e-03,1.450591911332092289e-02
3.251691654278408561e-01,9.677334815039961846e-02,5.616952191213492318e-02,1.935487369886167153e-02,3.557432336109896554e-03,1.716941582663928214e-03,4.000120447380337008e-02,6.869294222121281185e-03,6.260713105238566341e-03,1.631130191122673670e-02
2.557246938095166233e-01,6.769638779753260616e-02,4.774842539636349470e-02,1.765227843707406138e-02,3.738313775122448918e-03,1.778646464609701886e-03,3.489929274879566973e-02,2.711076394391626326e-03,1.029269951711012272e-03,1.251000123295004617e-02
1.458996428102748155e-01,3.443052098222346841e-02,3.466220388491888377e-02,1.579031917539068172e-02,9.284295782374214160e-04,1.510727777792730733e-03,2.591465446590745028e-02,1.787545108528300038e-03,1.737475889053118061e-02,5.340334618890356030e-03
7.948423061457575434e-02,1.343752030490012739e-02,2.450438889610685039e-02,1.328690196653843636e-02,3.444008510001238862e-03,1.559226050874815790e-03,1.916941113345913689e-02,3.019023090560841397e-03,3.294166144722376205e-02,1.447245140416476622e-03
9.446508360774452662e-02,9.802097907623170264e-03,2.386419530315832954e-02,1.137249140041083489e-02,6.332665454635974175e-03,2.089533388444044480e-03,1.970043048738363139e-02,1.247931381452696336e-04,3.767752022810910012e-02,6.210886502019856772e-03
1.648898777422688200e-01,1.529877773581023517e-02,2.708082273526974185e-02,8.534622458161514325e-03,6.702955863562186194e-03,3.031744714119322115e-03,2.213366489391471736e-02,2.457456740794868814e-03,3.095517760502442678e-02,1.645503904978520837e-02
2.227016295149480962e-01,1.909455769745748918e-02,2.286551804559199680e-02,1.474027912840654778e-03,6.443798817064571097e-03,4.660649403639955009e-03,1.638446843172347220e-02,1.111263076252388222e-03,1.779865110430656552e-02,2.574975444753050194e-02
2.193020279351430013e-01,1.447652367989363774e-02,8.810087154096868378e-03,8.959158655213203190e-03,7.441654183031804794e-03,6.815438057518849110e-03,1.606084443780996570e-03,1.427128374203645448e-03,4.156602923735694399e-03,3.573702583716664022e-02
1.592051589490070529e-01,1.028753993606855086e-03,7.856334163160281700e-03,1.730067506843036354e-02,9.155564093505593609e-03,8.570204742448354202e-03,1.410091956499411742e-02,1.115996035556752813e-03,2.175796523980484676e-03,5.283660878509285203e-02
6.854066227402005884e-02,2.374622729155127787e-02,2.071754299957435236e-02,2.020687361770279883e-02,9.993024666760226549e-03,9.856149330813196094e-03,2.528539473566239482e-02,8.132597241669573440e-05,3.885443396796665113e-03,7.246377200675878372e-02
2.699147697667397816e-02,4.371034528734359104e-02,2.961472710695625329e-02,2.038699847204756416e-02,9.981980347341774806e-03,1.180440453374275583e-02,3.136693064660078106e-02,3.428310292423958263e-03,1.683966622633798968e-02,7.824849695181303189e-02
8.191978344687161906e-02,5.186171103308447744e-02,3.697746682603408191e-02,2.231572091461559923e-02,1.036476406616525237e-02,1.405576699646491137e-02,3.108382058501247408e-02,1.046634207667083809e-02,2.489824645496574104e-02,6.295421548698498793e-02
5.205580696506957594e-02,4.585529647301993250e-02,4.229860603139024011e-02,2.633104691331096883e-02,1.083675925862663189e-02,1.381601082888458606e-02,2.438877229909619179e-02,1.448586589232335985e-02,2.273846300206764509e-02,3.699269148836614035e-02
3.557490594614273749e-02,2.995558009159303425e-02,4.251318937075358739e-02,2.928526597651668478e-02,9.248449105487097088e-03,9.517862108604944679e-03,1.739115516063209979e-02,1.133947733225257326e-02,1.432155569195698100e-02,7.043227960727102034e-03
8.729264794093789803e-02,1.553769577368126556e-02,3.862990408497802425e-02,3.033070402009544961e-02,4.731719671887524466e-03,3.670678195591241255e-03,1.831494345442704133e-02,4.578550506321144541e-03,4.796123171329175032e-03,3.507575881255336342e-02
4.823495849894997300e-02,1.587318538809283711e-02,3.793333715953591673e-02,3.298058352509611324e-02,4.215273133718543358e-04,2.868320886620138142e-04,3.072660683383975772e-02,3.716476725927077263e-04,3.823229246783087058e-03,8.666682154687316286e-02
3.466144971868484470e-02,3.014718289561956269e-02,4.500611203872946497e-02,3.964038700933666254e-02,3.023075340394096224e-03,5.551266858138692063e-04,5.256127759049643300e-02,7.178495777700162964e-04,1.011013009271212806e-02,1.194759865548485345e-01
7.881463880332016669e-02,4.118695144304052036e-02,5.386220137504654781e-02,4.634694511714813198e-02,2.404174622138965153e-03,2.074603533186491870e-03,7.490433382705254106e-02,3.719743027643393832e-03,1.283034322796089421e-02,1.129116218460391174e-01
5.977905230951385818e-02,3.805185283835272464e-02,5.415271750391015965e-02,4.628916900771461174e-02,7.889924567676153463e-04,1.677916022004459452e-03,8.163884880335620098e-02,1.135462861086269752e-02,1.327235056046593975e-02,8.296715061958778725e-02
9.245463677811349354e-03,2.760213397277107641e-02,4.288186168407485954e-02,3.819891516268591330e-02,4.574361794036842666e-04,1.543183817025862384e-03,6.230787048717435078e-02,1.990274248153683576e-02,1.427413666099776150e-02,5.768497056504952314e-02
4.635604485333488789e-02,1.761828263587907062e-02,2.657376118326635131e-02,2.823197875464266912e-02,1.329767011794337137e-03,5.702136604193269211e-03,2.823130642733225754e-02,2.396960839942685606e-02,1.754850768669331124e-02,4.173782199198827758e-02
9.640936017703453931e-02,7.502370533752884298e-03,1.463931775382536563e-02,2.270022137322057557e-02,1.810135668584588343e-03,8.005109771325459936e-03,5.103764463024632742e-03,2.236936001574336974e-02,2.292862080283547890e-02,2.288608148456615712e-02
1.152875396350134529e-01,7.660121644592503059e-04,1.291896422589033401e-02,2.144505371069817951e-02,1.113381460378320194e-03,6.898179203307278941e-03,6.953524185163434054e-03,1.805339324254943631e-02,2.798435799885476416e-02,2.989735337905382370e-03
7.972091905951717017e-02,5.150805404658296942e-03,2.005515625292192405e-02,2.034789507668637032e-02,3.180678245182776576e-04,2.994913394959605474e-03,2.544602601768752165e-02,1.424132109313556820e-02,2.885552771635211192e-02,2.938125436644337812e-02
1.381169568156371055e-02,1.642332241517932903e-02,2.812808050037098398e-02,1.838683472164751725e-02,1.914305978093967624e-03,1.323191418612195509e-03,4.445370731410070581e-02,1.179699693275003056e-02,2.435840341398548201e-02,5.064065049755024639e-02
3.588600463865693896e-02,2.295340526669206391e-02,3.077492147184276647e-02,1.857006912166628276e-02,3.292542843231112404e-03,3.572814001410348512e-03,5.594112018115689200e-02,9.672759434639660592e-03,1.818057488692512852e-02,6.520096691147983514e-02
6.696196419748087769e-02,2.641358663617588559e-02,3.053565597581006999e-02,2.183388578491161913e-02,3.920145804117000296e-03,3.066561916396105900e-03,6.005039186383892558e-02,6.919868219234642619e-03,1.479547608076174810e-02,7.405869486315466710e-02
1.135264529504881048e-01,3.662990457015145862e-02,3.215238635546201207e-02,2.370550486434269688e-02,3.150640755603924606e-03,1.110447471657302057e-03,5.800363485767783683e-02,3.321029106064813698e-03,1.509839443925190157e-02,8.072981532393898318e-02
1.824151379808252871e-01,4.861289586954387759e-02,3.140165328151844210e-02,1.898894434918362364e-02,6.057031523871886673e-04,4.099066210598778168e-04,5.110269426557754319e-02,1.723851291084342379e-03,1.751451797111226727e-02,8.796988573395676803e-02
2.423584988135082663e-01,4.565068165741344164e-02,2.034202511837143040e-02,7.584722642206514868e-03,3.221675516472222861e-03,2.975496800814892047e-04,4.396210234413126805e-02,8.842160203678331096e-03,2.038262994703581021e-02,9.442208936815769948e-02
2.597920099673967087e-01,2.279303804030250596e-02,1.029672174336420006e-03,6.161633707239095106e-03,6.978058430862040147e-03,1.038842490897448016e-03,4.153609905669360808e-02,1.640745115195145487e-02,2.147708856879940870e-02,9.792795059842980543e-02
2.177060461293841009e-01,7.853861669245091812e-03,1.598896621270637364e-02,1.780231153986877590e-02,9.781447469908246400e-03,1.160078464156886688e-03,4.015619424421943556e-02,2.100378224285655640e-02,1.835572698075392181e-02,9.873580764393870279e-02
1.325448147852599790e-01,2.999419870132015789e-02,2.379257598409473956e-02,2.422611192390979745e-02,1.157385030593396577e-02,2.329109089972083383e-03,2.743970803149447038e-02,2.185272180201698264e-02,1.171386379404471857e-02,9.708386355627825204e-02
6.608742652564454645e-02,3.151148878506351142e-02,2.157176599286452293e-02,2.298149133309694905e-02,1.122197106642665830e-02,8.183072205683110736e-03,1.670483462152526702e-03,2.234818721124696983e-02,6.683289701581805915e-03,9.328588777810908894e-02
7.373111907071361326e-02,1.001273295537478958e-02,1.021609098461795199e-02,1.422149641513353532e-02,6.817587518035978650e-03,1.178708627299554501e-02,3.232751334220600875e-02,2.455987860978181211e-02,8.485606925239412568e-03,9.076798439371162874e-02
1.320988722973421847e-01,2.013551411251124357e-02,6.242525213367470030e-03,2.968414142517366780e-03,2.489763203906249830e-04,1.025382571883556512e-02,4.311192707975550903e-02,2.451160886880399473e-02,1.667388080606757930e-02,9.242234484227769553e-02
1.610156089966902626e-01,3.534512850274992846e-02,1.858193665107669978e-02,4.428648775321706449e-03,4.876285187853006756e-03,5.588964139513123361e-03,3.101457555555002521e-02,1.652399349350836683e-02,2.498641196001962286e-02,9.680507710113551989e-02
1.155003811257754864e-01,2.456187141268367097e-02,1.839529098527559192e-02,6.182964475729025612e-03,4.312143864805476415e-03,1.760281434593273520e-03,1.337532833376471261e-02,1.041092917807790678e-03,2.785049284109508694e-02,1.036403551981600335e-01
2.089966100656474521e-02,2.793643619262634395e-03,5.703377539236767144e-03,4.775453425472525951e-03,1.397544967658531992e-03,2.736004227087814262e-04,5.504527085515163905e-03,1.469975093795934835e-02,2.588087904536527303e-02,1.117778824772030777e-01
6.558358177144568701e-02,2.981088477103872869e-02,1.023446015831953361e-02,2.944677674054655119e-03,1.304039862020546633e-04,2.018732114451773224e-04,7.122142089358619171e-03,2.304873575098268304e-02,2.355008935269481060e-02,1.038510524195591367e-01
9.757604019440482834e-02,4.396646073970280483e-02,1.706948642545740025e-02,3.103706791377328598e-03,1.363424474474450631e-03,1.120548956992898628e-03,1.209292401430642205e-02,2.176714611680632613e-02,2.337989160778443029e-02,5.557607757811762472e-02
6.806320381034922096e-02,4.064380078251533107e-02,9.785765050179624433e-03,7.171365215412927804e-03,3.876813512621383497e-03,2.499767449302445904e-03,1.895409904364432283e-02,1.492603669322036496e-02,2.412252394016406454e-02,2.393877956916111785e-02
1.368517962941530330e-02,2.597398603717792492e-02,2.330589037869888313e-03,1.295579124326031242e-02,6.295310365353037896e-03,3.711275238173761953e-03,2.566069759454032984e-02,9.148120502956262612e-03,2.141656252124555029e-02,9.005266103057416038e-02
2.677983484625316019e-02,1.308474079776854662e-02,3.225775220028371994e-03,1.362771373354005125e-02,6.863219003919298310e-03,4.303869612316060800e-03,2.587725510591450118e-02,8.429796612135784586e-03,9.108035674483839009e-03,1.204247525286274295e-01
4.667527694134120109e-02,8.694662402532252893e-03,1.218257235272885049e-02,4.774788618176836405e-03,4.153482459779119298e-03,3.688751907391246004e-03,2.003517223761656918e-02,1.201589052310782398e-02,1.425375687264792898e-02,1.403031244796020816e-01
4.836733207710709748e-02,7.711361594713998444e-03,3.182364848280690162e-02,9.336349319608857472e-03,6.211264615427132844e-04,1.407102340162282375e-03,1.883877807831961168e-02,1.622317278992659040e-02,3.901244313021723364e-02,1.708840523364707209e-01
2.291177719367482393e-02,3.684670260305706810e-03,4.099094837083123305e-02,1.951969308456080049e-02,3.973067310023808973e-03,1.637668614231695347e-03,2.611387965072083789e-02,1.715022533032826979e-02,5.194964764161252857e-02,1.938314640396887056e-01
1.908116580195664755e-02,3.437426540129569046e-03,3.753067827883308644e-02,2.069540844647826949e-02,3.876518647432694500e-03,3.267415870486195788e-03,3.089932385648647487e-02,1.265522209932152739e-02,5.096047950113836988e-02,1.871933545883646133e-01
2.637918112528706699e-02,1.313791212065717855e-02,2.792781031502925698e-02,1.423891821497508432e-02,1.279326913477484310e-03,2.048811803634616093e-03,2.563810894350498221e-02,3.943713656803278164e-03,4.426652364934863249e-02,1.584264197359896154e-01
4.534489952623195486e-02,2.780837564084687880e-02,1.568679871080430957e-02,3.935716841379857840e-03,2.216522336608564223e-03,9.656737222327370579e-04,1.810571697615697556e-02,4.718540165465014320e-03,3.676970658895430816e-02,1.271157981271540949e-01
1.617794437911496130e-01,4.310267516126280868e-02,2.831268980833092763e-03,4.441928793476051726e-03,5.041919846425920414e-03,2.955325736701523535e-03,1.668525054892985859e-02,9.596708223591945974e-03,2.764734137221994126e-02,1.035421490048425985e-01
2.174208663462410540e-01,4.368426112126386207e-02,3.309158055069247751e-03,2.770214974933222270e-03,4.499007021573829708e-03,2.531324398770459522e-03,1.645344961944347761e-02,1.095617552732098751e-02,1.989132082522110379e-02,8.880565503885620715e-02
1.462495580006252793e-01,2.065376984509770947e-02,2.703149100503233083e-03,1.106106033668103304e-02,5.606874941066415955e-04,1.825288704211680720e-03,7.375769932884830918e-03,1.168069185585569880e-02,2.044339121985101065e-02,7.721351787202049288e-02
3.965017893926768913e-03,1.099591244783112813e-02,1.328114989471179848e-02,2.685723033249990538e-02,6.378529341823015175e-03,3.543162372227065884e-03,1.053365169988838140e-02,1.299378352623595419e-02,2.938780668022838299e-02,6.150824098889217523e-02
9.861348141197184836e-02,2.519528599529568397e-02,1.491902415120299405e-02,3.279339279380008576e-02,8.072023486999852990e-03,6.281708553405552717e-03,2.386342431289824317e-02,1.342628070543169967e-02,3.760108794321628811e-02,4.453313052657123516e-02
1.158133083958353404e-01,1.424342954965404986e-02,4.838096871269024005e-03,2.865919753314990701e-02,5.652245449474264417e-03,5.802864631898358751e-03,1.853142541727504158e-02,1.185808183700483472e-02,3.715469962354212702e-02,3.697842628849455637e-02
7.202014281687903197e-02,6.404327486865465068e-03,8.213877157400822915e-03,2.118276220023944389e-02,2.432128071883577630e-03,1.384120916205048429e-03,1.558491591842281303e-03,9.536390366772755020e-03,2.830392733490357318e-02,3.972635742037091550e-02
1.249568947689353414e-02,2.222277415764518926e-02,1.778680437979732534e-02,1.215629940040697902e-02,4.766841108729785552e-04,2.411458264265893461e-03,1.516589017854528230e-02,8.053778266468960764e-03,1.519697038244766790e-02,3.853733190089161237e-02
1.179161655927396662e-01,3.285299336191262881e-02,2.464898654423761451e-02,1.064437266945458035e-04,4.060622127831629673e-03,1.452952611328373967e-03,9.917131919383249256e-03,6.863369628897867183e-03,3.134065493224720729e-04,2.044193805042694712e-02
1.695071810445914484e-01,3.686189002404800102e-02,2.706359228064399852e-02,9.985140451055607783e-03,7.292232043959542657e-03,3.254569888076405074e-03,2.769511346685444783e-03,4.627259272609523383e-03,1.457795689188032262e-02,1.077663715119107218e-02
9.087531838328266609e-02,2.228802685762501165e-02,1.728885883271633062e-02,8.328015702065165796e-03,7.096026141376419322e-03,7.813156723130997711e-03,8.341816931350335557e-03,1.702102618583351901e-03,2.585551937943556672e-02,3.992829045894497747e-02
7.815013029327801120e-02,1.355654509049379272e-02,5.101602797387615358e-03,6.726754597241785261e-03,2.856476298251319629e-03,1.018316999818696250e-02,1.070726045588236280e-02,5.089385274374085390e-04,2.974765706092252771e-02,5.678359773596881876e-02
2.084976349363304171e-01,4.934976249351084865e-02,2.538161182631158003e-02,2.415456182736429661e-02,1.899810264926022566e-03,1.125469506922005709e-02,1.923952148354868621e-02,1.111617275130970597e-03,2.608600787713937288e-02,5.881694899667259946e-02
2.310329206255837264e-01,6.110109578496311644e-02,3.013709167368028297e-02,3.253088452161193023e-02,3.960954568478838693e-03,1.198724083528863310e-02,2.680146315158746240e-02,2.807857620051868982e-04,1.870533576131395634e-02,4.054233307687647031e-02
1.774950830715790739e-01,4.767136618910879781e-02,2.509169162410362225e-02,3.183957631787701775e-02,4.298194550405658523e-03,1.110300626362543605e-02,1.856561857211417796e-02,2.995448700958644808e-03,1.191584110160290137e-02,5.282188523804607488e-03
9.317188987765297192e-02,2.338840448138771594e-02,2.449693489620793918e-02,2.847044844079274148e-02,5.161869335957592828e-03,7.220371983793325184e-03,3.713328548109540508e-03,4.350195404824151041e-03,7.867191543889042252e-03,7.075159278537343499e-02
3.300188039888888106e-03,8.477182993906673316e-04,2.904277298793113068e-02,2.402023044808165517e-02,5.934342869777377294e-03,2.288628079774954454e-03,2.255630619698324735e-02,1.463327084776742644e-03,7.369493992011920055e-03,1.280602333866579234e-01
4.804104162463464223e-02,1.799024652372909622e-02,2.800769756263515875e-02,1.627627282239977116e-02,5.195598385310073834e-03,5.332413127994095831e-04,2.745819707598942325e-02,4.809916416176250598e-03,1.029983666592973468e-02,1.508117274538528230e-01
1.676304315770710263e-02,2.162477290682877223e-02,1.851717068408807731e-02,7.278020290791812133e-03,4.359524489909384799e-03,1.921832812029107638e-03,2.289928715001451898e-02,9.140380651543921278e-03,1.323188144751704688e-02,1.372993493386986397e-01
7.538195809826352123e-02,1.406160529484660159e-02,8.869386716311907295e-03,2.238305714877780565e-03,5.539142114591525876e-03,4.942587439519419146e-03,1.481125811151875853e-02,7.598738556532614978e-03,9.965521357211033077e-03,1.072339494192139642e-01
1.526961232782800271e-01,6.680800773640723292e-03,4.625101505098002871e-03,2.192949558006597119e-03,7.772873214208028507e-03,9.193164116006400863e-03,4.501572819346158320e-03,3.556148110362267363e-03,1.454331752327110445e-03,7.923356268245201894e-02
1.672171989632435241e-01,6.164727196804832034e-03,2.198171404612106906e-03,3.634338125059055537e-03,8.320964687248189051e-03,1.121050613528946742e-02,1.631868408021041944e-03,3.158533999602354710e-03,1.439771296244851326e-02,5.863091395244567766e-02
1.254082784434225883e-01,1.011842094610764312e-02,2.966346857036594818e-03,3.768594029967572371e-03,6.210351199142184753e-03,9.972171271422417688e-03,6.138533466644385296e-03,5.776912992940880058e-03,2.054345425137631825e-02,4.188000262524609746e-02
4.511014762587597232e-02,1.602915875885807875e-02,8.467053679970529961e-03,2.426225004700712212e-03,2.827737206548594940e-03,7.631061647159804659e-03,2.290605116399271196e-02,5.832287372812038420e-03,1.862686480212611892e-02,2.182080263434274872e-02
5.707652633392181624e-02,2.250124825751480609e-02,8.180155889582318984e-03,7.479471544963784725e-04,1.666222155568578499e-04,5.781198932166559633e-03,2.993297334736797974e-02,3.085842298718414686e-03,1.283217926179197783e-02,6.766405899708704749e-03
1.383680129584017315e-01,2.290638441904277803e-02,8.179016925164914187e-04,9.811238228814647688e-05,8.011507808335459726e-04,4.574635222291927560e-03,2.135690240217846814e-02,2.405012753022425440e-03,7.177535109930143625e-03,3.640030171472644072e-02
1.470632904851664202e-01,9.711498308836608029e-03,8.256577480761622539e-03,7.486719339586406924e-04,5.708028363207316627e-04,4.629350078946331201e-03,1.425424820351660696e-02,4.111408742228156964e-03,5.164990382006434677e-03,5.003245920264345892e-02
7.813351276342905827e-02,1.395330017377952557e-02,1.267389871695477795e-02,1.083226328231992651e-03,8.344528252830231939e-05,6.869276814051640014e-03,2.346406937811341270e-02,3.836955442536300540e-03,9.004911350284168850e-03,4.566598272237631928e-02
2.168672846123233938e-02,3.494503790184334130e-02,9.713102336463413922e-03,4.473580231219365707e-04,4.583594123944983588e-04,1.039831400446980178e-02,4.027824275022517247e-02,1.413496446898869019e-03,1.550204519669952895e-02,4.371344142224111579e-02
1.024322461435135112e-01,4.342237053823178733e-02,1.553231060876333891e-03,2.719325703053033193e-03,1.242130425362326668e-03,1.243234857850725704e-02,4.576280848383657701e-02,1.174506113391241566e-03,1.780616291837730861e-02,5.656764227258313099e-02
1.357573690803429711e-01,3.886761082248856025e-02,6.243086761726876141e-03,3.309841815165645920e-03,1.716132135948055751e-03,1.111342914545707453e-02,3.466472075945341291e-02,3.791941338566457050e-03,1.329336262896742456e-02,6.932153267198433444e-02
1.053261506841879913e-01,2.210396866437734295e-02,1.077689765296142507e-02,2.809177357500743794e-03,8.070972969936695673e-04,7.405781755059185484e-03,1.658795903463613705e-02,5.309642050956710040e-03,5.815175215311055995e-03,6.653608252910996057e-02
2.188122115609196505e-02,5.972791961704881393e-03,1.527108942075671404e-02,4.946761790982264102e-03,1.433826255191891514e-03,3.733147698779065455e-03,1.036309774736388339e-03,4.005544015518755323e-03,2.783792871868286112e-04,5.815443434413435780e-02
5.020128108504199466e-02,3.094306105258947531e-02,2.202069045182721008e-02,1.111853194300395191e-02,3.380426857022435835e-03,1.953272666757240386e-03,9.274687088426474685e-03,2.022982686397856080e-03,4.976019386393891637e-03,6.145822585710677965e-02
3.961790213786575698e-02,2.827800433029212593e-02,2.731735923964808896e-02,1.815172540086569183e-02,3.963564992225966470e-03,2.929231422190619726e-03,1.387192974104206090e-02,4.268174187596292571e-04,1.061808873813203762e-02,7.449647486032039134e-02
3.878903483361249155e-02,4.997988441674667409e-03,2.883097978269212602e-02,2.282118553358189819e-02,4.150559475784413449e-03,6.147864197987691626e-03,1.194575515014492662e-02,2.117401631115119892e-03,1.671430305910728484e-02,8.335269800381824024e-02
9.026636834169562973e-02,3.965194430953142973e-02,2.834328794253763648e-02,2.372018938723674530e-02,4.746771891690381578e-03,9.200265297916336571e-03,5.793311005813319217e-03,5.669392146299584954e-03,1.830133983303550149e-02,8.328300790615733584e-02
6.336720798016806655e-02,4.987146111749490157e-02,2.258251417294025731e-02,1.772117031479250940e-02,4.178956293442770246e-03,9.752521578334567842e-03,1.598039503013416393e-03,8.199892668538925899e-03,1.099303542273128223e-02,7.983872635252142747e-02
1.980938110526012097e-02,4.181681153293181907e-02,5.502070860808165598e-03,2.085991099581564062e-03,9.151540139163042526e-04,8.432633646717381179e-03,2.967660645875968162e-03,8.704747325297391980e-03,2.139172213621084746e-03,7.651052804782748629e-02
5.469752655627020677e-02,3.681066374290409976e-02,1.704096145822853181e-02,1.793818853641574937e-02,3.298673144703865440e-03,7.639795886493978491e-03,6.228589463469416145e-03,8.148309478343567294e-03,1.169735669284514140e-02,7.117532310486848757e-02
1.808825600452880766e-01,4.453175126783693455e-02,3.061953407051140261e-02,3.129453364820170697e-02,5.486470180507024494e-03,7.802566003385616802e-03,5.283227254071490991e-03,7.340151898603229641e-03,1.166363973700455803e-02,6.351664807446767702e-02
3.161452372091707042e-01,5.923207473198461442e-02,3.072238879896930369e-02,3.246011406627366536e-02,5.335410883951621601e-03,7.428896094518269017e-03,2.121249818970917522e-03,6.211440486088942031e-03,4.484126369657016539e-03,5.954588808607567257e-02
3.665819754833361532e-01,6.794389396603443820e-02,2.395734790467440173e-02,2.479066002250128811e-02,4.254696870361642652e-03,6.334120954637641014e-03,1.530843019847061802e-02,4.967133544193040769e-03,4.908815959332131496e-03,6.300226504832276420e-02
3.060336739235703374e-01,5.944090187073532150e-02,1.510065692047020749e-02,1.400085816069054911e-02,2.310589348838366225e-03,5.830455437838496374e-03,3.181994569838309667e-02,3.752630346153457315e-03,1.441510063092163972e-02,6.406046260643477597e-02
1.824421078077975711e-01,3.331968586696520962e-02,5.243166951694127643e-03,3.968071167205608832e-03,9.596940823378305408e-04,5.766243502133058113e-03,4.493183722673337738e-02,1.237937798179683958e-03,2.163108049107854633e-02,4.839594319466757749e-02
6.195198094121837779e-02,6.453483867032050632e-04,3.309158657770456570e-03,3.331985095056741973e-03,4.233499244057982967e-03,4.038401611560286410e-03,4.718381814286678327e-02,3.876241704430996061e-03,2.224487718436414865e-02,2.052190637133609330e-02
2.829066843827458821e-02,2.617358513320282992e-02,9.168678917824871211e-03,8.348964035032111278e-03,5.636382660879673580e-03,3.943096880779925007e-04,3.849479385328160447e-02,9.277599534526819597e-03,1.585458228649658588e-02,3.566212954003701585e-03
1.043888926675265449e-01,4.218591664940692793e-02,1.366930192940988588e-02,1.307418404546639712e-02,5.300795149825870099e-03,5.705352188109375638e-03,2.488443933410979317e-02,1.023615775137352683e-02,7.925500196242893716e-03,9.440674472061932540e-03
1.772489699515573114e-01,5.006250906097659686e-02,1.729594408821723273e-02,1.813756880074308964e-02,4.761142674744637225e-03,9.117570180199175214e-03,1.071945302245795595e-02,6.092646961865562198e-03,2.411370198347365795e-03,2.220262180649294065e-02
2.162601146797499818e-01,5.428434950023446059e-02,1.924145645762290538e-02,2.252393558604955104e-02,4.686498178095632738e-03,9.779415731373414591e-03,1.571964358149913719e-03,1.684709265326888661e-03,2.032999485869895276e-03,1.857172065946847278e-02
1.834065474289684750e-01,5.459703562366015339e-02,2.031730565089804805e-02,2.622125144096270136e-02,4.639872339779942644e-03,9.049732436288102436e-03,8.337116707920130820e-03,6.599937808037534617e-06,5.708879472793105918e-03,3.159842314402054250e-03
9.580176239505835967e-02,4.641491415507185969e-02,2.238152912617754481e-02,3.103309260719121221e-02,4.328562390212430284e-03,8.423415211540649650e-03,8.964007763045131819e-03,1.533170748856199856e-03,4.305907211431782983e-03,2.174257764495156342e-02
2.115363154569784368e-02,2.958704878454972154e-02,2.569731592048456192e-02,3.740964758040845467e-02,3.947459383859902582e-03,8.153428576581148168e-03,1.022350742319331346e-02,4.333352363528305065e-03,4.329534593906908362e-03,1.820051703359500464e-02
7.017604815060498463e-03,1.278917763396204138e-02,2.786075821211580691e-02,4.088200666708479564e-02,3.640724981533751108e-03,7.847344054227375215e-03,1.968473990276051883e-02,4.032163159566793005e-03,1.452864406184278638e-02,4.024229051828651441e-03
4.273403399108537809e-02,5.716739180806052617e-03,2.426949516832240666e-02,3.474090279520290758e-02,3.326505163575233653e-03,7.376065722434239393e-03,3.595003270887484753e-02,2.456167556668460011e-03,1.795859490985549783e-02,2.693533133699516774e-02
9.571414023797311654e-02,1.064633700797272542e-02,1.157435317395115980e-02,1.847875847265869481e-02,2.944743810893107102e-03,6.877182759775812490e-03,4.963961602245230142e-02,1.028688592729326903e-02,1.281947184926741576e-02,3.851930698086746679e-02
1.564914914366273557e-01,2.362304628794777497e-02,7.250118120979929907e-03,2.688916365711531550e-04,2.543278633316644732e-03,6.479923370891874784e-03,5.415062709118243639e-02,1.234626856697658946e-02,5.064034373318557734e-03,3.665965856184770499e-02
2.295115578037471571e-01,3.841168252842960817e-02,2.352159043453938558e-02,1.133158326802200661e-02,2.161749227159785042e-03,6.214317496741608368e-03,5.210200751701314636e-02,8.249008982810045534e-03,5.556898530536980452e-04,1.973879845986806908e-02
2.929997191418723390e-01,4.683348279245017065e-02,3.042779390987191551e-02,1.416426659070726089e-02,1.787442508852588735e-03,5.896069615529164407e-03,4.898267585638447358e-02,2.985812549951779877e-03,6.342336432521666987e-04,1.064114632167698776e-02
3.010662790684872081e-01,4.172493342000933858e-02,2.834028970984720647e-02,9.857033782874405348e-03,1.410917175520925515e-03,5.326243951082585554e-03,4.519771070742792385e-02,9.286752391177054622e-04,5.034889992453145998e-04,3.798972180236034890e-02
2.397502376072508934e-01,2.417986853197505795e-02,2.169237447983430808e-02,4.539042938223707135e-04,1.051786318593330837e-03,4.870434431128489554e-03,4.056187186219555041e-02,4.982283942503256541e-03,1.784067459460731038e-03,3.866607123195297396e-02
1.480588500508818184e-01,3.335898809005284106e-03,1.307647583597643624e-02,1.003517534167325947e-02,7.284297568488971950e-04,5.063376006554408566e-03,4.032594918332092770e-02,9.579323716625542592e-03,6.969626592718386991e-03,8.170477843344094854e-03
6.089076672154566244e-02,1.427008278945555986e-02,2.969593975210760642e-03,1.594938029606900870e-02,4.351689959082420960e-04,5.112982187682029063e-03,4.635853709516473548e-02,1.241879027140933497e-02,1.138319548237026919e-02,2.994686079916331067e-02
2.492792361798984446e-02,2.953006080285643098e-02,6.065179236438046628e-03,1.501064899208064130e-02,1.648452949556036135e-04,3.228575334157985158e-03,4.854871992249841506e-02,1.199150266728585268e-02,1.032758822604196505e-02,4.819803310627975013e-02
1.027235664228943884e-01,4.205041307648317572e-02,9.131826029473993564e-03,1.064735306559634956e-02,5.855888153558894181e-05,4.220955822286826279e-04,3.695842256048813973e-02,9.283341215351655420e-03,4.101222141438391235e-03,4.231572316077322760e-02
1.311102305753551744e-01,4.359503390800373301e-02,5.080634141523582455e-03,8.060857032344758213e-03,2.087445434397776811e-04,2.818690199017896345e-03,1.721515586534576314e-02,6.567237568094760544e-03,2.551707455315233280e-03,2.785629549357894127e-02
8.777149070878775827e-02,2.575658475378530751e-02,1.193589191068224068e-04,9.703786026929636307e-03,3.202047517344607441e-04,1.734461246953680020e-03,2.963071689213304764e-03,6.395734600502045800e-03,5.621560297512348363e-03,1.603434449940312895e-02
6.894523574312007297e-03,6.923054758365491598e-03,1.056299578875876614e-03,1.463855994175521265e-02,4.375815642134679218e-04,1.351621369808469987e-03,1.833627547822244165e-03,9.826322992726944233e-03,4.565987897542795812e-03,5.126277567834418639e-03
5.132257664746610326e-02,3.416316182218138292e-02,5.827247159710813827e-03,2.028150500930900671e-02,4.809524206688132455e-04,3.473743275475856158e-03,3.417495346402773214e-03,1.444674758361283277e-02,1.597943154073033518e-03,7.425470800500263285e-03
5.171936459042633660e-02,3.608094222138874541e-02,6.456299497566293268e-03,2.355159458477704831e-02,3.399155492437688883e-04,3.766872640638138127e-03,5.854707079699143779e-03,1.602458940800738710e-02,3.708209257478564148e-05,1.987210847207709560e-02
1.563566716724837033e-02,1.534739511497061615e-02,1.362877394560330774e-03,2.083729415555626505e-02,2.111262525741709533e-04,3.440070547395006426e-03,7.682000108474257814e-03,1.193345992866842384e-02,2.005159479340271750e-03,3.175713507018574494e-02
