4.374151940741234645e-03,2.145984241628951308e-02,1.378602880831589043e-02,3.657628942738788084e-03,2.959618631146793914e-03,6.626773005521262132e-03,8.683080802872698845e-02,6.552414910721735767e-04,2.663732265175690686e-02,6.109264454785872517e-02
2.485584593332700563e-03,2.151646777712800523e-02,2.074846045397682470e-02,3.854085995166672308e-03,2.966433140935814759e-03,7.178986061495615939e-03,9.111965545567742020e-02,6.470252465804735183e-03,5.283468500613899832e-02,6.636047859126099902e-02
1.513658557911751277e-03,2.133392592266636356e-02,2.689167062742998243e-02,4.028075921000280266e-03,2.809733744498680609e-03,9.845282431947034035e-03,9.851114067743903246e-02,1.323923371319728030e-02,7.130790832941630297e-02,5.588946158288782967e-02
3.247465480830950737e-03,2.089554232424711486e-02,2.615025752395050418e-02,4.172825182816235039e-03,2.981676426894472407e-03,1.223162667617628228e-02,9.284758129262918325e-02,1.283757845117225981e-02,7.207561613591308147e-02,3.578463246517078755e-02
5.886504543806517047e-03,2.018803082240411273e-02,2.029881381489477207e-02,4.281889547569926562e-03,3.751187618872795469e-03,8.304778145451725824e-03,6.701303322475617164e-02,7.906085925288339200e-03,6.391213619138121083e-02,2.659093531981401165e-02
6.545102198275728859e-03,1.920178969163894786e-02,1.540444964507133203e-02,4.348969517333011771e-03,4.401904360256559713e-03,1.351857612944249755e-03,3.223442029660299191e-02,7.188992346824655752e-03,5.911236974914379355e-02,3.639512132054809751e-02
5.835616866639585683e-03,1.793123707129368888e-02,1.280255807771970601e-02,4.368092049482849744e-03,3.981452126234351872e-03,7.932922389039837041e-03,2.870698628636274632e-03,1.326799048235564882e-02,5.792496126872027917e-02,5.142513011954915475e-02
6.570838597576297326e-03,1.637475576780819675e-02,9.579751976525279974e-03,4.333981819268919837e-03,2.767901789342206743e-03,6.867298795075411737e-03,2.514716925184686674e-02,2.121777235757569754e-02,5.325822847061151277e-02,5.513119409252688341e-02
7.710515952384004376e-03,1.453426847836834790e-02,5.287452129359593994e-03,4.242059829276250381e-03,2.349191062680641099e-03,5.118236269497289902e-03,7.194833560093247260e-02,2.958831458338697859e-02,4.237758411937131431e-02,4.494228407094520011e-02
4.036300852643084219e-03,1.241535573254077228e-02,2.145432630050544357e-03,4.088215425737406344e-03,3.940894065592165721e-03,1.179900726780040363e-02,1.421721707480889940e-01,4.210759185944747823e-02,2.800605535901750168e-02,2.820446787045987821e-02
5.702280986265967876e-03,1.002789574379991423e-02,3.634281422116005184e-04,3.869128303176596131e-03,6.736046666993526257e-03,2.685693566201122554e-02,2.052420681979467421e-01,5.617644257807652419e-02,1.385309764244713887e-02,1.266897606532282200e-02
1.474431990932158383e-02,7.385284544546360033e-03,1.802799335102476044e-03,3.582933008759412851e-03,8.528472745609777528e-03,4.301548963117313856e-02,2.244636634466634084e-01,6.170955852873494935e-02,4.774078919903971749e-03,4.558688431317700282e-03
1.641051180149116426e-02,4.502244147747348074e-03,4.464481701321743913e-03,3.228752859448630417e-03,8.280322326677778261e-03,5.430040927881895491e-02,2.001583761203502843e-01,5.503148348661168754e-02,5.851209012164026307e-03,6.276816875682866663e-03
1.232410835550780230e-02,1.395385884776990026e-03,6.345630720265515307e-03,2.805462092582225193e-03,7.031160676402041856e-03,5.863890636806592255e-02,1.666541788362818632e-01,4.338194503292353704e-02,1.509547212391571837e-02,1.131826130094059149e-02
8.356357820405098044e-03,1.913352628672233520e-03,7.867845541002376625e-03,2.312734903131429334e-03,5.802730837829896474e-03,5.574738880213823272e-02,1.500605666613449574e-01,3.338803069833366777e-02,2.202042099161263811e-02,8.500021233883726587e-03
6.230124145193118891e-03,5.399261779064913093e-03,1.082214982687157087e-02,1.753710587354773663e-03,4.322202989662292903e-03,4.666617487988884705e-02,1.430748902218150209e-01,2.428211519807021990e-02,1.877762918507554224e-02,5.973365176967622425e-03
3.617577980848582769e-03,9.043853794257197473e-03,1.525902602527832996e-02,1.132768340947585628e-03,2.518980080007629085e-03,3.414696127253618457e-02,1.217607502542852743e-01,1.378677104063497430e-02,7.561126920290892582e-03,2.610842740885315622e-02
4.075232560658626000e-04,1.283133617326971503e-02,1.943826185204138371e-02,4.496677525074546807e-04,1.296605031981253302e-03,2.115418165860879704e-02,7.652276850186508217e-02,3.040013803094886429e-03,6.413181982561150067e-03,4.488650962528573096e-02
4.285930416605547230e-03,1.673107035811372684e-02,2.274420794521632080e-02,2.960346863055490991e-04,1.053044568024167141e-03,9.047327911096979952e-03,2.138147093138616922e-02,5.657993815394302475e-03,2.235781620670413208e-02,5.928259209952203845e-02
6.785194727080529065e-03,2.070642425641659387e-02,2.612690843966518350e-02,1.092604747600845654e-03,1.066487975124112827e-03,1.443852909977848091e-03,1.963325750305740247e-02,1.100047717347137945e-02,4.038326832469214811e-02,6.861620292771754281e-02
7.797865095302032069e-03,2.475422008686815889e-02,2.976041834843452458e-02,1.925537381330818219e-03,7.374838562504324683e-04,7.192946249644900647e-03,2.880904539592023944e-02,1.241265167599784822e-02,5.711271807897068398e-02,7.286314062900410560e-02
7.139797714215762731e-03,2.888854575385364082e-02,3.293479528121080746e-02,2.804585112955604136e-03,2.402904757258937012e-04,3.693196591785939415e-03,5.797936235396644947e-03,1.105569214357270645e-02,7.009433089334121680e-02,7.064440234792437878e-02
4.561236599834471786e-03,3.305766476014563443e-02,3.636538949336495796e-02,3.744756037173492709e-03,1.312176853412466585e-04,8.264011379680280198e-03,2.965167036244072823e-02,9.681933177279701541e-03,8.197783044284479015e-02,5.879948681463188082e-02
6.884912115140292242e-04,3.717785008415512571e-02,4.128766163004884276e-02,4.708507871840452060e-03,4.386310989794217543e-04,2.039291879482110076e-02,5.095969004263881802e-02,8.613098498888620974e-03,9.483069806188540452e-02,3.864963441194484844e-02
2.701595532242858939e-03,4.131296159313475186e-02,4.551527615078404532e-02,5.645251799132247790e-03,8.685472826557797538e-04,2.486984256163118218e-02,4.480014909291647057e-02,5.065931683580302686e-03,1.045202164288251967e-01,2.043107728796938680e-02
3.217101844057592905e-03,4.560791039784193451e-02,4.469043554871060531e-02,6.616280346372189168e-03,1.419935863114577630e-03,2.121098213754573497e-02,1.651682463129189316e-02,2.235785091592704023e-04,1.071309906267645801e-01,1.576433698995795968e-02
4.738274449768877634e-04,4.990420118882935019e-02,3.912934467796030935e-02,7.714102826890156632e-03,1.903433622319211519e-03,1.354959289858652383e-02,1.853207094802331728e-02,9.844144480668428222e-04,1.063461162474222954e-01,2.745694543643738619e-02
6.619779317364159373e-03,5.387239577345610125e-02,3.472094274250026036e-02,8.793827491119468598e-03,2.262367655692861489e-03,5.872838647833642650e-03,4.226982884690830278e-02,4.742638949536842792e-03,1.073909776231116581e-01,4.905651359740283157e-02
1.118043139747410160e-02,5.783669633150421985e-02,3.554620669075421457e-02,9.638547940043939305e-03,2.805490096954029768e-03,1.043909465596174662e-03,4.178622362127714512e-02,8.878352712742558495e-03,1.094413656610453284e-01,7.118236024303048470e-02
1.169722877784781442e-02,6.251606717868818386e-02,4.050995356718754131e-02,1.054034091132659279e-02,3.699421285512058486e-03,5.636094018645503891e-05,2.079587432263540342e-02,4.148134254914306179e-03,1.108953558306233905e-01,8.668032628626522185e-02
9.455033800608530700e-03,6.726336859709210192e-02,4.740162827711618537e-02,1.197186571014170232e-02,4.302810751739614796e-03,9.591462084501246963e-04,2.857730682167393919e-03,5.393558508295082793e-03,1.150829647349375651e-01,9.217311998082927671e-02
7.478987131109262644e-03,7.052561996116402110e-02,5.499120480779770559e-02,1.329121318215625673e-02,3.936422600077399414e-03,2.250100800595835823e-03,1.502611915002968757e-02,1.086352147468346019e-02,1.248321118845236999e-01,8.792149605643406751e-02
7.821615183822438686e-03,7.340009575858821855e-02,6.153684466586087365e-02,1.314776605604031819e-02,3.347622585381728084e-03,2.760276017574742752e-03,1.178333651513559580e-02,9.732443696435475605e-03,1.365888792735388546e-01,7.774909244525021745e-02
1.072799908849927583e-02,7.853407277727006419e-02,6.502428661562896506e-02,1.199093714896748777e-02,4.034996149080576772e-03,8.276217038431537458e-04,8.070300119099947656e-03,6.100323728873735182e-03,1.406101138713727883e-01,6.662205757596756373e-02
1.434398299871276691e-02,8.220569567383359533e-02,6.374341392950487462e-02,1.191022525284358112e-02,6.007510592104405196e-03,4.576249205354243274e-03,4.222760272312931634e-02,4.487206564177204614e-03,1.245682058616384008e-01,5.624606695650120197e-02
1.518879092269391322e-02,7.436519095269603086e-02,5.561955131264288005e-02,1.258789136625012954e-02,7.775550126925994017e-03,1.150065718113504713e-02,7.967862474718796773e-02,5.491172516935258381e-03,8.509705537954107002e-02,4.641474281471608121e-02
1.124205263285713539e-02,5.322756174250203171e-02,4.023144971143319953e-02,1.072852428194462013e-02,8.568715610077534683e-03,1.715534768504716617e-02,1.083387079033415468e-01,5.184701873022674011e-03,3.944489339319091209e-02,4.109261440877095412e-02
4.823571603590421156e-03,3.272133213584581257e-02,2.225320018723698709e-02,5.584730358690369496e-03,9.033633030135813230e-03,2.115073483806692925e-02,1.241581457390527055e-01,8.438501766115856463e-04,1.416831222588430667e-02,4.589539706809021846e-02
3.222596299177264115e-04,2.742633296284999189e-02,9.680185461199143984e-03,1.105081820219745801e-03,9.852609178744800231e-03,2.417571888341565542e-02,1.271729998648756521e-01,1.194450978307601795e-02,1.820824797806047668e-02,5.764748565676227482e-02
7.371268794619234826e-04,3.573167613211125637e-02,7.168072305158159317e-03,3.857391142332365457e-04,1.093530832410641654e-02,2.576935408410771511e-02,1.197153539243186460e-01,2.257223341464866667e-02,3.676267721455957205e-02,6.478765029508669337e-02
2.906239088360917239e-05,4.453075547141555762e-02,1.230019627199817681e-02,2.125152130165335919e-03,1.189018260122380599e-02,2.569864138958833852e-02,1.134054380204315704e-01,2.832210265385650891e-02,5.229024440387543271e-02,6.202959326128155981e-02
1.704879501346953609e-03,4.669542645027566219e-02,1.965024272852478743e-02,4.285604984184926414e-03,1.260444300375890975e-02,2.535631057714141795e-02,1.182329914066556492e-01,2.967872163883288755e-02,6.076417240948914916e-02,5.773706478784814550e-02
4.986798497081821636e-03,4.766175166757895959e-02,2.713995156993091393e-02,7.019755450381652898e-03,1.344074088928193418e-02,2.610326458768624097e-02,1.173426118389049866e-01,2.917231881084913700e-02,6.455899967797264216e-02,6.182858877244128831e-02
9.580890786145065605e-03,5.255272541888503929e-02,3.387287752151097592e-02,1.029604761329454971e-02,1.479018330435702411e-02,2.777175712320592571e-02,8.082990980663537495e-02,2.720810148491961677e-02,5.910901247251243440e-02,7.137843643617419742e-02
1.312914561485811586e-02,5.091934467448749196e-02,3.246542926779874549e-02,1.204981808807282367e-02,1.605686602291878096e-02,2.916735954541606682e-02,1.565331532055760227e-02,2.254736821780064376e-02,3.624664476980091199e-02,7.400489337362003983e-02
1.287435297790683400e-02,2.560017405834283735e-02,1.380221258883957552e-02,1.053737574119083947e-02,1.575255939000039934e-02,2.880457579673048607e-02,3.130328344325564172e-02,1.531529211851682774e-02,7.002196404736556364e-04,6.408733458646184711e-02
8.212534673940022345e-03,2.065980940271651412e-02,1.760171001498530077e-02,6.833556352509036029e-03,1.348319984591187133e-02,2.619999401151611174e-02,3.129766218296793634e-02,7.458260250104603237e-03,3.460214048854563101e-02,5.114363775026642411e-02
2.147553893393525787e-03,6.215120860388197860e-02,4.456963386251815151e-02,3.635709285253599810e-03,1.104423360663149382e-02,2.375218790186734569e-02,7.481308304689571198e-04,1.096087213005154460e-03,4.951864702400590734e-02,4.812913276572505783e-02
9.465121731721772751e-04,7.836820882113301745e-02,5.632185878897645603e-02,2.163046641856581406e-03,1.034239067560196318e-02,2.508856233564829563e-02,3.458028347280071163e-02,2.016220423912684027e-03,4.165782180742956531e-02,5.200871897206593708e-02
1.633670963292042531e-04,6.984757934298406468e-02,5.511253608358727268e-02,1.292454449230900915e-03,1.082576383906645387e-02,2.956218518912702084e-02,6.207152371823340675e-02,1.956570591695825506e-04,1.740596364357493639e-02,4.660920154023590056e-02
7.185794176347265038e-04,4.584428070746147249e-02,4.550981827382517830e-02,2.880648340583602312e-04,1.026220088213586693e-02,3.110604726439684595e-02,6.398586955737493864e-02,6.414626238883532408e-03,1.105275999820715636e-02,2.868656371540546229e-02
1.969988420286403544e-03,1.615359661619185719e-02,3.166811558869721960e-02,2.356773877302451112e-03,7.868317113249759936e-03,2.556891868513124291e-02,2.141386235115659217e-02,1.288382958449137312e-02,3.179848525623383410e-02,1.395032737767019394e-02
7.453335694424759184e-03,5.280813803224719029e-03,2.329936280065453627e-02,4.160959878819542844e-03,5.251927540247496029e-03,1.667849734957263866e-02,5.114435471115804516e-02,1.163090579027086305e-02,4.293735386663094511e-02,9.511190208228192597e-03
1.272563791553271186e-02,8.534706696546271593e-03,2.861402848008377797e-02,5.966559109374853544e-03,3.638329993163417000e-03,1.087974146771024733e-02,1.126805986109756241e-01,1.587268322632091801e-04,4.952234434705146682e-02,8.944319502558438495e-04
1.743640844644837526e-02,1.198581598492376964e-03,4.112966825031996732e-02,8.745454633088770371e-03,1.524557233914103534e-03,8.883131439904799059e-03,1.434147662257116707e-01,1.631229272412229592e-02,4.508447100422889597e-02,2.401185258576932560e-02
2.341231769686829417e-02,1.425039229125825598e-02,4.708902167042162273e-02,1.278544380624489600e-02,3.147327998712976145e-03,7.446849438281543179e-03,1.506544311014318960e-01,3.116763668013119645e-02,1.274144099629018548e-02,5.693758118221097647e-02
2.965036407837946114e-02,2.931091834809708072e-02,4.609271920502985148e-02,1.690059136460811406e-02,9.101526682196105569e-03,7.052190989441304778e-03,1.354623810223806735e-01,4.084828689083801201e-02,4.497996696186874060e-02,8.298876685583657375e-02
3.223537880315566206e-02,4.415639276785505996e-02,5.146445292656362525e-02,1.919650993537768205e-02,1.255836761609529541e-02,1.080220902419732482e-02,9.689840789343806549e-02,4.326148249551763081e-02,9.901137966876769059e-02,9.786915464895080963e-02
3.124904944416331820e-02,5.180170759595958963e-02,6.948834022822694689e-02,1.892445957806182522e-02,1.230686052166156397e-02,1.632498852631416447e-02,5.921497857634687445e-02,3.845147357160136337e-02,1.295796286485643156e-01,1.068096054034075870e-01
3.260128007730075245e-02,5.960915883589369690e-02,9.076544405927232384e-02,1.668556512035184250e-02,1.084637092982377107e-02,1.668651430537293132e-02,5.197783108300831068e-02,3.098780362232087665e-02,1.477488481456957770e-01,1.147082499395761512e-01
3.878553499059247955e-02,8.922614442779169819e-02,1.043256444820473000e-01,1.233761782646306329e-02,9.434147615073289542e-03,1.120978506649311993e-02,6.740327838726799248e-02,2.542860922845232782e-02,1.713798999045622606e-01,1.185317243980659879e-01
4.329896539941262279e-02,1.411629068004841281e-01,1.089710460571301082e-01,4.764370860710754815e-03,6.122057049930882539e-03,7.698994408050849857e-03,6.806401963265887312e-02,2.034844612009023557e-02,2.000301742956568096e-01,1.099548205973154280e-01
3.981907887742398150e-02,1.814206442795850138e-01,1.071207111608864643e-01,5.078089120124420000e-03,6.250217925122321817e-04,1.035256818484607544e-02,3.538446410088097460e-02,1.321779832518614299e-02,2.203970543701559981e-01,9.072286054669895239e-02
3.140817809918555747e-02,1.795997286226315992e-01,9.714964078066321007e-02,1.314943440601121227e-02,3.673010887130132365e-03,1.275408276375811570e-02,1.019688552024542762e-02,8.676498838605181327e-03,2.201155332720678703e-01,7.934756027804412692e-02
2.432629277787799749e-02,1.433544542712882064e-01,7.696247994773804113e-02,1.638613677358894544e-02,5.074264856815314216e-03,7.804232965385963366e-03,3.893635710889623708e-02,1.253137648711155454e-02,1.914691124529726007e-01,9.042751691751570176e-02
1.797533361848018679e-02,1.029526825747471563e-01,4.956133726836766534e-02,1.672791204363810458e-02,6.282234770644341999e-03,1.505992909583591657e-03,4.650465419569515396e-02,1.820226873941296897e-02,1.361954708153419735e-01,1.125842010539585686e-01
8.392164903930776285e-03,7.603295186986608334e-02,2.125510765925875054e-02,1.895410819566139410e-02,9.494691027367000574e-03,6.860739289789233655e-03,5.102142039306503674e-02,1.185672599738799883e-02,7.737310842622709128e-02,1.214032437011561549e-01
1.764682042634121116e-03,6.030708406304086805e-02,2.266532475427688459e-03,2.378099280290821987e-02,1.263875922684096556e-02,6.113810088779047386e-03,6.376863496974775891e-02,5.132736841608356512e-03,5.581151903417742172e-02,1.110004339393056982e-01
4.586361491291527162e-03,5.193716265491974543e-02,1.590377702692403333e-02,2.502352253544914973e-02,1.203235421417496974e-02,5.018132524772652217e-03,7.726266552579205693e-02,1.395810877248066656e-02,9.284415591243598553e-02,9.793088647094905230e-02
1.996609963409549503e-03,5.357243752850425478e-02,1.683614255792654016e-02,1.675497563512718530e-02,6.607342296097197532e-03,9.111243808350157417e-03,8.349536850182412429e-02,7.180488500133652870e-03,1.569516447329901976e-01,9.436807554389399499e-02
1.030423857186171625e-02,6.171106084629943145e-02,1.111213221004589240e-02,2.435490287767454187e-03,6.725993986157879087e-04,1.688464055386687535e-02,8.559000580632986077e-02,2.579300818362423049e-03,1.913660717397941413e-01,9.200689225539875060e-02
1.219507814831951795e-02,6.311793572200131985e-02,1.035562823922322150e-02,8.170525566574517867e-03,5.426608018203398290e-03,2.143699634695295578e-02,8.267744491012761487e-02,1.602478010437943454e-02,1.778497745283548481e-01,7.764794486611696633e-02
9.256217283106191879e-03,5.376535059508301406e-02,1.417125489521083373e-02,1.130700854966957235e-02,7.128604537102550993e-03,1.904762911279933232e-02,6.509926533699475493e-02,3.935905948631671786e-02,1.471338499618555784e-01,5.365997144556849952e-02
9.414912925450123760e-03,4.564093360754355178e-02,8.567567870824577270e-03,1.187456772940763232e-02,9.914681254783621125e-03,1.483160072316837448e-02,3.660305334685112766e-02,5.846776121736284998e-02,1.238944835515480430e-01,3.187742018068451949e-02
1.342713564971887916e-02,4.350429383083584400e-02,8.886010971762080268e-03,1.354243581874147243e-02,1.600236016604660375e-02,1.613045689998277021e-02,1.939985905948314604e-02,7.249857947851781614e-02,9.540068132651106925e-02,1.340919126963267642e-02
1.156201496897873472e-02,3.333400894315877855e-02,2.079588100118413482e-02,1.498788240493067678e-02,2.190792071109592953e-02,2.062643746882620449e-02,3.058300587295093020e-02,8.200604807916954397e-02,4.608487293826725451e-02,8.982725881081496389e-03
2.036299918438672432e-03,6.336265127423733670e-03,1.539069841800023812e-02,1.688097209550411953e-02,2.393619128316912259e-02,1.778965023874278309e-02,6.925977060088542303e-02,7.978280718448160780e-02,1.024649065895070349e-02,3.062076178660421907e-02
1.794611655806614692e-02,2.464148490605468783e-02,1.039581101192271284e-03,2.276632412350093268e-02,2.348047398997592239e-02,4.921788951232285506e-03,1.119014239819401263e-01,6.588743726778004128e-02,5.141054451983549656e-02,3.701021524027665183e-02
2.116396118149341254e-02,4.434256122415687618e-02,2.016895197000675294e-02,3.159353243995201288e-02,2.432647906994018366e-02,5.416543547869844336e-03,1.054987567772572715e-01,5.174738868892737181e-02,7.224138089239920402e-02,2.680713829602237447e-02
9.137324660147851801e-03,5.352609424410071509e-02,3.683115097089705720e-02,3.781027861069040374e-02,2.756916591403194353e-02,4.282726019347368046e-04,1.000433294100684656e-02,4.110047835348303036e-02,7.131542499763965370e-02,1.573315095744097503e-02
5.832604851819797771e-03,5.839181611293184360e-02,4.105455596786423272e-02,3.875608687764851845e-02,3.061353231577062725e-02,1.512385822098764529e-02,1.254840268202843945e-01,2.621000918560930856e-02,4.058166168017365849e-02,1.845242847814210219e-02
1.118230463422028968e-02,5.708504825280561606e-02,2.922165330417881776e-02,3.546131908120032233e-02,2.978398562494945917e-02,2.440081412468402683e-02,1.871871423748866226e-01,6.863041108414550187e-03,1.109137767816390299e-02,3.586187770402855801e-02
5.365980578554451104e-03,4.938249850324834267e-02,1.799702901840491073e-02,2.860825093424417681e-02,2.394999277697550805e-02,2.040985841772332415e-02,1.326407154555878654e-01,5.255165243000519022e-03,4.750090003696578328e-02,5.452990546695828111e-02
6.846064383777536455e-03,4.910789751288105465e-02,2.498804159359918620e-02,1.931948349900677528e-02,1.613452180697159608e-02,1.434513086348936269e-02,4.873665137470741676e-02,2.014689869435301595e-03,3.999411955912306887e-02,5.602997664881784884e-02
2.392389973501757999e-02,6.804256235534064667e-02,4.196742539750974305e-02,1.103670630646711066e-02,1.071992966817170330e-02,2.018032387877934444e-02,4.067820123469041704e-02,1.532264783598013581e-02,3.536473072172528417e-04,3.545950304892336868e-02
4.552312655190298568e-02,9.001910250572327243e-02,4.659991001091986357e-02,6.403074141433547084e-03,9.045202662735148461e-03,3.733044112730529718e-02,1.068083690327658597e-01,4.057413967090225948e-02,3.630556932039669810e-02,8.854998767486558023e-03
6.361390480217407606e-02,8.498300989584826881e-02,3.458468588824829132e-02,4.255943201706789171e-03,8.909925393180565326e-03,5.339814906314867271e-02,1.592489606158773441e-01,6.072548465557209285e-02,5.493310204822546283e-02,3.777093737839350845e-03
6.599370420536328219e-02,5.383725135392681410e-02,2.340153778837043147e-02,1.610701671414417526e-03,7.907950060852105001e-03,6.010767557267154143e-02,1.400928385870378878e-01,6.020264498861127578e-02,7.209196100289873288e-02,5.814478273280536749e-03
5.207581284887424777e-02,3.193051317547890983e-02,2.641770604137846576e-02,2.907711429454911626e-03,5.385663857663983839e-03,5.905649057689615206e-02,7.152738437008138161e-02,4.102681247846485385e-02,9.993947372450617816e-02,3.785133402671353453e-02
3.674921856645211454e-02,3.741751278298387912e-02,3.549473253171023246e-02,8.229849469548113083e-03,1.417089030013329995e-03,5.229797260291871308e-02,7.800834554497320002e-03,2.717821253452865765e-02,1.153312237733814805e-01,8.604301281600078288e-02
3.380552764975754132e-02,4.572365411325758633e-02,3.331019116244080674e-02,1.249906803094891737e-02,3.577980590689605438e-03,3.656131340218814196e-02,1.027558309745874310e-01,3.593378338641182307e-02,8.816320513439986073e-02,1.287857958374393208e-01
4.291088867595064388e-02,3.115109930809091543e-02,1.823713187839667502e-02,1.502778414003696876e-02,7.428921015159043947e-03,1.275049790350228293e-02,2.148464467896845087e-01,5.727260582834705488e-02,3.285139734420951252e-02,1.347817764037953503e-01
5.545089899147841173e-02,6.400588834345046635e-03,8.717873678926417805e-03,1.629665574933571170e-02,7.018124668840289293e-03,5.356125207209529691e-03,2.740107424113343848e-01,7.074783808284600128e-02,3.918843154700859307e-04,8.600008380001718244e-02
6.350474138137764124e-02,2.454374817029121927e-03,2.035650299720608708e-02,1.660061392693592749e-02,2.365998020181635676e-03,3.608607399507600400e-03,2.026078778413609727e-01,6.618559308414269371e-02,1.343206714668447946e-02,6.407759046786957839e-03
6.215488540620229402e-02,2.955621236847778138e-02,4.642875440156155747e-02,1.581926829872538562e-02,2.192788166772244654e-03,1.222718517145616329e-02,4.301373317933209622e-02,4.076061320955696315e-02,5.062429293619242349e-02,1.050228216539984133e-01
5.414879810553770156e-02,7.144782052331516420e-02,6.608015434371829200e-02,1.400228310419362847e-02,3.060567650046507222e-03,2.161236681001100363e-02,7.347302621288137603e-02,4.907428742778639080e-03,7.727857987716127419e-02,1.680499806016067244e-01
4.936246771494547103e-02,1.031798120968769883e-01,6.666943703128853926e-02,1.155680391172251437e-02,1.257427138576023683e-03,1.587742727078089375e-02,9.342310041718435154e-02,6.126728781971526455e-02,8.540961447946288088e-02,1.793286515655746760e-01
4.690054657044444991e-02,1.085495747086418633e-01,5.489536958955474472e-02,9.708777090960081513e-03,9.553564224164289628e-04,6.243423275759888563e-03,8.446161550870323609e-02,1.150032459939379498e-01,8.784123546255499793e-02,1.552244581367986931e-01
2.777368233023199545e-02,9.247332115186457369e-02,4.844225130150096870e-02,1.033203968888407945e-02,4.009021184818661876e-03,3.378882607849976235e-03,1.075904305501909908e-01,1.571729783586581219e-01,9.667961901352171983e-02,1.193810422785798880e-01
1.624045040520170208e-02,7.723745740892964950e-02,5.572375951083546886e-02,1.371501671081769812e-02,8.435705333637589717e-03,3.021190039784029356e-03,1.388359380409883159e-01,1.761575086901721598e-01,1.117938274190000691e-01,8.368947153663222616e-02
5.998024948944581658e-02,7.751799831502553806e-02,6.333424745117363641e-02,1.702391519532131525e-02,1.144819745689664402e-02,3.362430967429282970e-03,1.304433556470106503e-01,1.607437598152317015e-01,1.214970585336800357e-01,5.848288567993332326e-02
7.341573131129019991e-02,8.524608086763695025e-02,5.044902584711507404e-02,1.676613855811748613e-02,9.889213200260753289e-03,1.491235009308530118e-02,7.833771233019971858e-02,1.246320213693238727e-01,1.152417742923019933e-01,5.919170744512684129e-02
5.911632813182465807e-02,8.766559785940623850e-02,1.685699169026022917e-02,1.290074738568195573e-02,5.000072983856047350e-03,2.504649289544352148e-02,1.282221987568923222e-02,1.022843351138371520e-01,1.001742954255332441e-01,8.467231675023002835e-02
4.054714070783278779e-02,8.549388365852757243e-02,1.455509268906149574e-02,9.037824226525957572e-03,1.238394465276351167e-03,3.189835950126531511e-02,3.719699718387600718e-02,1.047036032409770223e-01,9.774208777907301970e-02,1.040219976047951911e-01
2.850494088990300490e-02,8.035439070126250416e-02,2.595330237493668341e-02,7.858323818231281732e-03,1.032692031382105666e-03,3.863258984842115468e-02,6.188139726409613850e-02,1.062925946081546974e-01,1.183977996623538226e-01,8.646400604125663303e-02
1.982162362146402262e-02,6.244979415731648220e-02,2.415319866779299177e-02,7.096530745741356019e-03,2.794287694652344660e-03,4.556809433768357898e-02,6.134162794719987682e-02,8.675489371043880460e-02,1.478216959372423978e-01,3.661913393312690029e-02
1.708806882986139974e-02,2.473530381702660277e-02,3.088842716853006792e-02,5.943439613711185617e-04,3.472025749218234873e-03,4.596210980898812054e-02,1.437379257364114135e-02,5.920890836972023119e-02,1.613104416621722881e-01,1.474156630900150949e-02
2.932204704297476650e-02,2.695976086965478843e-02,6.146562810938359378e-02,1.592277623830293601e-02,1.348861359955086164e-03,3.212336109170432774e-02,1.137573617499904738e-01,4.825802234623346315e-02,1.446179593823460896e-01,4.609751523829173220e-02
5.439803014280951421e-02,8.395457799455918746e-02,1.106179872302561207e-01,3.878819055819445610e-02,2.868216265212016232e-03,6.870963765002654003e-03,2.942455558410659311e-01,5.976636586737467394e-02,1.026581654315071590e-01,5.980663896541786595e-02
7.470322003917369280e-02,1.379938050860456678e-01,1.551944750208101298e-01,5.734982542842850806e-02,6.336887649570529558e-03,1.484022001868547276e-02,4.086505936243464143e-01,7.840121880385296504e-02,5.372304215388093440e-02,6.882794860032322160e-02
7.821668532693110132e-02,1.764906486447001266e-01,1.742997592807615237e-01,6.319707317897345356e-02,6.320340689519509010e-03,1.939546730945781311e-02,3.582642724914228416e-01,8.499820246811370938e-02,1.055103178752575532e-02,8.016610938427905231e-02
7.589383240445379819e-02,1.907563737418149774e-01,1.650737388920778814e-01,5.675077365002650226e-02,2.758181638830666492e-03,6.821499201885872568e-03,1.732558081084156210e-01,6.961542198139200610e-02,3.121819796071449368e-02,9.359699491513645553e-02
8.443902188614821336e-02,1.831721992307762115e-01,1.361275318737389384e-01,4.355486606049228937e-02,2.141008579743539433e-03,1.151717901541345762e-02,1.858295940303145502e-02,2.971908828492686797e-02,7.651389103947370263e-02,1.086378820861187144e-01
9.922385216946158493e-02,1.568216606206152552e-01,9.619961885406046187e-02,2.808961121731830615e-02,6.274412624109328498e-03,2.330742169446834572e-02,1.051229047295925145e-01,3.102751470027971872e-02,1.130208808690143923e-01,1.198389709409962284e-01
1.027414869381917811e-01,1.112133945759655185e-01,5.606855630538388341e-02,1.311068344127775884e-02,8.685250373530850609e-03,2.360440111966023713e-02,6.724336941237042675e-02,9.337157544086067962e-02,1.248330051014261421e-01,1.082081026416544661e-01
9.185975326966075438e-02,5.596889774247276045e-02,2.834126659132692877e-02,7.000350543599708451e-04,9.410161949917806093e-03,1.756492371655408308e-02,2.026487336905737763e-02,1.266156661364346292e-01,1.125110578074401957e-01,5.804269966229620714e-02
7.735493770741999620e-02,1.172630076648391306e-02,1.470391940638487646e-02,8.682640816116237240e-03,9.434615261862127830e-03,1.562929627450070080e-02,5.700195412850336818e-02,1.177813473609248263e-01,8.763257830680432070e-02,1.345352379818204498e-02
6.428418561797641373e-02,1.245612591067165459e-02,3.594423378439615818e-03,1.592848030069458562e-02,1.031596452667886930e-02,2.419332606621654724e-02,7.791885677636967503e-03,8.693562426352603734e-02,6.180378059768287802e-02,6.213837256257535857e-02
4.745978137165274974e-02,2.669114167313598601e-02,1.092352676368046026e-02,2.137882696555522960e-02,1.337532179054298775e-02,4.078579592350287802e-02,7.399741947615082194e-02,5.985799329892160792e-02,5.042280140739206773e-02,5.921558591807015576e-02
1.958090587881097799e-02,3.570492043034137475e-02,1.869815798131447410e-02,2.508922391954633915e-02,1.876579996593923452e-02,5.679766440192862698e-02,1.251357847888197594e-01,3.537140782354750157e-02,6.946223747634354406e-02,1.690405891329687521e-02
2.179548868006117579e-02,2.608564852346641205e-02,1.040550435237415014e-02,2.813265927313247927e-02,2.447068499780374190e-02,6.318498759240367968e-02,1.507029362932482686e-01,2.131013000874263513e-03,1.142522455717759206e-01,2.782611875077862715e-02
6.782890076302050542e-02,6.391834607084823268e-03,4.740904961624059673e-03,3.141605626717547395e-02,2.712192714564369903e-02,5.624480781510041161e-02,1.901607596402566103e-01,4.523706610511184917e-02,1.519570270488267982e-01,4.340327141619356593e-02
1.007551959016691756e-01,3.412783903326316315e-02,7.284427906763409587e-03,3.456794193347561411e-02,2.576852634776715875e-02,4.056066456319167707e-02,2.367703056377583049e-01,6.658445051719694141e-02,1.468315787837617681e-01,1.930787675273540685e-02
1.118970256093767268e-01,2.279136215402301560e-02,1.231127009824410472e-02,3.762926156374192532e-02,2.367225400952234840e-02,2.418680018728548362e-02,2.512396401340598606e-01,5.966352069325166207e-02,8.978659508315280091e-02,3.160424450578811634e-02
1.119564820424091139e-01,2.763599468225140521e-02,4.828753344029793060e-02,4.110401863665388844e-02,2.337379600797757223e-02,9.460070916439303895e-03,2.336439787545112612e-01,4.512051330424841217e-02,3.391754751872075747e-03,8.010756009800415467e-02
1.136009819499035622e-01,7.981947684071748206e-02,8.813009862098496183e-02,4.262785412811868901e-02,2.161868923844716128e-02,8.081488181306484969e-03,2.162048158237782347e-01,3.502191544328930178e-02,7.366050774823604264e-02,1.010145863138950939e-01
1.126576873871634327e-01,9.542715490976444448e-02,1.184995115967722723e-01,3.775054109089152204e-02,1.413349816179560597e-02,2.891920292801185288e-02,2.058171928172040366e-01,2.167784764401685729e-02,1.112288392974166290e-01,9.106812122095631068e-02
1.011269030009080971e-01,6.928689405995319683e-02,1.286539865719269760e-01,2.681395824651113327e-02,4.210588948289144609e-03,4.195953627498027333e-02,1.934544195405110967e-01,1.851732660053365728e-03,1.083704269723866631e-01,6.098737197742999661e-02
9.082916174315505686e-02,2.833808315733982869e-02,1.191044106461723040e-01,1.685370092911516945e-02,1.539614900867526323e-04,3.496341426625768772e-02,1.921347823583144931e-01,3.546212808231606617e-02,8.651888431253475231e-02,1.675726618817742486e-02
1.018435740834867792e-01,1.877879513340521399e-03,1.038199509865016523e-01,1.341374605587313668e-02,2.361634515043016958e-03,1.178186086724181819e-02,2.113420369266115761e-01,7.312745242304158344e-02,6.033861001722021916e-02,3.935390518132418636e-02
1.269021035580021051e-01,7.397912967740440928e-04,9.545760752588011711e-02,1.429272892213879521e-02,4.749778413173230511e-03,8.626879718804283947e-03,2.222487836777209125e-01,9.516005003015670649e-02,3.018696067304517394e-02,9.653223134140792583e-02
1.324198623416879828e-01,1.743766487149592259e-02,9.511036920891291491e-02,1.480470494705563023e-02,2.116721342410574080e-03,1.209282638139353230e-02,1.946422822530084196e-01,8.505074779014559772e-02,5.459513439910625328e-03,1.392335084135799539e-01
1.047865925186156205e-01,5.628674088608360410e-02,1.030591552669264110e-01,1.557537934584962182e-02,2.312098824098126823e-03,2.719119916694506204e-03,1.475535790168079342e-01,6.206558842813301308e-02,9.013050343968839404e-03,1.634342902578319878e-01
7.275741872397938070e-02,1.087155347641338976e-01,1.234377759309032568e-01,2.045347025369159688e-02,2.842380805554289326e-03,4.378081483597237589e-03,1.273550462358944979e-01,6.431644607847562811e-02,4.389693573150204448e-02,1.801626351596077591e-01
6.933050131425100293e-02,1.441750787239939324e-01,1.461512938203878009e-01,2.855887362452591560e-02,1.643954831873595821e-03,6.980129392709321073e-04,1.483803054021207990e-01,9.629640395860937507e-02,7.760939001956934646e-02,2.010174997867539559e-01
8.992973773760044864e-02,1.306303937090478595e-01,1.438302889366962489e-01,3.345634882832312917e-02,7.537394813246619564e-03,1.428962191072752699e-02,1.809600695493348566e-01,1.251692586351307035e-01,7.726196812678844117e-02,2.249837607092368130e-01
1.026131929897557554e-01,7.293827425463667025e-02,1.029477555039585712e-01,3.086505350046032589e-02,1.071359451481516956e-02,2.422355486717783432e-02,1.895163108967194976e-01,1.281209245846961775e-01,4.398219748933585027e-02,2.410704207359161133e-01
8.719042312704726461e-02,5.266721324602760719e-03,4.149543300924665029e-02,2.371093517488490759e-02,1.032492818817326227e-02,2.273380437252273817e-02,1.642491304524137108e-01,1.154592867776117887e-01,4.736754628229039241e-04,2.415530566063726903e-01
5.451002701027320152e-02,4.679404987785362735e-02,1.347708943498247131e-02,1.802507714030661748e-02,9.516187185408628291e-03,1.453243224904898767e-02,1.237397328635483768e-01,1.080008341635170510e-01,3.461789763007247500e-02,2.308905407663696674e-01
3.153564237140614457e-02,7.492288164920488103e-02,4.714746290406372775e-02,1.600918677599860035e-02,1.196781809609985016e-02,1.061690295768069787e-02,9.564351175429244845e-02,1.133159380385544562e-01,4.819242911300939541e-02,2.193504190273882215e-01
2.977216867958061217e-02,7.849927601459803783e-02,5.422558601156917540e-02,1.463550520853578070e-02,1.680013379988476094e-02,1.432810379137201655e-02,7.796348779834577636e-02,1.245245537357351773e-01,3.146441940977912771e-02,2.084614404062703763e-01
3.343258106148799813e-02,6.801287561308971830e-02,3.827144417961673983e-02,9.685313039990945533e-03,1.781474794764603686e-02,1.678557311835172580e-02,2.398983449464341805e-02,1.273439214015228138e-01,8.807017848224924644e-03,1.905926625914841355e-01
2.576519537073192201e-02,5.835635510571532403e-02,1.503528939496347888e-02,3.487857089447717052e-04,1.020397204367956903e-02,8.278975680242293966e-03,9.727927193252404459e-02,1.087852177048703739e-01,5.269885669295723551e-02,1.624825751514943628e-01
1.486895961696586659e-02,4.932037395055003520e-02,7.810801797657673448e-04,9.339809018255745138e-03,2.017211842696100491e-03,8.876539286531155704e-03,2.375860894005917268e-01,7.140985952360064115e-02,8.605220190431014937e-02,1.261197099012140721e-01
1.643527165499653053e-02,3.299323543959090804e-02,8.195179636591548925e-03,1.444485661593857863e-02,9.219272042243792376e-03,2.253602419762786371e-02,3.091338874415859306e-01,3.900823655299157783e-02,1.046784014213719416e-01,7.995144758658699613e-02
2.372852694118616351e-02,1.650636977571516908e-02,8.477039584638419722e-03,1.546293939245045601e-02,8.056184869936533488e-03,2.310369159536848627e-02,2.706913406015216128e-01,3.647564465956666668e-02,1.036427669206106683e-01,2.764782848188313685e-02
1.902614926006052781e-02,1.401163848608337828e-02,5.684837570669610401e-03,1.821955622503569280e-02,5.230790363795723499e-03,1.104419951361115468e-02,1.532634168474996672e-01,6.068277280172588994e-02,8.002013555047685078e-02,1.071829793838776496e-02
6.311011697553375356e-03,2.200781069570123191e-02,3.548135051682182323e-02,2.590423589143893077e-02,7.282153005263249448e-03,3.805129414767129906e-03,3.411020481481981392e-02,7.846377684484431847e-02,4.464124269117835525e-02,1.794874980732803424e-02
3.413430360907626117e-03,2.129882684330423534e-02,6.277022159281429869e-02,3.454975159071365515e-02,1.227989307448227110e-02,9.289507700958193198e-03,1.464710614745413572e-02,5.628272055548998870e-02,1.485208454699017688e-02,7.026638674295142273e-03
4.744497684649484973e-03,5.683458355014617920e-04,6.597934296705590396e-02,3.805599574368959126e-02,1.465223874942039178e-02,2.372297256431431418e-03,1.087833344764356155e-02,1.027459748291529792e-02,5.502475218373959268e-03,1.089559471622195130e-02
1.689179364511097028e-02,3.599245686546379691e-02,4.466051969888256562e-02,3.465906438652184562e-02,1.345219757327883320e-02,8.923474943365478432e-03,5.661565936837011093e-02,9.366802873888495362e-02,2.693835352399653882e-02,4.623168486678382733e-02
7.332426763181057461e-02,6.000974082472160936e-02,2.115076052061712689e-02,2.817602035610438163e-02,1.289388058695485270e-02,1.981314645360359589e-02,1.052399983346561096e-01,1.588457854102069688e-01,5.428918292581432631e-02,1.015103718962846319e-01
1.545561930399685369e-01,4.945065341786405305e-02,1.705240191070782341e-02,2.518949854616320955e-02,1.696899952353089422e-02,3.515898300042062663e-02,1.949758843653559004e-01,1.924399735572572823e-01,7.714141850727398997e-02,1.555157589327932077e-01
2.467557089670392445e-01,1.054898334085727085e-02,2.945962593948494440e-02,2.916376115296727758e-02,2.470995749740783828e-02,5.429043279975645508e-02,3.205771063840547330e-01,2.040724859916423495e-01,8.363284601578169219e-02,1.907256405327941162e-01
3.265601332180900762e-01,2.134946766225257961e-02,3.684952101698947546e-02,3.582177540288409429e-02,3.055561916007995538e-02,6.389993650483323517e-02,4.060787880994659593e-01,1.999071089643837673e-01,7.300335931335245887e-02,1.967890786677471693e-01
3.586713126670852403e-01,2.209994141202101248e-02,2.907009769984225320e-02,3.752164563289684535e-02,2.985499808342424385e-02,5.568539698017919287e-02,4.019296067888432633e-01,1.713050453645912630e-01,4.997049555650823899e-02,1.796253636814537646e-01
3.299033380359986389e-01,5.837693808441552987e-03,1.871941031726520946e-02,3.224087811120866787e-02,2.333027579836348744e-02,3.811762138570672087e-02,3.271333573669908401e-01,1.166888620291702261e-01,2.097806050186570848e-02,1.580737101393263344e-01
2.666382057102353320e-01,6.984659822100408415e-04,2.023855312485820304e-02,2.422031993445371983e-02,1.548286610791960345e-02,2.356433983124212733e-02,2.150882130866595687e-01,5.846865884906537331e-02,3.199757122156117808e-03,1.392876927747368765e-01
1.992142082765083200e-01,1.297054833559985708e-02,3.108525310512167544e-02,1.696891379550699228e-02,9.927689133231547280e-03,1.410735720749797979e-02,9.585006478391597251e-02,2.387259343281657523e-02,1.733093241498745093e-02,1.139603261997005484e-01
1.306954107192811187e-01,2.606492962750344561e-02,3.671489408103278257e-02,1.028650495952913857e-02,7.023383774736789709e-03,5.015560189903666213e-03,1.437116052557186642e-02,1.444767908685083008e-02,5.842680990640128358e-02,8.447331037542535337e-02
5.568949278005077413e-02,2.483881914396169482e-02,2.740421072151749335e-02,3.304444683616375878e-03,5.360523311655751404e-03,3.890099211914317418e-03,4.546738782764452036e-03,6.860345890818030784e-03,9.350043684941111710e-02,7.449675065595083578e-02
1.082134627562646167e-02,1.335228540138939761e-02,1.059595419012952962e-02,3.418255561389282968e-03,4.779125350823259719e-03,5.444889706903393960e-03,7.076760005758499228e-03,1.582010689417808272e-02,1.003244321503323211e-01,9.977149944157344408e-02
4.269151326197160451e-02,8.781641069418203577e-03,6.150418576007546725e-03,8.338779791218955961e-03,6.674094381882999388e-03,5.325685498728435427e-03,7.549902607593333981e-03,4.180789472817182661e-02,8.993605455308101293e-02,1.477039044321489802e-01
3.393259873919529657e-02,1.958450031396333224e-02,2.447572252154883027e-02,9.040855883490300435e-03,1.125251034608098707e-02,2.328144322038434161e-02,9.430623485309971854e-03,4.221363237717083716e-02,8.341885217201419622e-02,1.928657056339480314e-01
6.586710894961541468e-03,3.684649526467139585e-02,5.312896566384471553e-02,3.533170174253413755e-03,1.657653667912335066e-02,3.996421708038144088e-02,5.568643184443486382e-02,5.071784259265289113e-03,8.402856076883861991e-02,2.191908241150695713e-01
1.621685049788635855e-02,4.844003958768131751e-02,7.070412119540675500e-02,5.944308845630519311e-03,2.033698735013513698e-02,5.247925975991864223e-02,1.463952182308511374e-01,4.526444828232469020e-02,7.729909683551998423e-02,2.235375700525767673e-01
3.555847031071776576e-02,5.141405630715580738e-02,6.964287343264671803e-02,1.281306011089390628e-02,2.075911778741778430e-02,5.885840008139032326e-02,2.287781831694336576e-01,7.492951128244149106e-02,5.136666549924864822e-02,2.083648450472574964e-01
6.344693164534892516e-02,4.993913515171383155e-02,6.210591301066765296e-02,1.293431020356423239e-02,1.721722667000011656e-02,5.380566760365214363e-02,2.584548898761391822e-01,8.549214724997249160e-02,1.859633775072504561e-02,1.773101737269587586e-01
9.188967091391493647e-02,5.105646829066006614e-02,6.642336423963557390e-02,9.088304717003616376e-03,1.200702677845212271e-02,3.833969299943103259e-02,2.407871823350282159e-01,1.081026872510824355e-01,1.127284412496910512e-02,1.375443842133895200e-01
9.675343303469648160e-02,6.043331915585154618e-02,8.728439970259548042e-02,6.486441661108935733e-03,9.555483477216859811e-03,2.506160922446908079e-02,2.084275612589423787e-01,1.494553986268830903e-01,4.358216896540294261e-02,1.037911415838581597e-01
7.152750865188987894e-02,7.455201124970103899e-02,1.083320917186111343e-01,6.660590148045401546e-03,1.189087077914666515e-02,2.408403813220393389e-02,1.758293929889898077e-01,1.752618076270681113e-01,8.851743597102940120e-02,9.133858483384268978e-02
3.538724228293628482e-02,8.101136577029033337e-02,1.082774008693891121e-01,7.109923082462425541e-03,1.611151488211486418e-02,2.964360921121836703e-02,1.299474859954794503e-01,1.601370808809980673e-01,1.081432948744343314e-01,9.966104179586238176e-02
7.835231591160351367e-03,7.165986728097312186e-02,8.398781429929101650e-02,4.623905641754576766e-03,1.741557068190824689e-02,2.908630400720714146e-02,7.265594781077680531e-02,1.243764160966037147e-01,9.381970554947778596e-02,1.115339769555612204e-01
3.420979356353688952e-03,5.168230640624502104e-02,5.256759860193198353e-02,8.872284010617477196e-04,1.402132929436394546e-02,2.061911834025433390e-02,4.685813543038881701e-02,1.018503069093209396e-01,6.303160659436163327e-02,1.123150364096753007e-01
7.246292371638665686e-03,3.287134770968622166e-02,3.235965457530338291e-02,4.474135393686691498e-03,8.712591261660872222e-03,1.365783055981026166e-02,8.285707762822658307e-02,9.552668336890120238e-02,3.181526077660860874e-02,1.007714545050205635e-01
3.773926811939773418e-02,2.028825726007696742e-02,2.744454261296417480e-02,4.301284708723971707e-04,5.494334611262984697e-03,1.370205485215858152e-02,1.404072824700292321e-01,8.667311409363005759e-02,3.140267037467189479e-03,8.226434533767121304e-02
6.130806545013432057e-02,8.344974892828743024e-03,2.910111058793356936e-02,1.013680589397107125e-02,4.792783659522396010e-03,1.501788137511058177e-02,1.486927768825966334e-01,6.685772942140333353e-02,2.719721613270020821e-02,6.237172865603260452e-02
4.460435239227465709e-02,9.007433220601015339e-03,2.701944160577256573e-02,1.951486934798132844e-02,3.218591186515306051e-03,9.364363975407069898e-03,8.510827850404513450e-02,3.796144983828234759e-02,5.743733035387008079e-02,4.338070700110217837e-02
8.561582896418017813e-03,2.754139804444251383e-02,1.849496563703274810e-02,2.222395155339459971e-02,1.216171176333970694e-03,4.179536298369426577e-03,1.969697030751987529e-02,8.869077829887694539e-04,6.776601962240293153e-02,1.924531146763425182e-02
5.587744720608994742e-02,3.658996732257441264e-02,9.204318724725209927e-03,1.962693228106032056e-02,5.761083619956053684e-03,2.066685858206470175e-02,1.305483386949203850e-01,4.486658262405306130e-02,3.278711651901917989e-02,1.762633859823247579e-02
6.771709819665557017e-02,3.031883262444987071e-02,6.849143409678732156e-03,1.555119824694143477e-02,6.485916237609054384e-03,3.571850407282048390e-02,2.308798375898638011e-01,7.634325879089121081e-02,4.309497365185001316e-02,5.970885759152921857e-02
5.807028969579675071e-02,1.022168023472319609e-02,1.432332266762464945e-02,1.201496801921762662e-02,3.494821466744415638e-03,4.708526657276829869e-02,3.131252147959996956e-01,8.390811186826600820e-02,1.189586947032003073e-01,8.750293661160273018e-02
5.760840452050389887e-02,1.761356223827977713e-02,2.632979313128482046e-02,9.371305833401521318e-03,7.610415157561637497e-04,5.316032292778435225e-02,3.644834050358023991e-01,7.853172391978982536e-02,1.574259074893520072e-01,9.299953163234749021e-02
7.686815150269403485e-02,4.159446815908784956e-02,3.104707743523310928e-02,6.575847789215851641e-03,1.546727188065063650e-03,5.297678862736968086e-02,3.601486183605775437e-01,7.666470925958522586e-02,1.548219076166443553e-01,8.483344886942809082e-02
1.051058611931625641e-01,4.863631051885267814e-02,1.955369783346657189e-02,1.518814506501828384e-03,5.431920971597295478e-03,4.643399379283087713e-02,2.817544051949992800e-01,7.737530581179523359e-02,1.265384887613614229e-01,6.999800913404621849e-02
1.311580013569046965e-01,3.572469440897891452e-02,3.717710975827749273e-03,6.035403522994899073e-03,9.729011821973783392e-03,3.468329361570084146e-02,1.556733195891052690e-01,7.286196422670941641e-02,8.482070858091400600e-02,4.990204097219839985e-02
1.556240263441132365e-01,1.212478178937151721e-02,2.466985309963067030e-02,1.269078367291710113e-02,1.243341993043062949e-02,2.218888587163006174e-02,5.423231647684694651e-02,7.133820155282730169e-02,3.898109892241679447e-02,3.387296734919399699e-02
1.879583149356638394e-01,1.173633453460150647e-02,3.522714375536142861e-02,1.492286971805224793e-02,1.337725189428993003e-02,1.642232487100901001e-02,3.637344306611589584e-02,8.873744984368907296e-02,7.560886271060396520e-04,3.538597285880089316e-02
2.363401841734173170e-01,3.167516962563086957e-02,3.933260318887703277e-02,1.358473341096223808e-02,1.380522433862188710e-02,2.140369106282086903e-02,8.815581714366044208e-02,1.241618539727734755e-01,2.972506267796372337e-02,5.322157114498355518e-02
2.922882082892551692e-01,4.706068104103764554e-02,4.275323505981132310e-02,1.280033699040451431e-02,1.528189179897892699e-02,3.153965928966506738e-02,1.288031360029785188e-01,1.591744707123953495e-01,5.090331649827303795e-02,7.198544880428064952e-02
3.213114762853868656e-01,5.797768268118785179e-02,4.541101373407727820e-02,1.467496476716313031e-02,1.791312418866619280e-02,3.574921784017575516e-02,8.796817302237286418e-02,1.752886447631125388e-01,6.719569785760097502e-02,8.142097789314081679e-02
2.891493000874639230e-01,6.592968484916980620e-02,4.636965473870740401e-02,1.725287859674353580e-02,1.969203780623218075e-02,2.931019935986376238e-02,1.585054299613358753e-02,1.635497251517072093e-01,7.840192616356790600e-02,8.350861398897073407e-02
2.078214290658593755e-01,7.215252155778072163e-02,4.822677003338291662e-02,1.780374711893885006e-02,1.860780788274581099e-02,1.816155207699037683e-02,9.879011741292226256e-02,1.237807382692007602e-01,8.595241382068888325e-02,8.140051690265932838e-02
1.276126450604002094e-01,7.387518302560827643e-02,5.252323649459523375e-02,1.594055739953821604e-02,1.501299219075829736e-02,9.917911081409675617e-03,1.181251870110813507e-01,6.262469857947390584e-02,9.324199011393452530e-02,7.316587228409587862e-02
7.475492633103211770e-02,6.670552072020310974e-02,5.673318903591810514e-02,1.312606965154155918e-02,1.111699136385930174e-02,6.242947888220886157e-03,1.058777916478553793e-01,7.263477538848203859e-03,1.006739791347701640e-01,6.038064457032783772e-02
3.366149115415283805e-02,5.238318753971546449e-02,5.887283296795176035e-02,1.101855471386973054e-02,8.715310134864272945e-03,6.694819348613859425e-03,8.955774996574686342e-02,6.984432160334458350e-02,1.052878676753793291e-01,5.482631349744375437e-02
6.570964700424727217e-03,3.958746408459543759e-02,6.047042532894170846e-02,1.082475913568168961e-02,8.224824301816282407e-03,1.253292026122711927e-02,4.448010539320100543e-02,1.099072768804214423e-01,1.047850380557324435e-01,6.930965008074514710e-02
3.229342822907912969e-02,3.483255467068835376e-02,6.332549541040896623e-02,1.276414617284114990e-02,9.403322844187947394e-03,2.260611223796182845e-02,5.492521984070124902e-02,1.156763731501563447e-01,9.909012731872784974e-02,1.028057482295181846e-01
3.418790905800282720e-02,3.643212735624243998e-02,6.692561719402047304e-02,1.546850067028985969e-02,1.175172536761954004e-02,3.194968661792832454e-02,1.836782233243941242e-01,8.301036418379385828e-02,8.983552651449364101e-02,1.377144804253487009e-01
1.834810525284747210e-02,3.904918313720645573e-02,6.907278785336576354e-02,1.707542325571252684e-02,1.412444344580177438e-02,3.716658181658577531e-02,2.868543503871219258e-01,2.147928804396014024e-02,8.046859751828266960e-02,1.522947363552137057e-01
9.444178008221598003e-03,4.010337812158210752e-02,6.660837144913989150e-02,1.740443586057993652e-02,1.517261283995812067e-02,3.876999271545768233e-02,3.358892554907117467e-01,4.846235571654951280e-02,7.486367202052982006e-02,1.389116141386514125e-01
4.253632686312949079e-02,3.962286709846912780e-02,5.765551380156404976e-02,1.761062084906987041e-02,1.470605539809336296e-02,3.889025518602797632e-02,3.549446641857169071e-01,1.064314319430973155e-01,7.386782750283144017e-02,1.137237298854884421e-01
6.326319040355662948e-02,3.726381704700775649e-02,4.528568868227793309e-02,1.758037322376839601e-02,1.380261679952841936e-02,3.915185101382830796e-02,3.759941921104857920e-01,1.363367835103927173e-01,7.405084468479908311e-02,1.015940248037797283e-01
5.441326943504716518e-02,3.215647674572085640e-02,3.577720276085169515e-02,1.578520673970219140e-02,1.317224916991669055e-02,3.724981568320858555e-02,3.645698538152382095e-01,1.258840452671808052e-01,7.111803583589836053e-02,1.036048764832924046e-01
1.570353692117414102e-02,2.428420408105554790e-02,3.162783881342838554e-02,1.183433574451200204e-02,1.232312507684715439e-02,2.680989207022346776e-02,2.434352348999011262e-01,7.563922121945439170e-02,6.484509584502777535e-02,9.221373280112415971e-02
3.801993513946809455e-02,1.524522351564409212e-02,2.980496459203316184e-02,7.352792462923733556e-03,1.089906965720281555e-02,7.875610532566711119e-03,2.398077389273182286e-02,9.565851899042732837e-03,5.982872928740224500e-02,5.328208214418837796e-02
8.613221819288946479e-02,8.647124043500639679e-03,2.753192865999406352e-02,4.528070022677908521e-03,9.721726839378294280e-03,6.694517559949661814e-03,1.536619424137507517e-01,3.467189152444608014e-02,5.988879396065233812e-02,1.434416281276317678e-02
1.117718604567450175e-01,8.139648784527192538e-03,2.543206012576215702e-02,4.550682532261340375e-03,9.545305774648318170e-03,5.696315091761385355e-03,1.707248941547511167e-01,3.320195979534132369e-02,6.244828549783734695e-02,7.245326081179632310e-03
1.144639622489468100e-01,1.265902406002740455e-02,2.410444923940598116e-02,6.564961932662753685e-03,9.794721585023436969e-03,4.390001086745066138e-03,6.925798670080006436e-02,4.133339755271577681e-03,6.140178458614631296e-02,2.177911045997773382e-02
1.078282908119530259e-01,1.586627894822477403e-02,2.201112311227466922e-02,8.165726842742552713e-03,9.516253063123866068e-03,8.754197642930143172e-03,9.922491893495137549e-03,4.187782230824512592e-02,5.507455808999711655e-02,2.484472063841959566e-02
9.662027687334266701e-02,1.354418110765545288e-02,1.862064680114501602e-02,7.916181975936156107e-03,8.714213429653732898e-03,4.774664551489501280e-03,8.611316081701736458e-03,5.333418305169290025e-02,4.726409993858669834e-02,9.102203744558967982e-03
7.229709861591634978e-02,8.823527362992135761e-03,1.668145705409280338e-02,6.628782734917900571e-03,8.060725825266307903e-03,2.271858393055080100e-03,7.642117560026868983e-02,4.553699448335481181e-02,4.081794480016937704e-02,4.421959966875717990e-03
4.040671685124258561e-02,6.108392210440653433e-03,1.877929810594301460e-02,5.557596537403245752e-03,7.852561551028060943e-03,7.016876860941771016e-03,1.069988273373099069e-01,3.822742997753796751e-02,3.505808615736300676e-02,4.301949766893457816e-04
2.663567319902081579e-02,3.732713387363757740e-03,2.258838739237204601e-02,4.834431113634766672e-03,7.371998275225511918e-03,1.398418775351214713e-02,7.831095143471471232e-02,2.879766526256818601e-02,2.956618346106149736e-02,1.920022160182752180e-02
4.146654461257534563e-02,1.552330789345433403e-03,2.261646921235543201e-02,4.254495807986020603e-03,5.111231145308563727e-03,1.456284617699628477e-02,4.116193475065649254e-02,4.265938511662730782e-03,2.593178847980215362e-02,3.460477452213464589e-02
6.439327636558632439e-02,6.863561450740955638e-03,1.735361698723490720e-02,3.889832534130094506e-03,4.202825744788383187e-04,3.590517673105696281e-03,4.629335667307243884e-02,2.480985967783221058e-02,2.493631149610866030e-02,2.990762386794722227e-02
7.501542960682822114e-02,6.992580707811227141e-03,1.115976963217733472e-02,3.322652068018646862e-03,4.963263145625526271e-03,1.699843590360217149e-02,8.224113300648178138e-02,3.673001105245139036e-02,2.439315884430873910e-02,4.235113614840566032e-03
7.529291260041198752e-02,2.917213697963671765e-03,7.665310063792904818e-03,1.909163166335431068e-03,8.444847129499871013e-03,3.706223048548230870e-02,9.479172632686086453e-02,3.528148982275328138e-02,2.026860448512125476e-02,2.302813091732517498e-02
7.410437012661952316e-02,2.093427434421190128e-04,5.741670667364380705e-03,2.870589963231400671e-04,9.542916665854103003e-03,4.521895370875375630e-02,6.091942235405853334e-02,4.279966767044478260e-02,1.030727243587630654e-02,3.179327099223273195e-02
7.353199843574707850e-02,1.157275659526308493e-03,3.927268968196478971e-03,6.638321217447714327e-05,9.535711876896389369e-03,3.891810448010785128e-02,1.192505572431096922e-02,6.477057254413333409e-02,2.309795458811282273e-03,2.098323442231078001e-02
7.587681464147959243e-02,3.434354658965227142e-03,3.639893912997300973e-03,8.919367175276311354e-04,8.799705209920663865e-03,2.493307987123578179e-02,2.634467881064723321e-02,8.569855811749051144e-02,1.092821176099692537e-02,2.387950903059992899e-03
8.247465916234587857e-02,4.600664470534712724e-03,5.485597017246143792e-03,1.658875290672952481e-03,6.800074187312638192e-03,1.197896722842524929e-02,7.130339216717571094e-02,9.110283536083164935e-02,1.318762500873991647e-02,1.477136686170753971e-02
7.887120269414645002e-02,3.493614029779384175e-03,7.319350542683568731e-03,1.451730112154772049e-03,3.999984846290890496e-03,5.055774305971872697e-03,1.352124936274494149e-01,7.389797507236760266e-02,1.352233247337317895e-02,2.579796441118015898e-02
4.580047403517839566e-02,9.451029316094503550e-04,8.230851421408495738e-03,9.425672487573600374e-04,1.856518260296135484e-03,4.178980638897568205e-03,1.815901742265293439e-01,3.217181991100748900e-02,1.560411651766583155e-02,2.592264487888963978e-02
9.431162515166711252e-04,7.398509022608819492e-03,1.012251595236926711e-02,7.806765954309941198e-04,1.567053703495109715e-03,6.842931904543401132e-03,1.684927802228834426e-01,1.690376152735670323e-02,1.694501601585423137e-02,1.137228349107416783e-02
1.104040036832086916e-02,1.029075399512586336e-02,1.355615721454710848e-02,7.911599447722797700e-04,3.314502628099354198e-03,1.083778461821481402e-02,1.139596943824648656e-01,3.590902378409031870e-02,1.400117775289418977e-02,1.441441666936532466e-02
3.626772376212851479e-02,5.336925362313024376e-03,1.509974655630954947e-02,6.506162253093343605e-04,5.836869213234226889e-03,1.343142870807199039e-02,8.289303191157819384e-02,7.335840776821755949e-03,8.502384218288375206e-03,3.745782855975947345e-02
9.799862612084227209e-02,4.271360120799732284e-03,1.022467398593102442e-02,4.177928683684117915e-04,7.391636342291291704e-03,1.159749813969634773e-02,1.058311599036003137e-01,3.825512844605324231e-02,5.630398614410802617e-03,4.413919028977895953e-02
1.206984500052942638e-01,1.180421550726388352e-02,1.710948140852518347e-03,2.884720835957559808e-04,7.591458490966567461e-03,6.349037837382079559e-03,1.375084952375704439e-01,6.062932055451961122e-02,8.232106319090116628e-03,3.962514132495041641e-02
9.836988432273839622e-02,1.502948339949322296e-02,1.552907816601887224e-02,2.459812498814385544e-04,6.887774542383147229e-03,2.296013727271493422e-03,1.188577025954095923e-01,5.920357953469225498e-02,1.482029822745572004e-02,4.382868779805863119e-02
5.894288863394121780e-02,1.578126877636226028e-02,2.412395940725157312e-02,8.445192971168118492e-05,4.988307651253741024e-03,7.203942335620378348e-04,5.802897897076401967e-02,5.545032403489635192e-02,2.165648605300061341e-02,6.253015545483885107e-02
2.078912706006836100e-02,1.406180244159754150e-02,2.445410537856366681e-02,2.268351064913303405e-04,1.702674989261946390e-03,2.053449674658449492e-03,1.514587045072041636e-02,4.537399636625650406e-02,2.504512558490153834e-02,7.699915832447214170e-02
1.829939226146816422e-02,8.092007667054893980e-03,1.886082077632404708e-02,3.583941683517353279e-04,1.906346822048560685e-03,8.729003006236685583e-03,2.794319801121308844e-02,6.273951881615997053e-03,2.320850667097335007e-02,7.066098079198905590e-02
5.964621653243015742e-02,1.771824926877173505e-04,1.201509904758786378e-02,2.030015467720627017e-04,4.453864668126925400e-03,1.691750627461088147e-02,8.020417621544909115e-02,5.280915804742018771e-02,1.838734484579267539e-02,5.159294510614695350e-02
8.549358051306776840e-02,2.219859347800963618e-03,7.819635373914106402e-03,4.343427169148229676e-04,4.995681168017414298e-03,2.059641341543631821e-02,1.153064867143702432e-01,8.017558064229199366e-02,1.537898044294858969e-02,3.906406333040164658e-02
7.333376794832957568e-02,5.388473109437435203e-03,7.170337306591856655e-03,1.615033336529452836e-03,3.156259955008983153e-03,1.604866369388591174e-02,7.653737114331905789e-02,3.836321289934731954e-02,1.519683484536058470e-02,3.851544070804174130e-02
2.958991107398169923e-02,1.744274853433848069e-02,8.767369075395766570e-03,3.181002993502316488e-03,7.623344899103791199e-05,8.176353549062547951e-03,2.615139423416707257e-02,4.306778049432279099e-02,1.380286333999545395e-02,3.906838616563872157e-02
5.995003915005217912e-03,2.399745985451632799e-02,1.392273923679200609e-02,4.854025653803142361e-03,2.098856611185275639e-03,6.195346871723642068e-03,1.115005773512313808e-01,9.618360025643518663e-02,1.145463988619688928e-02,3.142363846454632875e-02
1.797100616268062015e-03,2.238513451214863351e-02,2.652084380671787187e-02,8.283063164271077874e-03,3.167167334130711193e-03,9.749083113948673815e-03,1.315440560508979451e-01,8.967895144533229168e-02,1.681871782807636134e-02,2.010089677315348572e-02
4.778708277215501510e-02,1.817474936727423232e-02,4.455928149168466440e-02,1.479119687069151666e-02,5.314465468470760436e-03,7.926073174054859560e-03,1.339261168013929915e-01,4.630907661429141398e-02,3.392345316080044165e-02,1.465561301165156649e-02
9.219521324093131465e-02,1.589851159405696046e-02,5.781241402466793383e-02,2.204774161847062805e-02,9.508903605321177704e-03,3.556391359047385032e-03,1.785115392195912309e-01,7.178225766554949608e-03,5.187865789203757738e-02,1.495790228286485515e-02
1.020169608420892632e-01,1.485457226144150725e-02,5.893215324006628036e-02,2.570729524400835672e-02,1.396444449853095557e-02,1.571082643365867212e-02,2.500826224830853262e-01,6.470626089138917236e-02,5.723856427914186806e-02,1.418857281667236341e-02
8.393875121679653106e-02,1.362599503938104542e-02,5.154195835905903134e-02,2.416355651787430170e-02,1.685665499051992172e-02,2.128335969553268175e-02,2.909074386898768960e-01,1.121437906554697828e-01,5.093436423593274143e-02,1.119864647403102931e-02
6.769716728624415591e-02,1.302703980192496808e-02,4.372124760764269091e-02,1.947708446231915039e-02,1.764542897876584734e-02,2.275011430450510352e-02,2.672435393450049435e-01,1.198015738540045561e-01,4.403404479398750904e-02,6.985393099992015867e-03
6.146901932744720798e-02,1.375765553771542832e-02,3.874268319745131917e-02,1.410847330842564251e-02,1.562941653804263489e-02,2.138273591605485344e-02,1.815354161273253220e-01,7.956313862633869471e-02,4.159320392163989161e-02,5.765125691424343411e-03
4.646594996865126975e-02,1.539427098703301071e-02,3.539667995053224353e-02,9.334245116931124200e-03,1.095610913522364338e-02,1.454533959971113580e-02,7.173420248830897350e-02,1.784262340824531445e-02,3.958904950873404216e-02,3.166684219566180680e-02
1.789207026220537150e-02,1.846091617184693334e-02,3.308478313614503230e-02,6.736292056541939161e-03,7.241763882059222557e-03,8.783951580248161931e-03,1.226454053005254959e-02,3.655991759347163722e-02,3.524617758629798592e-02,5.350368713404973775e-02
1.073998909540962565e-03,2.356374856800828865e-02,3.238992263035411073e-02,7.909068047440856800e-03,8.969919165419832155e-03,1.772899809077963310e-02,5.758863969109458136e-02,6.957593956168427185e-02,3.131902842422644440e-02,4.605478498304650670e-02
1.267523810786985901e-02,2.798155037669301445e-02,3.181834430589197682e-02,1.146603029007690032e-02,1.546479133481807634e-02,4.021197713632624487e-02,1.672668350503157542e-01,6.762994640126088197e-02,2.920734456051141820e-02,1.200570416520250344e-02
3.146592682762512638e-02,2.762714165832030541e-02,2.816360953175338702e-02,1.312809208923853936e-02,2.086418182879473324e-02,5.791033243199709968e-02,2.390327362321340021e-01,2.176610917121933261e-02,2.600657887157520332e-02,1.841614482004699793e-02
2.697466369861577229e-02,2.314338152820099442e-02,2.181731381648827073e-02,1.043899016584257447e-02,2.074199262227778215e-02,6.101971004280842131e-02,2.251388433272466516e-01,4.452575928852647164e-02,2.204563156757559372e-02,2.788201361512739757e-02
2.985975330327214454e-03,1.956548427483089173e-02,1.802653151152923405e-02,5.477170491320564917e-03,1.609322729006925495e-02,5.871537581868929018e-02,1.636815572037117195e-01,8.102993153807006022e-02,2.414192720343351362e-02,2.824921263865723745e-02
4.209788799659520964e-02,1.935130900571515114e-02,1.966538186567308444e-02,1.837666165949022488e-03,1.047653475030146594e-02,5.923886945817991023e-02,9.941061513684555651e-02,6.222046975939055091e-02,3.550289071491283255e-02,3.332630748793693337e-02
8.262326781189376079e-02,2.012480084930139482e-02,2.265236752602598283e-02,6.749634506609237215e-04,5.752004729157671539e-03,5.754379487301402446e-02,3.872637276326496014e-02,1.448574829637208627e-02,4.808301114866564419e-02,4.066748693663962966e-02
1.218856158929800537e-01,1.971685469986681968e-02,2.227825917770689598e-02,6.690071131468184121e-04,1.582884870786608949e-03,4.791453344132024644e-02,1.546066347897417925e-02,2.270349315817601563e-02,5.153951701241329258e-02,4.427299720694840429e-02
1.480079847988252095e-01,1.888315620875196874e-02,1.927237092834057849e-02,4.867135109313590162e-04,2.415782298446554795e-03,3.397279755009287999e-02,4.650253966327838606e-02,4.150139002724574644e-02,4.540924189746727707e-02,4.396796397114038912e-02
1.491728470990718869e-01,1.793396611522671269e-02,1.550530429922999942e-02,2.950071951521391483e-06,5.494006075343382638e-03,2.129290598300765530e-02,5.097826082881670717e-02,5.333287158470300521e-02,3.651802022893800570e-02,3.897914591968509174e-02
1.289145328176862504e-01,1.472637727000994205e-02,9.297533569574852746e-03,4.192574583558150280e-04,6.753227197935682269e-03,9.946632752612396405e-03,3.830173583097207235e-02,5.558878673468041487e-02,2.827479156137978344e-02,2.685566561428683052e-02
1.001821037288853911e-01,7.856401458720595199e-03,1.452556769993189681e-04,7.300837041713352515e-04,6.496974101129584719e-03,2.430187091622803414e-03,4.601383070900130073e-03,3.786381568338672426e-02,1.869914102208489193e-02,9.054336052551206077e-03
6.923562318400311444e-02,7.644318669888117840e-04,8.572424049391690754e-03,1.079118903665827502e-03,6.016918577299731896e-03,1.611943076923708779e-02,4.728600760647526380e-02,8.096183202554492128e-03,7.237727860710310539e-03,1.155274372303163703e-02
3.432357567081552319e-02,7.801865004828852437e-03,1.174666231485276512e-02,1.480798284613452347e-03,6.195260067450097767e-03,2.956099767559677849e-02,7.023798997702035418e-02,1.144030839768805929e-02,2.268920262630834406e-03,3.326131006649046817e-02
1.923140507715438534e-03,1.145462753744411546e-02,1.108699457550958722e-02,1.856461144020352290e-03,6.554535050885657022e-03,4.042921395086270658e-02,2.240482051907408123e-02,9.176467877864755499e-03,6.511906981854928556e-03,4.695903755797417589e-02
3.056332132979289185e-02,1.222039667034502224e-02,1.065662696147189753e-02,2.189393406386910216e-03,5.758591536250906931e-03,4.573167964086879977e-02,4.188948886419011780e-02,8.594794700445829161e-03,6.857558025069800979e-03,3.687252271173950546e-02
4.820140765123583776e-02,1.140015747505957952e-02,1.145723918299996862e-02,2.507435431681776829e-03,3.392147305343492982e-03,4.380200471928278466e-02,1.652353133257078444e-02,3.204097674936946805e-02,6.752988831648890945e-03,3.476131518454051751e-03
5.685751663764324754e-02,8.968577150284633842e-03,1.171563862958070225e-02,2.810490403162228985e-03,1.096522122401718917e-03,3.733577987665924469e-02,1.011358906227296794e-01,6.013987935596037254e-02,7.514521225236666692e-03,2.672681620009344228e-02
5.461147459844605673e-02,4.307336279511851315e-03,1.082540354930985535e-02,3.077968475840198344e-03,1.005216292425399616e-03,3.259428520841389093e-02,1.921863871820639336e-01,9.417290535215297465e-02,8.398668966900212432e-03,2.891944515293693937e-02
4.570314831937880018e-02,3.208410770427075950e-04,1.019182240736519508e-02,3.302987918322126959e-03,3.073050426892176036e-03,3.375302055457039818e-02,1.783669026309735173e-01,1.208260468275089011e-01,8.934967525482076511e-03,7.733625829442286603e-03
5.064201270477905470e-02,3.868304383439291963e-04,1.068391284635547035e-02,3.489457677313553829e-03,5.144038566699579706e-03,3.798022845499254146e-02,1.098132779955323102e-01,1.159701613758951783e-01,9.446382056264863991e-03,1.174494743076390929e-02
8.105642978734030335e-02,4.849988303955910310e-03,1.141919465208714006e-02,3.636152972114116769e-03,5.698884921709531162e-03,3.820761129323427263e-02,6.384729240486632096e-02,7.235096401130503008e-02,1.013803855606500506e-02,1.164135149947362682e-02
