4.204738960862194896e-03,6.817308400237752364e-02,5.061407060332914851e-04,5.245028290710723338e-05,1.320134483262813707e-04,4.453717586739015279e-03,4.766180270458820339e-02,2.742779819628626478e-02,6.529594620584259872e-03,2.148051961568151966e-02
2.186493131951409725e-03,1.035244600622625254e-03,9.518517591967040701e-04,3.990775287384864801e-05,7.782641499538242883e-05,9.895914187757976280e-03,3.801751336082213190e-02,2.760067570955020491e-02,6.044949317940476012e-03,2.925164528626027563e-02
1.430138443218618234e-05,2.735601033745441862e-02,4.523774831187961170e-04,2.444118143894258386e-05,7.423827554257618564e-05,2.042025300976974683e-02,4.303279676080529886e-02,2.984695994085564269e-02,5.581498783920709438e-03,2.419923978541473064e-02
9.455551981232354240e-04,8.611604737878003624e-03,3.511433489041263433e-04,7.046328943150843277e-06,6.051369614175736600e-05,2.483168167785694200e-02,6.079531762609861195e-02,3.157429219242562091e-02,5.031986376117556815e-03,9.907245334350424371e-03
6.064095331907336716e-04,2.639817236502734268e-02,5.884060512605056911e-04,9.382209518330412036e-06,1.848955592673711540e-04,1.564500448649048386e-02,7.185009115314752726e-02,2.820210576429762681e-02,4.524946830655386665e-03,6.702181913854359137e-04
5.982632328343488346e-04,5.502522457987159971e-02,3.829349734875579564e-04,2.558412440658634860e-05,6.937561618333522371e-05,3.084101739310752491e-03,5.550763644124551144e-02,2.112116174797893167e-02,4.357484860171897262e-03,2.115616954122652698e-03
1.739843902855983801e-03,8.033029671549329898e-02,2.967184219161155033e-04,4.633547729787693804e-05,8.550585613238343222e-04,1.676418401810923428e-02,1.419242336274217572e-02,1.634008503457907296e-02,4.330484904676676350e-03,1.320070343992385715e-02
1.683085263036345055e-03,1.025491524342680288e-01,3.978823950472444929e-04,6.867920995509005431e-05,1.906821900193102519e-03,1.565484571709772205e-02,2.499484658687941771e-02,1.708626274456218064e-02,3.814719212566932208e-03,1.997497640523783827e-02
5.077973099639986315e-04,1.031722627479746968e-01,4.459673927776580758e-04,8.079787931082697003e-05,2.129207327898846678e-03,7.854845415773671624e-03,3.905135667606111916e-02,2.079015050849773033e-02,3.011640366309934098e-03,1.744277217083175027e-02
4.455390562403743412e-04,6.953976731675096112e-02,4.007837555460505704e-04,8.715893391824869265e-05,1.649882668318380756e-03,7.610382272277826758e-03,3.204522702460396028e-02,2.234926075471608750e-02,2.979073248823847428e-03,9.318770932665329174e-03
4.688830554506886539e-04,1.435017242692731947e-02,3.690697805171650869e-04,1.116177233736254977e-04,1.131210786926419324e-03,1.312808152884758356e-02,2.383409754811234571e-02,1.836767858536039050e-02,3.695223963643078612e-03,5.706129971711649401e-04
1.705746008634717679e-04,3.894450754739962883e-02,3.734812500337236492e-04,1.438349298599842505e-04,6.715966731595143487e-04,9.315051821164082452e-03,2.387165932968933479e-02,9.187446764929708271e-03,4.123875568626146973e-03,9.377819822801437138e-03
1.626094704127791792e-04,7.332651942214778173e-02,3.741306240701049710e-04,1.312817203025296367e-04,1.709478424828779096e-04,7.141686193795081933e-03,2.520013799667114238e-02,1.707454176745380877e-03,4.839219235076189923e-03,1.222805044206182884e-02
3.060205274220520509e-04,7.969603782083155286e-02,3.562324843352637901e-04,9.350360994108730445e-05,1.122661779483761666e-04,2.089837184326866215e-02,2.012289036785732885e-02,1.022320981807057008e-02,6.872402087833764245e-03,6.663855302494519663e-03
3.275659607149993468e-04,5.771620962557266060e-02,3.189831582694880154e-04,1.423386550047419242e-04,1.407245705596800716e-05,2.085633502394838856e-02,8.707563558175004242e-03,1.321939597154301455e-02,6.970901453860525385e-03,1.931608121892045091e-03
2.826511627427053539e-04,1.509691736018263682e-02,2.786948865427101864e-04,2.384540321564985240e-04,1.456412589184183186e-04,1.563322747260322693e-02,7.349327016069460115e-03,8.482459591632313806e-03,1.267752181606425239e-04,5.644581015075414085e-03
2.978481565148770392e-04,3.678447975634875633e-02,2.797790706815052645e-04,1.389253173872878405e-04,1.647468556350201635e-05,1.852279049408991560e-02,2.319858026925945838e-02,3.464048209968123137e-03,1.224574582043974798e-02,3.643450928188216292e-03
3.478278057291291298e-04,7.751611189175201810e-02,2.988736177071892280e-04,8.806763943348922636e-05,3.206282483437402058e-04,2.829768447436549830e-02,2.554030575673807771e-02,1.714980489342780162e-02,1.940497237959238827e-02,1.700079125214823926e-03
3.718706012854143105e-04,7.732965351939150023e-02,2.236044467957356587e-04,1.207288488274506838e-04,1.313952753197711299e-04,3.376915622034665221e-02,8.928582403539588042e-03,2.554366847895974887e-02,1.651813586023262448e-02,2.843544118417014408e-03
3.798392038997693357e-04,2.533695606911158527e-02,9.864503885479409899e-05,8.885473260183472492e-04,6.251249730683624455e-04,3.088950082084453846e-02,6.065148680138015592e-03,2.665030732350671949e-02,9.749839973681532698e-03,3.157511652657760300e-03
3.990157933228277460e-04,4.796370795516428226e-02,1.785668459899657549e-04,1.345816916907612449e-03,1.045786097334265368e-03,2.667041631442543942e-02,5.987310441585807011e-03,2.431835300570545783e-02,6.363844192983642532e-03,1.759440309810269155e-03
4.238647437867959673e-04,9.948134693295282438e-02,3.879160677413868042e-04,8.545382439454024624e-04,5.161482231586878369e-04,2.623727528226536126e-02,3.575526983250572333e-02,2.267741052730925383e-02,5.040882198451740286e-03,9.495142728437388352e-03
4.403415257714654997e-04,1.189558345408420342e-01,1.362172822039409885e-04,5.333987454343358720e-05,3.083510287835614745e-04,2.349688177934504754e-02,4.370709940236537638e-02,2.182930100681648028e-02,8.223975821908527037e-04,1.369657504402723228e-02
4.497442188288276938e-04,1.246682591885707597e-01,6.839205635552801036e-04,1.875950243306584550e-04,5.677175000175372754e-04,1.138563568306179968e-02,1.158963347969990329e-02,1.869759667238314951e-02,6.319695701952214410e-03,1.339380783551873469e-02
4.576516203837837867e-04,1.247893459292391122e-01,1.140396888064113250e-03,9.079987480420322098e-06,3.919473497290730329e-04,3.521334607564034769e-03,3.102092026374866571e-02,1.098197244748398520e-02,1.301173792151094112e-02,1.391939791157887144e-02
4.626461641874687306e-04,1.127537378141094948e-01,6.248430515809154633e-04,8.064135687777103064e-05,3.383961706670498052e-04,7.387780025058752857e-03,4.275927630427878157e-02,2.135965745527336566e-04,1.788144776979996506e-02,1.660095142678184171e-02
4.613791949939021982e-04,9.540620337633963499e-02,9.079420456952411991e-05,4.062376264519032033e-05,4.709867279735637608e-04,1.868776865769381911e-03,1.526979267594527276e-02,9.493539278714942242e-03,1.998813099677507546e-02,1.469539580563329097e-02
4.539326008607938901e-04,9.070781242670540589e-02,1.975137720331094976e-04,1.113995763251600352e-04,5.490696825798254636e-04,1.264824664031789954e-02,2.618391858347634757e-02,1.570685771738731390e-02,1.589689056216765303e-02,4.614726214019804901e-03
4.415266528691223985e-04,9.419924179820686472e-02,1.089272586203063320e-04,9.204787360865554426e-05,5.346020401038990583e-04,1.639070331923644583e-02,4.962199549621752748e-02,1.962417678212156208e-02,4.787638783047136123e-03,6.684203561141473238e-03
4.239908945733387568e-04,8.009391256095671485e-02,2.754926588669012614e-04,9.419550530086144417e-05,5.371713485441981933e-04,1.700043031467649707e-02,4.110605387806586658e-02,2.399398398549383929e-02,6.488629991595342393e-03,1.262398964600539193e-02
4.008123539429853913e-04,4.275599991259503019e-02,9.880839669806895913e-05,1.372768542460068631e-04,5.759492667054208481e-04,2.213567138644292887e-02,1.685339926774250680e-02,2.998840437952138283e-02,1.003556034888142788e-02,1.691138133277847108e-02
3.723328080923807835e-04,8.461764533963748308e-03,6.953816033294511929e-04,1.687548555556997898e-04,6.016236958007501563e-04,3.169812261306659273e-02,6.412266885701392236e-03,3.551471892019758547e-02,6.162490651195556314e-03,2.417580243173517163e-02
3.392644212253165454e-04,3.399360638256273930e-03,1.051402323741808427e-03,1.783843847186405355e-04,6.040501064007532984e-04,3.859017127630324367e-02,1.621167034995405973e-02,3.693172653736052913e-02,3.262309901465657025e-04,2.889810947714365613e-02
3.021106446159647929e-04,6.228522012299104668e-03,4.008158010659961467e-04,1.902149038432178181e-04,6.022889390703048927e-04,3.817044058421002750e-02,2.503876080265363471e-02,3.413977920258702559e-02,5.440829084050541158e-03,2.303499515290423696e-02
2.613752705177839518e-04,1.995358310992206841e-02,1.081109029796458831e-04,2.090037881176392697e-04,6.027806349743564324e-04,3.195524103524362974e-02,2.046470029650308137e-02,3.191767731288778359e-02,1.086068532141465891e-02,9.609651136127276422e-03
2.178197062876632113e-04,3.708885741513771178e-02,3.250291844342938544e-04,2.233110433352272967e-04,6.059987471419789893e-04,2.164560921576009697e-02,1.533760407780501711e-02,3.236504599774289725e-02,1.048250121706652618e-02,8.187770753315581820e-04
1.723334334856148266e-04,3.333226279726522745e-02,7.747859449581595212e-04,2.306314616083216570e-04,6.075717961594594325e-04,6.539560546352080582e-03,2.029819625320088486e-02,2.907544873336844263e-02,2.125501154583551381e-03,3.553181527299491271e-03
1.257762671012227008e-04,2.700587505239692050e-03,5.840976967658618058e-04,2.362554794547807213e-04,5.893129077905414530e-04,1.012864769166864007e-02,2.476040853340363834e-02,1.505650088653738734e-02,2.328571465028051249e-02,1.124649858476013155e-02
7.902956976686529873e-05,3.571093789788603451e-02,4.662879980201483656e-04,2.414913491517462613e-04,5.579791584392021931e-04,2.087222435934328602e-02,1.626194893236609929e-02,5.766557890073146543e-03,4.043042825038210136e-02,1.228341959791036386e-02
3.305689222145376558e-05,6.070027549991540566e-02,6.665485884125581413e-04,2.440504659649226488e-04,5.634460866378614890e-04,2.445072254537743878e-02,1.488565894840566950e-03,2.136731358127714336e-02,4.550139431289793035e-02,4.828098906921576318e-03
1.120017453076400813e-05,6.426278353283619571e-02,4.135235526007398571e-04,2.435512031242146323e-04,5.969231279301522204e-04,2.753367990977866747e-02,1.703384300000920001e-03,2.469286768433872833e-02,4.111639116689000395e-02,1.882157059989322508e-03
5.292510155764786972e-05,4.952190290976096754e-02,3.150442233857540688e-04,2.413989647970300907e-04,5.499622357217417989e-04,3.190867451591877096e-02,1.517527105639239308e-02,1.941164802008294582e-02,3.299452441115208190e-02,1.601157992686681741e-03
9.131069651970697386e-05,2.493086728195541626e-02,6.256272656116601810e-04,2.382179682246416427e-04,4.396617305352004115e-04,3.091469723751358312e-02,4.186840536533133900e-02,1.419927167282158779e-02,2.244424011876325342e-02,1.074327423043237081e-03
1.254526259682500170e-04,2.817753961783710064e-03,3.813254282064631388e-04,2.338602941582573096e-04,5.045752451071232368e-04,2.328902139078306913e-02,5.427278505329516389e-02,1.437959487779672148e-02,9.657245728607004656e-03,9.348490495266576980e-05
1.546449283308040797e-04,3.501333283582009487e-02,3.385832445790054254e-04,2.285490120227304776e-04,7.284549170834012056e-04,1.876088608734223853e-02,3.289263137853457031e-02,1.788178384253578251e-02,3.395035941970065991e-04,3.460840721478976138e-03
1.786536080594235576e-04,7.502785552007439074e-02,6.369856370992132977e-04,2.228775588308625399e-04,5.709131901724184355e-04,2.337523300078719543e-02,1.253990099137565310e-02,1.835734504211430224e-02,1.946924411660789275e-03,4.085025651829566826e-03
1.971534621393852057e-04,1.138159104169962910e-01,4.940957803158545257e-04,2.173546173165171380e-04,2.289954049999470571e-04,2.947797386223078783e-02,4.631644755830635618e-02,1.361916243120481207e-02,1.286247018951869152e-02,2.441391411254737950e-03
2.091856861244347984e-04,1.297489632129350257e-01,3.218171640530243785e-04,2.123731977220128561e-04,1.125728325144439686e-03,2.832726450769558479e-02,5.072589220744785909e-02,9.389217929135355509e-03,2.275514020403457752e-02,2.779175611009570245e-03
2.143802632257574520e-04,1.098647873916902967e-01,8.390386366205277368e-04,2.081999114698014663e-04,1.840657086393072918e-03,2.607189132719026081e-02,4.959535605006441111e-02,1.139520280417004316e-02,2.561511419037200074e-02,5.292703044017977795e-03
2.141678418439017968e-04,6.663094871702378297e-02,3.582575087508979724e-04,2.049862407477798037e-04,2.877766713929062053e-03,3.676522103951054832e-02,6.550258872605493887e-02,1.636790768428890430e-02,2.483035336444200727e-02,5.596851524674126971e-03
2.092178313491238324e-04,2.818343653755274458e-02,4.315039223336644323e-04,2.031997966158797782e-04,3.963543992940827577e-03,5.972108857140916854e-02,7.977860650936921538e-02,1.658022374342036503e-02,2.371293407733077174e-02,1.831394447622702653e-03
1.967901553957799210e-04,1.508076291937924390e-02,6.125868345454748599e-04,2.035932857887710803e-04,3.718542808054304920e-03,7.628544384611307683e-02,6.815615643503018795e-02,1.164354460045646626e-02,1.954479220855758620e-02,2.329264196534691460e-03
1.761297369228954750e-04,2.905089865093427731e-02,3.395795450059228338e-04,2.060463073108596604e-04,2.019839873465536714e-03,7.492829706967576997e-02,4.853680537304631143e-02,8.524990568634448207e-03,1.015034833493931588e-02,2.858225793824377154e-03
1.542434255725628198e-04,5.955682680279697494e-02,2.396940373635454572e-04,2.095667723918439576e-04,5.538142907360751009e-04,6.553975461058528240e-02,5.319975642974666269e-02,9.863937491935750521e-03,2.948712332944271146e-04,6.617895679485916692e-04
1.345011256730751148e-04,9.398521368732051795e-02,3.520055085577926813e-04,2.148403060166612533e-04,1.645075006262288289e-04,5.984109731446658753e-02,7.666432792198858703e-02,1.036569880312909406e-02,5.988359946521982710e-03,3.659326986663692443e-04
1.039620719775797447e-04,1.186659705439492563e-01,3.167400307636159722e-04,2.242832942308851062e-04,4.699113268068945827e-05,5.328849967364519824e-02,9.039891422288710843e-02,6.213401558117447564e-03,6.698380247284757213e-03,5.161587185867550984e-03
5.733914720650126219e-05,1.181658385502802333e-01,1.390747089146520689e-04,2.365439936208634322e-04,6.324675675929814595e-04,3.810157877608100901e-02,8.836355503177398263e-02,3.126914766698159014e-04,6.978716047639168044e-03,1.368365395695204240e-02
2.463394066256951114e-05,8.609638298742010309e-02,1.772297133735408967e-04,2.462379958746252853e-04,1.035481293240508253e-03,2.055503537852538740e-02,8.102486247462482860e-02,7.626254084105403043e-03,9.107158466216234635e-03,2.119447066367351543e-02
2.061541472870820517e-05,3.600770274583849767e-02,3.814978749865358186e-04,2.557073328586775070e-04,9.731534402757651032e-04,1.270555972147721993e-02,6.535178689586458589e-02,1.763786896841065127e-02,9.572736545652103454e-03,2.356785036590568552e-02
1.559101365004890902e-05,7.599551156394069966e-03,1.360080682518815122e-04,2.759011370699031166e-04,8.644033996695290505e-04,1.564678500825925772e-02,3.773183904954411499e-02,2.884063888079219790e-02,4.088163692877107812e-03,2.105672576323098025e-02
1.142550304832652951e-04,2.847239363581693244e-02,6.905703563988987255e-04,3.012884906615517322e-04,9.586719872988892603e-04,2.097849873465984505e-02,1.690993899418371041e-02,3.446569536021085178e-02,5.554824791745816351e-03,1.799808252722419344e-02
1.431858683960089565e-04,2.571081370057933663e-02,1.202858122333273728e-03,3.073401513218110607e-04,1.082671447839780995e-03,2.255333690291163110e-02,1.930100932159936611e-02,3.175193901732114438e-02,1.245272173870042715e-02,1.788511747133721477e-02
3.112792732876451984e-05,1.039545048325906697e-02,7.574302678045242336e-04,3.040680924363497019e-04,1.111153970844862759e-03,1.879885489016583366e-02,3.075394261439224133e-02,2.684215463605859817e-02,1.181034183977261801e-02,1.922656951418363208e-02
5.815332666880655151e-05,1.209754590329312728e-03,3.580075633485060036e-06,3.428343399268962872e-04,1.117217166755701471e-03,8.997436796488135144e-03,3.187986334866674265e-02,2.522781211727266951e-02,4.539744511409515501e-03,1.744026125135235417e-02
3.930210862806701798e-04,1.264350665692826926e-02,1.871920336973663282e-04,4.022098427312110927e-04,1.161246867593662170e-03,4.905786171976186417e-03,2.862072072955582774e-02,2.274944829244046618e-02,5.368803614533039156e-03,1.140995451310521970e-02
4.063115569358037560e-04,3.845593818920314821e-02,5.620684594257699152e-05,3.703549649362807114e-04,1.217492484634128758e-03,1.536824860205650983e-02,3.318432777925688082e-02,1.333387810658497215e-02,1.396576747647779691e-02,6.570903231928396093e-03
5.772973441136344504e-04,5.566636687793630883e-02,1.691885721543433198e-04,2.883497834354345544e-04,1.252392512752181601e-03,1.434295821976110108e-02,3.915710861297760914e-02,1.351608208369537573e-03,1.877854454186062699e-02,7.891941213600681820e-03
1.816281978151792088e-03,5.260198147624592369e-02,8.581121346689469598e-05,3.971176082400629703e-04,1.257773107212888748e-03,3.054401004856766022e-03,3.464831105874099926e-02,2.948079701718816018e-03,2.040739323386403167e-02,1.075102278362243154e-02
1.826960191081974114e-03,4.320237606260139696e-02,4.922089655815244601e-05,6.229198299982949098e-04,1.256478967664439355e-03,6.097365029055766897e-03,1.974312441939880119e-02,1.306754242214952771e-03,2.188750022621646640e-02,5.154758929060989335e-03
5.993396748785957727e-04,4.414128703172782997e-02,9.746068586641516761e-05,4.051746761651695982e-04,1.292761661551404496e-03,2.091800938353921904e-03,1.818117907564681564e-03,3.757465798345493210e-03,2.372359233191635372e-02,1.010363708781584352e-02
4.108860979228407982e-04,4.676160583024858985e-02,1.185110562866663992e-04,3.685118321306876210e-04,1.340254642890118236e-03,1.105025074402612995e-02,1.305921835215763036e-02,2.574590081086520175e-03,2.176184266369976875e-02,2.422870189141753880e-02
4.375232633249292362e-04,2.912702888422974076e-02,9.311067268773608858e-05,8.347141290041310176e-04,1.290407000714999166e-03,2.030970410251926178e-02,2.500972086270649222e-02,1.194105445621238513e-02,1.366427954589770170e-02,2.763414165290504002e-02
5.526145298726469444e-05,4.113330928197856361e-03,7.331424138865480218e-05,3.790647790840844379e-04,1.185713463160856804e-03,2.266936973493813637e-02,4.052102292864533800e-02,1.472192248383634265e-02,4.383201528488474101e-03,2.246047339519202310e-02
6.473958450828467366e-05,1.914483720441336953e-02,6.946288360169687647e-05,3.723959433580012273e-04,1.267721346770453146e-03,2.717821377567069055e-02,5.971853812992893029e-02,1.009928946829242481e-02,4.571159390715951332e-04,1.679885818314403798e-02
1.464361320122124462e-04,9.510101048890813244e-04,5.877786928808885513e-05,6.007714282137703761e-04,1.466935567546247352e-03,3.706754523939370660e-02,7.039151866783346922e-02,4.338989241583067480e-03,2.225569778129854112e-03,1.429475531969147221e-02
3.394123175987907816e-04,2.597569726345110713e-02,3.635263120580890068e-05,4.040468403119487953e-04,1.221479286701680766e-03,4.349455573151603249e-02,6.838171101243620265e-02,5.962946515279709311e-04,6.448825819857523928e-03,1.433097417457976537e-02
2.480087802543528284e-05,3.872972906400319604e-02,1.166331774249816886e-05,2.358824688746891042e-04,4.103520631027796246e-04,4.191463410236100084e-02,6.909411756243843961e-02,2.858754036691649094e-03,1.230841367396097452e-02,1.687709178158593865e-02
7.876200155687207351e-04,4.217669601059498979e-02,1.105892517600110026e-05,2.151283173486976720e-04,9.616147084884312652e-05,4.161668082747168457e-02,7.980689414663308390e-02,6.797700825729014948e-03,1.952927153337687821e-02,2.027693745701477507e-02
1.259411412401297567e-03,3.995140370341394159e-02,3.118754526574809882e-05,3.370820818760909723e-04,3.392599779907420053e-04,5.100848703267028134e-02,7.877521711975227214e-02,9.452033910108724804e-03,2.509178242655237673e-02,1.889634215170755971e-02
8.134152219288193469e-04,1.729205760137055362e-02,5.171467229771455564e-05,4.703928670094315663e-04,1.079317148651990233e-03,6.323066380419369026e-02,4.658153349845562535e-02,9.333480227317714900e-03,2.721883905730259137e-02,1.055037532422650401e-02
7.258904662199000654e-05,2.900100748756085159e-02,8.085693556605609014e-05,1.742537603677618639e-04,1.258605734170304292e-03,6.494574301741344591e-02,1.977623766773673603e-03,6.127677357312870908e-03,2.825004935935443093e-02,1.826157147553597072e-03
1.234398627606427218e-04,7.024848056855798051e-02,1.124629533136161394e-04,6.019778936370143900e-04,1.001469194285570978e-03,5.319885438497168328e-02,2.190832229283567328e-02,1.159654601178853640e-03,2.886521945933311073e-02,1.525584060892810076e-03
1.077784910448225173e-04,7.369367023307352160e-02,1.227956520023329890e-04,1.060056221223374881e-03,8.650973142864832330e-04,3.665090810073588085e-02,2.555068294533226550e-02,1.455505137310964849e-03,2.479458659443209076e-02,4.299182326657210312e-03
2.161030175235519328e-04,4.060809230620932020e-02,1.215528724430703069e-04,6.831942690583574403e-04,9.178295481652419281e-04,2.464711018554683122e-02,3.770916723192542508e-02,1.893743136203757723e-03,1.453854498317854425e-02,1.412516996642171341e-02
1.299033681760393584e-04,5.275286586886183439e-03,1.599210942194666631e-04,4.567557917436557038e-05,9.325784252953241192e-04,2.120688757127045521e-02,6.694623494325815938e-02,8.953107902199252885e-03,5.451688201698483976e-03,2.915149415507251388e-02
8.500575438043218954e-05,3.031995883297820306e-03,2.175446918903544877e-04,2.310287618346702570e-04,8.732750054619823916e-04,2.651640975092190919e-02,8.613956877592074401e-02,1.372147485154763362e-02,6.259948603064070458e-03,4.065037548089392438e-02
1.214403944385382986e-04,9.045790195115145996e-03,1.823234353040959063e-04,1.910261936261689825e-04,8.212889066286569026e-04,3.752251633031796624e-02,6.898589357691502222e-02,1.374310721198666527e-02,1.530738681765197659e-02,4.373380498709416447e-02
1.300135998524052186e-04,1.015362654788657358e-02,9.332117792685675687e-05,1.676237409180456029e-04,7.916010722062959137e-04,4.798022125355978079e-02,2.181641012179853095e-02,1.159937544424565099e-02,2.052088567928191457e-02,3.963032160402181481e-02
9.030004438896097150e-05,1.466630952134139083e-02,1.931887618481532289e-04,8.940603786919304767e-04,7.997855798003026184e-04,5.405485139451812748e-02,2.633297280754683806e-02,1.095644438269917538e-02,1.260804740647538530e-02,3.030829598988451015e-02
5.302807604662396879e-05,4.413538065975951968e-02,4.137386195068767079e-04,1.359666628071814652e-03,8.499825799379330657e-04,5.867938977761485986e-02,5.011475663279402887e-02,1.394506848732739168e-02,3.757249563731146665e-03,1.611137173313491322e-02
2.854725123916163261e-05,5.001246377650849645e-02,1.919821459041075816e-04,9.673744988147923258e-04,8.233624669132634868e-04,6.398281536669510328e-02,4.142556547710498499e-02,1.886531134914747401e-02,1.542970100542682965e-02,1.234661454064628523e-03
6.171346317259858574e-06,3.240105987859565051e-02,5.949054214572751772e-04,2.436383034098686955e-04,6.939590214414731234e-04,6.270547025499340066e-02,1.290863835354679953e-02,1.902722911219441315e-02,1.579376038626110340e-02,1.648479520230195644e-02
5.550136284330879372e-05,1.040147874886960741e-02,1.076818859828782829e-03,3.696082567064712680e-05,7.692043536573550319e-04,4.559058043876713928e-02,8.500595602261953529e-03,9.270589217856346764e-03,8.864568790620771729e-03,2.391064606634066628e-02
1.082121633027592004e-04,5.070112109034924201e-03,6.150515485882395361e-04,2.758949267998612466e-04,1.103515472095269786e-03,1.464449702391885932e-02,4.607981230946115239e-03,5.815743656399526701e-03,1.517116131774178152e-04,2.264228578257957911e-02
1.613396460991486372e-04,8.694173634629822137e-03,1.526385005457292661e-04,4.075459462114813347e-04,7.172211773020519291e-04,1.755288291214223209e-02,1.883971526213142414e-02,1.574982015022523621e-02,8.839863118281490392e-03,1.847782530613473542e-02
2.182139151572420129e-04,7.203923089892412188e-03,3.570502737009729425e-04,3.394533336546373702e-04,1.472016106822569706e-03,3.861686250747131677e-02,4.916815077040225662e-02,1.571518615676718855e-02,1.614000976177699942e-02,1.940727626010857118e-02
2.784410039237230402e-04,3.311565758188988323e-02,1.218945946980774130e-04,3.092103915168598689e-04,4.521109514742510486e-03,4.324202082319457408e-02,8.447162159128343561e-02,9.893448792191658625e-03,1.704107258119611987e-02,2.764719414112990284e-02
3.406030773453188752e-04,3.987029851903137190e-02,1.102138091839702941e-05,3.672540745000164712e-04,5.672761892776906345e-03,3.439116943592433751e-02,1.190181907579586085e-01,4.685511509107146907e-03,1.047600839317544032e-02,3.662395237413717392e-02
4.045993494120891671e-04,2.209010981461032030e-02,9.333585848019049984e-05,4.041579194700013712e-04,3.610105728065784482e-03,1.990445294396900322e-02,1.323247437901448331e-01,1.834876441687858205e-03,2.962645680239984862e-03,3.901485620828824830e-02
4.663947124926191780e-04,1.443741954787631024e-02,1.267307824420396277e-04,3.949459099165866923e-04,1.524267921928281486e-04,5.064374198953391047e-03,1.164287990724820337e-01,1.822232765327752363e-03,2.191095350037281821e-03,3.619231489732617491e-02
5.219518026453264957e-04,3.717941636752244983e-02,7.271203212675723233e-05,3.906537555933773374e-04,2.048377865377863649e-03,9.349083517392978507e-03,9.564816193551033130e-02,8.236158051751702250e-03,9.158942716274537724e-03,3.370011851348026638e-02
5.785571825581781527e-04,5.997939197915962140e-02,4.399145981500289954e-05,4.038484929528703095e-04,1.926250810908780456e-03,1.977051210387839250e-02,9.555031757264040304e-02,1.312437575003471898e-02,1.792541624881494391e-02,3.059265886925993660e-02
6.425837025814686541e-04,5.133048022783096714e-02,6.111243950022875236e-05,4.110962244550473853e-04,1.253281530326819755e-04,1.862878131789933583e-02,1.070520378601044348e-01,1.012501501750012224e-02,2.102072342567495519e-02,2.346792355941174427e-02
6.950354628473102720e-04,3.013873947098906145e-02,7.258072260054442297e-05,4.064961092941427523e-04,2.925521640827197668e-03,5.222576981041069169e-03,1.006937884376645775e-01,6.952760996291706790e-04,1.617903122371778038e-02,1.786076083371782725e-02
7.190843694972992280e-04,3.131039627600771397e-02,6.886805201642414592e-05,4.011814728194657291e-04,5.135720603002920034e-03,1.043164476883597959e-02,6.647596136968898783e-02,1.216969601106669685e-02,9.772813949613178008e-03,2.240024598688621776e-02
7.531156545260992829e-04,4.811229389288625147e-02,7.452498664528266615e-05,3.984074387403861803e-04,6.367868970249559134e-03,1.895652989305215627e-02,2.551674569583410601e-02,1.723658191301458836e-02,1.064940824662574149e-02,3.299800423261774196e-02
8.324329794718390591e-04,4.835412852873707812e-02,9.508704388417349592e-05,3.934343900817702309e-04,6.833362543947056611e-03,1.997518447864517210e-02,5.169907092939671212e-03,1.417023845525817831e-02,1.735864992411498622e-02,3.600712464952214586e-02
8.743326676706569519e-04,2.736385867313196468e-02,1.198938338968785907e-04,3.847970590639613318e-04,6.045421129403507482e-03,1.851004372231300835e-02,1.304472251358709291e-02,6.475407320207785498e-03,1.543818286385056394e-02,2.757085496879744385e-02
7.999142854594972797e-04,8.765380263080352341e-03,1.461193039229996971e-04,3.745343634010875854e-04,3.803551595210096122e-03,1.928944090013667151e-02,4.104838440061319565e-02,1.136886604236997497e-04,6.006833710573614322e-03,1.815906417862778524e-02
7.855010486926402788e-04,7.258953310711523631e-03,1.781623510703921509e-04,3.637119023455197167e-04,1.621808650298208702e-03,2.205898738094232495e-02,8.264723105216446875e-02,1.981395337428338687e-03,3.751289464619644853e-02,1.560825071114451366e-02
1.015659887060172632e-03,1.529304375811846306e-02,2.182199846159624853e-04,3.521565211164402092e-04,1.043620629471840198e-03,1.947300469020457961e-02,1.274381780397208230e-01,4.126752986684898306e-04,5.730155799883360213e-02,1.426926225200340903e-02
1.088026525015967517e-03,1.256203368485133039e-02,2.656007226746495654e-04,3.388073799246526618e-04,1.593843466821682174e-03,7.860963930439850492e-03,1.493772390613628820e-01,5.482145134214402513e-03,5.401311060419735494e-02,6.782064247605308627e-03
3.113307282103659930e-04,2.110387399260692937e-02,3.171914394359620442e-04,3.219865030732570058e-04,1.761921668768309020e-03,1.873373222168918254e-04,1.289697032318948833e-01,1.265314603655695938e-02,3.323357867182549774e-02,1.995314144807793129e-03
1.098174942629946693e-03,8.135511030713442338e-02,3.695205186139470066e-04,3.029364103585391018e-04,8.296356598587566189e-04,1.334302763202968589e-02,8.362942501345102531e-02,1.996437931859253515e-02,6.189154598206110178e-03,2.452162827454841976e-03
1.887802343401896385e-03,1.248379584706829776e-01,4.270420467146241210e-04,2.855118896744880089e-04,8.440934926314056907e-04,4.318035778143421849e-02,4.808897850171526406e-02,2.390831098125835094e-02,1.674540168301320853e-02,3.329576399989168413e-03
1.259283389395606618e-03,1.063825844205622123e-01,4.978161015208039082e-04,2.666050415540674240e-04,2.340596574000038815e-03,6.959468596317391897e-02,2.687476321065210977e-02,2.404912585944421130e-02,2.467108340669862954e-02,3.590954015755576031e-03
2.030073824594475786e-04,3.687369834425147097e-02,5.714231535997024497e-04,2.364450228054949907e-04,2.946230276216820886e-03,8.220421634779620512e-02,2.308883879090927078e-03,2.349431813092808102e-02,1.116078125686045461e-02,5.747330118156231474e-03
1.288652762376760619e-03,2.181127286900938489e-02,6.276717840782867824e-04,2.000029090306509514e-04,2.988427781618449748e-03,8.338020368138639171e-02,3.806725642434174994e-02,2.323924283009542666e-02,1.742893663076246560e-02,1.497466180668099132e-02
1.178403658527714956e-03,2.949826820124669749e-02,6.860567716628320411e-04,1.769892833328130853e-04,3.371484393685422916e-03,7.615161674920319090e-02,5.158452286298886857e-02,2.068734255983340972e-02,4.666845986566872662e-02,1.347781107873348774e-02
5.651631736000437738e-05,1.125964286643924873e-02,7.885213618528170596e-04,1.557225135271117955e-04,3.844169555816605126e-03,6.644881728089753470e-02,4.545337273866734834e-02,1.500688353091474310e-02,6.888998046754640781e-02,3.663733207386180458e-03
1.268518757115645948e-03,1.232289985683885508e-02,8.924803841308574055e-04,9.191523797093301520e-05,2.825759107567241742e-03,6.317482599385268460e-02,6.469609885257776583e-02,9.586072973918703666e-03,8.693662878259070248e-02,1.265234339379155051e-03
1.166636331825630099e-03,3.251287799480678115e-02,9.047412486242529433e-04,7.405904933899117536e-06,2.495686711174461008e-04,6.387594265677166983e-02,1.226312587069014193e-01,7.289910098750670975e-03,1.019047521706499121e-01,5.838652594643265782e-03
5.543607218069730768e-05,3.339356684685797910e-02,9.113361739274773504e-04,4.486077251988328929e-06,3.577887076365710278e-03,5.863654142207475745e-02,1.693713844820351477e-01,6.111312796651772149e-03,1.057256007123224401e-01,1.588648929063592175e-02
9.912363076631819803e-04,1.613710924541586489e-03,1.114048947435527246e-03,1.027748966551936117e-05,5.086154747286254427e-03,5.253513796423354976e-02,1.711393009556991252e-01,2.348236192281534084e-03,9.146521823441705612e-02,1.777530396052337883e-02
1.026949405473022436e-03,4.415236305006695755e-02,1.341660992075134227e-03,1.533610436588791624e-04,5.006275232026852727e-03,6.010893576071946187e-02,1.692488299728948098e-01,2.509921862501312585e-03,6.454593102122388459e-02,1.744295884858897486e-02
7.908549861913929946e-04,5.858245196670772842e-02,1.114227172256602181e-03,4.137800818776092788e-04,5.148025749160403501e-03,7.688908457480850278e-02,2.134037467068400362e-01,1.517992213574890755e-03,3.669037314824118851e-02,2.831240691760600683e-02
7.638957503126943575e-04,4.337348331933955220e-02,5.293990340454474012e-04,2.901143051269714944e-04,6.152829448079877306e-03,8.151964816885613752e-02,2.760199485093964844e-01,9.183431153433275346e-03,1.326314755259951073e-02,4.704457987295982552e-02
8.220803266964432166e-04,2.649857271124263225e-02,2.834065601473009831e-04,3.081203079180464184e-04,6.751011287526541976e-03,6.510425908092246083e-02,2.835379427430391730e-01,2.395583212533217501e-02,6.617167214084106533e-03,5.619035437317427412e-02
9.456472767411098265e-04,2.659483656375409913e-02,5.361023615799449110e-04,6.849870447639832844e-04,5.678334738279560909e-03,3.803605912690743995e-02,2.132643830486643521e-01,3.258757331787719841e-02,2.220595740306429214e-02,4.841493563515253395e-02
1.147236864914849856e-03,3.448481921706391534e-02,1.011721468390052153e-03,2.737599756659396338e-04,3.208900494067900514e-03,1.232242590758880242e-02,1.168938025574640382e-01,3.032211269883704208e-02,3.177436271535374890e-02,3.257301261869858383e-02
9.838449656142359175e-04,3.572348042163572129e-02,1.910943441187947737e-03,6.725624621835334452e-04,6.017281078656567779e-04,5.824839947148339851e-03,5.405533772180999563e-02,2.055849865432116119e-02,3.717381534377750540e-02,1.815636107290199974e-02
2.672136733600539451e-04,2.763770315371099837e-02,2.550928070161007696e-03,1.442610475394309841e-03,9.135176400665854287e-04,1.182905376482561860e-02,3.639397623412186922e-02,9.566302790501834616e-03,3.846152476070400367e-02,6.898071503734742697e-03
1.864649145420540751e-04,7.278975220524032223e-03,2.471572601980114850e-04,1.015897021883895284e-03,2.382582683398688610e-04,5.826732886970152972e-03,4.194748387012269680e-02,2.269905488498679888e-03,2.850403094402783125e-02,1.576483331925137600e-03
3.506105133743370249e-04,2.653059723376534340e-02,5.973604790971957616e-03,1.647044590695558291e-03,3.211068196676480739e-03,3.932610155086113668e-03,5.447499049150153483e-02,1.484442696637761679e-03,4.635592619726224342e-03,6.282786075336840338e-03
1.257431847561225023e-03,5.205832593845248490e-02,1.196879288444526075e-02,6.095599845799641418e-03,8.194518898132456888e-03,8.535558762635217511e-03,6.792425176885083515e-02,5.882022906826421017e-03,1.897979751147258268e-02,7.664448418405637314e-03
1.490354975011948507e-03,3.939750572846039550e-02,1.284472120269675166e-02,9.908018222550175544e-03,1.171250964776340484e-02,3.619544922787055682e-03,7.289510439493987470e-02,8.798711277736390168e-03,2.485984802438509847e-02,7.832128933456118658e-03
1.176824277084637712e-03,7.173496548800896780e-03,9.188745022544209454e-03,1.106430152667650137e-02,1.184447206165598933e-02,1.370339777505624398e-02,6.660464171194634131e-02,4.889903843931885444e-03,1.420328543327793562e-02,7.808424228747181360e-03
1.264527349044680844e-03,4.978274117521419573e-02,5.199432440068274715e-03,9.920997372464372688e-03,1.005507067662754841e-02,4.108332280085774668e-02,6.277376956362380744e-02,1.072440649026596381e-03,8.211836233214736070e-05,6.772655288385286826e-03
1.762242319139285546e-03,6.136824085724197630e-02,2.685504807203940858e-03,7.819334297887657950e-03,9.057421815119938088e-03,6.452687560622384633e-02,6.743989916389167560e-02,1.107708641805124454e-03,1.654857731318731470e-02,2.478050631929841225e-03
1.007024965873675121e-03,4.816480773658819714e-02,6.227153390662657634e-04,5.046179782203727600e-03,8.684257062950659356e-03,7.059100228468334626e-02,5.973144147413721183e-02,1.167494538449684663e-02,4.356281063406824278e-02,7.317084932071128353e-03
2.776239124412829221e-03,3.212239120449857099e-02,1.307355033944797990e-03,1.489822602100598350e-03,6.166553826494308721e-03,6.367277279414539082e-02,1.957795705228382310e-02,1.882723911026092101e-02,7.087225820393479314e-02,2.067246701328013386e-02
8.809515792055527469e-03,2.874191674672296748e-02,2.250706561948367934e-03,1.846764611286434103e-03,8.063667336116028730e-04,5.701176175016904601e-02,3.666576721015928769e-02,1.510012853059937432e-02,7.130199330971478955e-02,3.067450381933256934e-02
1.316594005425192164e-02,3.849372356673367440e-02,2.167133803492248337e-03,3.590271144435300005e-03,4.359881381955002695e-03,5.182139502576978835e-02,7.064138711776417334e-02,6.113931119169906114e-03,3.662089848519813062e-02,3.228177307959569781e-02
1.216542373939401636e-02,4.787622363232808126e-02,1.902134303535077484e-03,3.697363407851480838e-03,6.760775235866475774e-03,4.141824739311595477e-02,7.157354947124150435e-02,5.379687039533221716e-04,7.559894692089801430e-03,2.661385210690017655e-02
6.535922366797689009e-03,4.247432540436928139e-02,1.922237821892785851e-03,3.354531113835080257e-03,7.881493479601526728e-03,2.971973794999186597e-02,6.859145899529307810e-02,4.423656076639802780e-03,3.291348961670537143e-02,1.683436661245497901e-02
7.755959755785618538e-04,2.582664594937517447e-02,2.177211016740703518e-03,3.649286422848591928e-03,1.077424256093500836e-02,2.766149012462906787e-02,7.890383853951761506e-02,6.616046892505026041e-03,3.659575495554567154e-02,6.229482701846565836e-03
1.820139382738338767e-03,1.681714178078357394e-02,2.444863632764618724e-03,4.609689869648809710e-03,1.506348788356098520e-02,3.456139590049395194e-02,7.174114310109994119e-02,5.850839328965198004e-03,2.941716730083972567e-02,1.046930405784033931e-03
1.853655126135242935e-03,2.193560507150121852e-02,2.276973949211178686e-03,4.955176512064981068e-03,1.677847832974229195e-02,4.028460940796718681e-02,2.185419837928802636e-02,3.951803712687997419e-03,1.488718149435160933e-02,5.964752160373011994e-03
1.500689427371485786e-03,2.682516358986021532e-02,1.537089947508039423e-03,3.421107478869687881e-03,1.382459586086780094e-02,4.534391225354814092e-02,2.675004372583707560e-02,5.406028240969962088e-03,6.294420147596870713e-03,1.528801831909337716e-02
1.595607679526483014e-03,2.509068470217951791e-02,1.070206305231041809e-03,1.042188598071452487e-03,9.316863280209926323e-03,6.076534543974020791e-02,8.182974795921907352e-03,9.695379403948907807e-03,2.426466541968756371e-02,1.861628731423656605e-02
1.724939106235941905e-03,3.014117052695310453e-02,1.707907508500681494e-03,5.854847215448236121e-04,7.262595667069248091e-03,8.422754646887618823e-02,6.504978843921360721e-02,1.246849768358411839e-02,2.868760915785154367e-02,1.654005965267571834e-02
1.641030146512910230e-03,4.211374890458142312e-02,2.777518512090784361e-03,2.853534292942105054e-03,7.062651935434035438e-03,9.553474187330893153e-02,1.093022730849939894e-01,1.381505669665285263e-02,2.535461730575838332e-02,1.902182440896225957e-02
1.537030107277884269e-03,3.231141442352439275e-02,2.874426747380883548e-03,5.551768111771090974e-03,5.670678874630735201e-03,8.482868142727596761e-02,8.102373783865786383e-02,1.776681050341638937e-02,3.112100921394681322e-02,2.653962221112743033e-02
1.524505675754655575e-03,1.563875797816138488e-02,1.972337274897396735e-03,6.615003106528347283e-03,3.101936127066143214e-03,6.541451209790548338e-02,2.451743158943231818e-02,2.489955198831936972e-02,5.054215064911966870e-02,2.705229294089099568e-02
1.514804024195267988e-03,7.563170431147134276e-02,1.478263510043271783e-03,6.520624828054936289e-03,1.422721151279670920e-03,4.483346516588122832e-02,7.358504942686882634e-03,3.131591683995264136e-02,6.742021411172449685e-02,1.518602900821820929e-02
1.458869099488031102e-03,1.149112768292644277e-01,2.131066623649181813e-03,6.599597540412917122e-03,2.090783510083940285e-04,6.983043562056099988e-03,2.262405490116648279e-02,3.408739002956742703e-02,6.580813582401878747e-02,7.178230304071933393e-05
1.400008073283574416e-03,1.314678370362273863e-01,3.086308843824257710e-03,7.042453231035643475e-03,1.959590565423817345e-03,5.386707075800251099e-02,4.543720991729870151e-02,3.454464035378311537e-02,5.247996457496631462e-02,1.038934534945634355e-02
1.357701168832663998e-03,1.324737187442130981e-01,3.374118879583319110e-03,7.402036448672963224e-03,2.911976302986823712e-03,1.050587376631456349e-01,5.404900774574164513e-02,3.672500501889282287e-02,4.725540511060669080e-02,1.632305928500096814e-02
1.311431044994911931e-03,1.147596315795630095e-01,3.155166198098024576e-03,7.653839904989614452e-03,1.110301259592277531e-03,1.112420777920155868e-01,1.475084800798868653e-02,4.307818110186046462e-02,5.276565237796703584e-02,1.770953081112194155e-02
1.265144060434439301e-03,9.296352400570426222e-02,3.135676692552105509e-03,7.949530178806176253e-03,9.361195312238982172e-03,7.774512622566293052e-02,5.451610523526734253e-02,5.074019360279564961e-02,4.915694502639125774e-02,1.070213150551974773e-02
1.234615265289211927e-03,1.007317302461995662e-01,3.498642678576289935e-03,8.168535296354704003e-03,1.683318103580492761e-02,3.134359289974277679e-02,1.033656519449187849e-01,5.337173994575675207e-02,2.438108983005949498e-02,1.464695470974819273e-03
1.194539530072952650e-03,1.359599130623716234e-01,3.700486518767396888e-03,8.344334411148988245e-03,2.052550067649468526e-02,1.842479487283166240e-02,1.180737274697242628e-01,4.864727624404278222e-02,5.268652927410586231e-03,6.721919933577760915e-03
1.127932595591815993e-03,1.493084281120492796e-01,3.075895749141910329e-03,8.834449544327651824e-03,2.150313696110878886e-02,6.999091157655505657e-02,1.336687256155338899e-01,4.170707930857212725e-02,1.484928322516013144e-02,2.214638968010190778e-03
1.100765091146630251e-03,1.084464868814292576e-01,1.726661812659370347e-03,9.401008514500130628e-03,2.044406570926933508e-02,1.058592408416701713e-01,1.769832208112115945e-01,3.871823026744297680e-02,1.226845623238209150e-03,1.906796513461319481e-02
1.146682768976493372e-03,3.266454516533715685e-02,7.853931967463571688e-04,8.896723363714473948e-03,1.553392650945893683e-02,1.112644017508689354e-01,2.259865899946155721e-01,3.997359531129319327e-02,3.143213127205890522e-02,3.070429517796974955e-02
1.122806734560994994e-03,4.638822391650845173e-02,1.215162727796951277e-03,6.686522003320033783e-03,6.512966450927170844e-03,1.004370885812255337e-01,2.387112366262012231e-01,4.116957510403465581e-02,6.629332354260762672e-02,2.892103959651298045e-02
9.576638316715800018e-04,1.165562939127500058e-01,2.086499069055908033e-03,3.472976022011264353e-03,2.435004840827993764e-03,9.453155167583923713e-02,2.057179037217411743e-01,3.734136355073687519e-02,1.009875923306288864e-01,1.650565599093924835e-02
9.599409711302500561e-04,1.718624746662055780e-01,1.081304918706141056e-03,9.234622436133662444e-05,6.086617263548357512e-03,8.831113738388637890e-02,1.559934696712434732e-01,2.553738118483169645e-02,1.242204043359301929e-01,4.999836602033843475e-03
1.301065615844832716e-03,2.028557747021661195e-01,2.341716842258791554e-03,3.052602620924573223e-03,3.167771123615786659e-03,6.798004130339425910e-02,1.202276934638392691e-01,9.719254340327691463e-03,1.212844786103273870e-01,4.997845182460015738e-03
1.291465568231534413e-03,2.051356980952654674e-01,5.717988206257481817e-03,5.188075593054133905e-03,3.123067403045238881e-03,4.696260742021445694e-02,1.062518918885006491e-01,1.499865990115961407e-03,9.225614779897610418e-02,1.637131259219842122e-02
2.501461613707440515e-04,1.802229221352862620e-01,6.929722098910708755e-03,6.000838486810209857e-03,8.448494242452649072e-03,5.000829700931015004e-02,1.039943708230839925e-01,8.440048812419387314e-03,5.737389875857322463e-02,2.987370297040693387e-02
9.498455245815968541e-04,1.339902931003404685e-01,6.747180055857585242e-03,6.852247891871407134e-03,1.017503712765262594e-02,6.967973327578357023e-02,9.596771356697761379e-02,2.322212640780358522e-02,3.887848117497339634e-02,3.834871541064521078e-02
8.012271493518716408e-04,8.030266823506787555e-02,6.533300089623966800e-03,8.544744135834635157e-03,8.022322612985551341e-03,7.220451656678862629e-02,6.520047191646860529e-02,3.095819657449448356e-02,3.849985781774198368e-02,4.224838812123108550e-02
3.838178886155324500e-04,3.373396510707712959e-02,5.962241126175182350e-03,9.261716181511552015e-03,3.838360647600817886e-03,4.673976927767903300e-02,7.218415711972889226e-03,2.485603712628198236e-02,3.373065114610479531e-02,4.399507744324662045e-02
8.437325612501069688e-04,2.276883490869141720e-03,4.322569396682173284e-03,7.485963668084662237e-03,7.677394267166846951e-04,1.947736637159890385e-02,6.488850498221611363e-02,9.788837572674997586e-03,1.861283369375987297e-03,4.232215598481209318e-02
1.166120642606359166e-04,3.213936026076198021e-02,1.894113683574453338e-03,4.482945604293386496e-03,1.077513693509264334e-03,1.318140258956549543e-02,1.303134301232675707e-01,5.346571843036518681e-03,4.914842824741852412e-02,3.495396833836625361e-02
4.646092508095037502e-04,5.944824618632504887e-02,5.984732499799086001e-04,1.293691238528498193e-03,4.505789618470448094e-03,1.862512730498390445e-02,1.687484324806602098e-01,1.404256540221562877e-02,8.478028560620337606e-02,2.406147512825365306e-02
2.083121675852900399e-05,8.483482094770758430e-02,2.497645212412200402e-03,3.050585399645597620e-03,9.393874059761853426e-03,1.727614521368280379e-02,1.607170198116880111e-01,1.613358455972886338e-02,8.289159390176649433e-02,1.533829457712218569e-02
8.549883865494394778e-04,1.040920445470354255e-01,3.225521818634934871e-03,7.751737663330532727e-03,1.425837858463311313e-02,1.073017420086725369e-02,1.002470311727779589e-01,1.921157999079839765e-02,5.387037228684928014e-02,1.109849218340884860e-02
8.312338675087466025e-04,1.107930170220296218e-01,2.582698287729177748e-03,9.179452434616265991e-03,1.715591204862074171e-02,1.176889271145603599e-02,1.674841666606000437e-02,3.055052197306805037e-02,2.426586295581391675e-02,6.895047429420098940e-03
2.770012906360266652e-04,1.062398306406999171e-01,1.007691642655376843e-03,6.454149857093883016e-03,1.620989245098780271e-02,2.204764516199466881e-02,3.827816638130349114e-02,4.596670797580001966e-02,2.156190104863661000e-02,3.089273151416377285e-03
1.813090104863533713e-03,9.862862998186507080e-02,5.267766107216623282e-04,3.899316049811891918e-03,1.311279541434882956e-02,3.632500531023292317e-02,4.416336335532299040e-02,5.265158368866534877e-02,6.536548277589859790e-02,1.867539762651619292e-02
3.161637998415009650e-03,9.154730171576719311e-02,9.861339538887673849e-04,4.954499372463838647e-03,1.233131129581109195e-02,5.411509512493310053e-02,2.718591812944633201e-02,4.376314828928423717e-02,1.445346742114583527e-01,3.332040142774887748e-02
3.844676069521963269e-03,8.429639820079687373e-02,1.698096209812377175e-04,6.764882775621940646e-03,1.329148847987887336e-02,6.408921546553646154e-02,7.583394094807338441e-03,2.661293235839336940e-02,2.122356779857775266e-01,4.009004582724377819e-02
3.225989022764421711e-03,7.715529672990266430e-02,9.864744548362535011e-04,3.818172857827675966e-03,8.298311512524818648e-03,3.296650804077663061e-02,3.009078581614391470e-02,1.669293592166077797e-02,2.286979924364346550e-01,3.661666894547210838e-02
1.163429490576625876e-03,6.262076475203015580e-02,1.657960831830563187e-03,4.387881692207832446e-03,6.694006745091296562e-03,5.653533671458996906e-02,9.083885072679011297e-02,2.415492431697792083e-02,1.995934759125835845e-01,2.552824493351552038e-02
1.145349274775530604e-03,2.405438925208470968e-02,2.250427752244381525e-03,1.219148450671517052e-02,2.457830448215152230e-02,1.679449729602835728e-01,1.422543248678118377e-01,4.452988471240598711e-02,1.583812376921528986e-01,1.274463838212997087e-02
1.894524265394339612e-03,3.753778277408708480e-02,3.427605378289819843e-03,1.487243735739895642e-02,3.593301610330380813e-02,2.439510158280300267e-01,1.582502867041813144e-01,6.231404142384727035e-02,1.254866981669654769e-01,4.635143609112599324e-03
6.587322853449707229e-04,8.615764523892305293e-02,4.555904339995981399e-03,1.402124856484414719e-02,3.951563487055241575e-02,2.647119378358479547e-01,1.419929910058221056e-01,6.463018866743598656e-02,9.736969729838017285e-02,3.324813293612630116e-03
8.615428253319045706e-04,8.431664381419315402e-02,4.086877640333946501e-03,1.356375986467133268e-02,3.866333010554298677e-02,2.480049286767936068e-01,9.448301976660417045e-02,5.225503538329016179e-02,6.584801055858710561e-02,5.136231524073107610e-03
7.824101706304161397e-04,4.180709701623443186e-02,1.330967136806608317e-03,1.377422252740597396e-02,3.431720053211463617e-02,2.120300709643316572e-01,1.713129757231119862e-02,3.708268864227869804e-02,3.463925921722398049e-02,6.197724090729231361e-03
6.128374354090930856e-04,7.726041604462300857e-03,2.704073813074575530e-03,1.302291110358031086e-02,2.771301624192744339e-02,1.650428086537714389e-01,4.532870936700050812e-02,2.876098219038791814e-02,1.371104564851047258e-02,6.630879904556676203e-03
1.500809931581802885e-03,1.130099269719308727e-02,6.144840753612015177e-03,1.207824315341338162e-02,2.358381787911456237e-02,1.173334694898927472e-01,2.702785263244461902e-02,2.585166282647924710e-02,4.689853552595069433e-03,6.300479539969578921e-03
1.234222200576586687e-03,3.516631057801740401e-02,7.533430642475746029e-03,1.226861919317926396e-02,2.477518257334125618e-02,8.037296699774074127e-02,7.243622076409385324e-02,2.035439805785574721e-02,4.694624058393364469e-04,2.194783823342694434e-03
9.735879050700273207e-04,5.185319420961242987e-02,6.526258648751954126e-03,1.242748791648792990e-02,2.826993904774869129e-02,5.697495372355777798e-02,1.732628404499594321e-01,7.669190705414183004e-03,1.012713513545637246e-02,5.664885796204697371e-03
1.354186745263613904e-03,5.772919671522881713e-02,4.135427167012930942e-03,1.145936969002147622e-02,3.016209823482022406e-02,4.314399468883655525e-02,2.058792449002616043e-01,8.456729739609539914e-03,2.706908831364697454e-02,1.161717042065886669e-02
9.859829583562041214e-04,5.890276698728209859e-02,2.302369416668150360e-03,1.084349802277270736e-02,3.023323675135611635e-02,3.649509248879969497e-02,1.732536140733365315e-01,1.872405084308081252e-02,4.592289786814663516e-02,1.188135319285510243e-02
1.495878893464375149e-03,4.755994562540794002e-02,2.297120096763669277e-03,1.139354032017170400e-02,2.924582277174474221e-02,3.612668741065161448e-02,1.147213990299683489e-01,1.684199642406466330e-02,5.451867597528226028e-02,1.043197356389601212e-02
4.585432567683450991e-03,1.116090815109942354e-02,3.364083585911942578e-03,1.058239004922598842e-02,2.567094625801895694e-02,3.883548303934017398e-02,5.526193339568669094e-02,5.782731015338167524e-03,4.592715445156575482e-02,1.403561035764028068e-02
5.087200983720874779e-03,4.265780544487153547e-02,3.670713118695874671e-03,6.189802257087224230e-03,1.783808142792939547e-02,4.067151522712652428e-02,5.491687961358850470e-03,6.981983880167531506e-03,2.796640278192771834e-02,2.278015296944181298e-02
2.405960144253362683e-03,8.682669884489323253e-02,2.585760788835843316e-03,2.206471394777514278e-04,7.635922856364203357e-03,3.843743705022466955e-02,2.241692642828002277e-02,1.812266929215462438e-02,1.211691662137980366e-02,2.829397214207305181e-02
5.460029477954090726e-04,1.040041336433546598e-01,1.265887824461473963e-03,3.675506143904385195e-03,3.167116667883934991e-04,2.947344012508551145e-02,1.986687669454961780e-02,2.691450839901748937e-02,1.234971257735389526e-03,2.394857931245415739e-02
1.388420372066942162e-03,1.008533485311698397e-01,8.283608789280899132e-04,4.880263369327598154e-03,3.508504588659587618e-03,1.496249619061047233e-02,4.084329700506452582e-03,2.948907261688492668e-02,1.570211191603478745e-02,1.475433651168766604e-02
8.669940813193887773e-04,8.667962602839826558e-02,8.267774324673927370e-04,5.200884007341434120e-03,3.938096645273019350e-03,5.257010206670010427e-04,2.466443631634772371e-02,2.297903036841906013e-02,2.463050983986950215e-02,1.111587786657286005e-02
6.354933400943060112e-04,5.683499998476380932e-02,2.829057792862987560e-04,5.046222171780728044e-03,4.882411109923920356e-03,1.131102446305441711e-02,2.382914952459864316e-02,1.174945716287972147e-02,1.740995725730744292e-02,1.413768272622926113e-02
8.197710036522947840e-04,8.781559763819616476e-03,6.739778802694807629e-04,3.291449867335770156e-03,7.113708083133319510e-03,2.422602476401554406e-02,8.002928802526541180e-03,2.430662473229762768e-03,3.225160293645430373e-03,1.540352700386521737e-02
8.470194868248873306e-04,4.321555063954733017e-02,1.424618287878581758e-03,4.831551800260385421e-04,9.597376474164892590e-03,3.934380546963031633e-02,3.294503418263523484e-03,3.817599468184820419e-03,2.150082541345420956e-02,1.061428791823408775e-02
8.461530463952371406e-04,7.996571323171557111e-02,2.152832914285237285e-03,8.107904721330416817e-04,1.205091928971222838e-02,4.890599593644801013e-02,4.546542121483965887e-05,9.948303759497964874e-03,2.685226748804645305e-02,4.033862622689433908e-03
1.027267154508480773e-03,9.213532967476653623e-02,3.138395160031076051e-03,7.357084297251006207e-04,1.502881838085040438e-02,4.276406109491701774e-02,1.567234830283582847e-02,1.737644811998011879e-02,2.463310805505238357e-02,4.624085208855961931e-04
8.838653527224781328e-04,8.412636425632606663e-02,3.809536253365070763e-03,3.681642807138930072e-03,1.802756906309189999e-02,1.938636571161549832e-02,3.565759941484487883e-02,2.335617555208437113e-02,2.777628215861197708e-02,3.485236294404704671e-03
1.618002390095784075e-04,7.641890710788185048e-02,3.749698125781557138e-03,5.726745847888905887e-03,1.842605414939336300e-02,9.863910218038045991e-03,4.603053836729253251e-02,2.173947386463594492e-02,4.303382167594592411e-02,5.650097061914848874e-03
2.999029993784700101e-04,9.337355258486906839e-02,3.546427758320510118e-03,5.718898288706487573e-03,1.329777660761874945e-02,2.924553664138848652e-02,3.376725478635634464e-02,8.258205674178188335e-03,6.480678622871141603e-02,7.350824852383423119e-03
1.996962538244788441e-04,1.290819506651444959e-01,3.630033243340931564e-03,4.213906517579571118e-03,3.325591987124859421e-03,3.386992998434242008e-02,1.151101360223056539e-03,1.195024972802745389e-02,7.873614421194885526e-02,1.152084231589480673e-02
1.040600906394094360e-03,1.380945614913963448e-01,3.421469756835045922e-03,3.153435254522801278e-03,6.366938097055696751e-03,3.145130634189192281e-02,4.156335349182044281e-02,2.631880580863962815e-02,7.392448789463132441e-02,1.917892655583741321e-02
1.317226303095678447e-03,8.455166441458253357e-02,2.586254948834991116e-03,4.221781548246691072e-03,1.098931308949001664e-02,2.851637543426820826e-02,9.240629791055515740e-02,2.819867204228679314e-02,5.313123713109075413e-02,2.496215041632987575e-02
1.133146008197000393e-03,7.348226021314745345e-03,1.982460681644455415e-03,6.808560937314153336e-03,9.986052907651053745e-03,2.466958913144032955e-02,1.435699140528047812e-01,2.227112443675384121e-02,2.839360928336673653e-02,2.391082223255363431e-02
1.077982470952401324e-03,7.371189445916646876e-02,2.333360497473450056e-03,8.613388175915467557e-03,5.038468556002971034e-03,1.849898923894395877e-02,1.670994743240787894e-01,1.345594097844858561e-02,1.099550614266514570e-02,1.938352313638218999e-02
1.247721120313863936e-03,7.828795643871430676e-02,3.034377405139665300e-03,8.661135926918429526e-03,2.589908567511707040e-03,7.593377833096913616e-03,1.508362357880759230e-01,1.042108096415702385e-04,8.668910055725016772e-03,1.800392728318499225e-02
1.362222874694995209e-03,4.396289635311824429e-02,3.207736759217553503e-03,8.269836551511165756e-03,1.078508619658245793e-02,1.223118373238069392e-02,1.293167845661870041e-01,1.696480484351056695e-02,2.185679859170636119e-02,1.992119629426760546e-02
1.324257465684918270e-03,1.842004704587116987e-02,2.906811949844927134e-03,8.348735338312901488e-03,1.580080752053306115e-02,3.686955599977904258e-02,1.330967666593321774e-01,2.932519928588850702e-02,3.857109691195560741e-02,1.966578030756116480e-02
1.310441448984754837e-03,2.071403357997654224e-02,2.631876160030219118e-03,7.487074331570419371e-03,1.544532928850030941e-02,5.077714410150169222e-02,1.295669699441739653e-01,3.134017719165994170e-02,4.587050295844660730e-02,1.397198208227096519e-02
1.462524699568628055e-03,2.905053837017219226e-02,2.600801682633024133e-03,4.353370202012630218e-03,1.160871286212382565e-02,4.378648453338296331e-02,7.116721162118613830e-02,2.795315006356974621e-02,4.728149232222197268e-02,3.676441587590771956e-03
1.606298297344907738e-03,1.933785348330038095e-02,2.761184415758572396e-03,6.095653709266774575e-04,7.984884152275313271e-03,2.457719893524969168e-02,1.733989065547934111e-02,2.731271615792233223e-02,5.255125658411271411e-02,9.606286696108433387e-03
1.437219215132654092e-03,1.368134053201226427e-03,2.740589331325947453e-03,9.696463507357178189e-04,6.326668213638777377e-03,1.145934296609118531e-02,6.339315473530000855e-02,3.146491703751862212e-02,5.292490606788951418e-02,2.266421696930683710e-02
9.558060890489020580e-04,9.842414082153420202e-04,1.905870716818215075e-03,6.487290904438833012e-04,5.654968971060648358e-03,1.408782376500282950e-02,4.673457516360082081e-02,3.717069031742091523e-02,2.978485009857771010e-02,2.814915031692927921e-02
1.595140139927466632e-04,1.820611975135568925e-02,9.128883813405011603e-05,1.359648711891351617e-03,4.033501351683500998e-03,2.457274604551175703e-02,1.752580522681351782e-02,4.053100449494670410e-02,1.052999509709549864e-02,2.069059371251818699e-02
1.485352276140479303e-03,3.127911664525379748e-02,2.044802683247741882e-03,4.051687770547920606e-03,8.582502385140857240e-04,2.499462001483989532e-02,1.921788618741381710e-02,3.829114542053238535e-02,3.494201902073924837e-02,6.167124409060183686e-03
3.935430720711925213e-03,3.512869384801484141e-02,3.691871074868202131e-03,5.956959432410605104e-03,2.112580400933991923e-03,8.986640044784707793e-03,3.848787435398062090e-02,2.876675860445054855e-02,2.555469891789794237e-02,3.251987103663686596e-03
5.413606911333330475e-03,4.411379112609170594e-02,4.576604364660495985e-03,4.428477623699083807e-03,2.748227790664231791e-03,6.700413259993156893e-03,3.771787263104267596e-02,1.355128697333401327e-02,4.673629348795766900e-03,4.845133851117968370e-03
4.569886957607653330e-03,6.029273116588117903e-02,5.109393428840354121e-03,4.636209088255509314e-04,1.570523451287022176e-03,2.808063103659464224e-03,9.645017098048365087e-03,3.461422388469718656e-03,4.637295363034336579e-03,7.788586590031692895e-03
2.968471325193318758e-03,6.853149937902287825e-02,6.030253354191708257e-03,2.919291741577839140e-03,8.639320614330910173e-04,1.707924460863301241e-02,1.949502332505433783e-02,1.796645543282542057e-02,2.536657733439260515e-02,1.782210895811582249e-02
2.662125770489257894e-03,6.749437944755162788e-02,7.370450041187856689e-03,4.268471504744001180e-03,7.068391599583359781e-04,3.676118360204260610e-02,3.575654317087890999e-02,2.546791994096851003e-02,4.041667233858479980e-02,2.864399897434485864e-02
2.735423534627332270e-03,8.187796458241225483e-02,7.815489987187172402e-03,4.285715459681497565e-03,1.327563149251283561e-03,5.373546901848259838e-02,5.857433334472050834e-02,2.351963954044585317e-02,3.869965534243920841e-02,3.313042912622964076e-02
1.304245641721121221e-03,1.257825656738947029e-01,5.970284251583419209e-03,3.961644036963068299e-03,6.023303247257166815e-03,7.682590755759591272e-02,1.012832967899579967e-01,1.513136317743479092e-02,3.519571489446761403e-02,3.461147367803387581e-02
9.025312531712745626e-04,1.688855191838841141e-01,2.300819944362913344e-03,3.591245522156887460e-03,1.113035456481078350e-02,1.045740915194679904e-01,1.385491693329216623e-01,6.513419407192895180e-03,3.873334450159158365e-02,4.008721500957937445e-02
1.884921127698022851e-03,1.677610204278665029e-01,9.714678188867314828e-04,3.284943792471986274e-03,1.498866963504214347e-02,1.249273852216508524e-01,1.400977124030737542e-01,1.769470382562070114e-03,3.690976912388729825e-02,4.841087487787782556e-02
1.541118081041002209e-03,1.209644533477922945e-01,2.153394820231442543e-03,3.209520073852430242e-03,1.842605080880164656e-02,1.338625743012206437e-01,1.148099612998156743e-01,1.852681834174102525e-03,2.104424587784243725e-02,5.174376205631539549e-02
1.182893335799123282e-03,6.073583426997864604e-02,1.730118991437485168e-03,3.023520195714081253e-03,2.146807636289770060e-02,1.370846618255291693e-01,9.274171247491720671e-02,5.317951492073485706e-03,1.168194127693675515e-03,4.511127438284419366e-02
1.293208418673597862e-03,4.320001983158507260e-03,1.383185526619189329e-03,1.995348791612617557e-03,2.111747950478199895e-02,1.321685236715303691e-01,7.855308548997036455e-02,8.355339685686505660e-03,1.253333561418957035e-02,3.096639650473167679e-02
1.413415242039330099e-03,4.723018921741014425e-02,1.755745899048644088e-03,2.643818152082294277e-04,1.530386345921363155e-02,1.061520521924732424e-01,4.768520779087804390e-02,8.350724743988074614e-03,2.148782800880285823e-02,1.634371561863646322e-02
1.326166597002812354e-03,7.791143348402143620e-02,1.838039157183425209e-03,8.052275727961693760e-04,7.111689030443636358e-03,5.812111794197438730e-02,1.552395129914035249e-02,7.393024347773276966e-03,2.550229220351638362e-02,6.222602933884822593e-03
1.240352096903455216e-03,7.124156693680337715e-02,7.423104054718927553e-04,2.734329854272147566e-04,1.741177093082377529e-03,9.849508064092453441e-03,8.968003306153596310e-02,7.526856662379241905e-03,1.841453253139893609e-02,7.223262018282933586e-04
1.253123210331977180e-03,4.773283980917783498e-02,6.220242518316286768e-04,1.026612665134973238e-03,5.673047321172414257e-04,1.829511157318297609e-02,1.329691707646695475e-01,4.758498902199575359e-03,2.908447908214299542e-03,8.674171688872705024e-03
1.264726310612505639e-03,4.667554372381982342e-02,6.534052436277447374e-04,1.575387482656758886e-03,1.205913440913535797e-03,3.228973183908027955e-02,1.315198720121798781e-01,5.882035707125469158e-03,8.228280220366018111e-03,1.822566108415930516e-02
1.244857854187137076e-03,7.757118769012910642e-02,5.741115838587065867e-04,1.115510105237435198e-03,1.801397858743875426e-03,5.142688085222830996e-02,1.186088251873752691e-01,2.078430770139587727e-02,9.078488281304721713e-03,2.597384626558542006e-02
1.249762321663496802e-03,1.223031997889125755e-01,1.509335779237594910e-03,6.856692769566446544e-04,1.906488933404995676e-03,7.684518813040722152e-02,1.276176920646014956e-01,2.901314209491928989e-02,3.297723912802207318e-03,2.967285351349450637e-02
1.261321917708844824e-03,1.683221628495747968e-01,1.437730775051329884e-03,8.504309692250779096e-04,2.650746737151623428e-04,8.856297173399901856e-02,1.454758168466069312e-01,2.349311950543434002e-02,7.552042554199792958e-03,3.112154735955382015e-02
1.231969175530213704e-03,2.034640243945052274e-01,1.062495632007530834e-03,7.643651957597778854e-04,4.650575289610228702e-03,7.276272397303307216e-02,1.437396771994852163e-01,8.520174123932595239e-03,2.061072638588849412e-02,3.294305068883113946e-02
1.239868209405961411e-03,1.995134230974086043e-01,1.004097266407681308e-03,4.287283094757543957e-04,1.135316783816182895e-02,3.781634483233438371e-02,1.282263949423622651e-01,3.980925027779426070e-03,2.315843855341133406e-02,3.376761048068161603e-02
1.354625012914820615e-03,1.426287059545078562e-01,1.087880201944184735e-03,1.888773949545674569e-03,1.537580853358416072e-02,4.313232515059340841e-04,1.162616375839035238e-01,5.396668359691307419e-03,8.164227505208830962e-03,2.905547695066381872e-02
1.390388041115608094e-03,6.364315622399478733e-02,1.029204211284085639e-03,2.027593473121242981e-03,1.427466046038654117e-02,3.122198137473630383e-02,9.574452451365715600e-02,2.129865088414640943e-03,8.570027064414901391e-03,1.745097440145720880e-02
1.206756410664597831e-03,6.162087264417161897e-03,8.843471488418101420e-04,8.875459897653716589e-04,1.071377185748819544e-02,5.492071339154457055e-02,4.948201249883375785e-02,9.886354849049299592e-03,6.830469937416923203e-03,4.479317491825472730e-03
1.208275239518527815e-03,1.560252470586154586e-02,8.034661502411151977e-04,1.463631483859632876e-05,8.591385744078323256e-03,6.649260870795105360e-02,9.596807082607222011e-03,1.363480764678299227e-02,1.027799386322180743e-02,2.080758796550611321e-03
1.720401547554794132e-03,9.041723018800249326e-03,7.995439472103216781e-04,1.363216608812154330e-04,7.880792216078227538e-03,6.376130081666341043e-02,5.859937630566516842e-02,1.713842505489305071e-02,2.527656650125688700e-02,6.671796560157698674e-04
1.827771861134094757e-03,1.486158934875402883e-02,7.683814731818129065e-04,5.486597603693336381e-04,5.821092907346546788e-03,5.294432068635041705e-02,8.969091782268867608e-02,2.319578655341433815e-02,3.344364059958491314e-02,2.334067346080037457e-03
2.121765399828986554e-04,3.537923847212181422e-02,6.238335055759131271e-04,6.295854818576961023e-04,1.935511618351732667e-03,4.335601016625934001e-02,9.848693057356611158e-02,2.539267265157683223e-02,4.177851744286025654e-02,9.140716754077900501e-04
2.657073506897305627e-03,2.907212884533947467e-02,4.862277180884532206e-04,5.627304507678170626e-04,9.616526157263443828e-04,3.704101245003588172e-02,8.084897037965710354e-02,1.481926965119303823e-02,4.926704889643682139e-02,2.882699975787143647e-03
4.846114394267874749e-03,7.248424788632822080e-04,5.721564173916687422e-04,6.265235366869733235e-04,7.277839256698814254e-04,2.913972816307299971e-02,5.187808860650204579e-02,5.345977486450799801e-03,4.889013283684667116e-02,2.212836935603043099e-03
5.380283834211869315e-03,2.089917924781335007e-02,6.885754266212521868e-04,7.447482672042008691e-04,1.372554593073822479e-03,1.776063472044638047e-02,3.725959200112982650e-02,1.966975269198559945e-02,4.518391478380701098e-02,5.851974386983656296e-03
4.620974917352231419e-03,6.457026367774861171e-03,3.150784533088889011e-04,7.882960838231161619e-04,2.770828292490328752e-03,7.091231260306685852e-03,3.686792811377633677e-02,1.834253002959816345e-02,5.038183958577856919e-02,1.736656494147512109e-02
3.068077151119509485e-03,2.907099659205545500e-02,4.221043377431643508e-04,7.920277659764906209e-04,2.736427280830148242e-03,9.407034309322085189e-04,2.415519016297484542e-02,8.212821784338190240e-03,6.268548506036222823e-02,2.564766638816919422e-02
1.479066922934980845e-03,5.013575954577820931e-02,7.224170896341954029e-04,8.174720988377131561e-04,1.930468256608339032e-03,5.824207685071395961e-05,8.074203117903407806e-03,1.665131678002007218e-03,6.449873488384147424e-02,2.743423055109521502e-02
8.225723202882306547e-04,4.003416181178959254e-02,5.127058004205230658e-04,8.504610111493489692e-04,3.140312123372792047e-04,3.841739954095661248e-03,2.975572953815911262e-02,1.527594735955825535e-03,4.623292224014724505e-02,2.605160403437283348e-02
8.691771783918977737e-04,1.494407434775497229e-02,5.532085242362892730e-04,8.640913598273353450e-04,2.346687474810890770e-03,9.891588286439715466e-03,2.115652514879667878e-02,2.274546976622059385e-03,1.905150768289877797e-02,2.735098822949310823e-02
3.599403549618066379e-04,5.269938742635199916e-04,8.437332483735964775e-04,8.653837408974039257e-04,4.756195703625678076e-03,1.134032130949923917e-02,9.835889523267950241e-03,5.254063247799299098e-04,2.285967629062633441e-03,3.159934433442872920e-02
9.047510433756102578e-04,6.187554465215354578e-03,6.235705924873807121e-04,8.662795469035859675e-04,5.055259544955921849e-03,2.754086252430168989e-03,2.891496249496146656e-02,2.042380210648275188e-03,1.734505095030145633e-02,3.168703480907737735e-02
1.784111150340848828e-03,2.333908838222443355e-02,3.463316942717298026e-05,8.657304716708671792e-04,3.380429938792019282e-03,1.509756931958061016e-02,6.280362058664444580e-02,4.026003394991799905e-03,3.092058377644421596e-02,2.108418340154798870e-02
1.717948109826784127e-03,3.994810140658650033e-02,3.306118514363033754e-04,8.633097435879352960e-04,1.771513843939037528e-03,3.542065722044588499e-02,6.921445784748880836e-02,6.695849137301312926e-03,3.693366844708936836e-02,3.058757094133783723e-03
1.398182097806773081e-03,4.758807797109735477e-02,1.383375895293256254e-04,8.585465315717795030e-04,1.185458856200914549e-03,4.617773741081600269e-02,3.655162705387909883e-02,1.038455023990544727e-02,2.721925550962329271e-02,1.009423219527342402e-02
1.443587127436744399e-03,3.384378373634205905e-02,2.122514448607967709e-05,8.437160462594701016e-04,1.564832469211614274e-04,3.589805256994091365e-02,8.080656242273751705e-03,1.249110252416805837e-02,1.190890319134840780e-02,9.807577003134606772e-03
1.543683687299679530e-03,1.453870400425873871e-02,4.555483026001161845e-05,8.236804530895772787e-04,2.395519198684640388e-03,7.959928418033520789e-03,3.253185085291365047e-02,1.059025493597281695e-02,1.375497458068934697e-02,1.434024100449698795e-03
1.019585362212788128e-03,8.701867439125454684e-02,1.217529307853847711e-04,8.217477563626696038e-04,4.426739909398971773e-03,1.601998157104302795e-02,2.630569094582920625e-02,5.570908385681239833e-03,3.975401756427577454e-02,3.305236965625956390e-03
3.896089806184729258e-04,1.445028750933371742e-01,8.645599367696572748e-05,8.285829946938858687e-04,2.970793405919025607e-03,1.820650711120120474e-02,8.508487755147443182e-03,1.325939861806783642e-03,7.212301603328963306e-02,1.395335573208819104e-03
2.190791938083957828e-03,1.561166464657331165e-01,2.697971021506427339e-05,7.929341659683533401e-04,1.661099018507078548e-03,6.354716435433866752e-03,1.404765184093081237e-02,2.190031280344663118e-03,9.084458167020698083e-02,1.240171687145177545e-03
3.325299922188084019e-03,1.261599581372651047e-01,4.905983320767741949e-05,7.346983191493445305e-04,6.163949424816725364e-03,3.225466869930965555e-03,5.869278848904573714e-02,8.915029366139134298e-03,9.244421375627911996e-02,1.838936219042360855e-03
3.157010115981679580e-03,7.342079348979614617e-02,1.372890723186130863e-04,7.657147410428890742e-04,8.361724368709064215e-03,1.704663902830098887e-02,1.168508355229301715e-01,1.550122502862565955e-02,8.205361657448846657e-02,3.547763418251644041e-03
2.259703791957613263e-03,6.342781538996807716e-03,1.379808868454093416e-04,8.468652969940671741e-04,8.754828092759913555e-03,3.247686320049902875e-02,1.423903252156074328e-01,1.294822127435066132e-02,5.985664452037869898e-02,6.423753154628267584e-03
1.482004593246365317e-03,6.318292423489510479e-02,4.602217032015962878e-07,7.353926405911756677e-04,8.184349361453360783e-03,3.070239584948634623e-02,1.128679114596353450e-01,5.754215332002276823e-04,2.550895019563502800e-02,6.024566349234740381e-03
7.388598172663583428e-04,1.046730935428658166e-01,1.365033882551296157e-05,4.993355382748788278e-04,6.772309672172768628e-03,1.044817810872920340e-02,5.158051408814789268e-02,1.555206631866099497e-02,1.014805592125912932e-02,3.534887673188795085e-03
2.395912550462764334e-04,9.604709021060472973e-02,3.443406802812443677e-04,7.016290143928812558e-04,5.504992295037938743e-03,1.425299862859056785e-02,4.355557810960889939e-03,2.055716032030556820e-02,2.939510688537580463e-02,6.990985345548724958e-03
9.150574873903905698e-04,5.213767231724873025e-02,3.548348691266895610e-04,1.465148990822659264e-03,5.743384758342771207e-03,3.313796102453057946e-02,7.893014533806841024e-03,1.445344013833186649e-02,2.561786692203978782e-02,1.777717337709431786e-02
8.800280064626310331e-04,3.421707436266309063e-03,6.369359652566776876e-04,1.919891114158290201e-03,6.581090981001703859e-03,4.967146958213574520e-02,9.457138778449425062e-03,5.994567853394806335e-03,1.026081454198530564e-02,2.563283682630234164e-02
7.104647890871790142e-04,3.804846363471972581e-02,1.882320388569991548e-03,1.427304462269146472e-03,5.837593956068784333e-03,6.882201170526280887e-02,3.456993170661360609e-02,2.256602845788151668e-03,4.961004661565553836e-04,2.214183304513984291e-02
8.351364846406380540e-04,7.393355089316482054e-02,1.875737615019558435e-03,6.253927986266806342e-04,3.615295601416890822e-03,8.280563801665867529e-02,7.897542605784162173e-02,2.031404869146384747e-03,4.425259125626513496e-05,1.053363694797927394e-02
6.743361129480116099e-04,1.008024117779351553e-01,6.186300702369209930e-04,3.836895844087535867e-04,1.428380017906173867e-03,8.096722391340240021e-02,1.065615810464373009e-01,2.113041785916405704e-03,9.909041763959193158e-03,1.507975619892585771e-03
1.124854649296265274e-04,1.120629684229035861e-01,3.816429332378243832e-04,5.788775478844589324e-04,1.079581703725103394e-03,7.004792016309117908e-02,1.004624860771529682e-01,4.514836705663429102e-03,2.633409697274348080e-02,1.033290089118904347e-02
6.553784209721438348e-04,1.062509877371717315e-01,3.787970412213101639e-04,6.475669043678515752e-04,4.513777961325235628e-03,6.848805689886826309e-02,7.784163154414711072e-02,1.260221818692449855e-02,4.283561583980212417e-02,1.480254447792665913e-02
2.151345673766999207e-04,8.760753154507759655e-02,5.867675648783951189e-05,5.214024617543669676e-04,6.759414166569704258e-03,8.023204283368620682e-02,5.101910480365632466e-02,2.398052526340149065e-02,4.716683966375434522e-02,1.413528985575647490e-02
5.711755239589530941e-04,6.413120438595901196e-02,5.232246076658073790e-05,4.431027203729066312e-04,6.092710454887121339e-03,8.989488897408573487e-02,1.049339141819020937e-02,3.274442863955054350e-02,3.356243913214637664e-02,1.031886651789927153e-02
7.862491639132700421e-04,4.353987997703988311e-02,1.851251116126693703e-04,4.517714445067806759e-04,4.955930867951841359e-03,8.513471762716795510e-02,3.954237900791694738e-02,3.683419414531982627e-02,1.533913131628997575e-02,7.176253138546377988e-03
5.515026449525600467e-04,3.274260525971556951e-02,1.754949083051189141e-04,4.353372320863308897e-04,6.409853685109537756e-03,6.989634199473300502e-02,6.504899161734489788e-02,3.897910363887794466e-02,1.003538577778626331e-02,5.561016865187309172e-03
4.516553090619247865e-04,4.275954008332888412e-02,9.698886518190906675e-05,3.740255186462735498e-04,9.607856818906565510e-03,5.527189146524183472e-02,4.579427879772628857e-02,4.203154803221879898e-02,1.177124569126918735e-02,3.298351943475913428e-03
5.550979675185570804e-04,7.919018184051340725e-02,8.145979399528613884e-05,3.201238463345286748e-04,1.235391440949062079e-02,4.883604581130465000e-02,8.804616894015526024e-03,4.687399528018858924e-02,2.676007039023521605e-03,8.678856261494351330e-04
6.079389091946025593e-04,1.220816566215022353e-01,9.583338375675131359e-05,2.837295050834186998e-04,1.458332574756174976e-02,5.196216598126211089e-02,3.870607595827370382e-03,5.262410640325354549e-02,3.617194383442960681e-02,6.031683223715277563e-03
5.697044640673905053e-04,1.355547246755353374e-01,7.903051269316455497e-05,2.408102525625997064e-04,1.622441240362864842e-02,5.882825345144822304e-02,1.753847872393840546e-02,5.520136092239932152e-02,6.059105651953045762e-02,1.006873718864736283e-02
5.564833776855378786e-04,1.052142536197683553e-01,4.828957496706479509e-05,1.867898270651679831e-04,1.560412582562907546e-02,5.963037295868894166e-02,4.807133743665018694e-02,4.840799279513877118e-02,5.287494856395971027e-02,1.168322275601231010e-02
5.875944846104177522e-04,4.931887307124813852e-02,3.209061914828780090e-05,1.333278729188915545e-04,1.264559714871256284e-02,5.018124018244589368e-02,6.028978801780786323e-02,3.030911984432749923e-02,2.443515230583243741e-02,1.378327364771255933e-02
6.077806888274403302e-04,7.683571929734660071e-03,1.926627056346889513e-05,8.318782123359978850e-05,9.982012615156712204e-03,3.604983835269338910e-02,5.270939001396267309e-02,7.068700955235244013e-03,4.718589138836349131e-03,2.128962210722354018e-02
6.061455205407425542e-04,5.269330945745395733e-02,1.030704651357187198e-06,3.163413671161276306e-05,9.130396655336932982e-03,2.498766150736203562e-02,4.274685956784542162e-02,1.152673981576840881e-02,7.373663839959262653e-03,3.222680806839216955e-02
6.073130158249827673e-04,7.648312259175892025e-02,1.421468298642722007e-05,2.180381314439684909e-05,8.700017515236295462e-03,1.969381579637671104e-02,2.932726433008810141e-02,1.987394206993330775e-02,2.059159922057000880e-02,3.659997215127432091e-02
6.156445903549826078e-04,7.394849853701195019e-02,1.832233885842875540e-05,7.429912738563746724e-05,7.004734035993181833e-03,1.921491474214210779e-02,1.148099646501528522e-02,2.030614765278190154e-02,2.398075242373514174e-02,2.858783145231355918e-02
6.187082255447444879e-04,5.631202316021779314e-02,3.850312529274790439e-05,1.252556719206594175e-04,3.820346579759402884e-03,2.121738166988403063e-02,7.848722067975426320e-02,1.977855925089256825e-02,1.066436151008916082e-02,1.515151281691656110e-02
6.134984304484707857e-04,4.270259926094796543e-02,6.752842573217449746e-05,1.749927081328432512e-04,1.141852302917255139e-04,2.178855152846916748e-02,1.304377761021535964e-01,2.237241768311488271e-02,5.293332134256954931e-03,8.205398320668369494e-03
6.051808092587303159e-04,3.874095067245780788e-02,5.239108130435503352e-05,2.221470351000515132e-04,3.433597886959880146e-03,1.895820809849651026e-02,1.359987936987435697e-01,2.572800248895030714e-02,6.389378361468892389e-03,1.085857020549644940e-02
5.947445668251271148e-04,3.821733008802599696e-02,1.127042151081556738e-05,2.662933679714066205e-04,4.856245724333524937e-03,1.559794168609263641e-02,1.015771814932807104e-01,2.575085998798249190e-02,5.056296903382830402e-03,1.521969033015831835e-02
5.793897595417696810e-04,3.644242620113215952e-02,5.631282683255901605e-05,3.092817246194859513e-04,4.542428207991763833e-03,1.393460564046472734e-02,4.732048126408078953e-02,2.292038451314720726e-02,1.489392835573609929e-02,1.279226315141799436e-02
5.584717003923533266e-04,3.044980782489651108e-02,1.489287437602175254e-04,3.497300178413726671e-04,3.873281940966218258e-03,1.108281994082418662e-02,5.548672646484519716e-03,2.202578190951780257e-02,2.566405090963937499e-02,2.861529811097774691e-03
5.335309239324541406e-04,2.034688289424904303e-02,4.615629318538610798e-05,3.820758587235715295e-04,3.828647363621365783e-03,3.934537999245183229e-03,3.084744868656322941e-02,2.703962437114206668e-02,5.259631101482996340e-02,9.441681803791918820e-03
5.051899741245942117e-04,1.312349773669724273e-02,1.840684608898725044e-04,4.083575235491672699e-04,4.200426381669328246e-03,7.416154809005457565e-03,1.577186583230964778e-02,3.716782273183674018e-02,9.063453373587312956e-02,1.834345960300828512e-02
4.727957416242301015e-04,1.169122524839387098e-02,2.163233150848098418e-05,4.396259406637198974e-04,4.045354431478874468e-03,2.199931133319034046e-02,2.198798421586560178e-02,4.621250015946232192e-02,1.131602114448844731e-01,1.989005294880259386e-02
4.365278313679385523e-04,9.841883509263352897e-03,7.866992420265029760e-04,4.708243345541196544e-04,2.841023070027133644e-03,3.446742948161069658e-02,5.317983372558578170e-02,4.634831532213388311e-02,1.067876646419435027e-01,1.409336799485981506e-02
3.982315481768769136e-04,6.501813834893455969e-03,1.241581811935086287e-03,4.775763355461518545e-04,1.481197482161002599e-03,3.165793990350923570e-02,6.496363663121801357e-02,3.553305100063448158e-02,8.401749808393253749e-02,5.272611298903680417e-03
3.590048819889435838e-04,5.768089101923503173e-03,7.482882712145820991e-04,4.697764100957025507e-04,1.400060280963432487e-03,7.052524237126957946e-03,6.164238309139699612e-02,2.009309142909752183e-02,5.990068536736231630e-02,2.735906067917600118e-03
3.173190885276542172e-04,2.749196614251397768e-03,5.443120969624269136e-05,4.996527659646578636e-04,2.528481192464613649e-03,2.396510391688915290e-02,5.011736700938185934e-02,6.875556366005026315e-03,3.615118365100235959e-02,9.730177721672344723e-03
2.730871931538432712e-04,6.108965256907678346e-03,2.963357821325440073e-04,5.475132941607095856e-04,3.392608441760667191e-03,3.908882078730682025e-02,3.651916806116938669e-02,4.060041576695070514e-03,1.036092574729213442e-02,1.445615716285074751e-02
2.317127135941572007e-04,6.588687269531548311e-03,1.001449494146976931e-04,5.015038487358852151e-04,3.278962392894548775e-03,3.467466543432388970e-02,2.614636074702064023e-02,1.474155889529129085e-02,1.437231594281726706e-02,1.091216655818943483e-02
1.959074013040117970e-04,1.317643140395564905e-02,2.848125648130326443e-05,4.010704308100249767e-04,2.858581545849621808e-03,2.127457631537570115e-02,1.343367550843958119e-02,2.194330298041115984e-02,3.326530079381725263e-02,3.759817222499901249e-03
1.567811847274701526e-04,3.907523089818958073e-02,1.487569036553769235e-04,4.893894796727119370e-04,2.747376537772603083e-03,3.046515938219952757e-03,1.576757118754515755e-02,2.041796314052776035e-02,4.505727841658204585e-02,1.905275606350517736e-02
1.108046259513712937e-04,5.278775257325078740e-02,2.177358494229922998e-04,6.986661146783190550e-04,2.777819490039870609e-03,2.096162624526938176e-02,6.080545657494808992e-02,9.956235838079302916e-03,4.990692737164307419e-02,1.882335460386272419e-02
7.920868624548648004e-05,6.019269697944081010e-02,1.962767566958298858e-04,4.661493551118563281e-04,2.675399962045679411e-03,4.395848749498355162e-02,1.008776513839473032e-01,5.232554139035625398e-03,4.673200058516826377e-02,2.442027391750756227e-03
7.230574538322201623e-05,7.235842760436876631e-02,1.957010127701065618e-04,3.307845149598976232e-04,2.509932010508053937e-03,5.686650141756656451e-02,1.196324945916332205e-01,2.068791973307319496e-02,3.635827949450852470e-02,1.237629527391530260e-02
4.707592345914361851e-05,7.886367318153945927e-02,2.342483374415421269e-04,8.218619125842624006e-04,2.409723521528497805e-03,6.173812374194471292e-02,1.168463239261060965e-01,3.233214636136753223e-02,2.478656932331735688e-02,1.229831617134268494e-02
1.784056417392742259e-05,6.896993283097238581e-02,2.598924547511342756e-04,3.683060132904249066e-04,2.343595891378392939e-03,6.820556758983914447e-02,9.651958589246964482e-02,3.713023682436897288e-02,1.898719946590557428e-02,2.127239699474232828e-03
2.964267373371480885e-05,5.700666567762242148e-02,2.648479749083926965e-04,3.920872943735906639e-04,2.251148105224538409e-03,7.964787063231659747e-02,6.547874936981457061e-02,3.603033256522331085e-02,2.005913519033402162e-02,8.510046987290076359e-03
6.087136257651356566e-05,5.578942805112781927e-02,2.720433189214759495e-04,5.900080351753331795e-04,2.146469131577018186e-03,8.973922899007738541e-02,3.883923062720025243e-02,3.287071005133970769e-02,2.402452653596551593e-02,1.855662630520785172e-02
5.734311846556251741e-05,4.971130770815630762e-02,2.808766488223111979e-04,3.490026130401914766e-04,2.057548736805749415e-03,9.101181281537347456e-02,2.668650861766913920e-02,2.851585684589793765e-02,2.850399301788453590e-02,2.881212652403903479e-02
1.508121040123942976e-04,2.665528783170181479e-02,2.821033377881592254e-04,2.326748371718687363e-04,1.977012596429059132e-03,8.318986528131538938e-02,2.342315039116484379e-02,1.939397696864005385e-02,3.443459722005979412e-02,3.379054917409672620e-02
1.429172211198174167e-04,8.955807319175397574e-03,2.846798580326097283e-04,3.095857418231669385e-04,1.891901971110897078e-03,7.366054003153500729e-02,2.144544566314914372e-02,3.415695281397357515e-03,4.134636238219891596e-02,2.908201824664053900e-02
3.501841208130720778e-04,1.870302137688536342e-02,2.894878278943204290e-04,3.372402113051232368e-04,1.807114310855826396e-03,7.109403554633685063e-02,2.133483754636417151e-02,1.489451184115305610e-02,4.562722603166212421e-02,1.966315371741528956e-02
3.726422905771307852e-04,4.032009951516009327e-02,2.732484956024863743e-04,2.767724061033290236e-04,1.727483122643933130e-03,7.740221145543833836e-02,2.449192114598303799e-02,2.674209445218964087e-02,4.505632198112394932e-02,1.491029292300002397e-02
1.246469349802015311e-03,4.947256882520238014e-02,2.424818696448178667e-04,2.404642401172997891e-04,1.646491690271808389e-03,8.455006070556968234e-02,3.109043628020231875e-02,2.690342185059497668e-02,4.174273046456612041e-02,2.029090357333135017e-02
3.675571928454723133e-03,4.894585926584736624e-02,2.496162986330063209e-04,2.482768790116051142e-04,1.563664769561513672e-03,8.102941166346673552e-02,4.224209792006577979e-02,1.873452621685471609e-02,3.876893138439853337e-02,3.419587905886457835e-02
4.645759672212459480e-03,4.634796770887854300e-02,2.787273765266519692e-04,2.481712109911648535e-04,1.490535501670915176e-03,6.387285698371711340e-02,4.935225540068526040e-02,9.757288982249664663e-03,3.632555207696605559e-02,4.591440210642194764e-02
3.411041122415357438e-03,2.907875978227656907e-02,2.172106376540900818e-04,2.303568143669595025e-04,1.423103470858639620e-03,4.269416470040975076e-02,3.209280303496653969e-02,3.138916018812107529e-03,3.309021738768523624e-02,4.094793121583200496e-02
1.419980313518796802e-03,1.036210547221642735e-02,9.887382689962293902e-05,2.190497498680994953e-04,1.337222016599660338e-03,2.973607331418396185e-02,1.390348468624856559e-02,3.074572555342533053e-03,2.958278846420515223e-02,1.829593471797325357e-02
1.369780823469635600e-04,5.324946130172818204e-02,1.693447502915461063e-04,2.188873003539011945e-04,1.243007868255838286e-03,2.848861447006231784e-02,5.965977424923991218e-02,8.859337931092095900e-03,2.759713855318432843e-02,3.879067046436861232e-03
2.742104961534902463e-04,7.740579274356575168e-02,3.725102396701365434e-04,2.185321612167778435e-04,1.191940253681092465e-03,3.405932274630860124e-02,7.444132471681219609e-02,9.411844859501590499e-03,2.714650462044700466e-02,9.769557840410860589e-03
3.036487879408474467e-04,7.586740052432514037e-02,1.408343472935854918e-04,2.158111951506567539e-04,1.162810573297171687e-03,4.102624360282558502e-02,6.080798241692393635e-02,1.418728765884097421e-03,2.652771494437123484e-02,4.567892786834141725e-03
2.943798307219654955e-04,4.858721582514213821e-02,6.726612390561077705e-04,2.154946279368549864e-04,1.045437976869208327e-03,4.801201503216782213e-02,3.767145725091042285e-02,1.134522916269548563e-02,2.509054619136007885e-02,3.422065370308402608e-03
3.240891547333404595e-04,3.811537272058808032e-03,1.187772263246462305e-03,2.174917800716057756e-04,8.829049272750329105e-04,5.651676795373686973e-02,9.765363843706697383e-03,2.152490740063975339e-02,2.364954432844330878e-02,1.290467864776292245e-02
3.606075839468988499e-04,3.094750038144672075e-02,7.134926886950064377e-04,2.195707984883606503e-04,9.146158208449706867e-04,6.720749147469688711e-02,2.146788865796271997e-02,2.575944790706488283e-02,2.246099097438995079e-02,3.048556962269786952e-02
3.803690448086881489e-04,2.628855459626804406e-02,9.253005681268693008e-05,2.230134431045903876e-04,1.064388313731659021e-03,7.718320925760463469e-02,4.087764810221418410e-02,2.636963591424171249e-02,2.108347719949681121e-02,5.011160577941928956e-02
3.919050615252011216e-04,1.548533831196875418e-02,2.488323030579540495e-04,2.275548548955192406e-04,7.769872086354892354e-04,8.052481134731355461e-02,3.914226300580593565e-02,2.604596244115532644e-02,1.999801984018678008e-02,6.242877229261122041e-02
4.040612869412947192e-04,6.228747155710109840e-02,8.196782302033762805e-05,2.284117798653738634e-04,5.240171123828299242e-05,7.169669330352332337e-02,2.589950462011235410e-02,2.365079137397469583e-02,1.978104090649581911e-02,6.100466404176439761e-02
4.135792609275289514e-04,8.837606221270351281e-02,9.352974965073492593e-05,2.268847111900767512e-04,5.695621049035206772e-04,4.992314223972087878e-02,5.565112028938986287e-03,1.709796534638870907e-02,1.872252213113516361e-02,5.136832847510894307e-02
4.177338529107579097e-04,8.971751069289515823e-02,2.143882376751289078e-04,2.326962151107043238e-04,1.747209837112441975e-04,2.252312452120297515e-02,2.958404092255837933e-02,8.639690795900724016e-03,1.449130851109648593e-02,4.378448398216643750e-02
4.160555953608257164e-04,6.742947426605869210e-02,3.592161155776822965e-05,2.414579488537396549e-04,5.270792205020586284e-04,3.387672140133400969e-03,6.801454019051272892e-02,3.828486380154694484e-03,8.418224681053809028e-03,3.893704149410409654e-02
4.062515921001961269e-04,2.485425208795908475e-02,7.911046761166699685e-04,2.311351806532653931e-04,7.501620910017400704e-04,2.947934633355651056e-03,7.790810327477200314e-02,4.962426159820820457e-03,4.392427369344356278e-03,3.107025238639303522e-02
3.926200620316984001e-04,1.714776626265741497e-02,1.284823509703709402e-03,2.101165856309593274e-04,5.496158669566679564e-04,1.552553300808702519e-02,5.330729151597905779e-02,8.156004177936651209e-03,3.457087170441124936e-03,1.994803848508428651e-02
3.845449894593211816e-04,3.207800401993535222e-02,7.871814997995045960e-04,2.251004335365412441e-04,3.075279415611476648e-04,2.141435054179311945e-02,2.599903201193284538e-02,7.661426884421307718e-03,3.608333877774132920e-03,9.519295558274132318e-03
3.726295567007166390e-04,1.985440831423049279e-02,1.120915083181223029e-05,2.586334612605035088e-04,2.350287654329618323e-04,7.845333058141664567e-03,1.901919796423943987e-02,2.095009681679796051e-03,4.114545882042762448e-03,1.118882540925496098e-03
3.360672815292249605e-04,2.947140813963082702e-03,2.303964539472492645e-04,2.099187509430547739e-04,4.937644261421011505e-04,1.740439873161127998e-02,2.163800987271804338e-02,3.959120702195824057e-03,5.285440886686703851e-03,4.914828321440415509e-03
2.965637541455859992e-04,6.307900595763577326e-03,1.747050881900015138e-05,1.131485841065494051e-04,7.299754316521696318e-04,3.847008911211774462e-02,1.897110012677577506e-02,4.907442870580112915e-03,5.489738268287809586e-03,8.286509027779094191e-03
3.017509783448506515e-04,9.382458181515566237e-03,5.980234276125173524e-05,1.868961723775773619e-04,1.337754475776405712e-04,4.832022958290758952e-02,1.297907684980257464e-02,3.280893214017638684e-04,3.330512698270355915e-03,1.196206777415880461e-02
3.082094972946665900e-04,3.674915821133715229e-03,5.502744079808024046e-05,3.730171197978068842e-04,2.336685855975950080e-03,4.861452048825226635e-02,6.175354037691058694e-03,5.593284124890846379e-03,4.785648766632902545e-04,1.725294984425542258e-02
2.146741496490512735e-04,8.526085044886531211e-03,1.162059034284424781e-04,1.606547819506782637e-04,4.219820774673754826e-03,4.487212204270808052e-02,3.912972412824046453e-03,1.009967816646602234e-02,2.106450897999906802e-03,1.724148555621670548e-02
1.133009346795292794e-04,5.683505039197242828e-03,8.934096986451693970e-05,5.929277508562274916e-04,4.235307072665050847e-03,4.776291563794043959e-02,8.383822800658068466e-03,1.411860765807268318e-02,6.959643482786944703e-03,6.701008720740973465e-03
2.276831009161231500e-04,2.703248782983019849e-02,8.720763670426315891e-05,1.129772899219212787e-03,3.040795915710899251e-03,6.827624229682391355e-02,5.417320740477568793e-03,1.848365392781110145e-02,1.477000345478452978e-02,4.948094284510974779e-03
3.780236961948535120e-04,6.782467085616186719e-02,1.266814177254889265e-04,7.721457336931320881e-04,2.068113238840623390e-03,1.047912160381239410e-01,2.861165346181177016e-02,2.128028589393737846e-02,2.097324312425467158e-02,4.594178483848007644e-03
4.112481073370346634e-05,7.990056500269900053e-02,1.544837621033622608e-04,8.481334233979204217e-05,1.368672038396476134e-03,1.416746791065419120e-01,3.965703051088814712e-02,2.064521886830641972e-02,2.163630486215758694e-02,3.968213350931893736e-03
6.621569037109981863e-04,5.332509036129183533e-02,1.613344029262260321e-04,5.034504463843910522e-04,4.259169199418671287e-04,1.641540651460905165e-01,3.386000092202691436e-02,1.817127816418851252e-02,1.830009237317974796e-02,5.809970970032713247e-03
9.300245249039605731e-04,6.949378703031817636e-03,1.713714697897775511e-04,4.400401619832892036e-05,3.938543554669324872e-04,1.682815664519284604e-01,2.115246613505346665e-02,1.639760939243307264e-02,1.458486022182097115e-02,6.356060944038351580e-04
6.881060992304542179e-04,3.978616207973906943e-02,1.885915840493218153e-04,8.530886022667038496e-04,5.785502692955285260e-04,1.564241144007285644e-01,5.747592295809182857e-03,1.399128143343315693e-02,1.216264367941415937e-02,1.293191598320307103e-03
6.968614264287871464e-04,7.917275750165131409e-02,2.011627198271642204e-04,1.249515451339890029e-03,3.994797838254546306e-04,1.315955268364590869e-01,1.076457829287573095e-02,8.047074163048097140e-03,1.122741815266863410e-02,9.826783880716179198e-03
9.536419121381112165e-04,1.051265000852617398e-01,2.065698096672930167e-04,7.495094119803193079e-04,2.940888531487328332e-04,9.639279426224645064e-02,2.038385907242301620e-02,2.801038648352611017e-04,1.156368063194137576e-02,2.050240247580372224e-02
6.982113222687080442e-04,1.060339934750252205e-01,2.099152595943643679e-04,3.022542935237537882e-05,3.390394131088475494e-04,5.346743450724267266e-02,2.110608941490984061e-02,4.997588826485339225e-03,1.254825507016500870e-02,1.973249135303907498e-02
1.097357991626978830e-05,7.515489058653994359e-02,2.121351837379176631e-04,1.508920862659852318e-04,5.473110487670899537e-04,1.087713007615339310e-02,2.312824567369608716e-02,7.997225981964409258e-03,1.366120774669180027e-02,1.454301264683187551e-02
3.087805691229310008e-04,2.748560246434225002e-02,2.106588060958791892e-04,6.298554916637156469e-05,7.213446971446865535e-04,1.517177122497904464e-02,2.974254382020558030e-02,1.222568666183532042e-02,1.454365000901117547e-02,1.862531894810112720e-02
1.523635239216678005e-04,5.634050274615982554e-03,2.049372289619857165e-04,1.606441323436776179e-04,1.058336655054557037e-04,1.386065379503864659e-02,3.022086182497795911e-02,1.761276889766341322e-02,1.446801874645599860e-02,3.252167003386782773e-02
3.848011733896602185e-05,1.012687364916497156e-02,1.962050259697324911e-04,8.366876300777188616e-05,1.799268981945687873e-03,6.276903191209494762e-03,2.237265998724360938e-02,2.071475518410584304e-02,1.369185555030907886e-02,4.491223146909367747e-02
1.226363353390951384e-04,5.115905742777357434e-03,1.848926191910214042e-04,5.048254511126468229e-05,4.073335846334704552e-03,2.631848242380722958e-02,2.261136404279138340e-02,2.006816034449086794e-02,1.493583238604860239e-02,4.926071258801965197e-02
1.912500989548041085e-04,1.056361543398268502e-02,1.707020950585730259e-04,9.524869977597317703e-05,4.908324944104444296e-03,3.448067638931484602e-02,4.153737631748104231e-02,1.705147737267093816e-02,2.031054424314344617e-02,4.898057699052370262e-02
2.045610109580586202e-04,1.852424191247530050e-02,1.538037077299888623e-04,1.172051973623878260e-04,3.644356783506434716e-03,2.891594533075915463e-02,6.630606521947994547e-02,1.386060847203325619e-02,2.703583102918092132e-02,4.671866124483916444e-02
2.442102696729552664e-04,1.655801019752127165e-02,1.348076886749240253e-04,9.900092229474930145e-05,1.672588490451779692e-03,1.271251872821448428e-02,8.104532619410251271e-02,1.299869459682776417e-02,2.993373878075266878e-02,3.837670558219855727e-02
2.416005538144873972e-04,1.353858533229537059e-02,1.142135738176275139e-04,8.762348534951193467e-05,6.264222361858797329e-04,7.754485434048290562e-03,9.069686573881680092e-02,1.488483386443979761e-02,2.778606048346723284e-02,2.148388152281036079e-02
1.880231974104126411e-04,1.832243756947960975e-02,9.240057822127033965e-05,9.192384113051478827e-05,3.131535813643401204e-04,2.637376602444399531e-02,1.055917222849318132e-01,1.481430434718397464e-02,2.349268677786660667e-02,2.853656498392990928e-03
3.043858757951554798e-04,2.287142551656928466e-02,6.982472018341988611e-05,9.022778596680166717e-05,2.619678797933190834e-04,4.156359309061479629e-02,1.115628040312564850e-01,7.572871821782044439e-03,1.895286200970555321e-02,8.214560923881605858e-03
5.436100059123691536e-04,2.701510641263455206e-02,4.701346102879443753e-05,7.840341488733046566e-05,7.217833854783387406e-04,5.140429778944474726e-02,8.116232983630231046e-02,3.879309100988678413e-03,1.379582723084752695e-02,1.123736797938411532e-02
3.520702950180787686e-04,4.413480562218809883e-02,2.455236940174151386e-05,6.687975358390586985e-05,2.128303915301226748e-04,4.710499072772877244e-02,1.536554721383981761e-02,9.928978664272645333e-03,8.436536902924073739e-03,1.316054609858125814e-02
4.038705932608047610e-04,6.851763790985604397e-02,3.061848441932182543e-06,5.809472842758329689e-05,4.743627581451980249e-04,2.244402958416720495e-02,5.105200811824713025e-02,6.091289479004669861e-03,4.973933711231334071e-03,1.851417764495484272e-02
8.598138512871595415e-04,7.682638946700398597e-02,1.702277144591576836e-05,4.760605634663096547e-05,2.609879317873114394e-06,1.039475416423874324e-02,9.115492356511678551e-02,1.274515401396508849e-03,4.823208039009973039e-03,2.653529016601791773e-02
3.735683230907680188e-04,6.810780083984357969e-02,3.545177154154062721e-05,3.465449662405796206e-05,1.089508199069115241e-03,2.858174718950068707e-02,1.090565382957353752e-01,2.779855477570787950e-03,6.842042485474800553e-03,3.426237381467258508e-02
4.184628059420626321e-04,6.359314927854771426e-02,5.163327274242372354e-05,2.176205922474992049e-05,1.168825160987155319e-03,2.555057990419712377e-02,1.172745620431173141e-01,3.727807925582685665e-03,8.261805700008168288e-03,3.769283211123528043e-02
6.447227516551058040e-04,6.634325766923807044e-02,6.465246683210216713e-05,9.769994034052425212e-06,1.632530351031077345e-04,1.637728975040473461e-02,1.185058431713725546e-01,1.243748147722234694e-02,7.622174381082858635e-03,3.376907551978468314e-02
4.272436442600865796e-04,5.463081559035309898e-02,7.447960344524919007e-05,2.044528812177806175e-06,3.845220781181377069e-04,1.344515365284866017e-02,1.166577070601474003e-01,1.673873845867458396e-02,5.982732172364601912e-03,2.374749103907332695e-02
3.287318330013727619e-04,1.777652763101289501e-02,8.199387303913822857e-05,1.365404622277425356e-05,2.405452482333448716e-04,1.156874084050091983e-02,1.205168301217621474e-01,1.488670333758708615e-02,4.447857814333084844e-03,1.179483922885158666e-02
4.174006893935980431e-04,2.396119775351628414e-02,8.640998261060142520e-05,2.431707035050569888e-05,1.067562795967695165e-03,1.118748218375956779e-03,1.284854001682369518e-01,9.373146649137149150e-03,2.305555653534950480e-03,1.055382384822510771e-03
