5.022018961044375646e-02,8.608841425311064902e-03,1.224492139706051703e-02,3.056073067392587656e-05,2.273921252014113391e-04,6.302174328667695287e-04,4.897182634304960910e-03,7.462305026351594758e-04,9.937795199702766612e-04,1.255191731615389050e-03
5.011727838403822605e-02,3.631567791576173574e-03,8.822603321131917975e-03,4.626603074331969473e-05,3.133431914152049196e-04,5.649803748001747030e-04,5.813791077341838240e-03,6.133682648073780080e-03,2.119680928396407496e-02,9.942923834255514275e-04
5.354923375083772003e-02,1.661475923697375897e-03,9.742753957938103671e-03,6.072773929123942232e-05,5.585783567791531004e-04,5.256190253952292783e-04,1.593348034832188856e-04,5.714486069065752641e-03,3.346722127034525152e-02,1.333180545054579594e-03
6.066334940653169555e-02,2.922520833422701577e-04,1.508518701317872884e-02,7.360862835545039866e-05,3.854969751255678950e-04,4.754690279028502345e-04,7.004707304860707633e-03,1.527177547803788447e-03,2.932079153676319869e-02,9.303200224746931103e-04
6.897991691851727836e-02,2.608183355380231782e-03,2.065826168231778281e-02,8.461230843616787786e-05,4.394137233673320059e-04,3.624137109557039370e-04,8.221167158733576341e-03,9.535308912618953650e-03,1.736426525584798541e-02,2.439027467114588841e-04
7.708328143072203098e-02,6.728839367232577161e-03,2.314034141038037728e-02,9.349026286043811548e-05,1.010169055939326519e-03,2.595779637324137899e-04,9.043761960611080251e-04,1.559620598514855315e-02,7.931931105172882260e-03,5.032833819943680889e-04
8.379408294380279176e-02,1.032087644186672863e-02,2.206232267782620715e-02,1.000476556618219270e-04,4.471525762665901418e-04,2.824152938555763185e-04,1.265202539772279471e-02,2.071525233502411953e-02,3.145419258043691442e-03,5.335761471045438395e-04
8.942229042717607379e-02,1.068046481359448407e-02,1.698826954266322367e-02,1.041477769516961941e-04,5.456001752478701781e-04,2.813164982813823431e-04,2.703852656677085270e-02,2.508753830562758178e-02,3.669461477128624968e-04,1.320146338784357028e-03
9.722687733473557581e-02,6.718032772558417062e-03,7.308960129575584400e-03,1.057150243245543066e-04,5.377516185557515904e-04,5.926954602868451474e-06,3.742950076305572027e-02,2.773429998259572746e-02,5.402509833524181751e-03,1.272112938606662601e-03
1.052270382012808619e-01,2.151266939108262277e-03,3.617022463143229616e-03,1.047363557046502452e-04,4.733921092700148540e-04,2.266642042508933087e-04,4.245497295109630642e-02,2.896733629548614228e-02,1.221630521613777109e-02,1.314115016109616060e-03
9.980590857749274680e-02,1.617920432289973254e-03,8.629781641101673048e-03,1.012611872782171498e-04,1.059355331503047774e-03,1.527131424783382499e-04,4.355032186005203948e-02,2.991359917545625274e-02,1.779715822602193770e-02,1.294466949890413481e-03
7.031966673259498757e-02,2.525096760584741567e-03,3.937821476432021642e-03,9.539974880897017875e-05,5.080770286267090839e-04,4.315476078864124380e-04,4.209988881254836390e-02,2.982550839491171155e-02,1.669608425134710278e-02,1.342909510459105527e-04
2.752509852753352512e-02,2.959468496462215343e-03,6.916693517981463944e-03,8.731994674483162873e-05,3.097724250279938535e-04,1.227073151758930909e-03,3.938950746838265626e-02,2.633588162108869285e-02,7.594460112710173585e-03,2.895277739547848228e-03
5.368968557691335824e-03,1.481303574938476128e-02,1.789311677561483335e-02,7.724282215023949287e-05,4.750168599978550816e-04,4.821578997165059700e-03,3.790842417043096407e-02,1.924762763385378175e-02,2.192499039440640955e-03,5.521081016631469371e-03
1.646247290321685430e-02,2.207536085693686048e-02,2.624070653055157049e-02,6.543672474293974915e-05,2.014454751435108739e-04,7.251118033699932575e-03,3.808447786597112666e-02,1.210067409093031239e-02,4.188822540340375773e-03,7.398105904186206248e-03
1.012744384772754254e-02,1.887970978567073480e-02,3.214408115146141776e-02,5.221035534321199817e-05,9.429397124882522136e-05,5.922360299017446865e-03,3.504880941531238192e-02,7.930941876654596517e-03,2.377217151843479242e-03,8.322349725118792854e-03
4.213073990114299915e-03,1.463699894361910822e-02,3.470814371205316329e-02,3.790485610817344932e-05,2.168900046938385714e-04,2.487849369414074294e-03,2.443781836316515424e-02,4.319825804575199227e-03,1.349490358298457982e-02,7.353936117602120036e-03
1.931123513143757214e-02,1.974241227675252106e-02,3.059668201264545417e-02,2.288515037806702578e-05,2.714954523791375833e-04,1.011801801375661249e-03,9.943978253458265679e-03,4.319841066550687315e-03,2.598074016879156276e-02,5.088452207260992476e-03
3.385882516341824633e-02,3.029426447542927364e-02,1.832044891647911788e-02,7.530751277355565094e-06,1.420148607449284433e-04,2.916428976159097554e-03,7.799373990909170759e-04,1.813728145624468602e-02,3.627625907006028216e-02,4.522322886871000744e-03
5.386282120371327364e-02,3.638644588119062384e-02,2.934997564333547727e-03,7.773730006347158574e-06,3.956154864428432401e-05,5.488860725292921995e-03,5.323940523258732446e-03,2.847560754137773084e-02,4.072981636548497764e-02,6.398728916796670926e-03
8.195245700466897987e-02,3.592805305682650330e-02,7.177690606539680919e-03,2.264813935573791115e-05,1.946929988809337762e-04,5.572354501598182977e-03,5.986231513333778106e-03,2.654991480078200752e-02,4.007500591102620968e-02,6.964748904911155329e-03
1.061391858835699642e-01,3.097324557352678157e-02,8.693946471833410156e-03,3.672616127925113069e-05,3.674516604614181162e-04,3.268689768593493073e-03,3.436208356654237885e-03,1.366140955868430651e-02,3.885814731036273117e-02,3.801416653830162924e-03
1.103322116764725164e-01,2.088943224417703221e-02,5.522515200902017654e-03,4.966429568901097307e-05,3.176910322629411027e-05,1.095547386127535211e-03,3.225874601262277482e-03,6.485090646603682268e-04,4.071112544374490272e-02,3.203696056838992840e-04
9.104803331372951503e-02,8.794902568066236687e-03,3.071977523771105521e-03,6.115021018474190763e-05,6.556663942625608112e-04,5.334002199502319193e-04,1.231206452593999398e-02,9.023267255879244622e-03,4.646895718003114795e-02,8.541257264875665688e-04
5.285328409861591442e-02,5.132827434091876556e-03,4.095556828146188974e-03,7.091026498210132169e-05,8.956704274408967999e-04,8.594969911709128812e-04,2.002020686240838301e-02,1.185139163490128017e-02,5.315068932358540943e-02,4.382963144455367076e-03
2.843977583362504707e-03,1.566175794077467529e-02,1.075264270322125702e-02,7.871602940014636284e-05,6.493925153829326665e-04,9.921294303710964137e-04,2.443009646385602834e-02,1.349166339080741864e-02,5.414957439770402836e-02,6.404532416673968873e-03
3.610241167517795613e-02,3.247575505392003709e-02,2.651527460231163646e-02,8.438963494995395105e-05,6.696722693669812567e-04,9.035954951091833449e-04,2.638979836988748079e-02,1.559763616909088865e-02,4.615917200613325194e-02,4.741078961624659374e-03
3.580341694977438871e-02,4.307499511540988091e-02,5.158226463181531107e-02,8.780783987025420284e-05,8.989162168971425370e-04,9.275023150173648118e-04,2.657264874679931069e-02,1.532249961991705503e-02,3.569110196860991735e-02,1.036499849813919726e-03
1.113824777492706218e-02,4.339056800828571675e-02,7.779116029098655238e-02,8.890471267478341935e-05,5.951099282626350767e-04,9.089213052333260622e-04,2.443216823264873772e-02,9.974508307069699514e-03,3.211553481108799651e-02,2.136824030562910551e-03
2.270562712486315013e-02,3.718636037863126687e-02,9.355288533588922151e-02,8.767287708078684734e-05,5.173555557903869895e-05,7.689144972490562658e-04,2.110481376160249986e-02,1.281919412144105807e-03,3.274230965085767747e-02,3.888940016445542863e-03
9.789327205830947176e-02,2.530518366233800581e-02,9.434702001544387207e-02,8.416329670295585159e-05,2.785573808894808404e-04,1.197662857708827518e-03,1.986184743706202738e-02,7.292435402958323716e-03,2.023438598506295885e-02,4.624857068042239824e-03
1.835952715846552452e-01,1.520808769321658474e-03,8.509468744571184462e-02,7.848361422170398941e-05,2.093412583972382719e-04,2.767581213975347718e-03,2.146916211521763054e-02,1.507801927048363876e-02,1.959501907739212567e-02,4.076336043744677867e-03
2.117141865710510107e-01,3.668159443221743338e-02,7.345220790693807178e-02,7.079509546656450626e-05,2.997554468710362336e-04,4.491361490312253610e-03,2.261488926564657678e-02,2.210919586623544611e-02,7.741114985531701020e-02,1.550107285738975453e-03
1.784397056311777807e-01,7.667007699498860906e-02,6.312409208192441834e-02,6.130826311237780855e-05,1.659603957762754306e-04,4.578571845858888170e-03,2.049028055447543739e-02,2.543319859979388878e-02,1.234646550046352015e-01,1.829995323803939667e-03
1.266856954326772144e-01,9.898762258514370860e-02,5.226464794019958227e-02,5.027733662759842256e-05,5.385694256147416110e-04,3.069922076301852959e-03,1.486267141203235012e-02,2.295596700728823325e-02,1.347746841337127965e-01,3.633979784540783322e-03
8.256380020296419375e-02,9.723684137053044407e-02,3.741503258708915591e-02,3.799362396285976069e-05,1.035473226927384515e-03,2.024008065637595936e-03,5.874256737093185542e-03,1.857594952917371658e-02,1.157034623356902464e-01,3.372114814736406219e-03
4.584446103558069419e-02,8.087273488123217224e-02,1.867260678696381487e-02,2.477803552777483651e-05,5.846175654029947717e-04,2.291745096115548660e-03,4.933748797937414013e-03,1.842935603975877704e-02,8.836192635745229729e-02,2.954322804846098733e-03
2.549233566362328618e-02,5.977244527385133788e-02,6.642967454403630664e-04,1.097291167698461652e-05,2.194235304169419795e-04,2.358875665428135631e-03,1.298320600440614966e-02,2.410612194420566276e-02,6.773253487275543439e-02,3.661470846323336501e-03
4.590143909990511417e-02,3.710988142761278974e-02,1.776895451594812450e-02,3.066629272626157974e-06,4.593264429826384994e-04,1.303175300200341748e-03,1.511971525124607141e-02,3.238612512388213543e-02,5.200927109149369038e-02,4.568017171372169664e-03
1.084642285996639532e-01,1.433985255814824479e-02,2.974883059391903589e-02,1.698160490429434074e-05,2.367318259809822402e-04,2.142923376048437264e-04,1.246675567471228381e-02,3.812530730300604798e-02,3.287762632493151926e-02,4.182517707408041178e-03
1.707877886249707100e-01,9.088458727895203093e-03,3.194350021021001573e-02,3.041812174969200241e-05,1.364745519275639902e-04,1.108139752622184067e-04,5.395909075828315797e-03,3.593451203464460841e-02,7.188979123678525610e-03,2.304623351762254743e-03
1.841167534899367242e-01,3.336145349391383269e-02,2.190932714254981845e-02,4.303614528053646097e-05,2.367714093392390051e-04,1.752954275253116017e-04,7.356672058266356881e-03,2.406247449108928418e-02,1.967669533633972095e-02,1.469081252962138714e-04
1.402786578723781985e-01,4.290913339580242070e-02,3.488697346050355710e-03,5.451787056118643246e-05,2.845628793123461658e-04,1.083691870212107928e-04,2.024893585912991914e-02,8.227040052793914773e-03,3.582206461794164992e-02,2.337607544252719508e-03
7.019764805063972990e-02,1.142736798633092049e-02,1.636053081062943323e-02,6.457548856719054009e-05,2.357268731625389757e-04,4.526772050603797715e-04,2.132726014777474796e-02,2.769274268674282863e-03,3.084776376271125553e-02,4.018814300026633639e-03
1.124116319118147536e-02,5.834443293722167689e-02,3.222342450529069174e-02,7.295815947547758446e-05,2.070095665118752758e-04,8.020075754179670528e-04,8.171217499993796082e-03,5.873091928351255667e-03,7.317606716190670942e-03,5.211101583975435818e-03
1.838657064519984979e-02,1.215531099768131784e-01,4.019763104260172526e-02,7.945802511008699404e-05,2.206661955513377954e-04,7.641662459495065173e-05,6.188672597010230411e-03,4.526818969997705583e-03,1.826068921629372607e-02,5.650007380619765165e-03
2.764589802512558425e-02,1.384923344845402637e-01,3.760464200858308625e-02,8.391511763617544404e-05,2.224867187801879409e-04,1.297686653815339044e-03,1.133255806518866128e-02,1.394653157428944051e-03,2.938167998391324337e-02,4.559187729090678591e-03
3.174273300153283850e-02,1.137803720882031855e-01,2.539013617984802948e-02,8.622104989100301780e-05,2.015786580788039612e-04,9.034091220072570363e-04,1.325842999294374151e-02,4.620469115423015208e-03,2.293161870837484226e-02,1.576581274823365096e-03
1.993047684795235669e-02,7.514379116535586933e-02,8.435468153335099611e-03,8.632140370012732536e-05,1.834472686847414958e-04,1.072381715873229257e-03,2.142526325933281905e-02,1.342663854911359429e-02,9.443303361830265516e-03,1.890684979243327599e-03
2.909208076822158290e-02,3.854303349246655797e-02,8.081721052122792237e-03,8.421676536492873682e-05,1.738415066029852475e-04,2.352524405384548347e-03,3.258365591502273423e-02,2.072488705700077996e-02,3.162350260797126486e-03,3.397868516897518780e-03
9.742124229649852529e-02,7.915592103358817105e-03,2.129847444128201567e-02,7.996239139693557757e-05,1.612992476296824676e-04,1.450385188652183500e-03,3.719603559622918637e-02,2.272056563080776526e-02,1.038134830906399693e-02,2.330553574608977118e-03
1.334580773576891644e-01,1.293335771992274244e-02,2.946054907547817139e-02,7.366652166734812218e-05,1.434161877293229422e-04,6.662110712631293986e-04,3.304079697302000906e-02,2.092038801198753753e-02,2.446751287985186180e-02,7.632532815115987326e-04
1.114354642998163225e-01,2.624279942604372529e-02,3.123927525382167239e-02,6.548739058903253079e-05,1.259586693674259782e-04,2.307762929468830555e-03,2.383649186964835465e-02,1.907254313076716182e-02,3.206978903655510055e-02,1.056024292208937953e-04
5.269660132187633378e-02,4.570057441685322630e-02,2.834952816399226305e-02,5.562901892673369393e-05,1.106392303461377352e-04,3.120506705698282684e-03,1.179281543610602445e-02,1.700697935632936725e-02,2.530715624716598985e-02,1.323181283103394990e-03
5.685152283588483166e-03,7.537559943395309714e-02,2.532064673020887127e-02,4.433589855468611680e-05,9.538489475205450495e-05,3.685961612922095641e-03,1.226278100549699993e-03,1.140228988881056282e-02,9.170479140311011551e-03,4.860753762238980910e-03
3.808362003395666939e-02,8.845024082302954671e-02,2.370491851598392416e-02,3.188670922542316061e-05,7.984211542893198234e-05,3.994265585126683532e-03,1.072796542962033313e-02,2.668575747231716460e-03,4.016453763449464795e-03,7.857550133592891561e-03
4.151494308442459091e-02,5.318647071005942750e-02,2.113711392237737491e-02,1.858722953412470896e-05,6.526929916470750742e-05,3.573989943296064595e-03,1.367126299848293695e-02,3.536370988572164285e-03,8.759152130927889274e-03,7.264322080685914687e-03
3.650596579307804207e-02,1.896145617346442838e-02,1.847960923591100701e-02,4.762623208148358089e-06,5.239272554093502585e-05,2.823775061163901357e-03,1.239541390997681534e-02,3.956760990839513006e-03,1.039748105563395933e-02,4.731871517781438725e-03
4.188604096792368503e-02,8.003506592892062343e-02,2.043380885642152520e-02,9.250703822486861725e-06,4.150887391229574937e-05,2.693188324675009973e-03,1.126984347871278283e-02,2.793472132629376201e-03,1.271857724209745147e-02,4.070088009100174091e-03
4.950146865323021284e-02,1.008235740175211920e-01,2.674485174748739494e-02,2.311347073748735133e-05,3.252654285709227929e-05,3.058229585010289759e-03,1.237119516502753133e-02,5.380220511147967496e-03,1.092198707338942754e-02,5.975178827763192452e-03
4.214723943556166613e-02,8.958807056433391869e-02,3.204054676002272145e-02,3.649190445237748110e-05,2.469357113662069950e-05,3.029927848729673315e-03,1.578074193459900673e-02,1.011625411487079504e-02,1.743797981398223810e-03,8.844268659560280271e-03
2.276799147769996423e-02,6.110080088007471127e-02,3.568978749705219167e-02,4.906592947584987566e-05,1.859437243875697426e-05,2.834508682467725034e-03,1.951791255659023061e-02,1.146140882032774429e-02,9.494609897364161485e-03,1.163809162702079611e-02
4.535071587728554954e-03,2.122378907340644744e-02,4.083226430932026391e-02,6.053696306427916067e-05,1.681129711965151288e-05,3.708495285272776776e-03,1.818471341327025648e-02,8.996430528097187213e-03,1.690979806289804807e-02,1.264780336352089481e-02
1.032274320116063730e-02,2.118787637453884570e-02,4.350323181830684921e-02,7.063512486387933111e-05,1.867411669869005304e-05,5.854410644564491187e-03,7.741189545906332174e-03,8.264657519633906990e-03,1.984859729523710814e-02,9.256145698576776631e-03
2.256380163278883660e-02,5.649590570575621640e-02,3.589071589823826514e-02,7.912568602431298509e-05,1.867040508802257664e-05,7.936274856613806036e-03,7.064502303623601369e-03,1.271441578482774594e-02,1.680857807468464846e-02,2.225214600579224038e-03
2.430742184623665286e-02,8.447331380915695798e-02,2.091574796287890697e-02,8.581460280691254267e-05,1.807556205958852686e-05,8.917729552975425106e-03,1.536487203722802439e-02,1.928836636735232687e-02,3.551552042858811906e-03,3.455693045119663780e-03
1.019831861025559915e-02,1.016824556792269990e-01,1.075297029628416619e-02,9.055300346945359120e-05,2.867127102458976465e-05,9.364629057662179901e-03,1.059230120593952947e-02,2.306647364766438446e-02,1.686171950579637771e-02,4.647368225664333385e-03
1.508097009174744728e-02,9.259775396153838156e-02,1.116731679360749227e-02,9.324052407435474944e-05,4.779248885993621425e-05,1.022045103425961443e-02,4.480833177939114870e-03,2.283998457077570862e-02,3.165568728892173556e-02,3.252692699669856510e-03
4.923052145652487971e-02,5.552298653330388356e-02,1.800702163806452982e-02,9.382741815384044624e-05,4.973058719123241839e-05,1.096007256688195583e-02,1.999424427239982621e-02,2.046791881776170371e-02,3.436227931883572423e-02,1.531201414299978702e-03
9.380860399063356558e-02,1.942073020320943949e-02,2.624560111334231852e-02,9.231539612848937157e-05,3.891301537800642945e-05,1.025099589156316243e-02,2.481128460270855957e-02,1.765665175760272251e-02,3.550284003938018740e-02,1.246577456012224958e-03
1.320405395062696496e-01,1.249550493789427195e-02,3.325313626631640207e-02,8.875718222741034382e-05,6.967862362493815415e-05,8.285998625518143507e-03,1.584125453237350892e-02,1.585176053999861126e-02,4.860027584419869540e-02,5.141306462380503678e-03
1.253035484865153149e-01,3.093178389639034825e-02,3.669000426668501957e-02,8.325480860557134841e-05,1.331856180131230647e-04,6.817315479682955690e-03,3.260877159163663285e-03,1.706270006542322248e-02,7.182745601075830877e-02,6.811419638629906750e-03
5.515791196501484278e-02,5.429903205322541421e-02,3.554482654857615831e-02,7.595669761632077870e-05,1.121113763890821039e-04,6.547233017830399009e-03,8.399832240222355334e-04,2.172341844459106316e-02,9.092988826869846664e-02,3.418310166252446630e-03
4.052511456573996279e-02,7.265065354457464486e-02,3.096393906245387476e-02,6.705361299350416540e-05,2.102818059893855044e-05,6.155628906556643784e-03,9.818469427616161038e-03,2.671963916895152280e-02,9.569022602935037258e-02,3.602065217098016862e-03
9.944772999217173226e-02,8.505481233694046905e-02,2.480139090927795456e-02,5.677358826462360460e-05,1.123556142688293420e-04,4.700934109487167958e-03,1.792835552301547467e-02,2.788279756335633464e-02,8.825883616923783925e-02,1.057755749234443911e-02
9.902204778751784453e-02,8.780515691882893881e-02,1.942773508512425640e-02,4.537596540006689317e-05,3.696899605258601612e-04,3.450264152851148167e-03,1.603712947394506788e-02,2.402706325827323394e-02,7.820180675328548825e-02,1.460087842494868504e-02
6.407384115195893792e-02,7.799032024167816546e-02,1.584793151025502486e-02,3.314469797610972287e-05,2.097450754916219920e-04,3.836505123620503194e-03,8.893016950223851108e-03,1.701110505374949650e-02,7.244385697741949348e-02,1.376640055262977162e-02
1.923162992011165362e-02,6.230373745820066977e-02,1.001396747854924052e-02,2.038109044916864592e-05,6.027710465191436729e-04,4.515590551074501885e-03,4.357240203802885230e-03,8.678973490409984740e-03,6.880844108730066466e-02,8.020952986288432465e-03
3.263304512008645408e-02,5.324856671104563621e-02,2.538793189786993105e-03,7.396157954207248804e-06,1.159238769351209194e-03,2.383944946786791582e-03,1.042766517875393486e-03,1.241227962645737558e-04,5.896027884200953639e-02,5.584483835935267516e-04
8.580843716685344902e-02,5.680596782349934398e-02,1.663972426812442007e-02,5.497200868043028257e-06,5.790608215381375969e-04,3.493356382323709129e-03,1.624383206278419423e-02,8.211542778339098528e-03,3.878499172524853961e-02,4.431988132284049586e-03
1.198825373446506110e-01,6.727603270695846349e-02,2.068832442253058443e-02,1.799202199946861900e-05,4.313033694319269584e-04,1.043256088520254539e-02,3.896527706315661144e-02,1.435796478114296885e-02,1.470717072020882345e-02,5.694254854573019275e-03
1.217542266784411992e-01,7.317766992280273775e-02,1.186313938199818827e-02,2.979489038312317078e-05,4.394209588542698458e-04,1.466410176023383478e-02,5.477492488635194584e-02,1.853163203416570426e-02,2.729009326710961358e-03,5.257217118001276078e-03
9.809866725243664154e-02,6.426070841313706594e-02,1.915664928825891282e-04,4.063316238893074813e-05,5.551729363538222134e-04,1.429941105474107597e-02,5.218289827909709799e-02,2.058488865423882541e-02,1.194668444544269917e-02,5.659818444240368937e-03
6.289926286407872269e-02,3.467110230362265705e-02,6.274362948914608690e-03,5.026161989116108563e-05,1.120981561066655436e-03,1.023883247652841721e-02,3.316539218233946484e-02,1.870168785020746849e-02,2.383403499581872309e-02,7.527806908505380902e-03
3.250486764265356210e-02,1.175700167783751485e-02,6.871961299201660191e-03,5.846839414931127594e-05,5.507411733314429396e-04,5.368544183307478838e-03,1.093081868405186390e-02,1.172273880971661138e-02,4.792384662394453404e-02,9.216508779332253237e-03
2.971101219911714136e-02,5.497204718458564843e-02,7.428561934605685570e-03,6.508001571817099388e-05,2.775869298511489543e-04,2.391855676498732489e-03,3.481591337354951292e-04,2.124751014561152875e-03,7.682302707617959248e-02,9.155915439191784216e-03
6.491948049728971104e-02,6.722687008703712164e-02,1.070405847166091585e-02,6.996547060724814270e-05,4.535737776944238084e-04,1.407841535241669733e-03,2.661654537802704990e-03,5.875213962610485036e-03,9.120986838509739791e-02,8.691151014684751069e-03
1.106926548765363727e-01,4.283791120400263358e-02,1.523183576449391695e-02,7.303917108344227030e-05,2.058732068709025144e-04,2.721948373120080481e-04,1.100667711203009991e-02,1.023623824926353856e-02,8.141409369994306866e-02,1.063822340444785935e-02
1.240104620920380457e-01,1.617276265054010814e-02,1.678992933885016525e-02,7.426277447745680438e-05,1.209070499108964197e-04,2.005360314738765734e-03,1.630301867286894357e-02,1.118551179953273904e-02,5.880262028270599739e-02,1.470172979151719919e-02
9.996226101738134306e-02,2.980269401190722978e-02,1.082275765432667153e-02,7.364580678466804784e-05,2.292280765628409143e-04,3.624143446175813986e-03,1.888691204185588210e-02,9.882696835587252010e-03,4.374286328271296403e-02,1.749494127641292376e-02
7.193012465368460451e-02,8.308916013073179563e-02,2.702554350778319826e-03,7.124508344958514598e-05,2.718721675723233559e-04,2.780235511129088097e-03,1.934489887305929426e-02,9.230250746452400498e-03,4.518076277928931989e-02,1.759313085140567362e-02
5.587459195317721894e-02,1.319868558148893922e-01,1.669990397586292030e-02,6.716296204558111623e-05,2.035388326548526888e-04,3.745671400177982661e-04,1.285136193053005270e-02,1.211284626854059951e-02,5.394341077341108931e-02,1.613085382564315509e-02
3.882902121174321847e-02,1.385031219171487804e-01,2.287574056450451809e-02,6.154447890119695680e-05,1.545294207423483345e-04,1.685512967472094096e-03,1.061235157570011509e-03,1.610963796518904631e-02,5.461425661640814666e-02,1.190742865299948029e-02
2.390884934188650460e-02,1.031510514115977079e-01,2.103499921273894319e-02,5.457342257705549509e-05,1.996183484992353414e-04,3.188912937129540544e-03,1.348082556748102061e-02,1.474411882817723042e-02,4.252099023841393599e-02,2.459951741408171987e-03
2.852457745589027927e-02,5.671984309557508153e-02,1.993793150452698171e-02,4.646744714779195212e-05,2.584770002789785128e-04,4.668614772917871816e-03,1.745426790449458240e-02,6.797023482609043134e-03,2.869839783675977307e-02,8.540026061970525106e-03
3.521288082341396397e-02,3.374034745320049489e-02,2.792717626182540311e-02,3.747240891666164315e-05,1.850955049333990229e-04,5.460426216697259090e-03,1.579971806888768801e-02,1.146596588615262594e-03,2.611538372790687609e-02,1.279161342279562866e-02
7.938428962860405100e-03,4.246938820697394867e-02,4.396092977059140594e-02,2.785607874000131074e-05,5.683784342954071168e-05,4.860511554563231792e-03,1.371183506877007331e-02,4.162775769063344761e-03,3.193755208810974966e-02,8.792023273704790975e-03
4.064273001802062857e-02,5.653717190238755075e-02,5.832749587992706181e-02,1.790127273258215792e-05,1.827864631066504074e-04,3.870950155081204994e-03,1.152134174758752058e-02,4.622743655902394368e-03,3.137596564216012240e-02,4.509224027654168930e-03
6.038774958091001899e-02,4.891890872627201181e-02,6.177715619930697344e-02,7.898560983696234494e-06,4.582554322569066152e-04,3.955953815520990048e-03,8.256374914216145847e-03,5.123355206539066675e-03,1.998844330106434863e-02,6.376362631319850566e-03
4.077385441282018602e-02,2.400376736141021650e-02,5.336825188559570637e-02,1.861009231153666788e-06,1.825595122274125293e-04,4.922090220664916520e-03,6.748577887013946196e-03,2.757175088424579888e-03,8.666199654372768943e-03,1.174581797786534987e-02
1.740914840228847960e-02,1.955359978679691805e-03,3.851731652323441002e-02,1.109295475754016352e-05,7.125378538304303613e-04,5.327815489311653330e-03,1.074800089673508957e-02,4.447493518901520990e-03,2.328092838229493984e-03,1.388137929637853207e-02
6.047322391085568384e-03,3.083610606109273705e-02,2.132166641924652939e-02,1.952652533601661344e-05,1.061441975623898717e-03,4.518707352526738115e-03,1.785950677382747848e-02,1.098756750994392233e-02,9.464995722926358018e-03,1.000694479201507184e-02
7.669356275677751029e-03,6.496456851296181223e-02,3.254927222389542452e-03,2.691191897790070467e-05,3.165118036182808128e-04,3.259029180741106202e-03,1.946968561652194854e-02,1.006780148189523848e-02,3.180942090954280016e-02,3.848253539087231282e-03
1.323546954850114699e-02,8.034799804558452607e-02,1.078300158254700929e-02,3.302621961605191195e-05,2.083492089134231619e-04,2.357404119802728078e-03,1.074448901235268948e-02,3.030464264342073912e-03,4.994385820767204692e-02,2.462014728809698572e-03
2.319639296705444664e-02,5.246380717375880021e-02,1.171892476017502745e-02,3.767767679104298638e-05,4.392458183223357294e-04,1.634155296879772267e-03,2.797509998141615040e-03,2.952162297963881361e-03,4.783915566465539448e-02,9.425330282382836725e-03
9.167149607281509238e-02,3.195489048168792881e-03,3.449644850962298864e-03,4.071066878519204299e-05,1.023451940594194854e-03,1.006900808637088522e-03,1.357310083975915918e-02,4.493318216366806901e-03,3.091304014734863950e-02,2.076480675103809653e-02
1.340294125431324146e-01,4.621026855012495133e-02,2.388161955026187749e-02,4.201179847678838589e-05,4.120141842681671746e-04,1.701689888185798066e-03,2.228996287622768066e-02,4.546398091177637595e-03,1.850016273092615349e-02,2.956891797311506781e-02
1.213985121462211741e-01,5.657570381249784480e-02,3.405175844315615902e-02,4.151177265570243593e-05,2.614052073580828885e-04,4.460748511554295942e-03,3.275628976820793570e-02,5.833710668251461742e-03,2.009316385993856549e-02,3.236939088408380405e-02
8.406789813235997222e-02,4.127055188915496747e-02,2.983754119777747710e-02,3.918167698602764438e-05,2.381942686673323357e-04,6.552499711008952926e-03,4.034165492711956624e-02,5.042135491442991876e-03,2.786781591544462353e-02,2.860099742649124116e-02
5.399628352062975367e-02,1.046838323401227261e-02,1.929021537066289219e-02,3.503482423440936594e-05,9.570823334765565316e-04,3.386290402571778997e-03,3.505183099393469753e-02,3.312419349123197406e-03,2.887548203192577198e-02,1.906650753810805801e-02
2.704914334564340744e-02,2.561902932199201441e-02,1.015567566976590189e-02,2.913730437938184966e-05,5.835697128819200899e-04,4.933513302915399842e-03,1.689977721594565843e-02,1.569507433695519968e-02,1.954778913872826790e-02,8.818955631670491804e-03
5.815559219207867662e-03,4.550681694586076326e-02,4.994321063561392611e-03,2.160340601011970620e-05,3.312089991263295671e-04,1.111329750263008280e-02,1.250951887954453601e-03,1.771077258957686959e-02,9.224308702478591429e-03,5.943678655074680246e-03
3.073087846162187234e-02,2.990925840989548321e-02,5.433702215492874736e-03,1.256865097099385791e-05,6.252513536888261187e-04,8.385967153047223580e-03,3.725151757317126874e-03,1.075008850884593163e-03,8.537817176113267695e-03,1.281058289581245464e-02
2.828481830285451554e-02,1.159844661455460349e-02,1.177104570629266926e-02,2.191276089156520326e-06,3.734869183352432665e-04,6.996372973077176396e-04,2.186620742270181661e-02,2.249996182263781785e-02,1.423381506246306286e-02,2.200567729172141912e-02
1.845733065215212146e-03,4.606231412900005373e-02,1.989764401257252194e-02,9.300800289390496217e-06,2.686279919626579173e-04,7.367155181351003890e-03,3.761590578458433309e-02,3.437762338418428459e-02,1.272594750901254873e-02,2.424664752564292813e-02
3.675660964357491817e-02,5.172302366988588973e-02,2.453987832607093869e-02,2.162535862970613605e-05,4.004834047000652695e-04,7.354618787901791820e-03,3.749170021937600628e-02,3.098394132410386623e-02,4.609270182433043012e-04,1.797298584943616759e-02
4.633220348645767511e-02,3.305323268966237765e-02,2.350723920963143296e-02,3.456245209484469337e-05,4.762547085030141352e-04,4.025817714016960251e-03,2.372268343111476677e-02,2.279503791085894099e-02,1.103837226911763732e-02,8.710573371560167283e-03
2.336740183482892419e-02,3.981160333407446697e-03,1.710432167902294076e-02,4.794248804187991540e-05,4.505852291886301882e-04,1.441850022881518457e-03,5.558273691626144236e-03,1.692470498044482477e-02,1.394646966284729048e-02,1.173468807116123279e-03
5.415594564462968691e-03,2.544779607527627302e-02,7.277846482741025247e-03,6.141640285872139459e-05,4.355649213742671306e-04,6.817186341352777026e-04,1.193541944374547359e-02,1.093895607029148585e-02,1.288593703312742103e-02,4.669042414885376038e-03
1.363371675006060449e-02,4.690180957320744248e-02,2.835543145258813055e-03,7.449562582412740824e-05,4.424427539990357641e-04,3.619863989847988805e-03,2.674169922541543704e-02,1.432583276775034175e-03,1.020749344560203595e-02,1.022608859347620344e-02
1.043670889551199035e-02,5.651272873624866439e-02,1.188031136756717565e-02,8.706499549622851981e-05,4.673695141920795166e-04,4.932485787160072709e-03,3.402802602562073064e-02,8.844174017518881964e-03,1.886281368755824122e-04,1.444349298975978156e-02
1.785891490225209946e-02,5.889756315732688763e-02,2.108446162457829065e-02,9.933186614990580099e-05,5.299894282163935752e-04,1.028220060931220618e-03,2.878098049811138315e-02,1.347143027319775907e-02,1.715460639385196079e-02,1.496851269074962396e-02
2.436343204620568942e-02,5.616468784485832005e-02,3.046662122694120470e-02,1.107499452407261653e-04,5.287578648453191994e-04,6.415184900904478613e-03,1.341058141679570687e-02,9.672290322792357134e-03,2.610897246167638575e-02,1.153245843981198435e-02
1.609067096278340818e-03,4.302923231474355820e-02,3.729816486039812945e-02,1.201194499191680226e-04,3.963544513558401477e-04,1.118422894912363651e-02,2.931772738908224128e-03,2.076663924203303591e-03,1.786965883312934336e-02,6.433525530427627002e-03
3.316341497361799395e-02,2.513774249395637345e-02,3.879838682531725619e-02,1.279060546611284388e-04,4.011292774348905054e-04,1.049392128923907867e-02,1.288915865922755401e-02,1.462277136157821020e-03,2.778696860072692957e-03,2.442302397658219649e-03
2.799090169242443235e-02,2.253664919424318985e-02,3.337498713904263337e-02,1.361036226666022741e-04,7.165061124707576426e-04,7.492142411518373443e-03,1.449248743052518676e-02,2.104629406354357503e-03,3.716768495812715605e-03,1.661051714938462792e-03
1.656902962412768951e-02,3.816296922774517486e-02,2.040965693495009475e-02,1.432920137888710286e-04,7.166820287372768338e-04,4.533373149631376997e-03,7.287808732636737521e-03,8.147633662613000538e-03,3.055770132504070837e-03,5.378017886495200725e-03
3.559684133956352026e-02,4.753874060414577801e-02,2.741589305634391065e-03,1.448124258879805303e-04,2.868973355477872971e-04,6.064298234125395587e-04,8.631815977759027536e-03,9.832191255575229924e-03,1.003729547267149212e-02,1.259116632404719445e-02
4.807188702344502435e-04,3.913488144244830352e-02,1.162090184484142023e-02,1.433348885403929623e-04,1.547900610525680632e-03,8.801996503553562862e-03,2.748813997929122621e-02,5.482586722142534369e-03,2.868664705891914302e-02,1.848866500467633359e-02
3.962676257763838444e-02,3.494878088694881174e-02,1.495764400609551729e-02,1.487646972711629417e-04,1.550099511562988679e-03,1.437018743947605925e-02,3.719435048591309551e-02,1.871184353860323550e-04,4.417232409512152069e-02,1.703672852788411934e-02
3.150233190597037658e-02,4.747758808927284718e-02,8.194124149608876181e-03,1.556736531808622880e-04,2.969397703964361769e-04,1.081868980988380004e-02,2.979430459811159213e-02,1.649808238530200803e-03,4.354169914431020583e-02,7.317310451191344316e-03
1.776095745300686939e-03,5.030653846155333508e-02,3.119618073482558797e-04,1.429094813615740104e-04,6.854604710656548401e-04,2.260794701534202256e-04,1.179808129672421484e-02,1.631094925227344859e-03,3.251140908983319450e-02,3.914109035259894648e-03
1.166590374586812598e-02,2.168980600442527162e-02,2.526237809968682156e-03,1.217803020938246900e-04,6.605123915566487930e-04,8.069341557374669696e-03,3.925445654086832936e-04,5.412684507616141033e-03,2.282483466012109538e-02,8.615652928480656628e-03
4.971209371248910824e-03,1.507600678020272998e-02,3.423744435014933196e-03,1.381442891139991367e-04,3.547963708444098639e-04,8.031625653866437259e-03,3.599753896697584915e-03,5.825145280515258914e-03,1.476567364805554325e-02,5.567823838507283962e-03
1.668165578074005950e-02,2.922810147950683987e-02,6.899254156931352959e-03,1.695425282605573245e-04,3.788952212147671771e-04,1.929029908070725458e-03,1.854966034051810930e-02,2.651909912619727656e-03,3.955615749217408599e-03,4.737811905049728496e-04
1.421198133279214307e-02,3.191699277591806411e-02,9.800909090324003495e-03,1.179055143818422049e-04,4.719421305819068214e-04,4.661625333705283862e-03,2.996885218870402531e-02,2.326331200487863782e-03,6.146449726867384868e-03,5.912285754525984857e-03
1.769436212098733641e-02,5.020658248559368292e-02,7.155047861146829509e-03,2.902379931697512329e-05,3.951486406468407040e-04,8.329716403756310533e-03,2.925971767396875686e-02,7.184091322925443418e-03,1.188104966607725528e-02,1.067106367252380721e-02
3.191996735197183410e-02,7.417523106011707223e-02,3.009442292300568058e-03,1.167421540884108690e-04,4.100931173714882799e-04,8.329579213079647826e-03,2.133397274895353080e-02,9.183217804533764725e-03,1.889719338708220966e-02,1.464282762713741727e-02
3.115946998035191290e-02,7.200701500667393284e-02,5.629174155972804794e-03,2.987621776260760624e-04,5.709352698705732164e-04,5.349971087148549034e-03,1.539130440178994308e-02,6.516946853117208845e-03,3.146623738165761630e-02,1.629519430078629413e-02
4.682810517729530829e-04,4.627061514682963284e-02,1.294430521602976322e-02,7.426619023067277715e-05,3.981734907955659019e-04,1.125744742515275964e-03,1.213079935040849849e-02,2.164541938551043602e-03,4.168954133782854649e-02,1.558925584965423911e-02
3.665297871872397195e-02,3.319807678344766783e-02,1.344575448431963721e-02,6.472467326753615462e-04,2.692338945708440119e-04,2.028987361952195537e-03,6.855329842449473313e-03,1.117627322098744972e-03,3.997429678138763459e-02,1.531278285911602532e-02
4.702697728921743925e-02,4.646945702093829844e-02,3.730835811729003079e-03,1.127657609208448236e-03,7.940142049018716246e-04,2.683499532356090848e-03,9.983439077520892685e-04,3.454995020372679006e-03,2.902074654497288977e-02,1.764213036535535253e-02
2.142332120802450252e-02,5.863252535811956656e-02,5.031110314263231853e-03,8.013557936057530678e-04,5.670476135823178691e-04,1.270537186469536828e-03,9.261832935168819343e-04,5.918969602466342926e-03,1.990969079677768969e-02,2.067098350219162203e-02
2.744849458299980158e-02,4.674145910120426628e-02,2.429918191834742197e-03,2.440922891324442848e-05,2.975104124999023618e-04,1.188765249970555153e-03,7.724227785037031217e-03,8.852994851748431648e-03,1.876529898921159428e-02,2.047432037609130118e-02
7.447461971938161562e-02,2.823694069478905125e-02,7.840572994718192010e-03,5.082242262377822430e-04,1.075173323650318582e-03,4.311514018696652531e-03,1.597836289666878032e-02,1.462239555080961650e-02,1.976956273820397805e-02,1.575793733407179764e-02
8.661456647991586100e-02,3.432003390114023861e-02,1.456014911707701441e-02,2.883970314915799841e-04,6.882505901599536265e-04,6.864896474071608030e-03,2.017058404382367914e-02,2.087786160739688382e-02,8.094570038636988291e-03,8.233921123811802772e-03
4.704100439708645831e-02,6.216833069699927855e-02,1.290455215212726707e-02,8.068846531951941225e-04,1.205728881257434092e-03,6.251456767927561671e-03,1.711426999381144426e-02,2.227147715440327969e-02,2.618212411117798802e-02,2.335608664384325635e-04
1.630100870740572652e-02,7.731533241289403890e-02,6.994249744517911857e-03,1.962657959940674289e-03,2.894125173480375027e-03,2.056563165996321690e-03,5.714254185739285272e-03,1.850909489873817093e-02,7.103655865858975182e-02,5.342567769905696810e-03
4.855917447283367161e-02,6.366652132141939480e-02,9.228629640968299182e-04,1.913640660725135717e-03,2.268278056088130976e-03,2.242215239755589607e-03,1.139948748501199739e-02,1.568448113485676476e-02,9.811306511523248952e-02,5.731176767102146713e-03
2.616018515853622134e-02,4.375386439918963616e-02,6.662396538004536004e-03,6.990404833564110507e-04,1.016866158966762176e-04,3.785577668228239274e-03,2.782618338503968156e-02,1.865214412821929527e-02,9.471373437124380734e-02,1.863183525985007746e-03
2.006716523284964027e-02,3.834070224642890934e-02,1.600191524981180863e-02,2.850263151650785694e-04,8.300216391996332330e-04,4.062532338416659922e-03,3.660456975475807895e-02,2.498139138498108383e-02,7.798752732950987865e-02,2.252950231049285698e-03
4.986522839400254342e-02,3.636208898529145334e-02,2.034843400727289961e-02,3.116371774351479255e-04,8.794318357100089703e-05,5.750774473908783907e-03,3.407835005045969229e-02,2.822147416064975031e-02,6.659549818034059265e-02,5.311845305863871491e-03
5.566226199331739122e-02,2.341546279211466006e-02,1.384673574396744732e-02,1.487232686323172834e-05,8.371539842877072065e-04,8.395879455414851852e-03,2.281016970924016826e-02,2.524295952230692572e-02,5.580023879673184917e-02,9.519120791969849782e-03
4.353968710153905547e-02,9.186301123129781560e-03,1.398567477452363535e-03,1.593706117575290613e-05,3.844728005318089883e-04,9.568297776269886826e-03,1.006624474458928283e-02,1.786441649455910996e-02,3.530239746401446499e-02,1.511036473363341903e-02
9.945678181691361072e-03,6.094683037248471713e-03,6.138357618194843074e-03,1.640472211652200998e-04,4.966505613286644144e-05,8.327226220901111711e-03,7.874706170938965653e-04,9.263232942896973757e-03,1.294346528117545740e-02,1.887325879568799852e-02
3.358682773432501018e-02,9.375492360156882643e-03,3.840428958981867771e-03,1.820716486036725462e-04,4.739973283062809601e-04,5.373579241049392975e-03,6.589231308103643374e-03,2.122842961500065549e-03,2.376107967692049454e-03,1.825694779712018143e-02
5.272683489462511724e-02,1.334714076425144030e-02,4.056164453353926572e-03,1.318938123584201217e-04,1.134325442201613481e-03,1.109201116841967939e-03,1.528479794619783116e-02,1.992148007802017722e-03,7.800087744779119273e-04,1.318948392182637749e-02
3.836459150872484347e-02,1.921556624164504415e-02,8.705961290979837355e-03,1.424450927454737857e-04,8.550736402826176466e-04,3.947205490394492880e-03,2.322145878329263599e-02,4.644609091728015005e-03,6.166241561199613946e-03,4.767740071993009122e-03
2.070834755134612348e-02,1.862204166512932205e-02,2.672369322208221869e-03,1.852905266035139787e-04,1.055130997292615694e-04,7.064372807358628922e-03,2.391441957312978248e-02,8.863910507410404510e-03,2.620627150863650418e-02,4.824438258171938158e-03
1.494621208812598953e-02,1.368994444601020826e-03,1.250443053716664837e-02,1.999058973522476075e-04,5.935512838488595606e-04,4.849000559058058539e-03,1.476442985721948889e-02,1.324726890543432949e-02,5.475708508480682524e-02,1.245171546718807851e-02
5.066145737127721038e-03,3.129999938893424094e-02,2.411739671971407928e-02,2.004381774485626197e-04,8.281836519170576586e-05,1.435425779102152090e-03,2.043537538597099430e-03,1.240901602171790193e-02,7.802049516351927672e-02,1.621983774008982360e-02
3.241330740194330040e-03,4.539532785152058242e-02,2.130645909912402478e-02,2.141114778097729862e-04,7.734447115135642970e-04,5.152028786895306196e-03,4.566425374495967915e-03,5.636379117018812564e-03,7.981455950434775126e-02,1.639679690979211138e-02
2.296141625117794488e-02,3.974286999924525610e-02,9.938290879326922705e-03,2.302253259455416606e-04,1.083767320142724850e-03,1.833582931622677924e-03,5.717791193368246174e-04,2.808821175384274352e-04,5.595705088218978079e-02,1.396568583421498554e-02
7.454437954798998067e-02,3.628383099029870024e-02,5.564990369725190261e-03,2.375800918587360976e-04,6.754430610174087541e-04,5.020618191739515020e-03,1.155487378039272289e-02,5.360236928111313274e-04,2.266437003966333824e-02,1.065196777442447423e-02
8.934284694553293327e-02,4.260829039686621356e-02,1.226932605207366883e-02,2.496343217621116266e-04,2.532665422397207256e-05,8.758025348310183658e-03,2.518250425442444471e-02,6.666808566056302288e-03,1.779780170425104705e-03,9.581723020709129179e-03
4.244159276644804413e-02,3.955272023029109130e-02,1.858904217619929480e-02,2.676611604879194873e-04,4.031633117218264679e-04,7.817038395524457048e-03,3.183477007595241631e-02,1.271076664051790268e-02,4.738711309464390797e-04,1.213174359023267909e-02
9.452812864912157192e-03,2.070062884922651419e-02,1.544893749149935797e-02,2.662762909247913339e-04,6.079265895399957667e-04,5.686298180267891113e-03,2.505395397416469369e-02,1.397693234330224694e-02,7.996655632287132456e-03,1.498804533434522357e-02
9.840197407508539246e-03,1.274803293163859728e-02,8.724959731457284512e-03,2.523864851876622965e-04,7.072850436421734138e-04,4.283110761331397794e-03,5.663401855940918168e-03,8.436796768426499393e-03,2.135466555133351887e-02,1.425395991776848108e-02
2.372722866792351809e-02,3.721489842769622192e-02,9.583239571139942972e-03,2.785851888489879104e-04,4.298266553072612145e-04,1.668923744206528541e-03,1.767954154871677341e-02,3.473572773812260220e-04,3.744811048327100628e-02,1.138099925183256624e-02
4.511534877732020776e-02,7.450332147939137117e-02,1.777571175387263752e-02,3.264429552245324780e-04,3.162970871148993845e-04,3.030652556902691062e-03,3.446840433163740613e-02,3.999609252294678528e-03,4.767130427314537899e-02,1.117058413473704347e-02
4.707004067476964343e-02,8.807609113936791523e-02,2.136714758439247144e-02,2.837553941467499700e-04,7.782844295983958830e-04,6.263788787993474459e-03,3.916962220853596049e-02,1.699438289018906194e-03,4.008911242032146133e-02,1.424019066247251067e-02
3.954621017989565224e-02,7.131964174256691380e-02,1.316440610456640938e-02,1.891590948548856066e-04,3.376553924097301629e-04,4.247598541370078105e-03,3.337450270646663553e-02,1.139338842316696236e-02,1.407785646689120249e-02,1.524696201802325929e-02
8.823550568538139627e-03,4.696175439897645743e-02,2.087636225199684286e-04,2.857291154531243029e-04,4.211463034254533922e-04,1.537615721659969618e-03,2.311137780506715075e-02,1.809874697888642567e-02,1.644500032999402644e-02,1.047962280820962169e-02
4.973680861437580758e-02,2.827884710991917031e-02,1.020787027536942254e-02,5.056920106105303268e-04,6.388037921157798315e-04,6.134354747960496339e-03,1.355732535246205808e-02,2.228515272081638132e-02,3.571257205701813819e-02,3.936875057138140843e-03
9.481604026319029321e-02,1.095145371141462327e-02,1.834194783268958129e-02,2.859513892763119775e-04,4.138002770791448679e-04,7.794227762482175415e-03,4.571867800039068272e-03,2.732507470408627320e-02,3.824245962334260618e-02,1.842338891144492188e-03
8.604982099463019674e-02,1.017679366744075713e-03,2.769618275455699649e-02,4.964125577886711578e-04,3.044976135275610394e-04,9.259768215071094433e-03,6.299248751169312863e-03,3.015969676805861296e-02,2.863966722631270181e-02,4.230204393646191594e-03
4.146594636714956428e-02,1.431355026385519591e-02,3.240611673324875902e-02,9.712499752655058159e-04,3.908604221100989173e-04,1.109984113728829623e-02,1.416549256457399868e-02,2.502678718180606846e-02,1.378327527592944357e-02,7.283531437357269531e-03
6.582628568479426817e-03,4.072262542136533686e-02,2.667691395582852745e-02,5.002253478833195658e-04,4.327675402236721915e-04,8.390332517681793612e-03,7.114354967229037131e-03,1.491750366151990692e-02,1.927088957817557884e-03,1.059528183044581087e-02
7.380820160332238547e-03,4.393165244687821658e-02,1.516309818754545125e-02,2.782961623099463331e-04,3.859203039844142378e-04,1.798398045019316063e-03,1.695920934159107427e-02,9.906240995109123759e-03,1.587958402102823685e-02,1.563398755167496462e-02
1.413754253522549360e-02,1.085734028707128519e-02,4.651647303691872071e-03,4.952023382699359674e-04,3.612871059737511083e-04,1.378710263809770215e-02,4.148794865570153145e-02,1.274571720813800352e-02,2.569662661268409462e-02,1.946166227339433952e-02
6.909750578549309248e-03,2.743991927512113085e-02,4.551215501479221812e-03,2.744258213161481917e-04,3.811004136793787775e-04,1.934596079760331558e-02,4.854580427292817107e-02,1.436219706344788252e-02,2.834887652532409874e-02,1.670223087604928019e-02
2.933752205095351007e-02,3.724997278688274571e-02,1.113218399470299221e-02,1.783112323440246428e-04,3.938243325773823841e-04,1.672504477401377115e-02,3.862292128417960102e-02,7.036161227074044441e-03,2.078291384215683740e-02,7.561056922737697909e-03
7.388727701066588605e-02,1.764790132933122951e-02,9.162744476509094779e-03,2.738163989794451534e-04,3.888260649351859112e-04,9.630121232591503516e-03,2.520946911184830316e-02,4.435181039261330144e-03,5.812217343642724250e-03,1.499062264800456092e-03
8.617516884386255960e-02,1.526173342152181527e-02,3.221062720800433460e-04,3.204259734298307155e-04,3.901423062854260642e-04,1.655463444147642522e-03,1.677942971951837045e-02,9.677548684131740200e-03,3.395471438497899615e-03,6.165008193580715293e-03
6.186694738242914937e-02,4.987266603731303066e-02,2.356692272135076267e-03,2.821226898003864549e-04,4.021966535428677823e-04,4.679548067688877461e-03,1.181890472866620363e-02,5.979166916034481943e-03,6.101470314745110514e-03,8.389452429024947880e-03
3.530154379630297962e-02,7.418831687614572956e-02,9.295852739421772357e-03,2.664726201338914690e-04,4.135097607869467340e-04,7.260374535879263701e-03,6.736596982583540651e-03,8.196748026247898181e-04,3.118979916814680273e-02,9.751020254875718621e-03
2.876033173029692372e-02,7.656217893540047392e-02,2.799308241785661983e-02,2.867616849550885935e-04,4.233050165234942294e-04,5.856597916808256761e-03,2.087903509023461730e-03,4.426860416298537652e-03,5.599943204272399278e-02,6.494380186189799807e-03
2.899175808121955827e-02,6.194814495521981657e-02,4.022489144206158745e-02,3.004694980940138824e-04,4.370233817082797641e-04,2.742809662284090115e-03,7.838403261466930436e-04,2.413723424909355961e-03,6.819237919102399959e-02,3.747038397336396268e-03
1.676991569833473361e-02,4.920283844884286439e-02,3.794631238810629303e-02,3.120131544907865737e-04,4.513029321910467899e-04,1.094171693496688363e-03,2.000866076649257704e-03,3.241956327767041637e-03,6.348835291941057335e-02,1.478792203209484436e-02
1.610233932601918844e-03,5.013207489777916914e-02,2.204014870009067886e-02,3.254387540384707654e-04,4.624106842439872750e-04,3.305017696010019521e-03,7.161202993244209294e-04,7.194635704903323652e-03,4.270997249928990686e-02,1.701974262729686466e-02
7.436155527571364915e-03,6.452637343586724306e-02,2.797008473213823728e-03,3.143904910116933306e-04,4.789256628469992934e-04,9.494130884885760083e-03,1.270317731443689445e-02,6.470542069207523526e-03,1.574193801395142381e-02,7.616641318827551549e-03
6.739586030020920313e-03,8.626452518510706324e-02,5.759591809764518996e-03,3.097615480623824012e-04,5.042008161923543751e-04,1.638581377662559624e-02,3.015684860081531068e-02,4.188554731456723898e-03,2.042346286046110848e-03,7.190811268176605132e-03
3.086313396611087626e-02,9.863704245823237682e-02,8.811267754790312297e-04,3.767186456117176856e-04,5.180321188390972845e-04,1.952992715057777148e-02,4.229111395032951470e-02,2.724061094864179723e-03,7.623325626970667464e-03,1.879207459507997377e-02
8.957030965149469226e-02,7.993278187452577954e-02,1.434179845724388794e-02,4.315848109397680209e-04,5.137120432293102584e-04,1.832137499062072919e-02,4.290654416549406769e-02,2.153602822755689220e-03,1.283938355368292872e-02,2.391837347705342773e-02
1.441443542704295422e-01,3.336554427441922044e-02,2.680872606505123670e-02,3.277876163992373814e-04,5.338671478100321614e-04,1.630546490453398112e-02,3.605599762043510542e-02,1.361782324171264581e-02,2.364267358685788467e-02,2.474387143443510656e-02
1.518002169389317813e-01,3.667071791211387252e-03,3.854458327866051165e-02,2.501948289778523700e-04,5.922015927952202366e-04,1.437127761043919053e-02,2.644008341348881228e-02,2.565453219047842195e-02,3.166359652515020329e-02,2.178286725898857454e-02
1.206321002210870297e-01,4.895792892462601589e-04,4.696963932331892771e-02,5.316671175884930779e-04,5.968192386978464882e-04,7.958731575383617626e-03,9.958262903060243615e-03,2.966445494872177457e-02,2.869251603901327302e-02,1.220283614508867708e-02
8.598185086656322251e-02,2.584922602445737655e-02,4.107411614347682843e-02,7.586617011868796020e-04,5.152857093949405600e-04,4.722240345301664810e-03,1.674758436967644509e-02,2.545373694223299066e-02,1.520650509643160959e-02,1.735142562395382282e-03
5.637190577579524742e-02,3.004490877462435289e-02,1.709190933650960378e-02,1.184209151327976332e-04,5.445291036331369877e-04,1.639649578328419843e-02,4.180813407882782995e-02,2.125290749818102912e-02,4.567490693169085070e-03,9.641001768220488696e-03
2.963403754115562921e-02,3.058538806696734554e-03,1.078337255692874731e-02,2.103828706044183917e-03,7.693916494791795506e-04,1.844980220828531386e-02,4.631286657959564346e-02,2.523606585369476962e-02,2.373962862961878986e-02,4.992765070207563424e-03
2.372042614358102833e-02,4.238091789152845928e-02,2.682747561842911688e-02,3.546664806424971225e-03,7.394099948239142269e-04,1.148481764119243728e-02,2.713756756296089798e-02,3.691048049397057523e-02,3.138012881340454530e-02,4.773080786903173556e-03
3.472895630260395411e-02,5.845307401548702902e-02,3.226265625223230515e-02,3.086122704023636434e-03,2.407491302044567898e-05,3.288280309666396454e-03,1.756501679239579235e-03,4.433900805592784489e-02,2.122617650773075265e-02,7.176139022589188114e-03
1.671304554797838071e-02,5.621365563420342021e-02,3.735236834928151034e-02,1.323168578491894362e-03,1.186636179630702701e-03,5.283199315893986892e-04,1.077718567795422910e-02,3.441389690724482725e-02,2.974761973930145544e-03,3.829914994896599801e-04
3.984280674442134546e-02,4.541430699218505090e-02,4.362721381688032529e-02,1.577499066810301651e-04,1.982111007565910948e-03,1.589732941344002915e-04,7.047104647401872778e-03,9.344199278946033888e-03,2.739088079885001591e-03,6.704085967387877522e-03
7.376356767769774725e-02,1.813886565594855643e-02,4.439339969475872977e-02,6.273319036746037494e-04,2.175892631590281394e-03,2.987373741029273298e-03,3.304810713823274834e-03,1.389929568898199547e-02,1.322868255604700907e-02,7.405850374952891932e-03
4.905662605647128499e-02,1.857828748054864143e-02,3.804194006999599142e-02,5.154334053483019444e-04,1.916333528731717362e-03,5.355454619179474129e-03,1.119272410383871999e-02,2.291997991619206670e-02,3.373368427034232481e-02,3.015019577568277785e-03
1.263781513807331162e-02,2.826083249293984134e-02,3.133061950992829803e-02,4.535996345834445538e-04,1.189960900289972019e-03,5.166962347420546095e-03,1.479657633715922120e-02,2.012253489497662848e-02,3.236580403877353795e-02,3.354736265306797888e-03
9.959513535799345563e-03,6.401258417802557256e-03,2.954174862837376930e-02,5.495920936200468336e-04,1.291180212314577602e-04,2.534035722818118314e-03,1.538307872491243185e-02,1.349260595903195234e-02,5.961663590563718446e-03,1.100209849250898160e-02
1.923575688018594465e-02,5.410834062895310270e-02,3.057710135930672563e-02,5.472012833608549433e-04,7.509312736883595567e-04,2.547545849518172839e-04,1.253510608342820777e-02,8.120933926623497001e-03,2.161428119487914662e-02,1.809416345490499900e-02
1.308377948023620174e-02,7.557577779366805859e-02,3.068909793414151960e-02,4.185519602156744672e-04,9.985994988065162448e-04,2.960131829046626340e-04,5.253816388599150816e-03,7.553398777493145616e-03,2.902728643991703619e-02,2.030099781698936970e-02
1.019734209304456324e-02,6.377519905268186351e-02,2.967971412364197453e-02,4.756938910638771039e-04,5.326536968591843004e-04,7.418759845280550229e-04,4.991256973987188983e-03,1.313508851743338743e-02,1.667068652147064844e-02,1.632294202613187792e-02
2.417670021259234539e-02,3.597795717180448521e-02,2.790650911184220859e-02,7.230003583398105253e-04,2.538050765726655397e-04,9.452652950596358329e-04,1.334655889715320558e-02,2.033438455426969313e-02,3.072862593814590371e-03,1.043584974421403813e-02
3.019291642575670093e-02,1.401198453322763729e-02,2.378482727844898406e-02,5.509768704212921224e-04,5.911038058047335354e-04,3.533185891629831484e-03,1.451955158016866344e-02,2.279144553964263312e-02,1.882322697551248175e-02,6.750444128244781523e-03
1.793639520509780760e-02,1.352556575572470311e-02,1.702503384081249793e-02,2.860789794104039011e-04,1.600963416414845320e-04,4.821480044386478384e-03,9.214771272340001318e-03,2.046055669119763859e-02,2.274894532896144100e-02,4.553375274128450972e-03
1.532961420290153247e-02,3.309543777488838101e-02,1.066911920507179062e-02,8.682121624858674678e-04,4.678068756305031909e-04,5.641811187089767338e-03,4.858115447236986684e-03,1.881909847882608233e-02,1.233839325192293869e-02,1.495658775995447991e-03
3.323607282479004721e-02,5.267552617930357922e-02,6.986345349726252874e-03,3.070169433773108558e-04,7.706131736140996212e-04,6.430177277062124573e-03,5.593458957351806274e-03,2.065841605487467661e-02,7.349446182221896356e-03,1.614077990888511437e-03
4.275115383290192111e-02,4.909196255034063705e-02,2.833417270860922633e-03,6.895103001861681898e-04,7.974025975537938878e-04,4.585601281723912341e-03,6.990944194669025495e-03,2.334456640886151124e-02,2.647873227755634384e-02,1.583451900789523093e-03
2.562934290281083244e-02,2.023166747070364799e-02,6.597301744668664265e-03,6.811700127221930216e-04,4.816122950336278684e-04,1.015100269917661039e-04,5.434786911113121191e-03,2.464143337629740027e-02,3.675662530686513163e-02,2.515238419484796227e-03
2.427034992227251539e-04,2.115273277728604850e-04,1.834424047954336806e-02,3.381875768945965394e-04,2.415528435265664343e-04,3.427837729923674005e-03,4.947953790103858801e-03,2.647751684168972441e-02,3.702410706496775394e-02,7.504982045969581760e-03
1.439094948987234071e-02,3.313481578001663264e-02,2.184728545333203611e-02,9.234606121319044892e-04,6.765742868384768977e-04,4.016911041369228101e-03,9.405292751027732184e-03,2.995105101012260004e-02,3.362542211298871764e-02,1.001458627897180639e-02
2.495841795189986112e-02,1.151202745485560147e-01,1.211100870437935295e-02,3.495739981265220215e-04,1.921533254494938803e-04,5.751765023290465739e-03,1.513856247943729146e-02,3.050152513664844758e-02,3.375848246878252606e-02,1.061427241720933404e-02
4.253766855672144742e-02,1.858237326133262979e-01,2.737695085848309423e-03,4.793104138608796929e-04,5.745800326074296596e-04,9.981366484202022424e-03,1.617552111483156960e-02,2.324122413597177680e-02,3.872658042910698956e-02,1.184009226958253509e-02
5.734837417255008590e-02,1.949204001738002734e-01,1.053208168251380979e-02,6.123097076212785303e-04,6.978086693054172526e-04,1.225060939885184823e-02,1.214137152310441892e-02,1.130024126004290815e-02,4.392148051104702994e-02,1.366045114799656346e-02
5.496778530470252527e-02,1.511164079187727050e-01,6.893590951083498203e-03,3.322845725940647382e-04,4.688406253122142167e-04,9.837789916003139221e-03,7.004930929290709846e-03,3.643014845664832406e-03,4.374062656734281629e-02,1.361220998927520180e-02
4.597511329973043986e-02,9.632231779007564831e-02,3.515138962471854936e-03,3.144329260121318977e-04,6.235825432575501856e-04,6.656924557889182595e-03,2.461583649768899536e-03,5.027377346335971595e-03,3.835176438325949011e-02,1.024141298943952692e-02
4.613850991282653080e-02,6.198549679462767720e-02,1.182272919434620463e-02,4.759355383729002727e-04,7.729124413058061907e-04,7.450757091714174142e-03,3.671311785036658962e-03,1.227766464031430568e-02,3.723274274636313025e-02,4.031986144200627557e-03
3.751973283053657710e-02,5.634585067393178826e-02,1.046564559132477819e-02,3.638750578638260845e-04,4.884402037612433983e-05,1.140786249075692767e-02,1.241544006627402427e-02,1.946223243280093690e-02,4.989228274802427060e-02,3.960228771078808108e-03
1.039255163172882104e-03,6.596451763504065924e-02,1.711375992670652497e-04,1.710219067368884144e-04,1.736629637256589679e-03,1.415624465938306910e-02,1.940045153087258459e-02,2.203433455005709973e-02,7.011184735108640098e-02,1.164461015977205811e-02
3.802758806304481348e-02,6.438934802907296528e-02,8.703214938768969594e-03,4.612939986327596457e-04,3.245188103366883608e-03,1.283627634893834933e-02,1.755703383221011646e-02,1.685400299048844808e-02,7.885431142980768582e-02,1.470316193231628425e-02
2.619834143489307293e-02,3.747774823624045598e-02,8.150573941738495712e-03,7.891799039201648344e-04,3.832798028151928379e-03,7.624555339812926803e-03,4.464390127191157284e-03,4.080020230763262840e-03,6.832715881525822099e-02,1.010279380745311359e-02
1.757920021002017455e-02,2.941174495485554888e-04,4.043231940525917993e-03,1.950745367454000752e-04,3.208613968901749981e-03,7.857000530186971417e-04,1.480212985450638299e-02,9.800158773839747275e-03,5.309489864264842901e-02,2.014160307344181871e-03
3.297750449705961345e-02,2.599356047338288039e-02,7.972450069720358676e-03,2.430828220235537167e-03,1.552374797148594558e-03,5.264351330694200769e-03,3.363758054091747079e-02,1.547896760290230940e-02,4.970830459515778593e-02,6.883666482153148010e-04
4.955352656566368655e-03,3.648734558631751279e-02,1.989017649006781518e-02,3.672685227683117771e-03,8.191217550974537953e-05,1.003347909911869555e-02,4.904251194507990713e-02,9.639644700172764549e-03,5.431845646894419011e-02,4.855801570377366733e-03
2.534033256551228297e-02,4.216970172442092296e-02,2.777062436720906941e-02,2.435736738194400550e-03,3.747897458715884159e-05,1.350439072730356613e-02,5.766434463561317947e-02,1.512963982644273224e-03,5.011648095748636594e-02,1.262118221730864492e-02
2.660028469124595812e-02,4.081504932754401876e-02,2.318488065902360104e-02,2.145813049917007155e-04,5.102087445272094745e-04,1.301853671962133023e-02,5.353301393082924436e-02,8.225454122644214328e-03,3.137627902444869304e-02,1.727495229755261763e-02
7.002164912110751468e-03,1.791758656254802476e-02,9.921753297917838138e-03,7.693244442314252406e-04,3.098577049594711946e-04,6.294133369295643043e-03,3.708148437067220610e-02,6.369788098036504621e-03,1.000735700066074721e-02,1.947780763853231012e-02
9.432944764479887778e-03,2.729479506293757546e-02,1.146296877091756202e-03,4.560129815268280191e-04,4.944787160054521036e-04,2.808528100150392993e-03,2.043379953128440438e-02,1.341644365447955227e-03,4.305053137840849503e-05,1.990006597031230770e-02
4.261814792581246347e-03,7.422506863938146959e-02,1.293833220021554237e-03,1.411008922902314900e-04,8.268559697585086679e-04,7.401318863891544718e-03,1.609565030727377194e-02,1.898630830225029242e-03,5.777973334523290629e-03,1.650606708223745570e-02
1.909006330548767422e-02,1.027884453341785242e-01,9.156188118822702546e-03,2.758067787730304602e-04,5.870477951075410514e-04,5.599882976870210194e-03,2.577434490588269983e-02,8.682743465958601276e-03,2.607638509343791419e-02,1.022524152253873747e-02
2.534165693297191213e-02,1.098096312174147854e-01,2.116342374539354268e-02,4.126612379058027360e-04,4.256133633674861441e-04,2.219612980935611315e-04,4.459895848274739866e-02,1.168009837265128123e-02,5.776315892411827690e-02,5.300257558078920808e-03
1.469892185814013728e-02,1.015158430241562132e-01,2.612588918267629706e-02,3.451742619065358594e-04,5.154591080665447663e-04,6.486972799223127487e-03,6.700826900550879706e-02,2.421205352659311534e-03,8.915073641273876803e-02,2.107528898943365932e-03
6.819408705058885301e-02,8.228173468237851007e-02,2.303676904043099050e-02,2.737183465919300123e-04,5.743510202472123984e-04,1.239107787404191731e-02,8.340119806206598707e-02,1.424251171630295382e-02,1.024603049493353485e-01,2.630371708368231098e-03
6.793902791817754694e-02,5.512701159562354708e-02,1.512780055051415884e-02,2.964076656214358952e-04,5.137063906247036488e-04,1.374049936193500257e-02,8.121449207781931967e-02,2.525502364761381471e-02,9.068068012414606804e-02,7.144914095592816254e-03
6.508924993795420222e-03,2.444832980803471681e-02,4.222527395775072662e-03,3.207189579167485285e-04,4.635343730931327610e-04,9.245419675624378872e-03,5.588367622036771731e-02,2.398950106823567741e-02,6.353492617994530023e-02,4.259032540593324714e-03
5.319422705274248764e-02,6.126076182410149749e-03,8.310733504847234165e-03,2.995196774362155119e-04,4.671905763925847887e-04,2.427624291013433591e-03,1.500519280817880913e-02,1.450057935768623261e-02,3.357151981860038992e-02,7.895828185149344342e-03
7.384641493624738429e-02,3.441530818749322096e-02,1.928590421299644642e-02,2.754691696102973524e-04,4.646024784031465736e-04,3.555774467574954710e-03,2.928682898699513232e-02,3.527808413691677168e-03,5.695056279125508721e-03,2.141261408620561552e-02
8.167329330501292561e-02,5.842147055301068204e-02,2.701512795437049572e-02,2.711109907328829649e-04,4.349815863703813696e-04,9.103184086126819494e-03,6.600844772715182274e-02,5.122109096581154222e-03,1.950544739992837034e-02,2.717749858347633107e-02
9.167760236614350133e-02,7.818768381853878624e-02,3.419416926193413059e-02,2.667388400595460478e-04,4.064782863198771975e-04,1.371804256897018494e-02,8.636569002323010724e-02,9.180797901619229887e-03,4.237062844220805535e-02,2.327965602765258088e-02
7.354420342842128699e-02,9.623502542535045112e-02,4.222955334211876688e-02,2.515875395482276584e-04,3.894943274804801739e-04,1.385208649392105466e-02,8.592522398850205301e-02,6.653510946017052521e-03,6.441266639862369692e-02,1.403793728456906482e-02
2.305855339132164769e-02,1.126960642443821936e-01,4.534339811637424361e-02,2.348223559600238900e-04,3.713396586737800591e-04,7.776018189888945706e-03,6.486714392687166486e-02,2.966854738950273039e-03,8.501600812284411390e-02,4.791944750801710971e-03
3.645384737540499805e-03,1.240441472843983040e-01,3.759900895920765401e-02,2.217022066015600238e-04,3.473393981713438806e-04,2.026830936495531595e-03,3.003838617663965455e-02,1.661305151388456358e-02,9.959692183853685599e-02,1.141278940275997815e-03
3.229944554690579450e-02,1.292288699918510420e-01,2.358761811056447541e-02,2.081406028840481002e-04,3.237024499200647312e-04,1.171897577143534916e-02,3.569671237507656726e-03,2.605230411488707737e-02,1.056314032800784869e-01,2.705706171096567032e-03
9.206808669158847436e-02,1.311953809636587087e-01,1.363858073287678614e-02,1.917977217900934130e-04,3.030812251546254337e-04,1.687483679436473788e-02,1.483995111783033803e-02,2.243755443754274700e-02,1.064022504815831521e-01,3.600594360597798946e-04
1.113886663315227371e-01,1.296489576964407475e-01,1.061112292358440228e-02,1.747590069236160300e-04,2.830585410466355395e-04,1.308491747086387019e-02,6.581170557524065878e-02,6.681127686263194088e-03,1.043950491693462768e-01,4.028099181323798253e-03
7.742393974478892216e-02,1.197950212968932199e-01,9.709381566972700994e-03,1.583696439395592011e-04,2.626731128311860148e-04,1.623029720874114533e-03,1.184410765706047919e-01,9.172963528445904346e-03,9.635023928741028032e-02,7.250564737869169551e-03
2.996198944551402288e-02,1.017877079032044746e-01,8.073734526596865885e-03,1.419122004447652028e-04,2.431637464875236127e-04,8.811405064871043885e-03,1.340720559326038508e-01,1.498733239658686135e-02,8.019619531792233913e-02,6.491629271658442765e-03
1.037827014086189874e-02,8.406252872557859468e-02,6.602494384341610172e-03,1.250037595738685608e-04,2.253631608888503012e-04,1.099910000660179327e-02,1.097958632416503877e-01,1.167991550536565983e-02,6.223481244315721278e-02,1.650202616719820096e-03
2.258692405206333409e-02,7.427297251297507175e-02,5.657817706931721376e-03,1.082386368728430534e-04,2.094014232491789600e-04,6.280754320412877158e-03,6.495525607314417416e-02,4.934718483086086155e-03,5.202619944828940773e-02,4.299238318188893133e-03
3.365179687334987624e-02,7.287114320174269133e-02,5.356051906379320250e-03,9.206784900372588147e-05,1.949648687450205545e-04,6.217212998831293889e-04,1.634118608015754787e-02,2.591583633613768825e-03,5.290369557199357808e-02,7.427600106727046819e-03
1.366437525404491302e-02,7.579734652343204926e-02,7.317223560828488987e-03,7.647851175697317858e-05,1.812171058537410929e-04,1.189709074163188560e-03,2.028904498538825971e-02,9.215024579342053976e-03,6.054478411102100222e-02,6.256461342828326978e-03
2.339548392099419574e-02,7.811723929469693850e-02,1.208338197170143700e-02,6.150876555938618328e-05,1.687022851971152308e-04,2.813146182594038723e-03,3.095341919172963502e-02,1.142082190321699019e-02,6.828363448018544279e-02,3.622093949125124689e-03
3.628166451047279417e-02,7.712943997812196639e-02,1.714030674646498109e-02,4.739860587583402327e-05,1.599192419886660149e-04,1.001410436567116979e-02,2.170116381933704860e-02,7.808126228190856270e-03,7.269923158841093414e-02,3.670519771201657348e-03
1.735740803760207202e-02,7.537658378775904944e-02,1.974326865638901043e-02,3.434542705709883525e-05,1.541176034311490177e-04,1.404027696906484310e-02,1.495224407318662858e-02,1.850116874298329654e-03,7.552358997924880912e-02,6.265588074325025188e-03
5.336331790620171475e-03,7.524435293885173293e-02,1.960135673860363692e-02,2.242574204639143141e-05,1.457513569456208549e-04,1.195014353116140987e-02,1.689719881299250881e-02,2.853706997973292237e-03,7.843891387594378872e-02,6.677847359422203581e-03
2.308163019098760649e-02,6.908264736618309476e-02,1.726992558969182856e-02,1.170465431107939314e-05,1.360902105497688969e-04,7.856789901665620079e-03,9.675680769104881215e-03,7.396008344010842304e-03,7.605658619258717779e-02,2.178277082660285031e-03
3.928241383490737454e-02,4.508494595780408731e-02,1.204962467327058868e-02,2.270537756769226050e-06,1.369217987193904577e-04,6.313258893487464982e-03,1.558758439876379437e-02,1.387827510289278525e-02,5.991665627719696546e-02,3.510066984123358814e-03
1.878165004169442265e-02,6.676352833687868721e-03,3.609415341156660146e-03,5.818309473134351925e-06,1.456071603594364403e-04,6.334782851539368272e-03,4.042922672520142535e-02,1.868543204174776678e-02,3.119981424054554114e-02,4.329087542490648449e-03
1.947078721082331002e-02,2.493078458883058249e-02,5.302160146753108136e-03,1.255220672522408808e-05,1.364855206437941282e-04,4.562510804062742259e-03,4.451936048702243715e-02,1.495696971238117193e-02,4.011925724585623659e-03,1.300218375883812477e-03
2.746305099697343363e-02,3.265122656514782978e-02,9.766234624896216743e-03,1.794609491006174740e-05,1.140501980958963022e-04,4.238610180158365300e-04,3.028980606110387441e-02,2.302575496970181001e-03,6.696846003516546651e-03,9.675567069067653875e-03
5.712939614152614393e-03,2.006517599302165555e-02,7.013653496933702422e-03,2.203040991536497515e-05,1.327336891770854405e-04,4.126311353809353905e-03,1.170759632453735252e-02,1.143662799113836191e-02,9.700813688933839635e-04,1.647359764225202194e-02
4.221658629296119736e-02,3.054934400068905556e-03,4.101282882238584636e-04,2.486115657072237160e-05,1.838123818717439376e-04,7.566923483853155163e-03,4.370270488244945226e-03,1.930270164211067563e-02,1.423395527091219151e-02,1.990789354323939733e-02
4.718907256849774745e-02,8.249713661539891107e-03,6.637694785025706305e-03,2.652238606592677360e-05,1.500716394736458501e-04,9.799309073586523131e-03,1.535624662904951088e-02,2.096190227588191554e-02,1.797890288240322834e-02,1.967376642775897286e-02
2.726275890194198442e-02,1.527291262001770344e-02,8.101469303209971051e-03,2.711877287277925775e-05,4.618314279522061603e-05,1.106207964772538792e-02,1.594246876261719292e-02,1.894257412215032133e-02,9.073485023300381647e-03,1.583115154558157808e-02
6.540680151696566871e-03,2.215419832456378552e-02,6.240866187796867762e-03,2.677088198349438281e-05,1.247263157121198296e-04,1.094763864291413598e-02,4.368187612354487367e-03,1.504598768409661121e-02,2.757420276814296321e-03,1.010208412065294499e-02
1.178048431694092395e-02,2.688146243499310584e-02,4.262503054772865882e-03,2.561444847682693287e-05,3.695048332712734789e-04,8.818896877842796397e-03,1.213935100604368253e-02,1.167934917476938332e-02,7.311758023647962727e-03,5.566681336689063321e-03
3.427713205770108185e-02,2.373649024795333046e-02,2.816458290409916583e-03,2.379789459816435544e-05,1.973274802122182057e-04,4.928943029386562494e-03,2.327590027994289393e-02,1.157251164249641778e-02,3.896973523051419207e-03,3.455642586110497030e-03
4.905973950593784522e-02,1.085014352933723163e-02,9.005543587268431769e-05,2.147751176300689504e-05,6.271022804088744384e-04,6.229939293741840189e-04,2.242700745358279860e-02,1.419726053014277317e-02,2.342343681421780316e-04,2.797113170107769393e-03
4.105792314691655842e-02,8.136414326803381031e-03,4.515393184360120410e-03,1.881313194310709955e-05,1.194937090096070010e-03,2.438389804120294664e-03,7.895327012265199867e-03,1.591511178365755119e-02,1.602228821068098739e-03,3.569608593463002421e-03
2.015106846974831431e-02,2.704042599771747449e-02,8.334620426670859283e-03,1.596472634558130852e-05,6.251501541131496403e-04,2.967645945330796807e-03,1.575595253771408522e-02,1.509030857799464713e-02,9.016537209446121720e-03,6.560048298639559010e-03
7.424677647045719274e-03,3.961458126819093761e-02,8.176463241282717898e-03,1.308875186527972430e-05,3.757102057437630292e-04,7.799742447055506463e-04,3.616330777660097667e-02,1.368846081453638404e-02,1.696553857431616630e-02,1.017430056214605610e-02
6.141787936359470110e-03,4.234676589929627782e-02,4.530607817602649509e-03,1.033416113364993730e-05,3.746402794518939486e-04,2.338923551589770083e-03,4.057880984986977912e-02,1.216093314151273433e-02,2.314862671680492992e-02,1.119009383290807055e-02
4.508073420093594054e-03,3.671509985927659536e-02,1.128267906708619933e-03,7.838761536311016564e-06,6.283473794760962910e-04,3.320071615117277820e-03,3.041807225849158663e-02,6.891924876956417867e-03,2.763928661829617370e-02,8.504594755137670145e-03
4.000396597857424838e-03,2.784102098490963406e-02,3.163261566778328374e-04,5.726103697613357177e-06,1.200276035419917554e-03,7.163219723074134172e-04,2.182582758892193803e-02,3.935875376081136856e-03,2.681765828317651812e-02,3.523073454916138877e-03
1.621955609443427593e-02,2.147362913153932212e-02,1.167333302250869731e-03,4.102699265567727113e-06,6.346751984249406672e-04,3.194559457386541429e-03,2.468947741997124662e-02,1.543950426434879258e-02,1.670371978790947606e-02,2.002600881481771036e-03
2.893555235250219737e-02,2.153188105741414560e-02,2.233915097708517872e-03,3.055575769123631764e-06,1.874347678352662294e-04,4.501844222901126014e-03,2.979419458776605412e-02,2.066457999578283355e-02,2.007224347234405019e-03,6.532811862119817722e-03
4.437109066553582282e-02,2.785000604886327114e-02,3.334795714785833160e-03,2.650351272399243812e-06,3.572929000735140326e-04,2.164678327678428403e-03,2.566933276096365277e-02,1.748190087759957795e-02,6.146300038705304961e-03,8.768448573441899735e-03
6.426739096216219083e-02,3.650035867042832061e-02,4.215806119160166870e-03,2.929923463650660835e-06,1.101133051153323266e-04,9.072516124372696040e-04,1.626333502914028770e-02,8.929547541594494431e-03,1.005469999395926413e-03,8.782595837702354344e-03
7.935059329469722200e-02,4.315942782284990648e-02,4.179660422833650010e-03,3.913746889103463857e-06,2.884079531227743548e-05,1.750892605053744073e-03,1.114817033622160503e-02,1.128094476724205743e-04,1.539342141606401745e-02,8.076021773936483544e-03
7.268085036265423127e-02,4.506224290213965006e-02,3.638006733140896135e-03,5.597639267165754842e-06,1.297736111010674466e-04,7.164309011105207247e-04,1.198419244396771964e-02,4.244452896486703569e-03,3.509540269296693854e-02,7.714998801765758640e-03
4.150355290202123459e-02,4.141571001428115406e-02,3.935500119132364326e-03,7.954132540144680518e-06,1.607841286508828317e-04,2.086899498643676287e-04,1.862481437639521356e-02,2.937553835019192112e-03,4.902172416249262615e-02,7.137114384004768046e-03
7.258098062810467051e-03,3.419670593987090418e-02,5.212158381902498062e-03,1.093349257222878885e-05,1.069174498842282524e-04,1.642936813173034773e-03,3.267144929272119275e-02,3.673263858065698101e-05,5.255053340713787546e-02,5.239134446229607410e-03
6.710525445700998848e-03,2.614061241548332193e-02,6.075837692965577880e-03,1.446539598576124859e-05,8.433966350313303094e-05,4.401657524214166659e-03,4.693935919232256060e-02,9.039389188231776624e-04,4.659544380952292120e-02,2.300103962533322968e-03
1.057043969872320174e-03,1.749850506588447596e-02,5.744762695708117463e-03,1.846093688517010074e-05,1.022733610261983316e-04,6.643970684934457152e-03,4.829666552752445718e-02,7.477520103128764729e-03,3.277862927292307660e-02,9.637640845722221473e-05
1.679256611631388396e-02,8.605658113240878884e-03,5.081802363279920749e-03,2.281484385255109733e-05,1.084583321206168671e-04,6.928760579380863552e-03,3.605757000025162917e-02,1.603864369059722697e-02,1.411500815788789900e-02,3.295316209809279065e-04
3.084222773682695345e-02,4.076564760454812371e-03,5.050767228104774062e-03,2.740844548039291639e-05,9.731402184547999819e-05,5.823044838259408378e-03,2.197584648953531533e-02,2.068389557424687650e-02,1.377355736299225395e-03,6.942348030792710057e-05
4.102207096563169342e-02,8.863681734949368715e-03,5.420897982569812881e-03,3.211347650615080341e-05,8.975891440002138947e-05,5.314556015709542836e-03,1.189474034638725135e-02,1.834198767951870229e-02,7.062955262753201242e-03,3.033689195589818434e-04
4.576205231904410115e-02,2.082781759252749776e-02,5.540352594423562579e-03,3.679536214243353623e-05,9.055984875993972993e-05,6.111034815387769020e-03,2.387733222218123199e-03,1.128971067419587068e-02,2.814780637098210012e-02,7.601516378483064336e-04
4.439568598989886150e-02,3.109883904884625655e-02,5.399615700880797814e-03,4.131550153208672800e-05,9.804836785539342437e-05,6.843128209439483522e-03,6.145384825155067801e-03,4.227635334371591599e-03,4.510721926294081890e-02,1.174869631149407737e-03
4.127213431261281262e-02,3.148134267694094324e-02,5.377740826692764368e-03,4.553518561508671317e-05,1.066188811184114296e-04,6.422390369503911886e-03,5.431231683138945492e-03,6.597785062068727219e-04,4.371814107242133485e-02,2.664499716427239442e-04
4.260783184443050348e-02,2.045911451147459925e-02,5.473396350923246355e-03,4.932197090093114211e-05,1.000482283631593303e-04,5.623977277020610066e-03,1.046426259152000160e-02,2.648974324939530698e-03,2.953248184323505054e-02,3.763182126542377170e-03
4.926393082694657810e-02,3.825562425402323843e-03,5.310747118889544253e-03,5.255262540305092163e-05,8.774601334475727534e-05,5.578734017612918192e-03,3.464155908471193424e-02,9.198085287522342682e-03,1.541750631904157190e-02,6.361615840158411743e-03
5.556465419586256033e-02,9.541516812466854097e-03,4.908498962862590728e-03,5.511046169351377561e-05,1.139177371833391801e-04,5.743357489079932085e-03,4.924306871501086397e-02,1.331137190380085079e-02,3.580587414804622601e-03,5.468272489295621097e-03
5.541805237931782258e-02,1.471202971091691188e-02,4.918528438919526728e-03,5.688929762298663008e-05,1.607470610883695087e-04,4.530466456131099391e-03,4.220795480517523096e-02,7.316021659862066706e-03,1.052660996160542303e-02,1.732885991032506474e-03
4.866585898991854231e-02,1.488760079020406968e-02,5.559659022805557571e-03,5.780877835602725434e-05,1.287606814064334285e-04,1.973623781076553566e-03,2.174911169465676072e-02,6.614442785804038050e-03,2.261499674031774293e-02,2.570035316611659661e-03
4.039585786715366167e-02,1.623255403414858994e-02,5.865354977106372950e-03,5.781481058838705409e-05,5.229893166514536099e-05,3.974295559977150780e-04,7.718182937631304710e-03,1.786497879967721344e-02,2.161082943012759133e-02,5.655144947975554795e-03
3.389618867112467737e-02,1.753564743064818868e-02,5.034620332827073261e-03,5.685410960364778053e-05,1.488826677820039577e-04,1.439493248763479890e-03,9.113872837137146354e-03,2.039746480867351067e-02,6.158258539845017435e-03,6.413342412186943259e-03
2.865917969101958174e-02,9.213266035659117489e-03,4.138635539673790782e-03,5.487845712730781415e-05,3.599083394187669476e-04,3.647608018604958820e-03,1.610493542181463261e-02,1.705232017153729060e-02,1.414534064439291680e-02,5.187804718159901192e-03
2.748696132916577869e-02,1.477976024221594117e-02,5.103613809860249075e-03,5.190347366280802612e-05,1.751302481029633163e-04,4.395079777954185966e-03,1.383122430842191782e-02,1.090298447710765298e-02,3.336046766942455527e-02,4.285228791670919225e-03
3.501786991206037175e-02,4.767904939816986626e-02,7.753139361302453271e-03,4.800371725042514416e-05,5.482799423511971158e-04,3.181636713757934540e-03,5.382823279696847835e-04,1.298154345435065466e-03,5.177969770769939861e-02,5.175728538772265616e-03
4.154391128155937585e-02,7.497591784948043347e-02,9.198563910955737805e-03,4.318799545480332301e-05,1.054347706965767578e-03,1.805386641978317915e-03,8.335896977443281453e-03,1.020405673325439598e-02,6.524817905179972066e-02,5.956255702121365965e-03
2.402446270922233354e-02,8.612235903295388517e-02,7.316366604979657878e-03,3.740581641138787390e-05,6.663834005296669343e-04,1.837642933269172671e-03,2.947826287958011347e-03,1.784042821968546966e-02,6.580966437596108554e-02,4.181642299832712649e-03
2.254280488076620959e-02,8.035370477553008262e-02,3.728577437926744193e-03,3.081139023266543631e-05,2.230666256690494020e-04,2.604201960659044066e-03,2.590571659451205988e-02,1.718374313635777362e-02,5.388477257794804798e-02,1.134310788165324158e-03
7.091096974040382583e-02,6.429447237678588556e-02,1.563886479915406252e-03,2.375266378750100438e-05,6.770903171453051183e-04,1.759870857676808231e-03,2.986732157384402661e-02,8.104417131333557789e-03,3.960546640084742359e-02,2.907455954001297751e-04
9.277283041670719710e-02,4.587081477076037500e-02,1.442323572531568508e-03,1.620163414918914343e-05,2.489181010061299916e-04,1.611615765224168155e-03,1.498690514208219195e-03,5.436430997478565799e-03,3.048248615322728811e-02,1.896685624100040261e-03
8.766160606361009244e-02,2.888319200405348522e-02,1.726434333458095986e-03,7.755938716647375403e-06,6.243678705475812002e-04,5.018886921431714096e-03,3.022645134922892149e-02,1.478309702339281224e-02,2.401927909945571551e-02,2.295104871121922060e-03
7.218156081618652686e-02,1.180204880046682725e-02,1.408938028741830301e-03,1.152620373465170891e-06,9.912196217747302248e-04,5.715356390913767931e-03,3.128574853505736164e-02,1.278410073713615036e-02,1.396375713334602892e-02,4.546591367107574591e-04
5.939748433715973108e-02,6.965250454053534442e-03,7.715112175783480318e-04,9.239078675392659932e-06,4.499211097452224489e-04,5.113654375812405097e-03,1.240205214789396812e-02,5.146221735996131530e-03,5.418996472732898542e-04,3.532005149129239727e-03
5.474868704872995484e-02,2.178694349610030279e-02,3.198705205997172916e-04,1.695566918342502488e-05,2.928137945977178137e-04,6.594736803792303897e-03,1.170008957910508018e-02,5.859385171737145279e-03,1.409823162266946039e-02,3.937221550897087793e-03
5.623686806746572286e-02,2.174665947165472721e-02,3.921014914570546909e-04,2.661039475031710120e-05,4.647212722642617253e-04,9.613411888525274715e-03,3.794775374503076698e-02,1.725852901843392961e-02,2.001342440946076578e-02,2.910682762024884539e-03
5.520295706627745269e-02,4.115276089109722382e-03,9.091231894541756172e-04,3.684874129940290824e-05,2.705107202934104848e-04,1.038031352222497199e-02,6.322572565395997990e-02,2.594345213639573378e-02,1.456342032452272867e-02,2.948148984934155763e-03
4.567350174565175391e-02,1.793813147797366711e-02,1.105319504827467162e-03,4.226710863502645775e-05,2.536371423001408795e-04,7.834778216139686585e-03,6.326036807715432198e-02,2.116405768286025446e-02,3.748432096106271705e-04,3.467734951432617681e-03
3.101194008860879217e-02,2.749254792363346744e-02,4.379145105185595780e-04,4.519810371144516976e-05,3.409906238916300355e-04,4.512103813500637460e-03,3.618940201857206995e-02,5.940422452703097121e-03,1.294574844687355203e-02,2.755089569134045943e-03
1.726253907466806028e-02,2.082959959087787166e-02,5.004136908144645596e-04,5.685348840514094855e-05,2.408520315618681946e-04,2.112320836503083811e-03,5.543279504448575708e-03,1.041961101713047809e-02,1.595445658554403567e-02,1.633158156829894779e-03
6.419657792522489095e-03,6.673279389107718979e-03,8.806699188085727846e-04,7.219405836232036823e-05,1.998683439486292803e-04,2.614601429981535004e-04,3.460475974233427621e-02,1.958552401501171061e-02,8.155808156517974430e-03,1.873947971155654965e-03
4.138445030218975904e-04,6.610232686442795574e-03,8.072984303994376826e-04,6.684087420119091928e-05,4.941574681252827381e-04,7.091214965500819249e-04,1.879350029297646718e-02,1.504838058941268542e-02,3.871561335321153582e-03,2.753872929641648908e-03
1.065605538728680440e-03,1.618506495042478996e-02,8.336407112146488815e-04,5.067080823819489200e-05,5.124131423930973961e-04,7.274203804351793423e-04,3.933497129676410964e-02,2.781845901751404254e-03,1.556595433753140550e-02,2.095473381467678666e-03
2.789649895551469735e-03,2.141748341840547798e-02,1.033595232022438588e-03,7.582278243112018602e-05,4.796909615061228319e-04,4.577767328611499938e-03,9.172016906747106069e-02,2.224033936447000412e-02,2.636314994345146170e-02,1.334001584779194167e-04
5.568600806157070725e-03,2.247478216295542564e-02,1.151863912648540440e-03,1.224433911349539811e-04,1.749541928931831920e-03,8.541817953516482945e-03,9.943370369839979461e-02,3.047372886547449963e-02,3.462729875261992551e-02,1.629066272044565238e-03
5.212881626543932993e-03,2.128696775683047368e-02,1.156872013318109398e-03,7.847604966535300574e-05,1.764460257656465855e-03,1.041038461417041934e-02,7.644863161188113210e-02,2.731776495734084334e-02,3.794129398804522990e-02,1.272290195734838850e-03
4.692769967579610464e-03,2.040762422527772624e-02,1.209494348863242742e-03,1.687050604313852090e-05,5.080853910291564541e-04,9.525173158812141883e-03,5.672197704223611719e-02,2.167640908963294755e-02,3.784948914955149624e-02,8.677299686951666421e-04
5.606277025993867437e-03,2.075791673076529328e-02,1.312608045065965980e-03,7.930121003902156746e-05,4.962519180138090296e-04,6.216367050731512293e-03,4.569302980573464873e-02,1.724113740762859073e-02,3.694776754662708329e-02,2.213592502472246874e-03
