1.970343875159183671e-03,4.349119780350965692e-02,9.098651433564091881e-03,1.107351529183119541e-03,2.541026064929464198e-03,2.182971317062125730e-02,2.999199748721611061e-02,2.298857730425071105e-02,1.529612745666603796e-02,2.781619705722434763e-02
3.445738187511815809e-03,4.461632192163159094e-02,9.177169813803027348e-03,1.163842895638513876e-03,2.887313444042948103e-03,2.697262717171757321e-02,3.421216410221197129e-02,3.062187348913963936e-02,1.547945699706641288e-02,9.285318496774132985e-03
2.259615798749370439e-03,4.554604381744984526e-02,8.993489857956650513e-03,1.215110449640133868e-03,3.279920190817274279e-03,2.919414481823738930e-02,3.322491799151719438e-02,2.679477859210809693e-02,1.558408064435613458e-02,5.037010915551042717e-02
1.062820856259479247e-04,4.625339769216098296e-02,8.793730109558105246e-03,1.263663484540725624e-03,3.662480568493121577e-03,2.873631852527426880e-02,4.397541529473478900e-02,1.276161649585025315e-02,1.561655976935016898e-02,8.513547933051954231e-02
1.166603275283339958e-03,4.673265697244727290e-02,8.619479734529384568e-03,1.312145612614443787e-03,3.866841728666300243e-03,2.701817652402139017e-02,6.796726573137548688e-02,4.047806391387839819e-03,1.558425565002185230e-02,1.048713571217350649e-01
8.570727538015965102e-04,4.699596407283571087e-02,8.362657850393258319e-03,1.363256048116136699e-03,3.959919905372700534e-03,2.547498379808903896e-02,9.043323374675285575e-02,1.409284293357803558e-02,1.549505148946898718e-02,1.172349992517805195e-01
5.923012072139599050e-04,4.704788087666506718e-02,8.008776112730105201e-03,1.419668313018272992e-03,4.427383840478385686e-03,2.436343157115720970e-02,1.050623274921040212e-01,1.236255422486290390e-02,1.535706074874470736e-02,1.442158511658312714e-01
8.031647316358225472e-04,4.688618208811318883e-02,7.615348536301518902e-03,1.483948362846488223e-03,5.406410153908631881e-03,2.287699658326779531e-02,1.213356991367782467e-01,1.881985030465051570e-03,1.517832401697741945e-02,1.928462643481850536e-01
9.879802939038106416e-04,4.651325595629846044e-02,7.197504053545159160e-03,1.558474154820248432e-03,6.150195898424076248e-03,2.132769200429690190e-02,1.468473939500333780e-01,1.024851726507897132e-02,1.496649935901693193e-02,2.385449659400092903e-01
9.948769404644259608e-04,4.593531010255411107e-02,6.736372561167855259e-03,1.645358655347661314e-03,5.983713624648431817e-03,2.116212771259376110e-02,1.782019910673412477e-01,1.785041944081551188e-02,1.472856495329269433e-02,2.537569096243479372e-01
1.041880607739051594e-03,4.515646391702977241e-02,6.232384545175620461e-03,1.746378209006154000e-03,5.297279102725481123e-03,2.210837479198813835e-02,2.085612757988950516e-01,1.671210239362241196e-02,1.447054787565535405e-02,2.435294896915512486e-01
1.097139510463136835e-03,4.417850394524398122e-02,5.701719843973149238e-03,1.862908069862826820e-03,5.027931488146992686e-03,2.221730285823140735e-02,2.308506045470430090e-01,6.814211493023722248e-03,1.419726302542480452e-02,2.351218753535753436e-01
1.068707051931107538e-03,4.300308207192369420e-02,5.151236844751457163e-03,1.995866731765499110e-03,5.618878643279349820e-03,2.116208840278546721e-02,2.396971674869503577e-01,3.657054814389187891e-03,1.391205530243816782e-02,2.403884007183140492e-01
1.200402361884899587e-03,4.163128994032810892e-02,4.579606189470393322e-03,2.145670487256160028e-03,6.631600599072307901e-03,2.072810202242731173e-02,2.414286879893232374e-01,2.678335481328652720e-03,1.361660087871140179e-02,2.441311985252163363e-01
1.498220166073548987e-03,4.006217934257473579e-02,3.988432321959360302e-03,2.312199398563800478e-03,7.127645826870071706e-03,2.184351304737225385e-02,2.491899206621949470e-01,1.261093987841845933e-02,1.331080376256006323e-02,2.241965039403593929e-01
1.049953044988948068e-03,3.829262785649712592e-02,3.381601031514474328e-03,2.494775592462541557e-03,6.711576032272659718e-03,2.316233608172668657e-02,2.596209330689705497e-01,3.135823186410307412e-02,1.299268703190803800e-02,1.735340321589107226e-01
1.037672359770355768e-03,3.631762154262063030e-02,2.760767312039315302e-03,2.692154503362612430e-03,6.062464976098586554e-03,2.286434555083479564e-02,2.538194757559010806e-01,4.054791816130437487e-02,1.265821371450922238e-02,1.078296832825587498e-01
3.923655673203706173e-03,3.412983540641817415e-02,2.125630003900907689e-03,2.902529376159772214e-03,5.940003447487273922e-03,2.096870706994255484e-02,2.289747187871268852e-01,3.705190130254108066e-02,1.230126224685591275e-02,5.534027851057995995e-02
5.340674421791647732e-03,3.171944093717710828e-02,1.474111388166717907e-03,3.123549002494966243e-03,6.200944960984251277e-03,1.945996044969106747e-02,2.075415847772769662e-01,2.607845296525771947e-02,1.191390949214390753e-02,3.266973985285319404e-02
4.035483712713212531e-03,2.907468345352275108e-02,8.018144887253779614e-04,3.352348344759512391e-03,6.332079509842991616e-03,2.007159996966155144e-02,2.081503048099489217e-01,1.308859368022469508e-02,1.148654947036751271e-02,3.085997003424680377e-02
1.095367026573927606e-03,2.618173593972159680e-02,1.058730613458478564e-04,3.585591425571264812e-03,6.276526880592411643e-03,2.235989050971221720e-02,2.262321947994915539e-01,1.496836158820691060e-03,1.100750945553804344e-02,3.307524305523792951e-02
1.331248861552506791e-03,2.302352744154658251e-02,6.138041406063344304e-04,3.819525558286077354e-03,6.257825503576318511e-03,2.412269791596046917e-02,2.465490830911713227e-01,6.307387647058921437e-03,1.046315907600790622e-02,3.869977028858024443e-02
1.841352625434502024e-03,1.958052128009830570e-02,1.364623210230843072e-03,4.050045637004128646e-03,6.307054498272937973e-03,2.330793088770485161e-02,2.585302921820499256e-01,1.117151945083359917e-02,9.839253902454228595e-03,5.452661699624204023e-02
5.480621358725236121e-04,1.583374240974328578e-02,2.164016103953750932e-03,4.272766960624177317e-03,6.311175365428995689e-03,2.005169971496599535e-02,2.591350186466561123e-01,1.632757768759468195e-02,9.121395787319712053e-03,7.091186441628317960e-02
9.612547001553127784e-04,1.176379052155838642e-02,3.016713014611008010e-03,4.483105023686616286e-03,6.256377441487868431e-03,1.723598591968083030e-02,2.512742710403281787e-01,2.001395156579907977e-02,8.292956919190141302e-03,6.828275279729652258e-02
8.826981223805648947e-04,7.345219601539776377e-03,3.907959894257817882e-03,4.676360530062043802e-03,6.211910505220386534e-03,1.779641899187473300e-02,2.375826488278817983e-01,1.539848980397697659e-02,7.334929769371015262e-03,4.353030084537078126e-02
6.759293909534920455e-04,2.549584870180172415e-03,4.851864442495321637e-03,4.847807392719142780e-03,6.174242568804310001e-03,2.139150365053833422e-02,2.162933782493166590e-01,2.143944222688337446e-03,6.231329515804549975e-03,1.284009087622474746e-02
1.575861600447231014e-03,2.641288867382449602e-03,5.906639221875484985e-03,4.992781403261486659e-03,6.066967732823309346e-03,2.483920987871717639e-02,1.891962660338796509e-01,9.459479171602508049e-03,4.970691651259698252e-03,9.722519308633204710e-03
5.124812794833166589e-04,8.240191109915818643e-03,7.070964665018971210e-03,5.106768006095037914e-03,5.902677651594118342e-03,2.502682007025770414e-02,1.649319085685668207e-01,1.098964930688440915e-02,3.535648862022228080e-03,2.425859852653605708e-02
1.078699151711268135e-03,1.428160648199344740e-02,8.247981569441079075e-03,5.185487654876923432e-03,5.799649421296841634e-03,2.094360216361446439e-02,1.474926104126364490e-01,8.141410056772682008e-03,1.900550006336177659e-03,3.514213387648915110e-02
1.115806583731458572e-03,2.081054183110789615e-02,9.465138836710983161e-03,5.224975635704738608e-03,5.716881308081254130e-03,1.440462068401312558e-02,1.324150462210479939e-01,1.558788656531840018e-02,5.473530584730276240e-05,3.905585757576051503e-02
2.273983657326567455e-04,2.782293782087454440e-02,1.095910517744040635e-02,5.221653275297924793e-03,5.404080956859449655e-03,8.610098725920821774e-03,1.164179052914621204e-01,3.846584127045667850e-02,1.990731484230341946e-03,2.691183454218984070e-02
1.190054579841689922e-03,3.528652988003783825e-02,1.271169473498360604e-02,5.172391175721029882e-03,4.924868155468086102e-03,4.932956325919189700e-03,9.844122295861341965e-02,6.343833130387470376e-02,4.251617214223783747e-03,8.441001475544846616e-03
1.099382077749914239e-03,4.326724554322623068e-02,1.419722881298940247e-02,5.074565607957285708e-03,4.837717044333359959e-03,2.223748307130276290e-03,7.343084791483563134e-02,7.507239787610926751e-02,6.785272524049378723e-03,6.354625081687222121e-02
7.616377116784838440e-04,5.188662322349080203e-02,1.520718504820235684e-02,4.926101858466866608e-03,5.260443407427519737e-03,7.593218066050839163e-04,3.903439620490463391e-02,7.617576070445303271e-02,9.586539686028967833e-03,1.146765318475729822e-01
7.790310712836745087e-04,6.104957687586006626e-02,1.654623747156936178e-02,4.725497804388291596e-03,5.323505586101031500e-03,4.458290973490055230e-03,5.280359945415049293e-03,7.987963423168306654e-02,1.255287291684003929e-02,1.272572671468494288e-01
9.222471525551283146e-04,7.052716939861466972e-02,1.904704915366370668e-02,4.471837475338661869e-03,4.387409066801663260e-03,9.349851995332987206e-03,1.623273450381581412e-02,8.786328626294415134e-02,1.570522440779593965e-02,8.648960483551065836e-02
9.188880371554285567e-04,8.053857134115327554e-02,2.222500197024876445e-02,4.164806804564485411e-03,3.075023020913140222e-03,1.511484921902827433e-02,2.958370405592649147e-02,9.250232220439245923e-02,1.926795202930465731e-02,9.044213987754451747e-03
8.674027514504487144e-04,9.158744219432583822e-02,2.480356739483656134e-02,3.804689604575588364e-03,2.245197301113771495e-03,2.037406811721480249e-02,4.981652580964283927e-02,9.299983608100131915e-02,2.319884445887913579e-02,7.888632123746033842e-02
9.055419294445346242e-04,1.032273695151913195e-01,2.656762636099588640e-02,3.392316695856326374e-03,1.796299304413469591e-03,2.538727410450503444e-02,8.568492564622150198e-02,9.173142035906295400e-02,2.700577962018642711e-02,1.627045754190566407e-01
9.914813597632255067e-04,1.144236008833420526e-01,2.895610602804022521e-02,2.929014972435297400e-03,1.178244790380206762e-03,3.212183980844358216e-02,1.327722451120886549e-01,8.362667747312002575e-02,3.074830202787981123e-02,2.371146561774132300e-01
1.039626583701348849e-03,1.259698238885555432e-01,3.280371763780023237e-02,2.416617028020417394e-03,2.671145723630342374e-04,3.950164369062034858e-02,1.748396964082797600e-01,6.554228446738501190e-02,3.546765912737178533e-02,2.925601025124573984e-01
1.062453171780007631e-03,1.385092845362918823e-01,3.561174564065602149e-02,1.857435570713101072e-03,7.323195293436647602e-04,4.271030475293567663e-02,1.908748494151617792e-01,4.565931810779382677e-02,4.101973547058888198e-02,3.133980450354290626e-01
1.142619179178849809e-03,1.451782247882704713e-01,3.353842574969763402e-02,1.254074125949252534e-03,1.669548820235466653e-03,3.989081587206796953e-02,1.733176390769320674e-01,3.131566224365311263e-02,4.478758450165765126e-02,2.979931277590897043e-01
1.286774162123147450e-03,1.344105214468332699e-01,2.700785161204848420e-02,6.092795022723005794e-04,2.577282317357440424e-03,3.561684731318649766e-02,1.400689758849558431e-01,1.991862578630546748e-02,4.580650187191231265e-02,2.734796678295838279e-01
1.362280240060020691e-03,1.077534630575465169e-01,2.045990062990503400e-02,7.387917302537373439e-05,3.716716653484891750e-03,3.478318943404479918e-02,1.195017324673278841e-01,9.183877619068235923e-03,4.818463975829254814e-02,2.683808608267188589e-01
1.332533527800993560e-03,8.308299982344952150e-02,1.436679198148227421e-02,7.919306168913286441e-04,5.224435432163338465e-03,3.610121083172471851e-02,1.253140533458389216e-01,2.253112643678676589e-03,5.417945769867385519e-02,2.732782562616880573e-01
1.455867987245739164e-03,6.894255540929412895e-02,2.511505199343186737e-03,1.541634023526703432e-03,6.548313370060764201e-03,3.507127318252221265e-02,1.518284585584407376e-01,1.638722836145282795e-03,5.566282752360538627e-02,2.569028420089005116e-01
1.830806068418876610e-03,5.310860008011023675e-02,1.804672719112689061e-02,2.320424493230050737e-03,7.005145247083511585e-03,3.149386631637621919e-02,1.897346221595811455e-01,9.176205506024218833e-03,4.237124396205193405e-02,2.173279574538939107e-01
1.882258883285370561e-03,3.085188093830108086e-02,3.793556803444482484e-02,3.125331511286685154e-03,7.111063995277679649e-03,2.971732143133121520e-02,2.370348999710462923e-01,2.316964049100209144e-02,1.903894828302934994e-02,1.838401456113285815e-01
1.090959155732885424e-03,2.068283538979397151e-02,4.333642488580291552e-02,3.952250339568356106e-03,8.150932679481259074e-03,3.177103580772679819e-02,2.914577632457986955e-01,3.725353079415420071e-02,3.158698996010243180e-03,1.706385762339238110e-01
4.841259050976776232e-05,3.371580007798510858e-02,3.267976180287292948e-02,4.798470192410333318e-03,1.023862879421027529e-02,3.497412654956931488e-02,3.421265422079038387e-01,4.078420366350573451e-02,3.913102760434649177e-03,1.605579876105288351e-01
3.765168064415252373e-04,5.261191472932510993e-02,1.864451345448961406e-02,5.664514233911090851e-03,1.241717499227158045e-02,3.751306471145248594e-02,3.821870417123076069e-01,3.026778950506291838e-02,1.442172279351365202e-02,1.381124383881655038e-01
5.179223310492005097e-04,5.882810208391882345e-02,1.232202553972215446e-02,6.548981246115953732e-03,1.458352801365225999e-02,4.140987723630600720e-02,4.221091709388003488e-01,1.759996557948389703e-02,2.649055108928252689e-02,1.157371389754248275e-01
1.065241562076212154e-03,5.680710434752328508e-02,1.314466460977998727e-02,7.444644149242988888e-03,1.711528732919893186e-02,4.678125591288365831e-02,4.691041560807170385e-01,1.943672309361783521e-02,3.973528600374012787e-02,1.144789704528236668e-01
1.661264615600221593e-03,5.767345647703639444e-02,1.649027723678691063e-02,8.349493479763641507e-03,1.889837001808116271e-02,4.814871842062594387e-02,5.028496954318028012e-01,3.687735397558026401e-02,5.123966911689602916e-02,1.308603553260552776e-01
2.199258824501736792e-03,6.143580134407471138e-02,2.134671706901665120e-02,9.275454284260917573e-03,1.836078528329493018e-02,4.228243230448617412e-02,5.042620055166344706e-01,5.684455551200442297e-02,5.025607903852383901e-02,1.454712554855233098e-01
3.898522387719371117e-03,6.435673061624815061e-02,2.566071969952180010e-02,1.022507909385924306e-02,1.624980106784261816e-02,3.562634573010917127e-02,4.976039546571003891e-01,7.105634865323785798e-02,3.317931913464546023e-02,1.574118714928930407e-01
6.843159344142182333e-03,6.422901270633948889e-02,2.326003642738594043e-02,1.117221004182880444e-02,1.511953665906718390e-02,3.679525238092894862e-02,5.220636371755904559e-01,7.955584549139217698e-02,1.348629237846075968e-02,1.789357404599247747e-01
8.466360335655948380e-03,5.519965358459516525e-02,1.204367191466100377e-02,1.211107594744523924e-02,1.645395951702469453e-02,4.557697224835152716e-02,5.733964761363919971e-01,8.222823151091152027e-02,7.191914430712184440e-03,2.048990403803039873e-01
6.793722022635272431e-03,3.829715298934820156e-02,9.451590223139437648e-04,1.310130840137459923e-02,1.976080548397411707e-02,5.637144255010365090e-02,6.190328142629083485e-01,8.134935006685965753e-02,1.643129964617929401e-02,2.234526823617434266e-01
3.317679938085582331e-03,3.540204997921371499e-02,8.252043295283591554e-03,1.417040722261291713e-02,2.348679048788081605e-02,6.682424882510747122e-02,6.545504602883048806e-01,8.381195817900205514e-02,3.307250107819154072e-02,2.396693516371036503e-01
8.172228491266238758e-04,6.328829464640262081e-02,1.083493226995854535e-02,1.516801040452542791e-02,2.564519833888549011e-02,7.525154364358656311e-02,6.970651632326079206e-01,9.096388660579607377e-02,4.871297108955771615e-02,2.514873496324979141e-01
1.020181325573113441e-04,9.381770966418000179e-02,1.323208761343566166e-02,1.577414477977934909e-02,2.473391427919063856e-02,7.657759108691071515e-02,7.385829334387429279e-01,9.684296495424073170e-02,5.580636677618692337e-02,2.297259157696840415e-01
7.718766072078873854e-04,7.932754042099073033e-02,1.548623903931418098e-02,1.564420897787433332e-02,2.129344009757003914e-02,7.004489024545471065e-02,7.512927845651802272e-01,1.000970698614558618e-01,4.825112953958246576e-02,1.613240592810289142e-01
1.856024640870842460e-03,2.401351020736211886e-02,1.626267671740923987e-02,1.463158604260719579e-02,1.810156555540393467e-02,6.501053250213609247e-02,7.304935303517464673e-01,1.049225322312791614e-01,2.766724222675207359e-02,8.610146257559413152e-02
2.649901655427920784e-03,1.582342549538701126e-02,1.840551778195787316e-02,1.289892308952798362e-02,1.770803068193330804e-02,6.976606534358560652e-02,6.990699574417897910e-01,1.095169743982076782e-01,4.743977583751433393e-03,5.194176376491697195e-02
2.696001805002778366e-03,1.550015176754119747e-02,2.347402238057552312e-02,1.051776027064664498e-02,1.916294035894118217e-02,7.770564701550232434e-02,6.699587242527059727e-01,1.060799456207936614e-01,1.010772497280582917e-02,4.367403556637118600e-02
2.496765291657489141e-03,1.542509108496210868e-02,2.572602309390991521e-02,7.153397407264503946e-03,1.820686770390294792e-02,7.292994342648723149e-02,6.234015477720200593e-01,9.277596262468813804e-02,1.532886077004896180e-02,1.058752104668318414e-02
2.451629432829300053e-03,4.970608370195014197e-02,1.948975768180470636e-02,3.008707780150694268e-03,1.236675331405386220e-02,5.021886446184328084e-02,5.302369124065224870e-01,7.690655980930487245e-02,1.543169308424009040e-02,1.473329856229749490e-01
2.404867485790785839e-03,8.926483589093438253e-02,8.155357569734655518e-03,2.156939524660713824e-04,4.689773238572949102e-03,2.247742582177059481e-02,3.909510924567226597e-01,6.806678825092181417e-02,1.343723596101453407e-02,3.042798070598101701e-01
2.401370230342932555e-03,8.409891535350805247e-02,3.485861192060151891e-04,7.166955146826541837e-04,5.553337110710638777e-05,4.656848493656760325e-03,2.380622852192042505e-01,7.399562389711934751e-02,9.545082225071757978e-03,3.827554643433279113e-01
2.655349246109621388e-03,3.100479339401709597e-02,2.606147548371740008e-03,1.264559963829787852e-03,4.625701092029913062e-04,2.528397317882799013e-03,1.034633329830911691e-01,9.611709778583110708e-02,4.179283902350380830e-03,3.584783622390598223e-01
2.657744639114793285e-03,1.967424713961806251e-02,6.132462655896678966e-04,4.122560017930333373e-03,1.113851227968544119e-03,6.173699344363553672e-03,3.228273749043379659e-03,1.219646505426521116e-01,9.797724229490877099e-04,2.905972096313094166e-01
1.692895801824005229e-03,1.377527756328389939e-02,1.880747202430347763e-03,7.061656441938608461e-03,3.115179739301899686e-03,7.675574316019497141e-03,9.581384117608168771e-02,1.328463567624967312e-01,3.917990658996668533e-03,2.357023527030205345e-01
4.299263590921593992e-04,4.810129141375671380e-02,2.545294117077932447e-03,9.878860791645001013e-03,3.786485254982472660e-03,7.101226799860268710e-03,2.054263472509346988e-01,1.285144521003437068e-01,4.558373361591876345e-03,1.961899656003922854e-01
4.208196876423746929e-04,1.061657474021040215e-01,2.707642602273573583e-03,1.165648350930716462e-02,1.118705000747956604e-03,1.190328797049713082e-02,3.519727396962464838e-01,1.297936914872314385e-01,6.569832467013004065e-03,1.478485262623942809e-01
1.750032141742986162e-03,1.171092867253008402e-01,4.350894975998578079e-03,1.177810668670210489e-02,3.599704830949073016e-03,2.686929882296148694e-02,5.031849206133667263e-01,1.444601696105857758e-01,1.199066161024151325e-02,8.216512586967933407e-02
2.827833712636002809e-03,1.150472076807698557e-01,3.551110470472719927e-03,1.089278301886966761e-02,6.267961151416682856e-03,4.305278506606097233e-02,5.830475589385835100e-01,1.495054723744593805e-01,1.146150585074759594e-02,1.488743851672485671e-02
2.765398502831598049e-03,1.537786218515664327e-01,7.258609863708438172e-03,8.814821243169535317e-03,6.354334082334483526e-03,4.903514410970341575e-02,5.432353080498029119e-01,1.255691921306022196e-01,1.231187065982317606e-02,2.508310491563219349e-02
2.418368293308205148e-03,2.102775969712918358e-01,2.766160540722015573e-02,3.856026331549898892e-03,7.437397886092642942e-03,4.423902166612427717e-02,4.178170769956461861e-01,8.989708799975765219e-02,6.301588653059950196e-02,7.279204019589497615e-03
2.720128317504303273e-03,2.085430458530944664e-01,4.606485183827198349e-02,3.360564323625738533e-03,9.821848581609907147e-03,3.227397712730400992e-02,2.965957262336830214e-01,7.221351984765064791e-02,1.180868802056077027e-01,7.694679333939200006e-02
3.121317423563489159e-03,1.350209577066684430e-01,5.198375272780891149e-02,8.737086072973973896e-03,9.062366632142205419e-03,1.368933903635055280e-02,2.578633145604608545e-01,7.439336037893719278e-02,1.488548627960875892e-01,1.874888723648459876e-01
2.378303367714651277e-03,6.713289659667495690e-02,4.657410595923983099e-02,9.724187738428372724e-03,3.410472676522384016e-03,6.237809898283299716e-03,3.282963375101221604e-01,7.946423703681128325e-02,1.496733183334021389e-01,2.525654944633489163e-01
4.577890471335966174e-04,7.230633370951639050e-02,3.765571656753325530e-02,7.554735859855468867e-03,3.253210376739975023e-03,1.555280791604024548e-02,4.699817654902097019e-01,8.441355305873300685e-02,1.354630809704930050e-01,2.315070863952254365e-01
1.346706525156215204e-03,1.288557217651733755e-01,2.927547125745447176e-02,3.303562999326947920e-03,6.852046453046350960e-03,9.499361306951626879e-03,5.939907929241288187e-01,9.048438401963465605e-02,1.167960253594270692e-01,1.555197244099615350e-01
2.401962904914120740e-03,1.704445743962818005e-01,1.995512388250317987e-02,2.572809202672131368e-03,6.674153465929033580e-03,3.488905204576399702e-03,6.295468791425679056e-01,7.276889146684901999e-02,9.344592093787283671e-02,1.013024909394373702e-01
3.541379988331131226e-03,1.671395851877895133e-01,7.486159698715113588e-03,5.989991272808369710e-03,4.016351914253413029e-03,1.301229627737500102e-02,5.915810983212166363e-01,3.372541261992574504e-03,6.841600949775263063e-02,1.193005596485045977e-01
5.089506088679126260e-03,1.342752194110590214e-01,7.529498894329317120e-03,1.548918283204786485e-03,9.946649129668834379e-04,1.599569992128301726e-02,5.506689689608409433e-01,9.591645087989955631e-02,5.099370610289338107e-02,1.844382968377144549e-01
5.568291449167823981e-03,9.872066844800625462e-02,2.031337445728229399e-02,9.655889465272567834e-03,1.199621817058591465e-03,1.729518315431446962e-02,5.475448478392797025e-01,1.665568951343732451e-01,4.481812825790940091e-02,2.294773640433655781e-01
3.912122591132475083e-03,8.364784647897806347e-02,2.387315398689303023e-02,2.059768552554661070e-02,4.853732857423318468e-03,2.659578169827166855e-02,5.558315692360666915e-01,1.812371929495232847e-01,4.498401465973650426e-02,2.195422590698040965e-01
1.742416427817825974e-03,9.257655185813215559e-02,1.658778644225211013e-02,2.649004669615982743e-02,1.272808534820215123e-02,4.608324880951395613e-02,5.048015057245772708e-01,1.664174603685405207e-01,4.752823623515116391e-02,1.665992202377785392e-01
1.468232286507057099e-03,9.150660854566716740e-02,7.095897368800892918e-03,2.713868405041144904e-02,2.234274697345889349e-02,6.195329989689202926e-02,3.568956246806641031e-01,1.621588184081423356e-01,5.217724474173236066e-02,9.482476808142287217e-02
2.976003804034616299e-03,4.178339340370992860e-02,6.328468401594890443e-03,2.346918354748279284e-02,2.902322553106134739e-02,6.604281601514386257e-02,2.048680463147616593e-01,1.842303389007783065e-01,5.551495252615449433e-02,3.589082192844428310e-02
4.076924051906547636e-03,3.953101618458786798e-02,1.556992074641935092e-02,1.727107060270670000e-02,3.311666031605063620e-02,7.670387908673929889e-02,2.134828882727909105e-01,2.199592852993364767e-01,4.929420724110460811e-02,2.064927177699416028e-02
3.418614748946021027e-03,8.655491767996885411e-02,2.674502713853755403e-02,1.182656114594554837e-02,3.706845879611667810e-02,1.089442553827148635e-01,3.886127086027353905e-01,2.467255254231400519e-01,2.743559672659551252e-02,2.291229496850806860e-02
1.265599130370520650e-03,6.443804733391460260e-02,3.200488621117675986e-02,8.071900330247549701e-03,3.819048999404513894e-02,1.394832413318604081e-01,5.306767850703554279e-01,2.512280075335760476e-01,6.472966763635486578e-03,3.379336798680278309e-02
1.624472586666892435e-03,1.230543029552369494e-02,2.875891179505203968e-02,2.975442614321989997e-03,3.221421919001047490e-02,1.382623704977815615e-01,5.084680067581119900e-01,2.332278445266418865e-01,3.618640658016712697e-02,1.455142198388643116e-01
4.040219468660575033e-03,1.521410338009574967e-02,1.847640152564796259e-02,4.128664879057923447e-03,2.179285247810694090e-02,1.163008569835988909e-01,4.216148914939013004e-01,2.040712137377844460e-01,4.018966119630983103e-02,1.691624331175930751e-01
4.051901861285541265e-03,1.991368022250728301e-02,5.531507923983962002e-03,7.356499059846062852e-03,1.495506184363998813e-02,1.051847332416194075e-01,4.055961001855141745e-01,1.849229266226821711e-01,1.251389144376029681e-02,3.334681473407940383e-03
8.930574823128145222e-04,3.528248701610524340e-02,4.033087349766387164e-03,1.933023455786860804e-03,1.564139915456799756e-02,1.067831774683288548e-01,4.377931611318821581e-01,1.880829770372246801e-01,2.402747734102144220e-02,2.618311061495989800e-01
3.172899364122350185e-03,5.579593747245350371e-02,6.054993815882861105e-03,7.120652049803477199e-03,1.958264671583238511e-02,9.761101312623188253e-02,4.218293099324187390e-01,2.001258100738480816e-01,3.836834571723116843e-02,3.973149066577726929e-01
5.009799684374222767e-03,4.235007875760717078e-02,9.903948825160861606e-04,1.018553916173137348e-02,2.034239994752942704e-02,7.167246484627665115e-02,3.469991217281693796e-01,2.000817538415161911e-01,2.533365105610312085e-02,3.725781683601641081e-01
4.401793166891848630e-03,1.583189667538335149e-02,6.698151578678443116e-03,4.836819425080384968e-03,1.701086895668260310e-02,4.847337550627209973e-02,2.806835667879773455e-01,1.838350674469620416e-01,5.634816690384591466e-03,3.287615486741493065e-01
3.472205888759499932e-03,8.740903288596470200e-02,1.070824211108787477e-02,3.102040817362719093e-03,1.329031482329579364e-02,3.906705443845584491e-02,2.483831748615052404e-01,1.560712880662864788e-01,5.837550477393935525e-03,3.409664621324647316e-01
2.878128692849925632e-03,1.330321928547492649e-01,6.287930480541058069e-03,8.281587866523590705e-03,1.081768847984453455e-02,2.899017000494478330e-02,1.999653458098906711e-01,1.179758665688005748e-01,1.418791196887535938e-02,3.277363389570599472e-01
1.317229936687165604e-03,1.266666054241995243e-01,5.338531940928707871e-03,9.958389247510451153e-03,8.103251732937667706e-03,4.458954493551357118e-03,1.098500129463030883e-01,7.821552142883014813e-02,2.722587520354446608e-02,2.215270344902182109e-01
1.426771414400313832e-03,6.802308505799571636e-02,1.744506591087328917e-02,8.487280149167839363e-03,5.270651922256175403e-03,2.315600376572343050e-02,3.735610770857041019e-02,5.292757583295221169e-02,4.113957435770033283e-02,8.920048193311695683e-02
3.609512721724770275e-03,5.377076837041417680e-03,2.519814973017552376e-02,3.520028606546686274e-03,4.252184578028969306e-03,3.529613764518181596e-02,4.370933504022063432e-02,3.946253549076063349e-02,4.744547722141404661e-02,3.143538943339846403e-02
4.041427982278931151e-03,4.505216498263237695e-02,2.918031452604989695e-02,3.329680155722766939e-03,4.316143815017606938e-03,3.474970562533258311e-02,1.145396139333624413e-01,1.503824922279155610e-02,4.445222565242576418e-02,5.126528550033142284e-02
3.622792821799135799e-03,4.463418885883436299e-02,2.953970885979989927e-02,8.287704853674473029e-03,3.014125492113245430e-03,3.495623689201339535e-02,2.046788179431356935e-01,2.447274394028089300e-02,3.932972556505520689e-02,7.406739897637987236e-02
3.709621847477355405e-03,4.216143569999639129e-02,2.349445279316095953e-02,9.481932475065884408e-03,1.778949795631271959e-03,2.988597532341113333e-02,3.029437160233662274e-01,5.389317955421251555e-02,4.270391799761352747e-02,5.376095503323238822e-02
4.028925636336315279e-03,6.275054517180858604e-02,1.292729371455754797e-02,8.705477874619241274e-03,4.973107112872143104e-03,1.743488807626697792e-04,4.198768472557516396e-01,6.103594869655804001e-02,5.923571435209041419e-02,2.241443468772281317e-02
3.226512990007217221e-03,8.622890270713699790e-02,6.851308572348524008e-03,8.008589936132756368e-03,1.235766722988118453e-02,5.353866178110235075e-02,5.392648742413840290e-01,6.583626775382708796e-02,8.044016504412952739e-02,3.746289464616615883e-02
1.151358160023507144e-03,7.965704056194748695e-02,9.965477792915582514e-03,6.578728270034464240e-03,1.716392918783711877e-02,1.003845547425265550e-01,6.039704962397806076e-01,8.313186124755700401e-02,9.105205719497720673e-02,9.206910412881948169e-02
7.183444813969110413e-04,3.396907200680274880e-02,1.486985637990351390e-02,2.906869427319646974e-03,1.376252972216414697e-02,1.159869842821199815e-01,5.586893651094800850e-01,1.023710592399587754e-01,8.636817340299250689e-02,1.079921488811761976e-01
1.435603348188174179e-03,3.802366535998419339e-02,1.241670668980673388e-02,1.180598174421155838e-03,4.763300420901026531e-03,1.041113915684887120e-01,4.038282300910211453e-01,1.157920669998259433e-01,7.702793811063160523e-02,3.485374124348931957e-02
1.800681337301135963e-03,1.101097117727992264e-01,5.082465272927008670e-03,1.414470957686951146e-03,2.050411069440766752e-03,8.221682092056942226e-02,1.939282338419831553e-01,1.300575877253744850e-01,7.114492937004252004e-02,8.215617075033042338e-02
2.849003374515300408e-03,1.489250470955506556e-01,2.654365847455713787e-03,3.943689105262350274e-03,3.207204310735835458e-03,5.902037628012136300e-02,5.594660469582221629e-03,1.417635300146478372e-01,6.222634774453291578e-02,1.666768856794898501e-01
4.366985264058556582e-03,1.434979610782700921e-01,6.863698165666985013e-03,1.187508816765407357e-02,2.976335162632705571e-03,3.515309845584300985e-02,1.456385442375981165e-01,1.338399740015421835e-01,4.541350418314505505e-02,2.047436098962460982e-01
5.327478937048454530e-03,1.235112885636836105e-01,8.177746114336933644e-03,1.730901871427389591e-02,6.586481459103642189e-03,1.331420774504750090e-02,2.058012286876086117e-01,1.009199639180927699e-01,3.292909575269326733e-02,2.285458527812626317e-01
4.774877396461622500e-03,1.248599625760996451e-01,5.982228097731884242e-04,1.729819041449258063e-02,1.328622071377622005e-02,3.008225409451517184e-03,2.110203608879507309e-01,5.742167852195048661e-02,3.714862166175256220e-02,2.442239094083944739e-01
2.367379540176885611e-03,1.522438669867803851e-01,1.499662681828225173e-02,1.299399973337168196e-02,1.819394111795735736e-02,1.511776650384941828e-02,2.260740495341322376e-01,2.133692234917012459e-02,4.970437180439089137e-02,2.399879815646324965e-01
9.783652582450051618e-04,1.863239413984859594e-01,2.735653493683677315e-02,7.914733349455541078e-03,1.863147964087472422e-02,2.671958804739845914e-02,3.026841292774342107e-01,1.397792570444493856e-03,5.520542571694942585e-02,2.372465695397802943e-01
3.484332942577581232e-03,1.999371699488252940e-01,3.571573073816253219e-02,4.764224350090327451e-03,1.586211490723404491e-02,3.661382102155452678e-02,4.129040662129782602e-01,1.959741112237486926e-02,5.354172524770263453e-02,2.631833541877359184e-01
4.350340055464517811e-03,1.663916789188746859e-01,3.769338510844878060e-02,4.238379255348400862e-03,1.187681568087738636e-02,3.737996462505216444e-02,4.598969730274876100e-01,4.196767790312738028e-02,4.910345405032390947e-02,2.984282345627671251e-01
4.310856564620561306e-03,8.942384014910313705e-02,2.722069958942029827e-02,5.365383759235461437e-03,8.098881592963569354e-03,2.687602806478145076e-02,3.972039931691812575e-01,5.956728351791466120e-02,3.243879186959208738e-02,3.154207402604346511e-01
4.024095001181832512e-03,2.275076618333388839e-02,6.575042119661658746e-03,6.260491142434625698e-03,6.903612496257980832e-03,1.766658509716136430e-02,3.045606142761638213e-01,5.777358905301278186e-02,4.114799748201363426e-03,3.337422149616094957e-01
3.443661424556745433e-03,1.908623405075610818e-02,9.951535687241285649e-03,6.167333427486083527e-03,9.671616421511899236e-03,2.283940711750361702e-02,2.852274752500916222e-01,4.553101780325814751e-02,4.522175977605358277e-02,3.786481263639543959e-01
2.986050541419168255e-03,5.904498155670989679e-02,1.280680966601390261e-02,6.469567420430965068e-03,1.281447830171572079e-02,3.671944257539768580e-02,3.392878527856813542e-01,4.793633338765568297e-02,6.852063921701224969e-02,4.266002569436120329e-01
3.479505965745796625e-03,6.800907410043763313e-02,8.100176563078044858e-03,8.013460021041553943e-03,1.091395659057016639e-02,4.467000237697066334e-02,4.093277760569928869e-01,6.623948706220574023e-02,7.158086704008051471e-02,4.459314476715715569e-01
4.598059001590975442e-03,9.809323194082114963e-03,7.072642730309580683e-03,8.939400852802415615e-03,4.602188170145089102e-03,4.608392539483525258e-02,4.835453844216054953e-01,7.399785193748499579e-02,6.795829224459742912e-02,4.456251928250366534e-01
4.867579215865373669e-03,6.598759863640760170e-02,1.198050894120506089e-02,7.045092969718568660e-03,1.758223566068973977e-04,5.284045291192290134e-02,5.709699786403872324e-01,6.000981132698598314e-02,6.614356288603799594e-02,4.371331714578432504e-01
3.736065325905732308e-03,8.235022714092665730e-02,1.533812878647116719e-02,2.709483893148773633e-03,6.444030251347211170e-04,6.967339138984685043e-02,6.302445550794739670e-01,4.710121298342577478e-02,6.247213194775073919e-02,3.975228228462924229e-01
2.517976592963220087e-03,2.575202756022066525e-02,1.116665893624649471e-02,1.836471646025336635e-03,2.243207779503113199e-03,8.725713576670431071e-02,6.067103184083117995e-01,5.718626536786251130e-02,4.986384995223914346e-02,3.077193784587727299e-01
2.334585946095662015e-03,3.298394707939875103e-02,5.819034146589061041e-03,4.616382956699972319e-03,1.010657325644159950e-03,9.358785752450536621e-02,5.213847593686199433e-01,7.774581073019525002e-02,3.025258760144167516e-02,1.827610820084819565e-01
1.936720773238711840e-03,1.248019136997144916e-02,1.257292349073517272e-02,4.564110589013069784e-03,1.687854570690958166e-03,8.679018026656031004e-02,4.587670772622904347e-01,7.635483838398646195e-02,1.657314523761767300e-02,5.197609301368591450e-02
6.714477658273263969e-04,9.071327453834980570e-02,3.270960724656064855e-02,1.755867068730563706e-03,2.139574366026095274e-03,7.557369187665852195e-02,4.579551106535006411e-01,4.100207042434279858e-02,1.675899042977353412e-02,5.052576972604077427e-02
4.743568145470888897e-03,2.021509616268686305e-01,5.061157448207800891e-02,2.016011454897734343e-03,3.358967772544149341e-04,6.893964421135455323e-02,4.637383439001972474e-01,6.986001748691418253e-03,2.133293627318442326e-02,9.441020933572011331e-02
7.072063391378461718e-03,2.477854293553106990e-01,5.307335845502317989e-02,3.974886171469836117e-03,3.283511296490476510e-03,6.842225768644918937e-02,4.121528824071201136e-01,4.402193510193206510e-02,1.797555102709985989e-02,9.026676189549984186e-02
5.869101833555794533e-03,2.069368720714360732e-01,4.374061870552983095e-02,2.706761171150529749e-03,5.103380381655862538e-03,7.051362547165034023e-02,3.254513268269350057e-01,7.403803018996887864e-02,9.690681310301946932e-03,8.343294577139197254e-02
2.544128450713045112e-03,1.087118537633726678e-01,3.234540329360522520e-02,4.992129615061327054e-04,7.105270448659110200e-03,7.191612884717160648e-02,2.699986145705004503e-01,1.116753859805029309e-01,4.636008419426806276e-03,9.438073957930007141e-02
3.253859789128013807e-04,1.554651569055358860e-02,2.058401033432954302e-02,3.208250279088739262e-03,1.089510739721131181e-02,6.934419399237534698e-02,2.378440011675321819e-01,1.489834141597413397e-01,7.939106327900177524e-04,1.132349730838373009e-01
1.290435676658602347e-03,1.159995338602215140e-02,6.256349358387533650e-03,4.718329032693073348e-03,1.483138479338325273e-02,5.872957740486689504e-02,1.515199246466828187e-01,1.628976115486842902e-01,1.244806993301028793e-02,1.383563753910620475e-01
4.939563881295215087e-04,2.815588216549197442e-02,8.191747022662742433e-03,6.753161236815645799e-03,1.530937247441961462e-02,4.020845687392535228e-02,6.132356709297001607e-03,1.474510448293023523e-01,2.168745840961696161e-02,1.600100251434819487e-01
1.004571217932715820e-03,6.777780626066075287e-02,1.901504803155479317e-02,1.048496877083817877e-02,1.155974327588831646e-02,2.064625742685635701e-02,9.163290677704104270e-02,1.160550453101000939e-01,1.327822196195531726e-02,1.444235802458639362e-01
2.272627506954883175e-03,4.394714256139489045e-02,2.698011383908063832e-02,1.371398985748890388e-02,6.427503701434342243e-03,6.014823271954796227e-03,7.595709158770252989e-02,8.022415764421358952e-02,1.471514100905337193e-02,9.250761021027056885e-02
3.089798784394328941e-03,3.933521653941200735e-02,3.493524778820012583e-02,1.323084987216120376e-02,2.213382493829886555e-03,4.630315428718820292e-03,1.377318245784173167e-02,4.428289297259985213e-02,4.659789825813354103e-02,6.065201616007970253e-02
3.357706123450584189e-03,1.188588277058721387e-01,4.286394696377399116e-02,9.598363676079304033e-03,1.239833319015264373e-03,1.319134457605167059e-02,9.121656043609080444e-03,1.138700477385282996e-02,6.251626434707781288e-02,7.862722885850841059e-02
2.512323511088224159e-03,1.290639302343558337e-01,4.716520444309377225e-02,6.897354629168871154e-03,4.300498906013866182e-03,1.617762310402995687e-02,1.903531181460561827e-03,1.674403015040371381e-02,5.626166660802663089e-02,1.062486163004603967e-01
4.718210920963264768e-04,6.207857075925384688e-02,4.409856340398900926e-02,7.809091605074727944e-03,6.449666733658722048e-03,1.001708187661554464e-02,2.001970777560493908e-03,3.545471151590674774e-02,3.963272149822685136e-02,1.010491192480238998e-01
1.433972332520485476e-03,2.270917092768126935e-02,3.475845413987829757e-02,1.119745280442728530e-02,7.649408800704889447e-03,8.876796759522461583e-04,3.882335689475918672e-02,3.313096302181584712e-02,2.537305942040840590e-02,7.831289761664067539e-02
1.907994219965118915e-03,5.854136209321313816e-02,2.533234071429754999e-02,1.436041755955456273e-02,8.396929612762497885e-03,8.298676260962216736e-03,1.016457892447752975e-01,8.826078385559909742e-03,1.293692379637283174e-02,8.460039047487763475e-02
1.622831257722334502e-03,2.740093411325878608e-02,2.029112009210264425e-02,1.596760487712789098e-02,8.153426143635220114e-03,1.201702791668362788e-02,1.791955713995698196e-01,1.481771815124246876e-02,2.941648206416505248e-06,1.350132861793362782e-01
2.187127018337222013e-03,4.653855515449842328e-02,1.827151680333473013e-02,1.666836143484974261e-02,5.774648482013451135e-03,1.946400969344651635e-02,2.514901123946736150e-01,1.839255656059626126e-02,5.363645063488861955e-03,1.846118512059559680e-01
3.592037480680509900e-03,1.196670664180537191e-01,1.651163079221545232e-02,1.729308434792007840e-02,2.070556529138292516e-03,3.150828991421068120e-02,3.008342675685147238e-01,1.255452077313122874e-02,1.437269571960207628e-03,1.735667948902536173e-01
4.364025866699181716e-03,1.381175831845721513e-01,1.469566611187780002e-02,1.686590360088535689e-02,2.170434690934306462e-04,3.880203962589309080e-02,3.309837391536851747e-01,1.821498411560119185e-02,8.135998536607820866e-03,1.088361799521475742e-01
4.088625299277445085e-03,7.664281077847169554e-02,1.304678201977572949e-02,1.382669951741956511e-02,2.120446402486607200e-04,3.548928103438619280e-02,3.499570310182074095e-01,3.815663856747453925e-02,7.986943737523476139e-05,6.531157367800635716e-02
3.979132705626720057e-03,1.495014707142629240e-02,1.176959373379171149e-02,9.336568750218975435e-03,3.458770444312734074e-04,2.585842262625034915e-02,3.382100472615272024e-01,6.392001194480013970e-02,2.225921204805164644e-02,8.503614742251945635e-02
4.469493866516105127e-03,4.869630082302029567e-02,1.335462544024662752e-02,6.862897699222371591e-03,2.375878915130188746e-03,1.479392946786315527e-02,2.639449546910574429e-01,8.995519796124250289e-02,4.646633835335740176e-02,1.221299032327372580e-01
3.911288100544293121e-03,3.581228262074477239e-04,2.081313432853406503e-02,8.081330689800766270e-03,4.783843981779553785e-03,2.534282595766663114e-03,1.316145740005908449e-01,1.105583878860917357e-01,6.451818929398625557e-02,1.174041046307397612e-01
1.019502380767902273e-03,6.062202837793632254e-02,3.228950531603951707e-02,1.170202287574630476e-02,6.206834118417817701e-03,9.099569725347969248e-03,1.362689410124864886e-02,1.210618222574330605e-01,7.629803388908690254e-02,8.045528589738039360e-02
2.505126379887365369e-03,6.344888999960242304e-02,4.016087040501189337e-02,1.587585390057653228e-02,8.120961779748171738e-03,1.505673444657995921e-02,1.293668761248246146e-01,1.222537090384454850e-01,8.506422597723611867e-02,6.027168277899132287e-02
3.783574658615112586e-03,2.197077069507094929e-02,3.674317153982013806e-02,1.888408830321366971e-02,1.123813705828822021e-02,1.429668498879399334e-02,2.012847942815392255e-01,1.080339274424707702e-01,9.070795923796108606e-02,6.973318696703305342e-02
2.701674936849325376e-03,6.559505109911521921e-03,2.055037222011196416e-02,1.858168353443966428e-02,1.270263292099243525e-02,1.291003122526940272e-02,2.412693095164135659e-01,6.330554924687370466e-02,8.539673780805792647e-02,7.583010041105352206e-02
1.837626486701988146e-03,1.082117020757359695e-02,2.279847501235071454e-03,1.418521805450202039e-02,1.064117203362576099e-02,1.756445570133962839e-02,2.777500367800430081e-01,5.109884700380697316e-03,6.035076862165375533e-02,4.777815734366793604e-02
2.495310896822187409e-03,2.329157713062502549e-02,2.233045070602228052e-02,7.295838085764256610e-03,8.053388000887944098e-03,2.761601727225743153e-02,3.210924795027561007e-01,5.667151356723162947e-02,2.072831063931428880e-02,3.218503761989177647e-03
3.050860119533431621e-03,5.990765092717600243e-02,3.392744428754719543e-02,6.922150093303749453e-04,7.919658789865717530e-03,3.527756991642461842e-02,3.346048607514946482e-01,6.024834747533518164e-02,1.349677081010987323e-02,2.782238828135592118e-02
1.761507820130320473e-03,1.070569580190137565e-01,3.794629604831994962e-02,9.479491041837690909e-03,8.286465021393983610e-03,3.379095542926916634e-02,2.762580309911229492e-01,2.882569385618440061e-02,2.641347235347387898e-02,5.244534468335792371e-03
4.651807948662615034e-04,1.443393946936118444e-01,3.780428694117762140e-02,1.705363060994481011e-02,6.703272008417394956e-03,2.437054487139390241e-02,1.675403165247585924e-01,7.598097313628074737e-03,2.056052900332749206e-02,5.593498533555986418e-02
1.029818786665618983e-03,1.524013225273964378e-01,3.578288448220288964e-02,2.004804506454669483e-02,5.312571452328228999e-03,1.411582585790755774e-02,8.352642649526244301e-02,3.879743723408285438e-02,1.185742478869461838e-02,5.650443119308946882e-02
1.196017131101897958e-03,1.164128090276744659e-01,3.348332219674166055e-02,1.813325407343044718e-02,6.944975759533314648e-03,8.493250945108134914e-03,7.210434019437661490e-02,6.379412550726809572e-02,1.543073602949742058e-02,1.002515471019463367e-02
4.498535209343263765e-03,4.233530576418541302e-02,3.129880844902511311e-02,1.453121592149307466e-02,9.797269466523478645e-03,8.410431239417329174e-03,1.094150095641482773e-01,6.943887480345631302e-02,3.359171913811668381e-02,1.112254555097537574e-02
6.337325521575559208e-03,2.915578008515333497e-02,2.755882708013176682e-02,1.202359029141099149e-02,1.005208459460080195e-02,1.290510037871845858e-02,1.363867637640732156e-01,4.603546986733968172e-02,5.311972685421784135e-02,3.067025754164583867e-02
5.992856033005728757e-03,4.454640445258467585e-02,2.195294877452129076e-02,1.139237872877578266e-02,7.484914859970301197e-03,1.944221391533513046e-02,1.215987144017733751e-01,9.118183495522659554e-03,5.862636464213652476e-02,9.033645314054614128e-02
4.725657014588438391e-03,3.045872575028875026e-03,1.716698128074183732e-02,1.236600313568759525e-02,5.562385855853742463e-03,2.185264448045733457e-02,8.383806494529311149e-02,1.504191775956803881e-02,5.036088836448451150e-02,9.969674783865987988e-02
3.942845959950779834e-03,5.484820753160137008e-02,1.381331784379116745e-02,1.323946583226359025e-02,7.022319159698838312e-03,1.413530442095874487e-02,5.353043081835097416e-02,1.544849441356523426e-02,4.227976485390138456e-02,3.514586314690033159e-02
3.643124802046118077e-03,5.555887057524143413e-02,8.890040354901504113e-03,1.183999471839468180e-02,1.087610003663547209e-02,1.281167411065427947e-03,2.570762015223298710e-02,2.716686559551055938e-03,4.322167465021896360e-02,6.907482698468769833e-02
2.719862072748941827e-03,1.284689822054584617e-02,3.265588114564468847e-03,8.640082041312731331e-03,1.343021147346173429e-02,1.270796295743579357e-02,1.307819969273713023e-02,2.747142416168931595e-02,4.942517335303445170e-02,1.494753082778402797e-01
8.862405954099146759e-04,3.923347221387829542e-02,4.263856166364723976e-03,5.617584756358259997e-03,1.215821148362385661e-02,1.063073188819639928e-02,2.485851388438707621e-02,4.161855789692312652e-02,5.445072447113757930e-02,1.643985271275438531e-01
6.925156976872483532e-04,9.155842855445445183e-02,1.497938441793746946e-02,1.970497622364651008e-03,8.734047360522158993e-03,7.200137133523219074e-04,3.878326769031265053e-02,3.551696843006968418e-02,5.493194070922539224e-02,1.252601032094382283e-01
1.414599464373989673e-03,1.370956556419574146e-01,2.622553237300329076e-02,4.339952177128604538e-03,6.855533043511249751e-03,7.890603767849804079e-03,1.387137478958658243e-01,2.606415554705903553e-02,4.624633041097639397e-02,6.947591604473195293e-02
2.148822581899166324e-03,1.403028320389551609e-01,2.514993276455232754e-02,1.147614761360699759e-02,6.782617386085893624e-03,3.822834133400421566e-03,1.814326770679771661e-01,3.712700715328535322e-02,2.402766111611754837e-02,2.074228910601649128e-02
3.111779968781982434e-03,7.983903799129449252e-02,8.471458726057867761e-03,1.527000552329931850e-02,5.057419951639545441e-03,7.818881565168293857e-03,1.477948274376258142e-01,5.599534904263617219e-02,6.998283783754551818e-03,6.206190250826644494e-03
3.091662751591608624e-03,1.826542525195963551e-04,1.619012573983955733e-02,1.535192636592563192e-02,3.963683175640593287e-04,2.200288140670451226e-02,9.718298444981236794e-02,4.310153154176053075e-02,3.333361784391741800e-02,2.987242581213751802e-03
1.825717495390382500e-03,2.774117353704174879e-02,3.738411738065108153e-02,1.525529707103266512e-02,4.442879566767039823e-03,3.502090214386575223e-02,6.221903885756556452e-02,1.002511571517197136e-02,4.572235524390552697e-02,3.643582766263365330e-02
7.883539562595698932e-04,1.173482346230291309e-02,4.558482982012997120e-02,1.635046186976733470e-02,7.822847196967531655e-03,3.944328483062509161e-02,3.546655670547797096e-02,6.943610000626075640e-02,4.824955419663436162e-02,6.059928180419469484e-02
7.343667636774498051e-04,5.994307264197466789e-02,3.772087483698460808e-02,1.562352444074020796e-02,1.104609747518029740e-02,3.019179166582203894e-02,3.133434453671313236e-02,1.068362189594076750e-01,5.067680315771751209e-02,7.373014826886298279e-02
5.228905609036284784e-04,6.057897539956257765e-02,2.036295584334853886e-02,1.117738871464342421e-02,1.349383343954424844e-02,1.566098328266050943e-02,6.750845649242669111e-02,1.208693750721612781e-01,5.571101873304100394e-02,1.001313304523757108e-01
9.074057246191739260e-04,2.375345714529548263e-02,5.970229475895998464e-03,6.861720047352858586e-03,1.160266717612594596e-02,9.993008921890662172e-03,1.131570425188708207e-01,1.132790992765323745e-01,6.217080378286182069e-02,1.178045865555244071e-01
2.809939893263968449e-03,1.313994141523965910e-03,2.774916588747530430e-03,7.502618036242844624e-03,4.843364691195669453e-03,1.519906166288492559e-02,1.282866571597013061e-01,8.328163926247894588e-02,7.436514518467654544e-02,7.284293441676546743e-02
3.471941322275491973e-03,4.698909710070225086e-03,7.841822413696136404e-03,1.084932741614788414e-02,2.231843668356023585e-03,2.246522276158390702e-02,1.235814963772686875e-01,4.521460837201372873e-02,9.086744597133056267e-02,1.615804243801874027e-02
2.197433121803772302e-03,2.099661316740714795e-02,1.129301162081972412e-02,9.663888977855378953e-03,5.781297132807253387e-03,2.746970913205036904e-02,1.314836649030837745e-01,1.955751044576337083e-02,9.048801423645597142e-02,5.831557182598647721e-02
4.257206861694369537e-05,2.669441430559220049e-02,7.991058886878303971e-03,1.959187567575584876e-03,5.976688211597446995e-03,3.101862540178796507e-02,1.582668664570597850e-01,6.145468908544607020e-03,5.426705399883580833e-02,1.688444538404279549e-02
1.383540059223265775e-03,1.397692471644119104e-02,2.003742910956581198e-03,6.998556891466216345e-03,3.064156127787689022e-03,2.787288225700468303e-02,2.040909478265556243e-01,1.054766723506262924e-02,2.554011909494035334e-03,4.510343021118321666e-02
1.547222490306981871e-03,1.875468898901682530e-02,1.747788261407726097e-03,1.310736963191026609e-02,4.716833990659342023e-03,1.056094841569219303e-02,2.783150940671093587e-01,3.213081320268645902e-02,4.398388713812406703e-02,6.071831947847743799e-02
1.082448332027539538e-03,5.346377242966155602e-02,3.511204236034688730e-03,1.648379083838989734e-02,1.633610598511950340e-02,1.413483960058354791e-02,3.484228958676128252e-01,4.409805844838106392e-02,5.311514196285756217e-02,3.178134414419866299e-02
4.291872667780498828e-04,5.609149484224414117e-02,2.864319765856846410e-03,1.618515546381971842e-02,2.532578195225091908e-02,2.618666432676307679e-02,3.318589919946257627e-01,4.251160818610106445e-02,4.001213934471237882e-02,3.480387412494419415e-03
6.672704778656296347e-04,1.546724650846091793e-02,4.715578577904493141e-03,1.047856680288202814e-02,2.608871832475500099e-02,1.624232751397847868e-02,2.037537701367124199e-01,4.006018924717404117e-02,2.018918502894500797e-02,1.933794901670152569e-02
1.872880221490792882e-03,4.652537001316590926e-02,1.959965484286934137e-02,2.817464967492913034e-03,2.056404508840594531e-02,1.406406743097903759e-03,6.010297731628796991e-02,4.051975051881340217e-02,2.859023349441110196e-03,8.866768092514704797e-03
1.847718657145832905e-03,1.055001420282723756e-01,3.323088568494068223e-02,5.511933785143740931e-04,1.498605375275544049e-02,8.762550822590062932e-03,3.085647530870757466e-03,3.004863824384513757e-02,7.532750625739392109e-03,2.310764518952576271e-02
9.168379869325287475e-05,1.458722607884499756e-01,3.770032954457392532e-02,6.980885184318696198e-04,1.205274543104646774e-02,6.745015308789298857e-03,1.287987700941948394e-02,1.482845104724768784e-03,1.237008452437418637e-02,6.151350851389008473e-02
2.097371080522938361e-03,1.544060623680558741e-01,3.523314879045903736e-02,1.346027978972778134e-03,1.006873039311185700e-02,4.421010431471947971e-03,2.838265571586434666e-02,3.461781218259198795e-02,1.966672029994714216e-02,8.934299303411297188e-02
3.232982296499068483e-03,1.330753036126586519e-01,3.359349603272188123e-02,1.423991830677434275e-03,7.662860191210523614e-03,1.257708095233713887e-03,1.334206143540491579e-02,6.661592906603876207e-02,3.770557979690823680e-02,1.057836643052429415e-01
2.950473383395068629e-03,1.045547952784992574e-01,3.649598767915900044e-02,6.652508907070081925e-03,4.993391654688227044e-03,1.493145249812172573e-02,7.007535615893444036e-02,8.685908108946688300e-02,6.608698653313717364e-02,1.297128690609424539e-01
1.727166558907366383e-03,8.918552744925879738e-02,4.124157454825719965e-02,1.314022523816271021e-02,1.945873459607963540e-03,2.532405400891522482e-02,1.334701418635896863e-01,8.424287687310631767e-02,9.111555569637105889e-02,1.676791159997521041e-01
6.253824403342086134e-04,8.940997110748309662e-02,4.147714633035150256e-02,1.782364820863964472e-02,1.083122293557430265e-03,2.089979533000799888e-02,8.167111155054516958e-02,5.701330644481925752e-02,9.246547010053329796e-02,1.897289910696154380e-01
7.641222003512346261e-04,9.212889930348119871e-02,3.244772284112071303e-02,1.510714006951014918e-02,1.946241245470149012e-03,1.248195946453384275e-02,1.643346227638558740e-02,2.641503822060663198e-02,6.237921167675097162e-02,1.624359314345976968e-01
1.987094823643833271e-03,7.561085787378317435e-02,1.759102598790111133e-02,4.611450732163907204e-03,1.258972550726767704e-03,2.074382641341842790e-02,2.161284284331091779e-02,1.742532473966942191e-02,1.817989075730864698e-02,8.672324761802220616e-02
2.950019011223684214e-03,3.201578152784165937e-02,6.291766375518354978e-03,5.374529367534190000e-03,7.821594194816159154e-03,4.748892571390585238e-02,6.929984895829680025e-02,3.604615944935032901e-02,1.264666980481634305e-02,1.282917840745965120e-02
3.005310393358228555e-03,1.395300711045302858e-02,1.802104497711398256e-03,7.826794535634390773e-03,1.463179679155812533e-02,7.292658686055336625e-02,1.382596602858226498e-01,7.546633935169523577e-02,1.911925178101233497e-02,9.941464457785813280e-02
2.783047451513689582e-03,3.027955776929024817e-02,1.812005474007618525e-03,4.692764548014723321e-03,1.813783917943270763e-02,7.972752332317689650e-02,1.263721774132475217e-01,1.242693496288061195e-01,1.056773508249956445e-02,1.287136818571165409e-01
2.811723286360910158e-03,1.725808337461528369e-02,8.386183076134907585e-03,6.395968685684978120e-04,1.698118920611551078e-02,7.162458508671222523e-02,8.698534823011080941e-02,1.612475878885996639e-01,2.124756411788451642e-03,9.811333304980249248e-02
2.895937076588039200e-03,4.995587020237008367e-03,1.399367854834085954e-02,3.406389156567230219e-03,1.347851488263599948e-02,6.526859493744570362e-02,7.618705334147561625e-02,1.667471335253735976e-01,1.610985409997149967e-02,7.092712441404043500e-02
2.918498395844951708e-03,1.624537494664984524e-02,1.481499347825357069e-02,5.899651234098674153e-03,1.134549941000890898e-02,6.726455925936195013e-02,7.640080633177598335e-02,1.452820397872972014e-01,2.765150085783686304e-02,9.239215374747783427e-02
3.072772312639480367e-03,4.466146174486511355e-02,1.315729329706444295e-02,1.933056461242270560e-03,1.143983948234980619e-02,6.657197908092910010e-02,3.575901884309980877e-02,1.162686508569054922e-01,2.766847926923850925e-02,1.201866790086271591e-01
3.136853001115996395e-03,7.329150404329716484e-02,1.324857856566795389e-02,9.393397577861778772e-03,1.126713749426376705e-02,5.306450334905172400e-02,5.462288557342921680e-02,8.694453764359025283e-02,1.200316410703511187e-02,9.846817097078824910e-02
2.506353197138279885e-03,9.757420459929057321e-02,1.498369267987643104e-02,2.153160807575933006e-02,9.202100852349818713e-03,3.640665976248844138e-02,1.357535447117565464e-01,5.813640493753209626e-02,1.125663051359022254e-02,5.458370325655043098e-02
1.202629061491057019e-03,1.110119760799162525e-01,1.394482931580839045e-02,2.849759951391100596e-02,6.701062052402457191e-03,3.518121089436552357e-02,1.434695752132346680e-01,4.346229072194212478e-02,2.837142911719935101e-02,5.650433485467758893e-02
4.620834995032349580e-05,9.374527825201812992e-02,7.665365244126306349e-03,2.998156185221437925e-02,5.012800203769750620e-03,4.919591306891840654e-02,9.234301274676338933e-02,5.192076564640719927e-02,3.242467045974627149e-02,1.066328532373223420e-01
1.037902799073373277e-03,4.903579318804911213e-02,4.136371058085629854e-04,2.742579970041176055e-02,3.030377630882869280e-03,5.856225038936666710e-02,5.673668783925270298e-02,6.497393352728882132e-02,3.187857828583612330e-02,1.429826627502835956e-01
2.432766480945247004e-03,2.039429127413779769e-02,6.745151159637820769e-03,2.253075898949119180e-02,4.958710941270953829e-04,5.318618163917281788e-02,6.338958171950360987e-02,6.052961837492894237e-02,4.389821174877339000e-02,1.335549947369388812e-01
4.359257753697024125e-03,3.803729062100109221e-02,1.284100133377965615e-02,1.956001128111871726e-02,3.089572662785830624e-04,4.468104503918632342e-02,6.010027220636278422e-02,4.556402602466728263e-02,7.208292351332462600e-02,1.109827819108038793e-01
5.682399566345332047e-03,8.325162748639912402e-02,1.627787897199272499e-02,2.215855627248576598e-02,1.782177204362685652e-03,4.334966248747722933e-02,8.251179744256322349e-03,4.111700946358706060e-02,9.889244906758426490e-02,1.090402104495572094e-01
5.344149453493778415e-03,1.280794331818171372e-01,4.196843887794020171e-03,2.807950232189555112e-02,4.704849963457970186e-03,4.260496496431574048e-02,4.847483696363766997e-02,4.852559435870840154e-02,1.086541097985034010e-01,1.138591792949936732e-01
3.630695338998614959e-03,1.663650408807769432e-01,2.903598039393270880e-02,3.139593665854308047e-02,5.899644015498745411e-03,3.377871473091856314e-02,3.580063061917707762e-02,4.842550169478210265e-02,1.045572428741178977e-01,9.608576025712331492e-02
1.593305908679913370e-03,1.880547753618561635e-01,6.494038760157679058e-02,2.907985396348443732e-02,4.587104612449301178e-03,1.978859777408434675e-02,6.179990130871367005e-02,2.717938031075445987e-02,9.564028617619403649e-02,5.572829976039663652e-02
1.209930227638993658e-04,1.657959778087217673e-01,7.941139428955779067e-02,2.337775981767712882e-02,1.559357117097038593e-03,6.758512490920511213e-03,1.851193053963563762e-01,4.094586467850719856e-03,8.507789592129572087e-02,1.189604586184556632e-02
1.499698039955119555e-03,9.319068561062900102e-02,7.100777015814876969e-02,1.873080051235771759e-02,1.161549618812095751e-03,5.420760341647823909e-03,2.635547590726148304e-01,1.977877022637127349e-02,7.704557680473325676e-02,2.632479188934153808e-02
2.661359330161768445e-03,1.750462940487838848e-02,5.460581938778470701e-02,1.688862700114396320e-02,1.672934119696436843e-03,1.873193704195138740e-02,2.828892021321381955e-01,1.084341723373545910e-02,7.543742496174718482e-02,5.540222466076775293e-02
3.457090617984201041e-03,5.147751862786518334e-03,3.717089955933924189e-02,1.499227830932418556e-02,5.668256242677571386e-04,3.137843246133899255e-02,2.799311220998435545e-01,3.693072394304864302e-03,7.151503195620984021e-02,6.286508714470329107e-02
3.547215919655851302e-03,6.782821931019167305e-02,1.837879987275414448e-02,9.524329053334994188e-03,2.907818975288989599e-04,3.878449912989922338e-02,2.725316018213913005e-01,5.033693104330844853e-03,5.150460681735759272e-02,4.162888383798662301e-02
2.780126211489220185e-03,1.466125831647883682e-01,7.101423358771101306e-03,1.428608707445487439e-03,2.031769539687188712e-03,3.731897739476261466e-02,2.381571756143584795e-01,1.314153949732532398e-03,1.993129740750444398e-02,1.236151662518142867e-02
1.465143855523586350e-03,1.805659468960911507e-01,1.693068028651064164e-02,5.044764652214692169e-03,5.289582252072796802e-03,3.000815229433473688e-02,1.850603025137131930e-01,4.762253108584601526e-03,1.181708574867684769e-03,1.237452724296545306e-02
2.126396080110573084e-04,1.634234068752821734e-01,4.542261877346159132e-02,7.835425532419254546e-03,9.608679725005241784e-03,2.766403055494452007e-02,1.747562357936552346e-01,1.342049648662337405e-02,3.251128075628098232e-04,5.504739896860896126e-02
4.971863736967554450e-04,1.197625238901771916e-01,7.209487457200956795e-02,8.362831335997657906e-03,1.405064064069176319e-02,3.630015592468411462e-02,2.178115914187202795e-01,3.718383569489141366e-02,1.110191624456291493e-02,1.060856348206744570e-01
4.970265183847978911e-04,6.044013535547517607e-02,7.940170905032550852e-02,7.782992584274817625e-03,1.588601485260983034e-02,4.600767677116477522e-02,2.236531168458827656e-01,6.405610422747087807e-02,1.889434159858433340e-02,1.134114408753541525e-01
4.762259163798916891e-05,8.052367797411339595e-03,6.746223959807017001e-02,5.591241395483946205e-03,1.308158074244204251e-02,4.311288360175064699e-02,1.276254056368860412e-01,7.589187916355003005e-02,2.352451755409714143e-02,6.786554912064909906e-02
5.359820583978729689e-04,5.089996980350638967e-02,4.858920925153257381e-02,2.170858693078718017e-03,8.011283193938609215e-03,3.006817324793993260e-02,7.875964649964109499e-04,7.493687518915008450e-02,3.175293660224814962e-02,1.806468546642760534e-02
3.748380636171861225e-04,2.715878451306849226e-02,3.478390880144247715e-02,7.836592485793268540e-04,5.372033992552957375e-03,2.135472158390356798e-02,4.588997074044523505e-02,7.497100528534451913e-02,4.420695914977674362e-02,8.150261285567006464e-03
3.062385551804588609e-04,4.965363835582080332e-02,3.035523699089702140e-02,2.589968924248119662e-03,6.099961957613811263e-03,2.260691929594073682e-02,1.475660069989269407e-02,7.680836294662947428e-02,5.631416928749681527e-02,2.084051741035151256e-02
1.115187627836228441e-03,1.158869435136448689e-01,3.172366579564845496e-02,3.243272688477696463e-03,6.913102803608150472e-03,2.583048234376695423e-02,1.106277369530552918e-01,7.081064702938999478e-02,6.186462918686862905e-02,9.919668398848811158e-03
2.118427154377404940e-03,1.353725019752244352e-01,3.305106855840724694e-02,1.396100538951872009e-03,6.244266855748151213e-03,2.483310232236785736e-02,1.760825111817332922e-01,5.636888845474351956e-02,5.413368160473057411e-02,2.896351994261989887e-02
3.063378017678409365e-03,1.294772224099918490e-01,3.137118740005870321e-02,4.187555657851051334e-03,6.656154065539274592e-03,2.489799433219440708e-02,2.103501694326240790e-01,4.364161743236932151e-02,3.181315597817136603e-02,5.956159545683821499e-02
2.991868871289206540e-03,1.212702172474394852e-01,2.624463790517821485e-02,1.195710580479256331e-02,1.061323122906943604e-02,3.278589589506637758e-02,2.493048306300626182e-01,4.031036575140643785e-02,5.555044212591815980e-03,7.030049234418998816e-02
1.783210024263520797e-03,1.004443227619690460e-01,1.804539394292428364e-02,1.885677846771752555e-02,1.719505560656111806e-02,4.341928622041400787e-02,2.948852068760485223e-01,4.732804944461292684e-02,8.132482723200207958e-03,8.788421522896065763e-02
7.139805502861440358e-04,5.666014471519833368e-02,7.903476964215578465e-03,2.329057166404149490e-02,2.353797323780142461e-02,4.545660679528485543e-02,3.035984011959491080e-01,6.362965963168043526e-02,4.175733805400540580e-03,1.163223306865335815e-01
6.453286456627460588e-04,4.105486412828342029e-03,3.072310475955664609e-03,2.527374787834007347e-02,2.716729510673745671e-02,3.869295994065774513e-02,2.570005530802793592e-01,8.568502508059223921e-02,4.073900357326232929e-03,1.222359467908303021e-01
9.888492634809046070e-04,4.028838971162496813e-02,1.408909616236608472e-02,2.522587645516041061e-02,2.707176581342440186e-02,3.433780730618995330e-02,1.943018468303433222e-01,1.048887379150562071e-01,1.086602761535581003e-03,1.057717880781674641e-01
8.958732550292248902e-04,7.340205119681095236e-02,2.338579104697642921e-02,2.396914494440056942e-02,2.447544178005585033e-02,3.701187381605066523e-02,1.583503949918327602e-01,1.142142268658075110e-01,1.204761677239828306e-02,1.213673249377526797e-01
2.578139095414464649e-04,9.458962187673028432e-02,2.944899999359396753e-02,2.260918613411098260e-02,2.235837149668573609e-02,4.041993051167705464e-02,1.652445492712746600e-01,1.170236111845667504e-01,2.296073963073755678e-02,1.889538352838616986e-01
8.292366659609710618e-04,1.006906701090710954e-01,3.362426772543746639e-02,2.152470716302819914e-02,2.261628465273842620e-02,4.271006079157865787e-02,2.176055176190779261e-01,1.218915843363284207e-01,2.728847666998633625e-02,2.399156392729513698e-01
2.476894826878602365e-03,9.693680960886570663e-02,3.834886631234144666e-02,2.034919681898850544e-02,2.396393053900371453e-02,4.980260109262461127e-02,2.762267350063942750e-01,1.302175128590468134e-01,3.226877931671379846e-02,1.974777991405351485e-01
4.103135025223835983e-03,9.678494481768473712e-02,4.393184386908872280e-02,1.911780991156142653e-02,2.406349905679115719e-02,5.996202443109154012e-02,2.506900023769942365e-01,1.365593755428981260e-01,4.342490004671746562e-02,8.142137271873156612e-02
4.083498228595163274e-03,1.063548009684931045e-01,4.916831586624523243e-02,1.828334467798203855e-02,2.237703443368700001e-02,6.092422271305313747e-02,9.086800836874003862e-02,1.377339276306119853e-01,5.706348775867535472e-02,5.757946946135569961e-03
1.774993578324345978e-03,1.179623503574303706e-01,5.196282192012142975e-02,1.736218105040545495e-02,1.843615234357913468e-02,4.672028805824108427e-02,1.534032124560679722e-01,1.337361348433398767e-01,6.607520709991690500e-02,5.470436716376809831e-03
6.644888725240510278e-04,1.215939933746152668e-01,4.880498021849388746e-02,1.492921648382449125e-02,9.840100987623333004e-03,2.434016055524204983e-02,3.979770096311902594e-01,1.248026036914099690e-01,6.735902015300851420e-02,7.678957777339862067e-02
4.185890659293073422e-04,1.168000426323433510e-01,3.878192284849299454e-02,1.063055358133274328e-02,3.815509868617736680e-03,1.329416663868357787e-03,5.791950431636513352e-01,1.140594811586931184e-01,6.334666028368414470e-02,1.184459428584930113e-01
2.063054751095990888e-03,1.105939790788209864e-01,2.758454219635148724e-02,6.035563067731305673e-03,1.756239214476743374e-02,2.090653504699184137e-02,6.417022378989761799e-01,1.059603227734637054e-01,5.914405263922863087e-02,9.389196040618250083e-02
3.418162272431637776e-03,1.077628756461800758e-01,2.219771971814143291e-02,2.839579307453565706e-03,2.601780201523812980e-02,3.941294048611431594e-02,5.721234858694218550e-01,9.698198908776484162e-02,5.809273701816919377e-02,3.401054764656626095e-02
2.014801783744673419e-03,1.072719425475197885e-01,2.325407833625179124e-02,1.314229523769125819e-03,2.938997385591514758e-02,4.695419833970044393e-02,4.510719133733266939e-01,7.641849166297538798e-02,5.936678415549559440e-02,2.680130488514495188e-02
1.551342191569970975e-04,1.065970683194045199e-01,2.665973172733664825e-02,9.910520788538098452e-04,3.114810510948737288e-02,4.154853210529028257e-02,3.881576122016566766e-01,4.161937594611521407e-02,6.027650262547237792e-02,7.925183809100985743e-02
1.028721605736398993e-03,1.054288980746430765e-01,2.975626438296606960e-02,1.704972020167315645e-03,3.224771038458037337e-02,3.146020625000702647e-02,4.037447450459027976e-01,4.113841153477324625e-03,5.998123580153687934e-02,1.157514994890416898e-01
1.333270809635939136e-03,1.042696311081346555e-01,3.250570189298818136e-02,3.306454126924456092e-03,3.079619927345599029e-02,2.601184008317676544e-02,4.322256084081466665e-01,2.507700854295070308e-02,5.948532418335625988e-02,1.237027413383966490e-01
2.510495171477993871e-03,1.021847443639952724e-01,3.512962941870977768e-02,5.035082976474132208e-03,2.595817777124919887e-02,2.560436933838046783e-02,4.258617315763821853e-01,4.752813666547785199e-02,5.911859998281519812e-02,1.065891907164582958e-01
3.864411608950594698e-03,9.802068074128642006e-02,3.701263054510828265e-02,5.866996667584990083e-03,1.955064529156680733e-02,2.441541331722571137e-02,3.937206949641032239e-01,6.737335976187737441e-02,5.814377422190761951e-02,8.733632607428665207e-02
3.397205540679152421e-03,9.243590825577281678e-02,3.713967263006883596e-02,5.454984438554122232e-03,1.364329292531837705e-02,1.895465602941705935e-02,3.460189942928616480e-01,7.875460967901727616e-02,5.629066569014385540e-02,8.533923711533604461e-02
5.382523852448308508e-04,8.665255916686430415e-02,3.509331628998765829e-02,4.373906755237391177e-03,8.196960923152397938e-03,1.015393254947573667e-02,2.678815095619464515e-01,7.458688567566035266e-02,5.386435673423614623e-02,1.002041393751381126e-01
2.984715436399778925e-03,8.033492256226824890e-02,3.171994265655445067e-02,3.345419233147500088e-03,2.201761803895076804e-03,5.604372902364457721e-04,1.652017216915279696e-01,6.034923489594243295e-02,5.070719510443945366e-02,1.187535654324504697e-01
4.655309426136131426e-03,7.261608399744567954e-02,2.833355208144291981e-02,2.542409919657649762e-03,3.636249259999512189e-03,7.326627661339846220e-03,7.996386157171676834e-02,4.685299925692819334e-02,4.660232785220981555e-02,1.315860154320317166e-01
3.129202307326345127e-03,6.404482286117106626e-02,2.540275845593012796e-02,1.777646126835112205e-03,6.986029802809930016e-03,1.246858867377347371e-02,3.121929608820512431e-02,3.580706556717818539e-02,4.253066961787810990e-02,1.406615092923635124e-01
8.138799355484841597e-04,5.587736772132024382e-02,2.260360075071418326e-02,9.785240190264947197e-04,6.821424073732505755e-03,1.581747853210094604e-02,1.546708796443044265e-02,2.463245223882515322e-02,3.960823989153994251e-02,1.520197237135279544e-01
4.821361950598382698e-03,4.844208792151013382e-02,1.974441010616419592e-02,2.271929243845892486e-04,4.916315132717367573e-03,1.705145507570492505e-02,9.131157754350895106e-02,1.784030361303207829e-02,3.607605689093618812e-02,1.646942886804031725e-01
7.036600587451588736e-03,4.132791288541277225e-02,1.698499795874595236e-02,4.308891692878140736e-04,3.414062055529356113e-03,1.265737231698794811e-02,1.712323619087599558e-01,2.109194405600211750e-02,2.804243842618730012e-02,1.713388521918862151e-01
7.822516900768823958e-03,3.439402613589655905e-02,1.442150345218599396e-02,1.022584594925405373e-03,1.689693193223119070e-03,9.768639557194620272e-04,2.021596129751295490e-01,3.222109205938594734e-02,1.539751025219993422e-02,1.676559099780446371e-01
8.501235933826543217e-03,2.783524596335308632e-02,1.196763637115818950e-02,1.581561723038760366e-03,2.244845393966885243e-03,1.268750236074640998e-02,1.662316802267627958e-01,4.791699051412042637e-02,3.818035067331686239e-03,1.548897747318314921e-01
8.676086406259570644e-03,2.172721981918388293e-02,9.596213459641438764e-03,2.109624313763384679e-03,7.170122193353329135e-03,1.992231384896327520e-02,1.042396327953890450e-01,6.848861633337174903e-02,2.223910871172910669e-03,1.347013283728800137e-01
6.604072913386581541e-03,1.598468640102860411e-02,7.404513956826237753e-03,2.558423017837045416e-03,8.716550684489850209e-03,1.785583080721698038e-02,8.091133356463822701e-02,8.890621804381358684e-02,4.854049160376169847e-03,1.080560550629036942e-01
2.314964075724003541e-03,1.057277627160498924e-02,5.393062563739332675e-03,2.891249156387819177e-03,5.016691926818482410e-03,1.134987189406915821e-02,1.220209434345689292e-01,9.792749857487022258e-02,7.918983019666168965e-03,7.819306537767932441e-02
1.441576273677514647e-03,5.529339205119023631e-03,3.414877696367480363e-03,3.197325889602519247e-03,1.137178394382769037e-03,5.944221871921776500e-03,1.842417878661593844e-01,9.247228212845273743e-02,1.093802077983045164e-02,4.978527653325021118e-02
2.123266418496822655e-03,8.664090290929227917e-04,1.510410882402386627e-03,3.573609118451056849e-03,6.703544304353513394e-03,1.258647646340745139e-03,2.010888260335738642e-01,8.203736115792246986e-02,1.175839961586671277e-02,2.525030803925767259e-02
3.593417944802877653e-04,3.441335522243502143e-03,1.877730024238671164e-05,3.838152803109238891e-03,1.089970603251132382e-02,5.520190909116298207e-03,1.597292080991505325e-01,7.476978680073534389e-02,1.157758042238668343e-02,3.923488831692845819e-03
1.048271118449511409e-03,7.410401490446921410e-03,1.256578390703575777e-03,3.756641541452307269e-03,1.236332246157682488e-02,1.159969009677174097e-02,1.062556707437040532e-01,6.940225795683735432e-02,1.330838120717625465e-02,1.513879338760448431e-02
7.130246984356029003e-04,1.104229257002118172e-02,2.882940996022681501e-03,3.774886594366989520e-03,8.567321305653220753e-03,9.804183521773316562e-03,6.643126128967262456e-02,6.424530421413804371e-02,1.701282565153647980e-02,2.936662379805359338e-02
2.281852170537982999e-04,1.434478789817983033e-02,4.987114731136933939e-03,4.966519782602261610e-03,7.290432487922068536e-05,1.580653091837101515e-03,4.596523942175073998e-03,6.301031732267577123e-02,1.998293053431476202e-02,3.268724797718387809e-02
4.588625687574819602e-04,1.733480197873781686e-02,6.459281199564275572e-03,7.672131912297847078e-03,8.448819174090767617e-03,1.560100504863978776e-02,1.071278482574588575e-01,6.756200505975232251e-02,2.046035725372008854e-02,2.349376515485037190e-02
5.987928812345319702e-05,2.002813139641289319e-02,6.733337973360615028e-03,1.040864207121692565e-02,1.337345845148248981e-02,2.488732425808255419e-02,2.223549458987574279e-01,7.477671923999372472e-02,1.941505030820347283e-02,1.228086439377295766e-02
3.218436805292620539e-04,2.243764245857346115e-02,7.017341879477193185e-03,1.084735480671370975e-02,1.527411349277895541e-02,2.842146386448332618e-02,2.674929366711475409e-01,8.157568701752979101e-02,1.881055163551262344e-02,1.297385721545143283e-02
2.471657398545128149e-04,2.457768512623504514e-02,8.311487036945168494e-03,8.354399774337238627e-03,1.578616675300336877e-02,2.838701559144109557e-02,2.221612081602866717e-01,8.417660429282686207e-02,1.926050265423778080e-02,2.482535855093928948e-02
5.050193406832825804e-04,2.646463134905602949e-02,9.630093780812839024e-03,5.036158944795835965e-03,1.479990725756573193e-02,2.539813404076748937e-02,1.204633033910578188e-01,7.760579257544635012e-02,2.009000417783749978e-02,3.360026998518798880e-02
1.618381485539990275e-03,2.811446326648932292e-02,9.779441167066351900e-03,3.377869561631025464e-03,1.236810767611713248e-02,1.982405478517393696e-02,1.049443560705685952e-02,6.481508942052599531e-02,2.107627888294244176e-02,3.269066125155192098e-02
2.305793716904968108e-03,2.954214032740263077e-02,9.338125655868176681e-03,3.487059671219308685e-03,1.012772629017291356e-02,1.342065490308854900e-02,6.404479863883652535e-02,5.586926546557709206e-02,2.237435932527492843e-02,2.970109594119171859e-02
2.265811317058161363e-03,3.076236906402819715e-02,9.427497379721152052e-03,3.802052979935167942e-03,8.550373930438323611e-03,6.450532399020023760e-03,8.306158979160760403e-02,5.053914861398783875e-02,2.263780119554636983e-02,2.992475720763048547e-02
1.985199084852152639e-03,3.178960718976937827e-02,9.972260722432716232e-03,3.573926338018588653e-03,5.393683984132472374e-03,2.651849928123696347e-03,6.796406328426195242e-02,3.581944692079604836e-02,1.975322874720010502e-02,2.800078693099631102e-02
1.898873539206760545e-03,3.263747712804800777e-02,1.030569601331461117e-02,3.248645001824377113e-03,4.713376762750172725e-04,1.196065801884083242e-02,5.324127266731113611e-02,7.511583876308933899e-03,1.436790047047170442e-02,1.982764529916660953e-02
1.920468366123187585e-03,3.331851951014651314e-02,1.034815173444726503e-02,3.162830876094340892e-03,5.957690026197412156e-03,1.530875471254597095e-02,4.938066178003754081e-02,2.047075735219759662e-02,1.013112970164484206e-02,1.045787611123950508e-02
1.861077561365163382e-03,3.384417747672598814e-02,1.040264053727599051e-02,3.127661238947849250e-03,7.476600333500440718e-03,1.012013464703049280e-02,5.564605573174331160e-02,3.498725288720895554e-02,9.289817782529938978e-03,5.805578692237037264e-03
