1.763988251768501634e-04,5.395857037854381519e-03,2.734876286192890540e-02,2.699671250876632244e-03,2.145048121665318538e-04,1.973164813534460625e-03,7.136709555037828827e-03,1.335978010526444291e-02,8.488412040935890829e-03,2.989552452201280075e-02
1.804368362759286248e-04,2.979569314385482198e-02,3.009929548172175090e-02,2.633891254972641274e-03,6.248731546496994783e-04,2.114632780759442745e-03,1.128002918476233435e-02,1.910905713140996845e-02,8.209507569596220453e-03,2.257197838590810357e-02
1.814471596637836043e-04,4.698396319431816931e-02,3.542550030990209570e-02,2.589852778106210233e-03,1.339134759324254369e-03,2.234650488045505402e-03,1.808664598745843288e-02,2.809885978045380955e-02,9.188408777397955376e-03,9.525163584882263834e-03
1.793396351344005428e-04,4.764223527037318717e-02,3.560354858805762218e-02,2.580254796287744217e-03,1.492664194176765262e-03,2.329945709663477221e-03,2.166972415335514240e-02,3.208060767339957625e-02,1.134352505434427054e-02,2.764709110425591157e-03
1.741130439230330622e-04,4.325254394500752109e-02,2.331720418420641511e-02,2.606931739581332206e-03,1.224208353287174322e-03,2.411480764649627170e-03,2.051184419073021417e-02,3.454811432415934302e-02,1.416588745730544552e-02,8.685226340968616940e-03
1.658558224953625524e-04,3.904321092577446584e-02,3.456766489834749590e-03,2.662846878008444558e-03,1.092334563493998351e-03,2.479980849042656178e-03,1.967256727946778069e-02,3.875018689052701221e-02,1.650603342291364142e-02,2.059944840333909760e-02
1.547435094578346348e-04,2.500484117455649413e-02,9.878876344825468503e-03,2.761658134770951078e-03,1.136997607507591592e-03,2.506876619257045278e-03,1.993991316515402248e-02,3.448075289509275332e-02,1.715177210601079652e-02,2.438053553938199919e-02
1.410333925935492393e-04,3.675123502099580854e-03,9.352544284099536392e-03,2.933754230829375368e-03,1.128998912650577271e-03,2.486194454186409566e-03,1.382492445299241673e-02,1.138126930808534831e-02,1.700877980587578095e-02,1.436020733317467345e-02
1.250592113707418558e-04,3.325000445675074801e-02,6.622821574877491187e-04,3.162468305444908392e-03,1.093403279526679100e-03,2.476705411985113611e-03,9.992298515959802813e-04,2.062849323523151257e-02,1.853284478657159923e-02,2.374687872768788176e-04
1.072253682168483602e-04,4.569849303865254619e-02,7.010971899605197150e-03,3.390390485277083345e-03,1.117371534962053638e-03,2.492256918952483972e-03,1.462377731645979687e-02,4.145303964033798805e-02,2.240337946079692943e-02,4.415153835765923268e-03
8.799487430170663293e-05,3.945877555404622705e-02,1.009441734954964753e-02,3.658133975163655599e-03,1.084206392981252893e-03,2.408774294395437526e-03,1.876437737700372213e-02,4.924250085398242105e-02,2.711453121928185037e-02,3.769467423268069769e-03
6.787254099339583649e-05,2.831681234280536419e-02,9.701398060999207387e-03,4.100967100156620478e-03,9.913574696338797471e-04,2.195879090722930443e-03,1.779907203249298658e-02,6.070728745859579889e-02,3.074420546873412805e-02,1.714540405810805260e-02
4.739651519566856171e-05,2.165612944402808132e-02,7.529251537479402824e-03,4.603320832885852455e-03,1.123361079435119311e-03,2.124245515893336596e-03,1.905836183454282309e-02,8.231640483807517450e-02,3.040235488643332901e-02,2.494092280508036774e-02
2.713612192063955138e-05,1.541597694659147498e-02,5.595112212739548375e-03,4.589662438831257352e-03,1.413288760082618114e-03,2.282786188307111847e-03,2.114080864880182875e-02,9.892117330037797363e-02,2.283260570313177390e-02,2.100393701110390282e-02
7.668895715115660002e-06,3.827936915696818383e-03,6.648686719100208205e-03,3.622147804799639298e-03,1.188696596939684035e-03,2.070877635867081259e-03,1.886580422745121749e-02,9.571701106157987082e-02,9.282713524672976668e-03,9.868489539891658544e-03
1.045856934787189336e-05,1.154862223968172209e-02,1.099602223199426000e-02,2.385790778716759524e-03,3.568547270982132171e-04,1.007331724160439061e-03,1.305401086400110287e-02,7.755779964890563427e-02,3.314819040719686402e-03,3.884909744430560356e-03
2.672685116050996777e-05,2.742329495489704075e-02,1.458413297501239166e-02,2.472614964820122382e-03,2.731897776964012378e-05,2.307199789861569500e-04,8.106508136824812014e-03,5.976109020533937333e-02,9.655775673093924469e-03,8.038107613808393934e-03
4.060426273323365360e-05,4.090666039269830884e-02,1.345368351815201188e-02,4.525482422824212217e-03,7.639956863901149449e-04,8.690422660708826573e-04,4.147213155471138855e-03,4.925077765435738331e-02,1.157608808048072105e-02,1.338443376478924696e-02
5.159706254574840715e-05,4.323926682495072421e-02,8.704495969070762465e-03,7.111189963156865426e-03,1.360848330076983980e-03,1.690330076148978487e-03,7.839156726447034373e-04,4.181985269659735382e-02,1.348286909711444818e-02,1.223824044225037613e-02
5.937603263596870443e-05,2.553829552303384445e-02,4.430186897895480209e-03,8.207666860390008118e-03,8.395263243798346776e-04,3.797109413118562263e-03,2.687565982245601962e-03,3.217391059832973299e-02,1.589057712582955112e-02,9.902648748975948975e-03
6.371042982116341424e-05,4.787150754924796719e-03,2.081418106620830464e-03,7.289702516086065710e-03,1.973845274600730072e-04,6.149848391594167976e-03,6.741706944308539437e-03,2.037399302794449044e-02,1.640128856599949725e-02,1.396856811230540694e-02
6.422970435534566651e-05,2.759157092561383140e-02,3.237184401582749740e-04,5.590176617750522263e-03,5.930145998986083257e-04,6.465905880345252515e-03,2.952919592716754874e-02,1.128947122206574658e-02,1.410182064100193658e-02,2.190200953869344755e-02
6.058714358970976462e-05,3.561365707353603138e-02,3.542745306569121573e-03,5.040539952551485736e-03,1.436753425065962278e-03,4.420851460161053306e-03,5.684748371128063582e-02,1.091315870383603899e-02,1.044220595745691885e-02,2.470037454099255000e-02
5.299614024600534599e-05,4.235669982783490939e-02,4.561649749281618607e-03,6.691000733080764394e-03,1.701297550601275129e-03,2.124760094654449920e-03,7.584150701057566779e-02,1.998163053861266858e-02,7.299660258978169121e-03,1.579572021730066278e-02
4.191154298762984724e-05,5.789723864088051897e-02,8.994336468257359231e-04,9.466473143395711526e-03,1.507874360851510108e-03,1.502373596220162207e-03,7.913882139893951839e-02,3.093781867111770542e-02,5.467040724969383404e-03,3.695817886855039171e-03
2.688619330987268655e-05,7.118504659658823897e-02,4.243693200575367717e-03,1.135379088762612614e-02,1.342766726510740902e-03,2.585455937727663706e-03,6.835848521095232166e-02,3.637280714572198315e-02,4.683981422473748948e-03,2.182632804909404034e-02
7.224730513908378128e-06,6.490701000607804194e-02,5.026490305408457850e-03,1.190698010389577843e-02,1.202568019486190652e-03,4.184172348777501563e-03,5.026821021861194866e-02,3.825783188076817970e-02,4.663338461702434476e-03,2.179323625117444291e-02
1.556131183762526367e-05,3.811939008605413903e-02,1.165863924641624607e-03,1.197901501613825304e-02,1.193255873355295038e-03,5.031287991610982301e-03,3.122458810169132654e-02,4.162337571814575532e-02,5.132441351001352722e-03,7.832391644755870401e-04
3.909673282636182861e-05,8.193187152398822073e-03,1.477444275008739372e-03,1.149436963355524033e-02,1.490169267091205228e-03,4.340664738750898283e-03,1.772235698004794024e-02,4.387530225518241483e-02,4.890830982169100047e-03,3.028537131058051460e-02
6.543868093976921724e-05,5.015576639419083542e-03,6.792198685252549741e-04,9.530017543082254516e-03,1.312457877595771174e-03,2.261536505434001698e-03,1.867818927290278846e-02,3.975577458737519776e-02,2.838137446179276376e-03,4.658298808489681059e-02
9.837039646306275972e-05,3.306636774435666587e-03,3.708450251794111890e-03,5.980702276736690054e-03,3.878159731731247264e-04,4.492160695288940930e-05,3.665587510150566247e-02,3.119816674599874134e-02,1.581578022034006280e-04,4.253699253168954225e-02
1.320502796439304734e-04,1.880793800770160645e-02,1.764446930080924500e-02,1.665646044358321930e-03,2.910702283617332999e-03,7.950375341177177849e-04,5.733719496846328284e-02,2.247094558325994987e-02,8.100987550059405608e-04,2.325248972845629647e-02
1.565303694159628472e-04,2.428914975359095299e-02,3.609119156879345841e-02,2.301463126841216469e-03,4.233823555937698060e-03,1.772949190013215349e-04,6.068925676589635720e-02,1.142094466463759728e-02,3.181593684155484356e-04,1.719820974780329748e-03
1.821810858390017420e-04,1.970145592639532123e-02,4.447439706071746462e-02,4.842182879024007659e-03,3.688354026915300742e-03,2.038970239546061998e-03,4.388124741097663289e-02,5.546642011687197282e-03,2.639604727090445399e-03,2.087790086207252926e-02
2.285858314591266273e-04,1.966939056580800649e-02,3.982245926354003457e-02,6.319634448420874406e-03,2.865055235722333612e-03,3.768750742302378817e-03,2.208847469643992339e-02,2.516097311579364518e-02,6.963233017951550932e-03,2.605800150213255853e-02
2.721337832609349301e-04,3.079621326139856882e-02,3.559894409361071682e-02,9.380798329266451865e-03,3.877128114013582514e-03,5.253116723246568052e-03,7.147077481961956399e-03,4.090619179180087633e-02,1.442681372727395474e-02,2.051786990817674322e-02
2.684157815207508760e-04,3.873619519712012682e-02,4.359308362209012022e-02,1.597429592097852902e-02,7.186528034226323351e-03,6.454322316963616996e-03,3.086947422831051897e-03,5.049657637259578197e-02,2.255157945183509927e-02,1.518328360936595581e-02
2.647840343222730014e-04,2.441049811530713112e-02,5.884262202065591169e-02,2.360057826252805885e-02,1.061604296716022605e-02,6.426187632705119938e-03,1.296803561737113614e-02,5.583375150800695685e-02,2.681542037398430833e-02,1.667555332304895138e-02
3.555097380152352424e-04,8.241685846174458957e-03,6.518774753516794196e-02,2.687993766880852897e-02,1.089577173240563468e-02,4.419718573564639791e-03,1.822867961087155930e-02,5.946319050390648508e-02,2.599493847854596196e-02,2.476145401571127821e-02
4.401282102796907122e-04,3.210750110009644859e-02,5.262985568888144811e-02,2.335199767773791721e-02,7.284056378039415434e-03,1.423164676480904479e-03,1.394473880633125169e-02,6.236576144756268009e-02,2.272181502826481694e-02,3.692588138118842178e-02
3.126605521289812931e-04,3.043383009295872604e-02,3.093888190308285643e-02,1.645805816211232814e-02,2.870544029440036393e-03,6.763172428079698663e-04,6.181675710559020667e-03,6.251840548506759632e-02,2.004708538981635896e-02,4.833261475304957006e-02
1.828175988179569665e-04,1.632591045321831261e-02,2.426116049068872960e-02,1.227844049275924644e-02,9.860447283675435187e-04,1.205382064901805786e-03,6.082977661615598074e-03,5.699819809392138448e-02,1.982058130634079679e-02,5.218489436957182009e-02
5.086736596306104009e-04,7.885091305534969175e-03,4.421945488306284339e-02,1.358258066307094745e-02,1.512823401420635826e-03,1.034705874579138840e-03,1.582332960141750317e-02,4.743736254553162363e-02,2.195274125664010631e-02,4.591119320434794426e-02
8.311926282056966838e-04,1.171310331264939584e-03,7.268515775366633791e-02,1.741591258052061289e-02,2.251090148915685634e-03,1.032108603966983094e-03,2.919451491689724343e-02,4.062073516884837088e-02,2.341731238018040367e-02,3.450651494560797589e-02
1.690428765756130385e-04,1.475031213531759547e-02,8.229241669406241189e-02,1.873545324669369933e-02,2.347814832777573180e-03,1.129688633446994731e-03,4.207564402263788000e-02,4.158272298180543808e-02,2.046139619639908772e-02,2.679111415223727269e-02
2.416647714038499834e-03,3.180113228459794522e-02,6.667838383782190292e-02,1.542930944281841431e-02,2.405681427886566248e-03,1.043193931513251502e-03,5.255237766320068615e-02,4.730729392193242649e-02,1.280046276773640426e-02,2.855567901399971506e-02
3.639274756899965515e-03,3.417278429345903951e-02,3.894468541512483700e-02,8.877537854237858850e-03,2.546714809000357425e-03,1.024593828721367863e-03,5.490474886141545607e-02,4.851900661152053901e-02,3.838574995762249111e-03,3.473306410041278325e-02
2.373947327409205166e-03,2.406949403890264183e-02,1.234229518057952321e-02,1.862507292772445401e-03,2.487877381158373844e-03,1.258310632514219934e-03,4.497200741372715804e-02,3.872444251315139419e-02,3.031945474044197859e-03,3.012755116722666549e-02
2.149194727780272512e-04,1.427463059131149972e-02,3.833665917596605459e-03,1.843091993954987153e-03,2.716535796411686122e-03,1.135350944556687454e-03,2.988671587902729659e-02,2.149748476532076583e-02,6.864223495821340608e-03,7.341644456656575002e-03
6.574268318319222626e-04,6.898899012627384385e-03,1.807449652994581185e-03,1.228131794950794572e-03,3.701671283878385770e-03,1.456784214768624952e-04,2.265337793936815503e-02,6.781500983977920179e-03,8.968000184650090634e-03,1.927711189743130590e-02
4.210684030186225175e-04,5.962351042016966144e-04,1.697986866256481417e-02,1.012496763503572400e-02,4.638624692817454494e-03,9.742519155683893126e-04,2.693595568925368292e-02,2.263185367080127602e-04,1.148260850835683411e-02,2.967681936942462295e-02
3.034778302535108205e-04,1.704513310751459235e-03,3.961697302982877811e-02,1.912819299808674739e-02,4.708470137528198221e-03,1.219804437863533523e-03,3.430299876519073837e-02,3.829627737115936376e-04,1.466806330644653336e-02,2.386368914091041571e-02
1.960501964432905301e-04,5.827934621223606303e-03,5.481004804769902539e-02,2.371963214165170863e-02,4.507947614377609546e-03,8.398363891675521883e-04,3.726392023320172775e-02,1.092241713099649514e-03,1.562513378632272160e-02,1.928518786630890186e-02
4.706361993058304368e-04,8.596306980948150572e-03,6.081092712332071548e-02,2.400259637359650200e-02,4.576619679283105979e-03,5.536123785958063821e-04,3.850182819863912087e-02,3.649150673258308789e-03,1.235501489262389764e-02,2.778503972662647870e-02
1.033710547203875495e-03,4.541910700942395490e-02,5.811909485170774908e-02,2.143189436311378551e-02,4.250954917425758123e-03,1.853891001926190091e-04,4.287104170177150064e-02,7.117625276207949561e-03,7.877846910835274372e-03,4.708350666206263108e-02
6.539325747309230902e-04,7.638670765209583380e-02,4.490753835630500318e-02,1.661279008049773923e-02,3.405088815331519005e-03,4.966405778929801210e-04,4.476033329757914125e-02,1.001418245080433131e-02,6.094853752064217228e-03,6.921888703541581589e-02
1.298146863899802411e-04,8.102166375369983242e-02,2.327835899715232845e-02,1.140216330624424512e-02,3.012930269935818091e-03,6.278793820622434116e-04,3.160882214368516269e-02,1.002944369993842566e-02,5.352911443542824124e-03,8.530480270307522206e-02
3.559737744517376995e-04,7.079248628002111909e-02,1.066000926759731781e-03,8.681780486247707082e-03,3.114341845886604322e-03,5.268047731536632363e-04,7.328032212881932517e-04,5.559613486822276643e-03,1.406404643218529425e-03,8.608546803964441108e-02
1.008267073029122437e-04,5.914251567700379297e-02,1.616326856598340744e-02,8.603514954234472295e-03,2.707417779440971992e-03,1.935586631117410927e-03,3.331656395762701284e-02,1.449336232617590842e-03,5.006238043691439883e-03,6.815881960795772132e-02
2.932494097163473672e-05,4.053213298244353474e-02,2.934493177789833374e-02,8.230896765568221363e-03,1.764731425517019909e-03,1.945459309225483621e-03,5.138968683811276361e-02,5.743210333070319050e-03,8.820668835899535612e-03,3.881124579190239898e-02
5.677507042083710092e-05,1.362089130310092759e-02,4.243367757705173576e-02,5.399348771973239668e-03,1.125676405699833470e-03,6.627533130025020387e-04,4.840256456763530890e-02,6.442391132316508881e-03,7.462768375274484930e-03,1.071418132707303676e-02
9.689552866983365889e-05,4.177293325635153716e-03,5.807736597180152699e-02,7.354797332751535251e-04,8.981149136325157663e-04,3.400691426704037837e-04,3.650805199574784499e-02,1.090578691552621798e-02,3.168459974533780702e-03,6.787334692398068470e-03
4.122131976182132079e-05,3.713432315007435952e-04,7.195262827479750878e-02,3.306158931216014035e-03,6.633751227572164035e-04,3.695391150923197352e-04,2.887984225133534075e-02,2.405973925793476395e-02,2.668058677199035842e-04,1.158850872281055010e-02
1.103890783680031435e-05,1.453742003491276941e-02,7.149469550985042277e-02,3.988442587057413127e-03,3.965693458740473295e-04,1.416789982102189182e-04,2.614525052149666018e-02,3.844621615634726680e-02,2.538119370745336913e-03,6.762585104719013619e-03
3.140876848294788545e-05,2.342236468166604413e-02,5.089826563414297234e-02,9.184320237842203121e-04,2.170769910892997469e-05,2.679874999367648047e-04,2.341804602525652743e-02,4.286523063929126992e-02,1.059304074879482624e-02,4.544619676411433551e-03
4.588160289602684751e-05,2.263620800836029651e-02,2.512747107542561212e-02,2.443109623269068467e-03,7.771413217317363776e-04,5.763996989822178178e-04,2.196948295275618496e-02,3.701913819297813352e-02,1.977174698712357362e-02,1.938601651712126145e-02
4.188015966572760534e-05,1.814542836920231619e-02,1.536872222320349000e-02,2.678522489936217051e-03,1.408251812159567150e-03,7.966866653211150499e-04,2.445931410658453570e-02,3.068558720342261237e-02,2.327941293665282060e-02,2.997816926875122162e-02
4.540500005705863618e-05,1.247382966523057947e-02,2.420270379912063327e-02,7.931059662236021081e-04,6.590408130178653304e-04,9.743484590547450523e-04,2.615197311376335834e-02,3.117854692651764528e-02,1.898299484630471684e-02,2.704219378902091367e-02
6.222628283172609452e-05,4.953688893747010789e-03,3.794679294999030866e-02,7.376830294616217726e-04,8.816434053594833812e-04,1.236231664154825499e-03,2.119613996236760153e-02,3.664260448109495083e-02,1.068112859212583948e-02,1.228246196387754001e-02
7.965710991615569908e-05,6.467170620841522673e-04,4.750316824714570507e-02,2.892708867700291304e-03,8.163614981208168779e-04,1.622883589211504985e-03,1.248271241766837902e-02,4.003540813852510954e-02,2.146061566627973163e-03,1.041064784946368503e-03
9.422281775386116115e-05,7.450206331100130835e-03,5.382127861080494846e-02,7.676551167864325946e-03,1.467207135061948707e-03,2.076279143589852567e-03,7.197561057781373325e-03,3.626896394475022378e-02,6.628690689864191396e-03,4.396903803094404962e-03
1.111790120741811601e-04,2.146016350190122282e-02,5.792631919748739838e-02,1.348838392223722198e-02,3.690743036600419545e-03,2.446211227269968688e-03,6.694101335134801899e-03,2.634151374492563202e-02,1.628443447953175846e-02,3.123080101631782284e-03
1.313614483261296706e-04,2.612645710932130425e-02,5.857912473433231348e-02,1.743703359625475846e-02,4.310880737513771849e-03,2.747667353291541499e-03,7.676930722822774070e-03,1.705814281318280418e-02,2.499374139694295754e-02,5.554590885369346288e-03
1.512805532846112164e-04,1.195694509139140320e-02,5.818399630313107057e-02,1.943988229044749799e-02,4.495136753236521170e-03,3.324353228852996826e-03,9.630737513284774384e-03,1.603381162097507889e-02,3.057755592709361647e-02,1.072950642637226538e-02
1.697449176553989544e-04,1.141888561751127663e-02,6.111962820802741003e-02,2.039190715251019970e-02,5.337965187036344816e-03,4.201397291949376944e-03,1.246715492191432205e-02,2.419873560680962932e-02,3.303591210269125888e-02,1.269356755782377610e-02
1.879135520496211871e-04,2.701202744186673166e-02,6.731585605548850992e-02,1.979007112686243311e-02,5.904929719070924066e-03,4.580767567120611235e-03,9.578035608655938518e-03,3.347330895748062973e-02,3.322543057633829677e-02,1.176508510665341851e-02
2.052719843883580794e-04,2.694151414391087601e-02,7.389577042527843698e-02,1.806556809365358895e-02,5.587083579418173664e-03,4.099615107011884627e-03,5.248479889558003986e-03,3.531349049198184709e-02,3.150335637588212029e-02,1.328066753272465032e-02
2.195714438824565367e-04,1.507402194362725788e-02,7.821782087973301600e-02,1.760822844434400958e-02,5.877139368814576076e-03,4.122546958173286744e-03,2.457131576213490709e-02,3.170867734117863157e-02,2.886285031814427027e-02,1.594102742962674735e-02
2.307534975958459205e-04,3.936735209571526166e-04,7.324808955298162116e-02,1.905060685247602845e-02,7.600486834619750963e-03,5.844036640396382994e-03,3.287739644538827805e-02,3.277005291923067165e-02,2.623071397378763311e-02,1.126128212826595781e-02
2.411193277794533259e-04,9.172815409832795266e-03,4.934169771300705304e-02,1.923969971629006445e-02,8.505834816275278584e-03,7.475250235919682351e-03,2.565971866082120828e-02,4.255076815412388302e-02,2.161999528070237403e-02,1.558846756502701861e-03
2.492000893784345980e-04,9.713544213360524732e-03,9.622091587156125086e-03,1.508541790870224220e-02,6.505088185572461927e-03,6.062977623480831843e-03,1.330434920528669393e-02,5.342324758046843036e-02,1.209178793621782690e-02,1.069241748776794503e-02
2.493495005223481781e-04,1.228044707990099782e-04,2.551013989584628022e-02,8.457644512243822285e-03,3.687884441916183548e-03,2.287854120254714796e-03,7.631909871085085229e-03,5.597425372544828637e-02,1.669616324970878835e-04,8.202875155263416804e-03
2.438227779030220654e-04,2.017004552337881701e-02,3.861040189327746841e-02,4.931780431478276910e-03,3.817087576279521322e-03,4.252118282963783091e-04,1.177714401211299618e-02,4.806740433796383161e-02,8.505914986660423338e-03,1.042591169744839976e-03
2.439377775195413780e-04,4.822842558173388861e-02,3.267271187456116666e-02,6.578523346160216126e-03,6.759561410750464759e-03,2.529938911398924885e-03,1.986978287632575751e-02,3.247004439299889383e-02,1.078912349039576855e-02,1.658336787636952676e-03
2.448096405438834173e-04,7.435883066027976218e-02,2.196431617530875818e-02,8.723917963492863054e-03,8.534544145437084062e-03,5.325942466160381306e-03,2.270433634728740921e-02,1.225309800467424583e-02,1.333778334644995789e-02,2.100577751351545824e-03
2.222506969443568080e-04,8.884174602207564608e-02,1.495482810486749824e-02,6.647648883485850375e-03,6.704307396701633844e-03,4.792908926353969465e-03,1.816699580923284915e-02,7.980789763473428861e-03,2.248674257970943030e-02,6.916782449239623591e-03
1.864246083884321377e-04,8.979109431555139242e-02,1.437230557791449592e-02,1.988791487928825118e-03,3.213439772231101339e-03,1.871509980125821582e-03,1.508244025698851458e-02,2.201453715468099787e-02,3.540893768315223067e-02,1.447549956162687106e-02
1.898514021009957788e-04,7.770253897421118550e-02,2.480545873000387230e-02,1.599811034881153766e-03,1.367474503258972289e-03,6.257120166417274405e-04,2.059608229048194225e-02,2.833744101595895432e-02,4.379208338273245932e-02,1.701772036563271515e-02
2.131164915464914007e-04,4.974381490426271757e-02,4.775702903307839364e-02,4.779204078195620556e-03,1.733186396248846944e-03,1.855945802948160989e-03,2.954956974249747445e-02,3.250972987772595552e-02,4.452103755513128758e-02,1.318112646747880701e-02
1.446476044659757263e-04,9.807980614304637537e-03,7.134561670964018054e-02,9.171155415061022290e-03,2.321570572028053628e-03,2.386777513068196518e-03,3.467177361910520061e-02,3.867993001401667102e-02,4.154324640861986606e-02,1.257765962868047198e-02
2.418383186249137501e-05,2.568884844848118298e-02,7.704635113807954683e-02,1.228600742839291819e-02,1.761804056007773133e-03,2.711339156977277207e-04,3.822785242659557103e-02,4.361970669712370019e-02,3.859659629715561646e-02,2.463447556334153604e-02
9.518774982482600404e-05,4.416158585384709345e-02,6.270955995341070954e-02,1.202843287151941429e-02,1.302544624050424281e-04,3.386803531525181803e-03,4.410536008298397703e-02,4.393839228996469087e-02,3.548950073388501547e-02,4.448062067816353771e-02
2.901347257301917053e-04,4.964380324252508359e-02,5.082301072606330156e-02,1.196812562686337504e-02,2.708685577900637673e-03,7.510241664823640549e-03,4.880186039324797137e-02,4.340121574976218977e-02,3.091373601661713197e-02,5.646340335269168370e-02
4.652769029478790732e-05,4.994423924291744449e-02,6.206601459157116973e-02,1.528312804319873278e-02,6.583842422067229597e-03,1.198451764024905178e-02,4.829469056141897504e-02,4.691633165485462748e-02,2.454720427659469115e-02,5.389854458726000414e-02
7.580332117377070909e-04,4.171264672593688605e-02,8.582347845241654338e-02,1.749909649445213766e-02,9.323714856614262469e-03,1.574152966865655784e-02,4.313661219112356615e-02,5.198109810232626193e-02,1.643490101468535192e-02,4.698222475989502489e-02
1.253091205116809836e-03,1.932939708311086358e-02,9.486934892541064313e-02,1.309217077805375010e-02,9.063098241897271645e-03,1.721939673404331364e-02,3.279543603160964271e-02,5.296317675657484514e-02,6.870252258785026697e-03,4.673787110530214922e-02
7.997107835881742989e-04,7.632646082850049613e-03,8.551395765935730642e-02,5.706031748252990247e-03,7.589460009327508513e-03,1.634684385538497098e-02,1.689493516266232787e-02,5.126000946103983352e-02,3.262543876786186750e-03,5.108678102977111390e-02
3.555183772425449349e-05,1.909756589230976118e-02,7.813426116195694437e-02,2.812003252865108612e-03,7.701735898236737946e-03,1.371784518299002525e-02,3.441201286726739209e-03,5.465496006602119095e-02,1.327294064058462744e-02,5.192802132409530397e-02
1.701362682721004288e-04,7.962746302492395428e-03,8.035772174625271935e-02,3.503369217175293041e-03,8.493310746348939691e-03,9.098234633198131263e-03,3.870541636876080431e-03,6.670330224029721866e-02,2.266411559830720790e-02,4.530248548450758334e-02
5.913139937157668263e-05,1.270568094027934095e-02,8.048133034132891328e-02,1.873870905414663519e-03,7.475070039738153198e-03,3.106301416544310010e-03,1.884928911062328655e-02,8.181914521459729417e-02,2.910610225890687686e-02,3.062625413938076593e-02
1.597712732878453555e-04,2.800820259765264900e-02,7.707527032728091199e-02,4.684161067863361035e-04,5.855700761233889433e-03,1.396891497982102534e-03,3.738593731263441938e-02,9.266023502018382041e-02,2.913951758251981730e-02,1.063979408343331511e-02
6.320168685891039905e-05,3.273319586234053197e-02,8.169613024939292867e-02,2.979234019841711916e-03,6.835007255720491372e-03,2.334752714135060383e-03,4.879539110665763457e-02,9.842100571620045202e-02,2.360929089439706488e-02,5.697858749037632356e-03
1.208040896290822398e-05,2.356810804330658135e-02,8.812837846956161902e-02,9.996154173949545890e-03,9.544863723043169393e-03,1.361533765838452825e-03,4.933463800936638277e-02,1.013046313989331010e-01,1.899928083890618791e-02,9.846356579355487748e-03
4.568912529339108901e-05,8.816906120337852752e-04,7.130806463700911646e-02,1.051039603439876853e-02,9.645400070760834846e-03,1.253561854835686870e-03,4.038465067676888509e-02,9.759114257850401430e-02,1.982845848114758031e-02,3.979693850755744791e-03
5.193512396258676055e-05,2.903359183867273638e-02,2.686433572872043776e-02,1.450671122767955689e-03,5.912541011656598754e-03,1.964181421032109524e-03,2.699816662527865230e-02,8.173385086295786861e-02,2.330953846459003428e-02,2.474377761500274556e-03
1.065202644154960360e-05,4.481082626247287481e-02,1.645699808405886796e-02,9.666248704078875612e-03,1.506888605821021234e-03,2.002754226784368881e-03,1.740541222444725797e-02,6.118844414816811128e-02,2.497217005240844404e-02,5.897649044266366214e-03
2.570971901239627042e-05,4.847032579814111730e-02,3.709846462415720275e-02,1.678389122978062725e-02,1.797796677337949126e-03,2.068980305267616518e-03,1.946062426021559488e-02,5.487625014101219639e-02,2.531881402950595869e-02,1.158982491268477702e-02
4.596004442195956009e-05,4.999712265151808749e-02,4.896711769354223504e-02,2.176957955065789152e-02,5.989121821547903519e-03,4.033409449259963385e-03,3.454318672818412067e-02,6.949330957276041165e-02,2.670991227999549786e-02,2.306785531125745553e-02
7.409235030322808356e-05,4.782900169969009352e-02,7.578580480264424102e-02,2.799821669897993234e-02,1.250878386282406642e-02,7.437994211014159127e-03,5.138412842075729126e-02,8.823900499118315921e-02,2.805241603037752010e-02,3.481145959539153067e-02
1.165672838405071391e-04,3.744467240448851736e-02,1.183944796781462305e-01,3.495344888904487052e-02,1.971089927447728513e-02,1.022048523728196802e-02,4.889032052639930015e-02,9.239307358234011280e-02,2.808913093051755225e-02,4.040106846283666314e-02
1.613363163020268220e-04,3.037719720005473481e-02,1.603016007690031830e-01,4.023439799534275774e-02,2.549176639442976219e-02,1.196481933679851423e-02,1.742286316318961831e-02,8.394262290079132494e-02,3.004608168911849023e-02,4.222813676250570386e-02
2.010279928668210923e-04,3.787024421825981035e-02,1.891722136282852351e-01,4.282356313065278225e-02,2.912387475385284225e-02,1.342341130794061192e-02,2.407873849980679201e-02,7.501957278138754459e-02,3.655670543555632895e-02,4.492858222815858393e-02
2.404830714279292939e-04,4.644072693459559698e-02,2.018509785640139331e-01,4.413073751795679872e-02,3.017495606021868004e-02,1.397959092656028170e-02,5.017308458158745155e-02,6.377857712664838918e-02,4.318248758787123637e-02,4.382018129784536614e-02
2.893999563940024850e-04,3.379602412463052902e-02,1.997677489518127625e-01,4.667292813943787338e-02,2.860398602532254406e-02,1.266356815956224367e-02,6.388185941219395869e-02,3.723368941591116005e-02,4.373889329794373310e-02,3.033717918054432486e-02
3.443611083269967920e-04,9.674600208613816973e-04,1.897973440605132678e-01,5.116016403878426155e-02,2.616190537564433427e-02,1.063732160324451156e-02,8.451592232391391679e-02,4.852339758807465431e-03,3.938428930457840010e-02,6.667585280401545911e-03
3.844701449856409350e-04,3.944004796117398653e-02,1.832426398332879791e-01,5.574672988096060489e-02,2.523502713496326294e-02,9.921057206245219307e-03,1.073748474108554701e-01,4.455244491168996318e-02,3.563696215466550382e-02,1.415156809467248665e-02
4.102484566483721035e-04,6.513652619354669271e-02,1.839474939147214549e-01,5.782305109428538537e-02,2.564766083221421342e-02,1.038043865330158695e-02,1.088251546549848237e-01,6.599343436948923447e-02,3.307882632086706770e-02,2.319518982076404848e-02
4.632337440352945991e-04,7.252314646134330745e-02,1.803414488212067013e-01,5.452087502825971044e-02,2.403626853720134890e-02,1.003294128473116061e-02,8.914807253604448145e-02,7.198411241709835873e-02,2.851878058163503232e-02,2.621185763886719686e-02
5.433155246513639638e-04,6.373874081359473531e-02,1.599604583093854893e-01,4.426523427795406307e-02,1.786420221854194759e-02,8.026516937629053425e-03,7.604406784033614086e-02,7.971230679544008546e-02,2.308533222690604264e-02,3.654058809214764947e-02
5.603224945149502898e-04,4.236248773413614499e-02,1.304101304703537689e-01,3.177822253531546737e-02,9.889467485130414015e-03,5.755666917586636441e-03,8.249108276802509521e-02,1.030714202571925975e-01,2.100577885489665966e-02,5.773470660412583638e-02
5.092246982500912801e-04,1.091625004928420406e-02,1.111926564219524044e-01,2.646923257718729675e-02,5.880965580612697828e-03,4.634313323327345947e-03,9.061669621034458555e-02,1.378522046243537968e-01,2.112011873813656251e-02,7.940511421314935814e-02
5.829123987586483802e-04,2.065608307578692404e-02,1.032187744675003571e-01,2.968508847282817081e-02,6.741037729324149755e-03,3.926479879378583053e-03,8.275037086937422903e-02,1.649427544462046813e-01,1.679625944085241795e-02,9.249901283168691923e-02
8.075519702822530829e-04,2.935776540277281951e-02,8.518420090579936765e-02,2.960678699802635899e-02,6.745097769727760074e-03,1.785293301605051560e-03,6.460562290617404002e-02,1.692758517025448051e-01,5.262257536076743111e-03,9.709168176516171089e-02
7.393617389643775475e-04,2.641634640411505419e-04,4.553745383857019102e-02,1.634248419388973153e-02,1.572291896675100890e-03,2.205908474365621784e-03,5.045508110982149103e-02,1.514533004432749297e-01,7.646313004093242306e-03,9.028818579183144066e-02
2.701431553107364313e-05,4.953758520223128237e-02,5.881027184267452468e-05,3.900081643490637198e-03,6.287878490484607140e-03,6.472935773031092237e-03,4.184992637112534830e-02,1.212763376709196095e-01,1.402654936809008199e-02,6.337121185754383823e-02
9.975212511348951257e-04,7.981334678277818284e-02,2.792295786966166732e-02,1.752072395627621987e-02,1.227451997576282407e-02,9.105843231119506095e-03,2.926415781084599349e-02,8.889548757396040224e-02,1.304481845967606947e-02,2.176256428821301755e-02
1.878251937638039746e-03,7.551212521413444567e-02,2.784826245161152111e-02,2.115919689125943248e-02,1.562361117671275286e-02,9.502071890494762085e-03,7.354813599543777447e-03,6.281844293182975436e-02,1.108276770512837961e-02,8.241774980750769114e-03
2.617598903909145076e-03,5.370890773867221385e-02,4.208688451153774421e-03,2.255677410827099799e-02,1.820717213032121279e-02,8.486486128366057050e-03,1.745491914589120466e-02,4.614640937677789989e-02,1.323303681826033633e-02,7.956810714599096834e-03
3.066421555787229771e-03,3.227697728157832846e-02,3.145042810503885511e-02,2.664383258404770527e-02,2.034565808448038013e-02,7.141882649909631758e-03,3.352356029863984288e-02,3.378669259811166448e-02,1.765451032750305072e-02,9.038003003750683106e-03
2.611722259870998333e-03,1.185847551300000038e-02,6.778767301368308906e-02,2.881438034269739878e-02,1.977217695266871716e-02,5.724862085078982754e-03,3.584096643220839595e-02,2.051590512422713647e-02,1.931084891789995248e-02,1.382033678555479733e-02
1.179486861257326947e-03,1.016334563836697631e-02,9.902555734858495273e-02,2.360074082821704902e-02,1.429441476908997755e-02,3.612978603568363454e-03,3.183862721222111003e-02,6.639135800013674232e-03,1.634740902220262540e-02,5.268532533428975720e-03
2.809978620339643454e-04,2.994287884709870978e-02,1.194978475129300222e-01,1.474647366646780582e-02,5.170462471773447366e-03,2.249100462831824594e-04,3.624397667531653600e-02,9.907303185196550052e-03,1.110463586955258257e-02,3.654753917865209006e-02
8.920935246823926378e-04,4.494720515127179072e-02,1.154581687943008611e-01,1.214758989098007995e-02,2.625275867227690098e-03,3.565574216613371077e-03,5.549166676006615784e-02,3.361772852114447430e-02,7.011089023647486609e-03,6.155433170047762415e-02
7.967095468270353042e-04,5.748162633044132802e-02,7.806923067178113407e-02,1.961898034738152399e-02,4.581835997254234301e-03,5.298937723346918045e-03,7.442014723448694968e-02,5.692091636894476558e-02,5.960323493204578750e-03,6.932767475620560393e-02
6.452991770549804888e-04,6.835497015160107992e-02,2.234366029026706169e-02,3.036218311923485902e-02,8.000771123079406747e-04,3.514460078467190711e-03,6.862336053452229578e-02,6.285438353609242024e-02,8.213290511362185062e-03,6.204277267404700869e-02
6.887953237932382825e-04,7.381638408713371569e-02,2.880365982833393498e-02,3.656921331531021863e-02,5.260238103091968535e-03,7.153416177776571357e-06,3.534993580649971323e-02,4.827239178748696929e-02,1.427440559181439653e-02,5.178541285234375402e-02
7.564573385893208447e-04,6.948357385559433830e-02,7.453679277972516393e-02,3.811917909484717482e-02,1.088965496816184444e-02,2.041685285970951461e-03,2.060476770847132974e-03,2.860145279491105308e-02,2.463287855797046885e-02,4.639941823191137682e-02
7.395818701590570112e-04,5.598045481946459928e-02,1.249736186155512435e-01,3.772651811956712758e-02,1.478824747339517812e-02,1.451441793481776090e-03,2.493938050822431390e-02,1.794401413360154768e-02,3.592052218516918888e-02,3.979800390847643837e-02
7.117607199959366526e-04,4.003033036912372056e-02,1.705890958749545216e-01,3.475633209256676764e-02,1.593711739374724032e-02,2.061564355131304785e-04,3.675557077159240932e-02,1.732149999700340059e-02,4.081736304745577776e-02,2.519487603104220499e-02
7.322653039483950545e-04,2.739381577974430229e-02,1.942740303801376578e-01,3.088095328556780816e-02,1.546982086946242264e-02,1.350065538654201440e-03,4.699265753140600965e-02,1.917313636135202504e-02,3.571970903963602589e-02,1.131225412489122485e-02
7.697229655637348976e-04,1.621326403137897387e-02,2.064530772789406055e-01,3.440267438518745252e-02,1.701484258734456759e-02,5.492623181839606170e-03,5.616624396578758643e-02,1.428367978028674545e-02,2.626080333574927136e-02,9.507747695810952679e-03
7.800349249846432213e-04,2.478835741914149453e-03,2.351534357375534845e-01,4.936170779825407168e-02,2.109951461269138004e-02,9.312686214965216341e-03,6.023217162215579318e-02,8.162537498176227792e-04,2.112399710039123552e-02,1.411365968674808263e-02
7.737333014818035789e-04,1.047384059816498965e-02,2.820061735016451410e-01,6.589650998200061172e-02,2.278564312830435104e-02,9.400590304139228026e-03,5.684195468747664515e-02,1.075891739801645638e-02,2.210937366119613418e-02,1.544708181826102804e-02
8.067265675476829098e-04,1.507186125630498308e-02,3.156896993098771143e-01,7.087813449891455786e-02,1.905942961537889294e-02,7.047860279473417040e-03,4.590664902375083539e-02,1.218585478857369189e-02,2.472294783267550700e-02,1.875428072255272763e-02
8.839609584044145736e-04,1.052854529208079731e-02,3.094132271966340553e-01,6.337654812872070553e-02,1.394532326530219940e-02,6.203212969022150330e-03,3.084106512617638962e-02,1.269145105101377596e-02,2.605385029015569801e-02,2.805956641367596607e-02
9.044677140388319124e-04,5.094888753858608892e-03,2.663483029380927514e-01,5.196329363553051084e-02,1.206250170371247522e-02,7.450658125814649257e-03,1.736658309583044915e-02,2.408504692637575273e-02,2.642417686753708098e-02,2.774522401287870740e-02
8.422799984770690685e-04,8.138679485248422399e-03,2.120973872327559240e-01,4.302746264621648553e-02,1.238489230892556893e-02,7.732681131725845439e-03,7.426730035458926904e-03,3.824015754771257353e-02,2.625118669505985963e-02,1.951140593500787007e-03
9.047364363019038454e-04,2.103788354575944139e-02,1.710922168336522220e-01,3.834751291446127780e-02,1.227084307138393872e-02,5.545190456893638563e-03,2.019779775994288117e-03,3.857545476252379618e-02,2.634402206160121190e-02,4.393994473865034389e-02
1.168206596542348697e-03,3.344526859387890461e-02,1.447504253779537120e-01,3.723701804555926143e-02,1.197387968778199606e-02,2.643538187260406364e-03,1.140302924896319063e-02,2.789711440402396422e-02,2.754053098185033771e-02,9.679434263478883804e-02
1.163088810849940199e-03,3.206953063063046339e-02,1.186727636780562228e-01,3.682370782239598878e-02,1.194601115563408839e-02,7.902309920708341755e-04,1.455893034347917163e-02,2.653450182926623060e-02,2.783025467046981033e-02,1.511577653810060873e-01
4.244026782729946206e-04,1.873468923570314679e-02,9.675820376106049336e-02,3.632184744857675646e-02,1.124762821139417383e-02,1.329642407760834883e-04,7.083777889701423081e-03,4.371314065947821265e-02,2.467734588465114731e-02,1.970716014999423504e-01
6.759030890147877790e-04,1.339923123161029100e-02,1.027574514051837334e-01,3.959170895227864806e-02,1.045260042309767955e-02,5.380412763050886798e-04,4.664724230730882618e-03,6.425596176529238535e-02,1.874202433551132654e-02,2.130417640403294566e-01
1.400690694618127782e-03,3.073933189791703408e-02,1.359467837605297658e-01,4.684942793899089103e-02,1.138043698512505864e-02,1.980865886169608670e-03,9.076956345242635435e-03,6.885539627783102135e-02,1.062877405652247649e-02,1.901315912128231089e-01
1.597512777572051169e-03,6.096616461935194797e-02,1.599355151471642533e-01,5.078701735880077062e-02,1.410814974039633837e-02,4.285722664307318845e-03,3.357416062460493161e-03,6.017970290259536115e-02,5.104387611518665727e-05,1.495497053526252396e-01
1.357848351880794075e-03,8.325334481141116738e-02,1.522457822856556897e-01,4.796341115768966434e-02,1.744907467020304775e-02,7.851931486109894887e-03,3.495089993103316865e-03,5.797128940206427994e-02,6.933149988123060367e-03,1.175396648388040838e-01
4.941558634780527596e-04,8.992331044720497379e-02,1.320799229986369672e-01,4.401868299590599998e-02,2.032212189652273307e-02,1.307621913749632860e-02,3.386915565161113979e-03,6.933144774857011305e-02,6.146628626733457133e-04,9.334693644238582777e-02
7.420794092080061112e-04,8.782429251017963290e-02,1.259177776375068891e-01,4.215293255902795300e-02,2.129902623117347488e-02,1.838669573515540334e-02,1.097274509625651654e-03,7.878697899480881228e-02,2.359705481147793271e-02,6.049575979856899877e-02
1.455313595185868435e-03,8.406844965635903999e-02,1.338066367955936253e-01,3.782743709709028568e-02,1.971759868403698962e-02,2.094347763460664702e-02,4.183998427337746323e-03,7.271760997947311622e-02,4.806490452361549676e-02,1.907262475225734999e-02
1.428345693848308805e-03,7.967735934937872355e-02,1.365614519345462186e-01,2.810295855717993840e-02,1.677361176413101618e-02,1.989058469710520277e-02,7.801441137229626205e-03,5.851131323921220789e-02,6.029244396996653182e-02,1.374267465831717494e-02
1.451654139031367937e-03,7.227362975256641786e-02,1.165459267121359832e-01,1.550973213179674889e-02,1.318611543857402257e-02,1.715211592818544420e-02,1.670305331004772950e-02,5.087722443158534252e-02,5.909689167333401910e-02,2.930391482953146123e-02
1.671551800116391831e-03,5.953728299151120340e-02,7.226822491868326037e-02,1.991959858108784728e-03,8.120882330498572360e-03,1.437510122562957356e-02,2.673680883977640546e-02,5.108776252476365798e-02,5.052580495564588936e-02,3.640072862825270705e-02
1.001565606662462287e-03,4.243827770661141169e-02,2.338519138249315135e-02,1.162338498244466084e-02,2.046212002512971979e-03,1.071193646375229354e-02,2.710920692206594124e-02,4.940187233206574935e-02,3.867250359350030142e-02,4.624921652849670051e-02
1.004282031471585325e-03,2.557331729519917232e-02,8.067839885989592716e-03,2.181405565533582613e-02,2.512349052015095882e-03,5.297235321854765894e-03,1.431128874715925647e-02,4.069150659842563078e-02,2.493043918434445505e-02,5.993091665915113719e-02
3.030149683004083189e-03,1.185234915664990472e-02,2.724318790796644713e-02,2.663842045334856995e-02,4.338772826600194830e-03,5.981452507509653609e-04,2.600974137249108167e-03,2.860197346736886859e-02,1.015104456080446332e-02,6.984918159804759386e-02
3.739828500470280832e-03,1.256726302190085132e-03,6.109001856205601572e-02,3.099721658127675347e-02,5.167211525175699482e-03,3.527520125337440214e-05,1.304295323184226710e-02,1.710069182921563832e-02,4.925046540805034199e-03,6.694920260603005879e-02
3.507913261481086006e-03,1.678641686928991628e-02,1.175204815343678516e-01,3.969208228292266799e-02,7.170807570396222838e-03,2.224692852276214782e-03,1.710394727883724625e-02,5.236692894265541215e-03,1.827245648368016132e-02,5.014816824756043040e-02
3.425852423383755202e-03,3.080558843312859035e-02,1.688671805231043710e-01,4.838659121365770227e-02,1.011885030361760890e-02,2.883301743075129646e-03,2.150918513646411789e-02,8.699249511182480937e-03,2.600945938223533233e-02,3.306930897112535933e-02
3.555728075642900984e-03,3.467145754186961443e-02,1.861594736873832812e-01,4.892858033226704650e-02,1.147251539330186934e-02,9.686369863197286231e-04,2.577191819235372452e-02,2.156534586276885254e-02,2.612274966584663891e-02,3.296355931059047339e-02
3.148787333666300432e-03,2.717179469756498059e-02,1.756826631524176507e-01,4.138156731713996117e-02,9.448770508741080945e-03,1.409071784767072745e-04,2.190480430330058251e-02,2.740472087282285613e-02,2.195039779272719288e-02,4.838913169219948712e-02
1.929345065623666502e-03,1.947595326010621158e-02,1.683751388150231953e-01,3.429467320976422456e-02,6.066197500732017217e-03,2.149598601429972191e-03,9.237059101871050379e-03,2.597843659400936311e-02,1.953210973728386826e-02,6.008686586314245653e-02
3.918328146315579012e-04,2.240236173381018880e-02,1.785131813106999310e-01,3.385913462437767363e-02,5.711736289424657227e-03,3.800937123372596319e-03,1.572507656414255748e-03,2.573749342692410388e-02,2.175358025626939265e-02,5.866138783797927164e-02
7.992986995795943852e-04,3.366532255178893152e-02,1.886742908179726563e-01,3.818654023917222168e-02,1.006273151749360537e-02,1.927302548472367228e-03,2.620177640022212321e-03,3.472112547462127830e-02,2.656478259846259057e-02,5.610565688971246023e-02
1.309139565461894068e-03,4.400385972898600978e-02,1.816042615644882785e-01,4.299162793837971869e-02,1.638243171494305900e-02,2.563524453198758220e-03,3.091547588789389685e-03,5.018579478128012278e-02,3.037643137316839090e-02,6.267889569612813960e-02
1.281052045912797407e-03,4.924228506318698712e-02,1.679209183254087023e-01,4.754023205591868112e-02,2.098559661051865866e-02,6.782850151292220929e-03,9.613384413905939896e-03,6.006386228057988136e-02,3.098717216593891918e-02,6.669863532695895214e-02
1.121900476528051287e-03,4.900528576445944279e-02,1.616876665813702929e-01,5.180525718137259789e-02,2.199560133813534268e-02,8.815002369773495411e-03,1.508293213904577518e-02,5.567092296646904831e-02,2.735035253463630189e-02,5.010736569383354710e-02
1.075023011738717458e-03,4.130251395018676164e-02,1.489142409424573654e-01,5.266454261577689644e-02,1.934386687578864422e-02,8.480355208019117741e-03,1.904703525308414774e-02,4.288706399364564797e-02,1.996738779600410255e-02,1.844121736149754998e-02
1.091280276907542930e-03,2.754263792833044205e-02,1.136517894002576912e-01,4.780096645665633803e-02,1.472207470811114430e-02,7.730836683014332203e-03,1.976294997655482152e-02,3.649471715944121314e-02,1.251318948087212085e-02,1.109181632080580467e-03
1.066501166280602216e-03,1.707730894533530941e-02,7.661789954799969049e-02,3.979507642117757760e-02,1.095020517254002672e-02,9.258074461504667632e-03,1.720689182704334894e-02,4.113864794128640340e-02,9.471198479001831372e-03,3.607715044027412846e-03
9.994132820883145068e-04,1.801008773906964330e-02,6.964492624645263197e-02,3.284646765075307367e-02,9.910791377042035138e-03,1.299119084103169189e-02,1.518245134256580517e-02,4.649999095831448132e-02,1.101396002716237797e-02,1.241117488005267708e-02
9.475081294942721936e-04,2.692619594368197630e-02,8.750516416452852608e-02,2.930630572672077855e-02,1.182846678778035066e-02,1.623167812071972180e-02,1.667005609784452669e-02,4.546155147587026962e-02,1.347464557184979705e-02,3.787128308484677755e-03
9.532310311840274959e-04,3.362715242910525176e-02,9.910349559941272757e-02,3.080840206397333567e-02,1.614582128997706437e-02,1.814831589784548366e-02,1.882990855919484258e-02,4.437880079993220678e-02,1.514067153763479397e-02,1.501895537991750941e-02
9.727433465471432839e-04,3.269164106203327480e-02,9.350808286359445221e-02,3.711541584089347173e-02,2.094336296693501825e-02,2.044265902584468247e-02,1.699898125987649514e-02,4.943132144966766450e-02,1.779322183542126137e-02,2.435712828194470936e-02
8.991886836240393054e-04,2.652797806898552282e-02,8.790634282547575562e-02,4.252121006809654602e-02,2.234273788447936268e-02,2.271323830519884554e-02,1.189269573167783464e-02,5.609185981946343547e-02,2.158991015113740503e-02,2.142429767830555942e-02
7.877851558244241582e-04,2.058052412358059302e-02,9.467880352577534575e-02,3.950664100405247570e-02,1.783984384994818234e-02,2.189941999777691300e-02,7.905928212349071921e-03,5.755657202402015421e-02,2.199758678526751374e-02,1.573001528819057554e-02
8.779065520023125865e-04,1.844891429236116334e-02,9.787050467611185800e-02,2.774605462330459113e-02,1.007866272707318329e-02,1.780555918289183567e-02,6.598696098931280951e-03,5.263962789541274528e-02,1.497027744539560987e-02,8.941043398115560564e-03
1.083844808227861197e-03,2.007292302867879838e-02,7.122149797700924601e-02,1.480278821740638878e-02,4.388200699622891825e-03,1.448702554942193389e-02,6.999103413967620174e-03,4.363109603246906332e-02,4.053313035083408629e-03,3.283115031366347532e-03
8.458894115495530679e-04,2.445535993685124532e-02,1.795510856873197905e-02,8.191649081038209629e-03,3.535976900024234097e-03,1.475839996702914964e-02,1.060585233407567579e-02,3.595062778510660362e-02,1.456890873605047858e-03,1.865317675483288765e-02
6.978023061995089699e-05,3.361436643404404345e-02,2.240798372769554556e-02,1.145584532719198106e-02,7.490351006668852230e-03,1.760760250605413260e-02,2.167397023605338591e-02,3.922609186151897881e-02,3.471648028258843971e-03,3.318380453900737770e-02
3.810457441729358337e-04,4.946384335725111797e-02,1.595071803419044129e-02,2.419513411516581100e-02,1.505527178228017321e-02,2.119791382693935952e-02,4.155940640422600002e-02,6.001770914376144961e-02,1.404917319982886513e-02,5.081387415538296537e-02
7.228809638614156396e-05,6.657591241817234495e-02,2.893104468014982139e-02,3.837427941171205753e-02,2.196614678510771732e-02,2.383506774333403119e-02,6.390095227622116791e-02,9.172735375543016045e-02,2.167128243925992015e-02,7.237210450860956379e-02
8.010054157534630482e-04,7.454624514744195851e-02,7.296462927623365013e-02,4.003293648289990569e-02,2.202253335925361336e-02,2.275531403389633930e-02,7.792961014705809819e-02,1.152394930846490223e-01,2.357970272570625997e-02,8.333687409892896747e-02
1.060920535547257501e-03,6.948483963771046046e-02,8.330070826250493554e-02,2.460565699478130253e-02,1.480698793406012327e-02,1.666651447404975811e-02,7.836661082144640023e-02,1.133939932694452563e-01,2.397621453298237615e-02,7.074077519727188512e-02
9.673099902710202052e-04,5.835206081413812224e-02,5.866425383264724236e-02,5.543003790113501875e-03,7.643120288619400723e-03,8.585059413918081153e-03,6.976287785845591838e-02,8.769429363938049948e-02,2.639296591253008362e-02,4.448131014060854177e-02
7.842200522511731924e-04,5.073400576728617772e-02,2.838693488714369786e-02,1.549335637801890937e-03,6.138669049680514286e-03,2.767339082656924444e-03,5.942832415887339820e-02,5.790986783122906156e-02,2.936757400369577678e-02,2.454415445432958989e-02
3.120918219054714883e-04,4.965082581731634914e-02,2.529760440088977755e-02,2.379479770880086643e-03,7.945086794823495724e-03,3.216290927221350168e-04,5.020801918428199201e-02,4.187006727162854991e-02,3.092834908387363455e-02,1.804846887410018613e-02
7.071908468464210146e-04,5.103145565118055033e-02,5.086687162662285877e-02,5.598245418646744832e-03,8.690667811608964941e-03,1.430799620542638935e-04,4.326634600732336133e-02,4.123219952880551042e-02,3.212086509939028611e-02,2.291755942455189418e-02
2.283996473447206729e-03,5.024661525706156096e-02,7.146645192362258148e-02,3.874293319275534404e-03,8.399889068152666463e-03,3.252249230295423815e-04,4.246671129193193422e-02,4.861870773441098748e-02,3.336977008208846796e-02,3.477003947891036534e-02
3.947073557731785830e-03,4.688732447397572084e-02,5.799756542449535646e-02,3.020467170328559187e-03,8.874086893842073054e-03,1.395023955680884482e-03,4.886553837825120816e-02,5.564561890917013587e-02,3.229204086800702145e-02,3.727900445100865157e-02
4.470470808404554929e-03,4.120888383093048585e-02,2.125344142161829375e-02,5.844039764803028725e-03,8.971907202574513907e-03,2.209730404139020454e-03,5.405550328782984110e-02,5.102272799570027606e-02,2.775129629784390747e-02,1.169949549399355686e-02
2.948574397597727124e-03,2.891903370919988309e-02,5.485653641099296103e-03,5.881249481328884587e-03,5.687537080998896280e-03,1.397781895835088252e-03,4.815915253130677309e-02,2.859670437500322349e-02,2.198089564786396416e-02,3.236813960090117320e-02
4.100728076822230100e-04,5.068396873741640857e-03,1.124228980633412353e-02,3.370407164462041819e-03,1.571099965462723286e-03,1.222866043470446831e-03,3.357668352604512713e-02,1.115892529135945402e-03,1.749689377010864993e-02,6.278479648079438036e-02
1.085977820605574283e-03,2.790780148577473585e-02,1.559524262558997960e-02,1.835477355374008981e-02,9.617719208637871137e-03,3.930317636739816267e-03,2.204213860100555020e-02,1.135314493693023730e-02,1.525337562002950648e-02,6.762819664856029034e-02
1.010130389183131177e-03,5.970710110973462270e-02,3.246907245328309322e-02,2.913995727384100648e-02,1.461529585341778993e-02,5.244768219650791825e-03,1.981574334476721849e-02,6.253280819122757420e-03,1.511673714500987205e-02,6.367895173436247114e-02
5.478560833353329860e-04,7.885022867112899403e-02,4.538656819410984145e-02,3.078098290837673681e-02,1.564062746283002153e-02,5.688662013757546897e-03,2.453369664891838844e-02,4.638114230874644528e-03,1.512032472741384539e-02,5.960883309689326420e-02
5.312901221038768317e-04,8.000391586933357224e-02,2.975358744535031019e-02,2.616402600975287901e-02,1.411490186013132815e-02,5.998859384463930793e-03,3.281826915156339092e-02,1.702607435954330700e-02,1.252658234622740056e-02,4.178421658777489028e-02
6.787980191389706699e-04,6.739896304400483373e-02,1.185304937154342889e-02,1.886090637897532701e-02,1.082937836932832028e-02,5.355536936475401716e-03,4.171561813498639304e-02,3.552234924036234281e-02,8.590942118888309637e-03,5.064331678697219126e-03
6.265635768366416150e-04,5.069253320377083843e-02,5.118233749314834991e-02,9.120840652620143540e-03,5.763417471424692531e-03,3.381761820406800709e-03,4.663712757516928070e-02,5.886551391536772732e-02,8.388139168037621329e-03,2.753641684476358306e-02
4.922839210028002186e-04,3.669401612982774175e-02,6.639871495822877168e-02,1.573492771708660202e-03,3.594024923225855707e-04,2.017126298525320945e-03,4.499120676428835369e-02,7.700806593309755810e-02,1.203794900103986702e-02,3.062485352772898600e-02
4.465901821768060486e-04,2.666575104717834599e-02,6.058954423087999086e-02,7.462645132980652053e-03,2.812797454991876334e-03,2.890736563871477809e-03,3.843424122979681445e-02,8.114002007641606118e-02,1.147811857491451079e-02,9.522815342617906714e-03
4.376750332158003899e-04,2.071485327349696995e-02,5.013182175075502067e-02,4.634157342798461351e-03,3.449458623341289474e-03,4.462271200652051691e-03,3.056594760515185180e-02,7.305548894639568580e-02,1.719387604485110143e-03,5.533275559303576369e-03
3.860523214351570384e-04,2.104179764201142763e-02,4.254826784919819860e-02,3.079012519114249311e-03,3.930374117048078195e-03,4.599532438715553395e-03,2.744130338628588892e-02,6.527539619224304035e-02,1.048571972857559147e-02,4.025079458731460787e-03
3.159924741713922205e-04,2.951320574945253197e-02,2.743779712313250754e-02,9.228675754626986319e-03,4.884819096668617001e-03,4.541933358353894036e-03,3.259151720305596134e-02,6.441843271618423461e-02,1.566572972649310502e-02,2.238097614784616274e-02
2.660336066243067146e-04,4.455968656465751632e-02,7.277723317559446452e-03,1.266129162343267167e-02,3.656954102895397518e-03,7.216211467443497257e-03,3.150311103478783264e-02,5.159352372646630602e-02,1.349587532816072695e-02,1.789488327447487370e-02
2.263208140788489976e-04,6.321726840082678156e-02,4.960125178456881168e-02,1.591589074360098832e-02,7.641664481318008071e-04,1.272670466372852714e-02,2.984706727843340450e-03,2.822463191676582907e-03,1.012998876659492418e-02,1.745023072892418897e-02
1.797134607591670860e-04,8.396800239422752554e-02,7.072777125710676127e-02,2.025231761541044714e-02,5.731653636498031112e-03,1.859223615156764889e-02,7.348062724624472575e-02,9.567001440839789650e-02,9.672280192534160603e-03,5.723774690558740968e-02
1.316037402908624857e-04,1.030419924962401867e-01,6.749044910818294274e-02,2.661243233292369045e-02,1.011585457401668886e-02,2.368019828068309435e-02,1.438263241947895510e-01,1.823450750145872434e-01,1.319857910570905110e-02,7.329689246159737381e-02
9.100985703547277749e-05,1.111170884153176441e-01,7.347625375361536981e-02,3.613523996961542917e-02,1.593012050472562141e-02,2.844738328841117311e-02,1.766096578748627965e-01,2.220447740119184388e-01,2.124966117627024448e-02,6.523726172731306172e-02
5.636109580196453097e-05,1.009868988638680937e-01,1.084925535624879783e-01,4.568589356071463964e-02,2.248726387062974924e-02,3.115043704293512031e-02,1.674890442307241378e-01,2.138091930168552202e-01,3.223694255691668398e-02,4.999624488728315885e-02
2.415772610535093433e-05,7.628652918352857304e-02,1.394377822568540481e-01,4.759084156949231620e-02,2.449779728478788943e-02,2.772985931139697324e-02,1.348763757921644102e-01,1.820149322151713989e-01,4.048479397459704004e-02,3.851958340925610430e-02
4.284029837214064395e-06,4.623754521373658888e-02,1.164599247132382248e-01,3.641786961578280524e-02,1.825456309893162821e-02,1.746655777243708713e-02,9.582556972899744507e-02,1.453958575100343098e-01,3.960546229230353654e-02,3.223612220907887821e-02
2.681855538779634674e-05,1.569442797494135372e-02,3.762628469450010615e-02,1.426242036676437543e-02,6.511145763968369769e-03,6.195199671365972556e-03,6.119009671969594805e-02,1.096351697372959511e-01,2.815778174135341247e-02,2.936676347763035946e-02
4.368858781958800052e-05,1.292565260040911407e-02,4.057103257119174661e-02,9.042463933749082111e-03,3.457219714058517267e-03,1.146107090226670478e-03,3.969159119297913790e-02,7.816002119297221773e-02,1.185591459931964811e-02,2.708013948826726303e-02
5.570504519221010473e-05,3.329225308671938943e-02,5.752137096660213389e-02,2.111190257342868137e-02,5.729076399306138115e-03,3.415512170962478004e-03,3.364660880390585307e-02,5.640012132976429671e-02,9.786805496797951719e-04,2.309001907227757611e-02
6.272160237021841430e-05,3.954377252761338835e-02,5.599223746830566534e-03,1.689782569833181425e-02,4.220063201443679905e-04,8.005830357076951578e-03,3.452827307863672035e-02,4.440700417682742762e-02,3.387273056903494610e-03,1.720194679805797655e-02
6.446811213881550645e-05,3.402172244331964912e-02,7.149320582301592342e-02,2.331745012580654051e-03,7.535850123370296805e-03,1.070821986071474052e-02,3.249022359415840167e-02,3.445898229449566308e-02,1.670700974889393481e-02,1.037955493648634944e-02
6.127110511974146031e-05,2.457082698176163080e-02,1.277542798912837951e-01,1.384614532483620548e-02,1.384385148362834647e-02,1.138566312789303890e-02,2.751385810112725802e-02,2.005068496326349592e-02,2.897996742276729917e-02,3.179179614746218633e-03
5.366474661878652347e-05,1.740246455625077404e-02,1.464349986014092941e-01,2.671989640111128994e-02,1.707288675115341270e-02,1.049987161048648691e-02,2.231683790861278827e-02,2.697912158172183911e-04,3.079153830593598512e-02,4.692682474218679185e-03
4.203768054270147438e-05,1.511164992469551591e-02,1.344690391583763800e-01,3.385055130649242822e-02,1.711291770141342566e-02,7.264603847937355433e-03,1.309439854790204680e-02,2.341467961417262669e-02,2.529533276390791632e-02,1.235585582963647476e-02
2.679677375302995596e-05,1.639944465156255304e-02,1.117108327500620363e-01,3.455549626048860790e-02,1.495100858798949044e-02,2.840363396948950535e-03,3.561725425280350826e-03,3.998868792840831743e-02,2.181480015554511723e-02,1.655548421996510741e-02
8.517647347111797655e-06,1.650000987195682917e-02,9.971390216962509878e-02,2.985251193220355218e-02,1.272255249532296476e-02,1.180228867055135335e-03,1.731191752434698555e-02,2.238033577114409423e-02,2.142481697744385086e-02,1.682926574414152221e-02
1.214942170777516576e-05,1.164769235123798777e-02,1.036075219818214516e-01,2.048088783757290310e-02,1.160222503365164817e-02,4.408265824960796476e-03,7.063876170327092197e-02,4.571385644153930228e-02,1.717862380083688689e-02,1.864638391439241150e-02
3.457232228644629648e-05,2.027967455599121675e-03,1.133871461350797333e-01,9.816847666386102622e-03,1.152088005832510934e-02,9.969853269901674669e-03,1.392681734240952540e-01,1.340962193156019500e-01,9.459077100257683862e-03,2.439028097606362258e-02
5.811646089365428669e-05,9.736427496011017604e-03,1.243629758134279228e-01,6.669343116374367927e-03,1.332575078536674118e-02,1.379435872726675165e-02,1.791349337078769477e-01,1.846679319002832720e-01,9.153762610941265643e-03,2.701095281691665712e-02
8.212389418041952732e-05,1.846747383499280915e-02,1.369119510201932399e-01,1.522841453377940350e-02,1.758648179914317974e-02,1.403717933663813609e-02,1.757714913723143757e-01,1.727047902149543845e-01,1.994409001655968183e-02,2.161292500675536174e-02
1.059462167671300077e-04,1.750115921380111794e-02,1.412625632238634077e-01,2.542421525838804708e-02,2.139982164363584891e-02,1.091044926185695887e-02,1.496286390205839034e-01,1.289453437391883672e-01,2.960979304956348757e-02,1.579772991479692912e-02
1.289781885028602640e-04,6.116844805317398458e-03,1.246997139065563615e-01,2.413809413224922776e-02,2.038317290929622314e-02,5.401862643029114661e-03,1.213354916753578566e-01,9.736762567737132501e-02,2.678071116719346612e-02,1.794323400699000468e-02
1.506642551125728102e-04,7.609500064923836217e-03,8.853359947749522840e-02,1.204704765715662595e-02,1.380551910169866905e-02,4.751321076209485744e-04,9.601597094147043543e-02,9.038709662450826465e-02,1.522094598624548593e-02,2.201569800537895444e-02
1.705020122573578907e-04,1.551789266495826741e-02,4.594077347424510571e-02,3.464783060839670900e-04,5.330881315269613355e-03,3.976134037215216244e-03,7.565258478709362133e-02,9.170267070300880397e-02,4.680992086818836981e-03,1.484748148031298128e-02
1.880583481274461218e-04,1.649407942129249571e-02,1.319663592797016942e-02,3.724498354014096381e-03,5.158709405599184485e-04,3.850328416560202215e-03,6.634183588127902376e-02,8.831703888691899706e-02,1.135744198632234088e-03,5.435067345931123180e-03
2.029865974062791201e-04,1.412390525021040011e-02,5.799155016800353057e-03,6.820665115973658689e-04,1.738532779209689492e-03,1.758312432231710649e-03,7.194424763915657772e-02,8.595508835139560599e-02,1.867713403066194149e-03,2.727946728757384837e-02
2.150306096635743510e-04,1.346631164088603512e-02,2.590652718266837212e-02,5.849818450348973076e-03,2.357720299590703589e-04,4.883346127127553057e-04,8.644344411679126539e-02,9.239924841446654769e-02,3.025085206496881066e-03,3.972992667017167384e-02
2.240208716602579836e-04,1.986030118883098591e-02,5.112418608138548370e-02,1.146822911395834095e-02,1.397147144831857070e-04,1.269893721801431362e-03,9.172903752141700617e-02,9.693485990805766894e-02,1.021749603338405893e-02,3.986409466480098085e-02
2.298823666741473903e-04,3.421173161910426308e-02,5.284098574707042639e-02,1.303207004905987919e-02,2.179984309773680927e-03,3.797961256738774643e-03,6.778366131140273199e-02,7.771731221143353407e-02,1.388635016661736790e-02,2.706272393147472061e-02
2.326518641158952991e-04,4.916949491177124293e-02,2.814842406701494396e-02,1.130860656467688567e-02,5.562780970190341068e-03,7.730866068167920394e-03,1.452012523862352029e-02,2.727150142550231054e-02,1.296510469237888846e-02,1.523784867733535883e-03
2.324670408314311000e-04,5.436185709370898456e-02,4.609210480532267493e-04,8.111529987578547721e-03,8.835299386465281235e-03,1.193478727166174917e-02,3.810497479506493729e-02,3.404753122844655228e-02,9.834808372008901553e-03,2.735497080097903586e-02
2.295273407569500682e-04,4.458548640431674731e-02,1.740742728124711897e-02,1.786369973763637974e-03,1.252467569288293753e-02,1.322416272467691334e-02,5.125056317557540042e-02,6.584644069210739137e-02,3.982596518179897134e-03,4.331587118828180566e-02
2.241047138475069382e-04,2.203302955141026032e-02,2.968403968592300823e-02,9.144925487908564174e-03,1.567777949569737483e-02,9.191050934983168233e-03,1.286939862821327892e-02,3.711169650758908145e-02,5.344738670727256641e-03,4.145432028107143285e-02
2.166086148344497611e-04,4.688019557032558834e-03,4.559303562167810187e-02,1.960164092705237587e-02,1.550555275374843403e-02,2.067552436257274941e-03,5.022651449743291419e-02,3.560594954024172420e-02,1.371243218372913616e-02,3.227908143051461815e-02
2.075400757381926629e-04,2.355191131560473508e-02,5.730202135279355291e-02,2.230080991453198963e-02,1.162179888075652937e-02,3.215113063086613102e-03,9.705028796654149859e-02,9.088787693003434753e-02,1.677227932476495903e-02,2.189899375888102601e-02
1.973210007438498095e-04,2.676703560060404719e-02,5.955949725436037595e-02,1.876002028446997760e-02,7.598834524914583645e-03,4.088454740842849787e-03,1.041974815367092549e-01,8.325455530545795846e-02,1.852840636291461923e-02,5.103540685592025151e-03
1.863513859199822690e-04,1.546645167459221107e-02,6.700886977524732335e-02,1.904479322002104388e-02,7.276532614868718926e-03,9.539726859611273981e-04,7.392791266575536591e-02,2.915747476495075124e-02,2.659668709004153406e-02,1.580145628750056347e-02
1.753345744268622764e-04,3.902557528541025257e-03,8.938564186349252927e-02,2.839951407126667729e-02,1.136553875553441596e-02,5.214170854823328184e-03,2.363588767069789778e-02,2.173646599806078675e-02,3.963779453841224931e-02,2.592444999511047538e-02
1.651196434953623585e-04,2.247443345843664481e-02,1.056716628135800917e-01,3.989298967325557999e-02,1.764942134437848600e-02,1.284698726149455066e-02,2.757919898244687307e-02,4.368296635152010832e-02,4.723991702658120184e-02,1.825388021214673431e-02
1.559566100177532254e-04,2.964174493277902875e-02,9.154163471588788736e-02,4.365581194275528626e-02,2.289812496666686695e-02,1.942472156049727255e-02,7.116719164140238030e-02,4.825506282742375586e-02,4.431277657016109012e-02,1.011564740481196711e-03
1.477664360394369736e-04,2.112555711282966542e-02,6.181856143785086077e-02,3.980705875850104603e-02,2.518472904398305623e-02,2.386917226751766874e-02,1.115850004443958432e-01,5.690535486910013041e-02,3.819799661261075868e-02,1.794498301422571551e-02
1.416916846405094827e-04,7.160573717347410577e-03,5.449253350749048985e-02,3.787505423846727198e-02,2.550789978287316614e-02,2.749783647987343385e-02,1.538769674852405178e-01,7.976414474066939597e-02,3.748898790497987021e-02,3.865728588717899650e-02
1.395147692111235683e-04,2.882245288164499500e-03,7.279540904533395029e-02,4.238119055499242616e-02,2.565544846269255178e-02,3.096769548689567303e-02,1.939136243693824480e-01,1.142070204716727766e-01,3.967441344444437579e-02,6.146575116064272037e-02
1.402880867871943702e-04,8.811113224768485699e-03,7.385196471936106288e-02,4.335028461116140902e-02,2.433456789649765875e-02,3.261826761731554530e-02,2.234974006499295673e-01,1.469865990819215207e-01,3.484741942346440691e-02,8.247455615393702033e-02
1.414489951303788350e-04,9.762587037365898224e-03,2.843030336932730537e-02,2.884920282460539873e-02,1.905869206508675751e-02,3.123144243048823696e-02,2.361804985577874438e-01,1.606628927984502797e-01,1.928698258876054492e-02,9.388899593784474917e-02
1.460107693515188458e-04,3.187487691085364415e-03,3.280337097849174433e-02,5.337410337416574613e-03,1.194850463413181865e-02,2.814362661736282203e-02,2.267730896177930222e-01,1.505278513687692554e-01,1.712785641906559245e-03,8.428760339308444260e-02
1.603395607828589624e-04,1.922396473539536577e-02,5.506874671160226498e-02,7.184248540104016048e-03,8.262318485655489181e-03,2.522218494120776616e-02,1.975890079046148662e-01,1.333707620948655082e-01,5.575281618827976349e-03,4.693442337491398469e-02
1.787156384359763395e-04,2.547772752840465199e-02,2.639277827981248090e-02,3.155586468685047091e-03,8.176787961609895475e-03,2.237726860491227182e-02,1.670350530962515512e-01,1.327161585616890849e-01,2.039819021485813136e-03,6.551571844035224482e-03
1.876619164247085982e-04,2.857434636129553562e-02,1.290454502685556282e-02,9.397798889019624152e-04,5.568310801353426251e-03,1.850354276804893477e-02,1.582238184980536699e-01,1.573057970792516302e-01,1.911208493441621508e-03,4.897400919932301533e-02
1.990247778245323601e-04,4.221590739829244460e-02,2.180126018071437688e-02,1.721234401396204081e-02,3.090859360083311747e-03,1.399964646452761009e-02,1.746049400233254667e-01,1.943534992850635135e-01,1.694783315220680861e-02,6.020950985130604088e-02
2.415905505417070267e-04,5.990101327589908431e-02,3.950630624031375299e-03,4.270242150609037529e-02,1.290907511245204496e-02,1.082336839581820795e-02,1.967224095735932154e-01,2.210578577561215785e-01,3.845286397483343305e-02,4.335311592275427339e-02
2.900945659227246076e-04,5.934005018623212530e-02,2.402977503830644457e-03,5.332500233263924583e-02,1.600339341395876427e-02,1.036559140249236968e-02,2.065347528486443929e-01,2.270686684719076254e-01,4.457472580767474907e-02,1.653006674721471669e-02
2.811332799409628058e-04,3.272158080570573835e-02,2.672838526718490648e-02,3.959780288288666794e-02,1.059541732969652983e-02,1.235258433891079852e-02,2.055733067386859847e-01,2.244697163500290193e-01,2.702188952175550024e-02,6.358548163378687640e-03
2.678382728578317129e-04,3.041971418802494938e-03,7.382688051667002371e-02,1.565836677681163580e-02,2.998143594116217583e-03,1.479264195073519070e-02,2.026615816563652472e-01,2.248471097526228979e-01,3.052360478895249467e-03,2.291820284190194956e-02
3.966077847945657518e-04,2.895882958154099088e-02,1.048187718789010958e-01,1.309161018723953469e-03,8.836911651119467182e-04,1.426955740994806376e-02,1.940816753392135274e-01,2.165083193833426678e-01,4.083097619600743050e-03,3.334007025048522227e-02
5.272111602236675357e-04,4.543376707006300391e-02,1.078110470023179862e-01,2.596369412314044733e-03,5.298938326594625041e-03,9.006496618303778956e-03,1.704739746468814376e-01,1.855657154821598875e-01,8.091811297052364446e-03,3.240751783140431719e-02
6.526844208451561421e-05,6.195848566741818386e-02,9.600826607033899340e-02,1.071104044771974302e-02,1.059563814583966770e-02,2.415816300103569049e-03,1.370696773538006286e-01,1.460050974015197345e-01,2.210490638799467167e-02,1.654629033923872214e-02
1.365496252288305162e-03,7.237280827630658553e-02,8.298173291826296816e-02,1.480940981157033431e-02,1.211956841175493467e-02,1.312452173326224877e-04,1.114359299976326600e-01,1.240328902575583564e-01,2.574768205977907495e-02,4.942432952048022958e-03
3.025031729465691051e-03,5.936644521323240775e-02,7.201790500995906841e-02,1.169212047744116675e-02,1.054542903719415080e-02,1.693628812172558997e-03,1.039714157501002018e-01,1.238545200028274840e-01,2.371920188812164099e-02,1.600425456761667836e-02
3.437426713666626599e-03,2.579047968234752727e-02,6.571124492625064761e-02,4.169735388011462304e-03,7.821670297188254226e-03,3.315806012557923153e-03,1.079217282001618816e-01,1.269209156945458605e-01,2.338936837136781563e-02,1.309392171764665359e-02
2.072720337183712059e-03,5.760925526360691218e-04,6.768205794531047259e-02,4.029601069631461897e-03,3.972681026972268645e-03,1.676441157510506460e-03,1.044120349358586275e-01,1.167775295564203591e-01,2.444409317791622696e-02,8.933215162992143646e-03
6.634734210819064667e-05,1.593004280355813729e-03,7.343789103554083930e-02,9.603349985580459866e-03,2.260042914485485901e-05,2.394160913705378063e-03,7.839634188670263626e-02,9.305408438745388366e-02,2.535708489493181117e-02,1.419294995791055627e-02
1.117161741278894799e-03,1.190731471151737324e-02,7.274594988930804806e-02,1.029879150044873265e-02,6.073101159193598428e-04,7.604679626544950943e-03,3.331015462624967866e-02,6.185823073517734971e-02,2.660626363220171264e-02,2.579330635133777680e-02
9.743316796782169669e-04,2.396605005453996545e-02,6.087337940282964294e-02,6.263933001375214353e-03,3.838165823815399731e-03,1.433476067667715549e-02,1.553904140263577538e-02,2.264527786130266299e-02,2.637292506075444160e-02,3.706577951150422101e-02
1.557546339405760588e-04,3.765171101568402096e-02,4.052936233758280826e-02,2.719255319007918129e-04,1.032316132416017350e-02,2.205859003282826386e-02,5.599280418463133124e-02,2.113344992967635880e-02,2.219226923999518403e-02,4.749897734486076967e-02
1.420878038459251176e-03,6.170430838703508392e-02,1.659417976601548078e-02,5.984623012868885324e-03,1.329382775339103991e-02,2.659971477027509371e-02,7.399626159004779602e-02,4.316787975788596854e-02,1.509728543200026044e-02,5.600748823260782994e-02
1.844255787249597048e-03,8.514652746577440479e-02,7.412973950798523032e-03,7.491487533993752661e-03,9.769412179954434922e-03,2.300608040569955548e-02,5.125797967825403145e-02,1.365611127902176258e-02,7.271743475423740090e-03,5.548830365933814929e-02
1.331389039119341110e-03,8.482516522235969414e-02,2.828693747854110069e-02,3.343421313661940671e-03,2.544461366658225948e-03,1.248655602912291870e-02,3.717335846692608817e-03,5.184726931089124469e-02,1.073010019574128669e-03,4.279083947599954946e-02
7.170717237052850503e-04,5.785950793518879198e-02,3.925298838084849418e-02,4.851935287613254322e-03,1.791014773380400580e-03,4.233680442432052882e-03,3.879119653637810861e-02,8.685366317495410438e-02,9.972205279950838164e-03,2.696041836734019981e-02
3.753832525864809404e-04,2.702010884984797426e-02,3.525298354275410717e-02,1.325645295574709275e-02,8.795780765910812425e-04,6.792862523436703041e-03,7.150577358528371896e-03,3.877759221429735031e-02,1.769844876934540887e-02,1.943274364821443931e-02
6.073514140164295173e-05,9.415851194632007815e-03,2.503171486739219631e-02,1.777131143405617786e-02,7.890010957472550282e-03,1.828678135217464557e-02,7.818224567848218454e-02,7.238258193270755148e-02,2.252637302231461774e-02,1.984097362647057813e-02
5.532593063399604072e-04,6.994417708997085169e-04,2.399371799806002126e-02,1.711663231522108156e-02,1.295611442299132027e-02,2.922999719236890614e-02,1.663198104251600584e-01,1.790128584509912413e-01,2.515712542393942416e-02,1.809535862946977033e-02
6.917673128110708074e-04,3.977740241652809317e-03,3.224748127276740733e-02,1.432778132136127043e-02,1.326270340633036587e-02,3.398779368233154768e-02,2.248730480407633014e-01,2.353874388346032798e-01,2.717619960447017688e-02,9.737062950549784171e-03
6.489882874911386164e-04,1.795087713785211390e-03,3.598564920439215747e-02,1.327406112459736214e-02,1.107300882705732764e-02,3.406873994967932195e-02,2.452706701183205995e-01,2.383986282699432913e-01,2.758668924707752615e-02,3.681766818519963992e-03
7.360211842435649635e-04,1.541357233888374437e-02,3.107751337741613065e-02,1.431868911515463139e-02,8.476543197045239078e-03,3.124585687914850987e-02,2.185480172635644591e-01,1.988504491261081641e-01,2.403585044764353779e-02,1.072344598147267555e-02
5.414762169066492624e-04,1.620977409775612235e-02,2.813861441477656308e-02,1.524049924384151405e-02,4.589668409626676202e-03,2.450993945589663436e-02,1.483190915698088252e-01,1.347575487380349157e-01,1.829532480966548913e-02,2.750040301063062451e-02
2.136629764722664773e-04,8.405642944555039714e-03,3.257595483352713345e-02,1.469859055239746380e-02,6.817348545842242700e-04,1.488642040654784317e-02,7.613330969786180624e-02,8.631762423448599564e-02,1.660336911947366684e-02,3.953329756239237769e-02
7.358762502957757502e-04,4.454436983122041227e-02,3.342898657971697662e-02,1.293501163405377449e-02,4.517646581232736581e-03,7.179452015964137360e-03,5.203159931109630626e-02,9.000546881685808631e-02,2.178272299546457624e-02,3.952235403200674707e-02
3.150525668148606369e-04,7.048876711237422876e-02,1.713320620726273974e-02,1.111443322017588442e-02,5.186147358828567880e-03,4.493994868730945974e-03,8.055278253030376256e-02,1.332368339635415511e-01,2.859096617540746871e-02,3.459981308001336409e-02
4.480683252889838255e-04,7.770623321626171642e-02,1.292884184809116321e-02,1.107647211072790121e-02,4.505208642186946978e-03,5.251558845101864277e-03,1.298297110063299786e-01,1.741265729007460683e-01,3.079341193772071675e-02,3.513440144840605101e-02
6.513277692591198844e-04,6.711225669370141089e-02,3.558271054556740726e-02,1.329846305428296523e-02,4.295822448483260433e-03,7.397710916129941056e-03,1.834770708438253906e-01,2.022731151796185733e-01,2.923343186392676415e-02,4.237801780382190187e-02
4.005786272382605841e-04,4.355564767373759638e-02,3.275130282926076025e-02,1.483717161915886103e-02,3.563552659747465639e-03,1.120618691639455045e-02,2.405702268364411367e-01,2.349548263820741278e-01,2.788095804586672097e-02,4.802902781631264439e-02
2.747633017014678163e-04,2.021008252250704185e-02,8.922594286267781019e-03,1.225513485320917258e-02,1.102296279869306121e-03,1.603024322084882838e-02,2.792117841940013889e-01,2.612262524653340967e-01,2.582129467496628930e-02,4.284735976411999103e-02
3.509882213914264533e-04,1.046433534385589337e-02,1.485864273355838941e-02,6.632812675233362362e-03,1.431504564675382951e-03,1.844062453050170081e-02,2.701273342773629627e-01,2.447461193700543602e-01,1.985598781274224359e-02,2.417292632045548242e-02
3.794306768129037267e-04,1.113288372155597609e-02,2.340577491136790200e-02,2.621895006269612388e-03,1.179076048038187399e-03,1.590280233406829100e-02,2.185607521995152347e-01,1.848467182809117315e-01,1.169755950195260075e-02,2.572620339565070795e-03
3.170132229908398727e-04,8.854193756910901797e-03,1.609073664130878864e-02,2.908868242673657428e-03,2.371294083512566573e-03,9.587091101394100423e-03,1.565307885818233713e-01,1.264351798308663843e-01,5.486489782506489069e-03,2.603048576055336932e-02
2.798814783767528147e-04,3.047056322145816343e-04,3.466651185980145194e-03,7.158552085474532284e-03,7.707858032805128996e-03,1.941452611248037407e-03,1.037219507392078133e-01,9.964256632142176606e-02,1.526301637688436217e-03,3.622946062434575371e-02
2.901481514199775232e-04,1.029318219333486342e-02,3.348255586992728711e-02,1.474212542101257205e-02,1.387678268241757627e-02,5.962802199026244823e-03,5.990671830320851848e-02,8.657296906316427898e-02,1.527913485791588481e-03,3.563409875025453505e-02
2.927299542401534563e-04,2.355457479617236935e-02,6.620774600655078557e-02,2.260144980565581205e-02,1.928860228392090259e-02,1.265019806484892623e-02,2.371657653515391734e-02,5.932386234417547088e-02,3.379131482234699283e-03,3.676105668084125172e-02
2.761539690744999639e-04,3.496071450093331950e-02,8.487107627253906439e-02,2.283997625697103268e-02,1.974200556806530657e-02,1.472770141905238410e-02,1.697320747670129359e-03,2.118344966481214980e-02,5.557704366847925417e-03,4.324612266292195834e-02
2.683079537333038305e-04,2.578972862404125405e-02,7.764023254081435510e-02,1.102662825206486043e-02,1.296395587522066774e-02,1.077222754475958694e-02,1.765188070413209118e-02,5.272060953827394092e-03,1.104338773924199921e-02,4.408466740669823858e-02
2.755914104555466648e-04,1.466308714008481180e-02,5.123689126516402237e-02,5.217198718067843181e-03,3.480541907592585478e-03,4.306223898027703931e-03,2.903789164281479068e-02,9.397716806862518174e-03,1.761199255811134179e-02,3.224198289503885789e-02
2.795873223846936256e-04,6.878253547217913488e-02,2.424100772891003147e-02,1.472006149984952245e-02,2.552111953357123417e-03,7.766509288626138180e-04,3.120994979889377824e-02,4.718912567011710607e-03,1.958566139357726874e-02,1.501705901041729824e-02
2.744572489888907896e-04,1.089416469900817558e-01,8.914572637476634795e-03,1.658907986911074134e-02,4.890212889386728878e-03,4.564874941999239044e-03,1.114767449217169901e-02,3.139723836646170219e-02,1.681820040852404635e-02,1.863074202705273402e-04
2.789849475193755392e-04,1.254123582231239653e-01,4.272521384759882419e-03,1.705950936046717742e-02,6.540448579800634508e-03,7.577294305256655933e-03,2.921091860191484327e-02,6.207750512468276916e-02,1.402242676449399691e-02,1.431611947109001984e-02
3.004125380757547521e-04,1.238426719092925038e-01,4.216656242077740716e-03,1.733137213173996383e-02,7.290491519823654246e-03,7.330636655107930326e-03,6.294128652891062270e-02,7.983698479515571877e-02,1.247264773406797124e-02,3.088280145228274043e-02
3.064964204107881738e-04,1.075890862534857328e-01,5.686023210374768072e-03,1.383469045148603103e-02,5.103358305280338882e-03,2.164715464030761080e-03,6.357067583284402301e-02,7.168596674669604207e-02,9.959970311712548416e-03,4.244565707074519217e-02
2.817307229568985038e-04,7.916356765503380910e-02,5.957947578739296833e-03,7.341971490500849226e-03,9.624227415766491503e-04,5.234441857512570767e-03,3.108793464986232130e-02,4.237248097620300441e-02,7.353654982074638892e-03,3.829422652699245033e-02
2.889038393088934581e-04,5.312831541210610159e-02,4.661804629064542072e-03,3.800575991245728341e-03,2.074593164402532830e-03,1.082852037268142685e-02,1.477225928171772840e-02,5.354293854024857330e-03,8.480637082555180645e-03,1.723307667821229877e-02
3.601881214557422746e-04,4.901964512340400981e-02,3.773738639717690024e-02,6.786495201646617834e-03,3.032521428232603285e-03,1.293788941201690600e-02,5.214449719116859283e-02,2.969084240899881252e-02,1.372665579521849429e-02,7.202139597991969074e-03
3.626797614476312678e-04,6.794297441436848717e-02,8.788954787739131080e-02,1.351578501355934353e-02,3.315467801896877353e-03,1.180264148814893534e-02,6.196828607733048666e-02,5.103225208595768558e-02,1.829292200221705952e-02,1.744797572658732254e-02
2.229202937168432328e-04,8.827873174915187859e-02,1.278121418065733261e-01,1.844345335956325618e-02,3.795824434639830797e-03,8.320057086559477094e-03,3.812977359658820120e-02,4.693108947375935341e-02,1.798648216730035915e-02,1.037842803758799726e-02
2.228191126061957394e-04,8.888480467645819283e-02,1.323627547104246627e-01,1.891924749106606643e-02,3.781136994397019634e-03,4.254237896735017094e-03,3.657811537900922116e-03,2.653018852190654892e-02,1.437491298998259080e-02,1.071325872665152088e-03
5.368072410083859223e-04,6.758988918168985782e-02,1.018781948906487406e-01,1.638985399114120667e-02,2.940364594597912138e-03,1.676774326645949238e-03,4.307993388665328632e-03,1.687850660011811985e-02,1.198204743372856783e-02,5.222194422637561548e-03
5.331653903169184840e-04,3.392646879226605267e-02,5.703561447228537584e-02,1.293530206389833029e-02,2.678763473927767928e-03,1.555397098741310080e-03,2.422006118827485510e-02,2.948617367572618081e-02,1.196361677754827213e-02,2.378437275893380970e-02
4.745728941033078665e-04,3.517767529916532299e-03,2.198888954897112308e-02,9.839210038135441996e-03,3.893586472969477481e-03,3.351502078193153034e-03,6.175113418481607136e-02,4.918545056032259249e-02,1.225514439690138062e-02,4.684324546451177490e-02
1.739735391662902047e-03,3.335698742406676548e-02,1.578757075581701044e-02,1.035365417251633835e-02,3.764555973954484061e-03,5.016487744628221959e-03,7.695613806165156612e-02,5.705663658992517900e-02,1.265675355787034689e-02,6.392074942796799331e-02
1.754239911990437264e-03,3.974450047627301613e-02,4.428103066148099398e-02,1.914010019361667148e-02,2.163663588860211592e-03,3.557706906029047250e-03,6.403784531478276532e-02,4.681909532659093293e-02,1.492272269046581064e-02,6.815729493211628021e-02
5.180455408535980912e-04,2.267770614446674993e-02,9.163329656092983333e-02,3.591219891960045763e-02,1.363553749666862255e-02,2.236048738602871167e-03,3.812136307044910327e-02,2.236084422393160714e-02,1.851225095836227935e-02,5.948735234199143546e-02
4.609058876141720017e-04,8.600066509760763075e-03,1.281135163913693642e-01,5.266013883888227831e-02,2.434928135155113582e-02,9.590403710341754984e-03,1.333642807125984958e-02,6.746885234923090738e-03,2.046703101642209990e-02,4.676998772577432156e-02
4.361354371007796003e-04,1.941171890678768108e-02,1.329622346359929375e-01,5.991460763843468179e-02,2.842726407543972461e-02,1.381528781335867803e-02,8.305510284421044331e-03,2.862658786214239415e-02,1.890664168233909675e-02,4.060388793826645581e-02
9.419682765795264843e-05,4.155577111787155803e-02,1.084033556408292021e-01,5.446067052215730619e-02,2.583216956538916462e-02,1.232650381388519789e-02,2.732105928817269574e-02,3.449272500438500810e-02,1.378780424223565761e-02,4.391752379474834350e-02
6.679675184037783971e-05,4.917794649219937864e-02,7.062185689503842900e-02,3.994015137840369739e-02,1.996430035260300662e-02,6.165692425205379114e-03,3.493963034117829325e-02,2.255929346808750735e-02,5.313861378265831437e-03,5.400077270605828372e-02
1.796768247253805503e-04,4.636614675231608834e-02,3.148164106313958155e-02,2.210806399988399576e-02,1.253730882390298104e-02,1.448954971155553455e-03,2.036837850279896861e-02,1.617271272566734794e-03,5.470024274758499352e-03,6.841701540167130502e-02
1.512691371619736646e-04,5.756845924112740515e-02,5.276402667166337282e-03,5.537211544994091739e-03,3.780251960147892713e-03,7.628426481421517018e-03,1.439491756230386679e-02,2.849945759922221933e-02,1.476226781584218453e-02,8.167404262466136655e-02
5.494918866013190145e-05,8.255857208649142187e-02,3.380887214210461650e-02,6.907895249914992181e-03,4.027755173167522039e-03,1.152152131021844626e-02,5.543343038202749179e-02,5.106402491747802364e-02,1.792789796628737123e-02,8.281014933879646267e-02
2.313036018891010437e-05,9.302845344330054611e-02,4.546065728531789585e-02,1.478429146882269569e-02,7.503942324573076306e-03,1.397209052560807394e-02,8.812904498523724262e-02,6.891447540078055045e-02,1.477371333898118769e-02,6.600886970062258552e-02
2.399663807416163483e-05,7.730518871261576885e-02,4.177207751963196020e-02,2.024898589750916134e-02,6.727264774218628604e-03,1.577439684214460361e-02,1.022919131995182473e-01,8.446832753906913238e-02,1.057994344542479911e-02,4.040924271121135170e-02
4.043415395845538943e-06,5.850517367868792590e-02,3.653622024048406441e-02,2.536499532559500017e-02,5.442431906267300099e-03,1.675070171061211061e-02,9.549593099175258948e-02,9.694282613849111718e-02,1.030313360754810982e-02,2.258099860904146799e-02
4.612021095753488013e-05,5.565197341321643371e-02,3.834458237573487582e-02,2.944716903731828261e-02,6.209364297084249765e-03,1.667393509247021635e-02,7.975680048889303986e-02,1.044608826056604850e-01,1.338643519081049449e-02,1.940127232076495345e-02
7.251401733956118738e-05,5.165124081178812387e-02,3.893777931030437123e-02,3.029089263672678570e-02,7.622391098032436398e-03,1.619320985997546244e-02,7.485964659753366335e-02,1.087324576557058275e-01,1.516717567621521379e-02,2.071642898723731127e-02
8.916837288258186466e-05,1.965902903064804114e-02,2.466482160571988394e-02,2.686084076414652078e-02,6.829167626970326054e-03,1.572846015998011909e-02,8.392871074747081106e-02,1.103912233284580907e-01,1.205737280849506453e-02,1.175418389752328277e-02
1.094764190323290788e-04,3.481236983664966894e-02,6.134311325362978677e-03,1.947726486226021569e-02,3.555683415115860977e-03,1.438913864876167556e-02,8.651913326710000685e-02,1.047064618537311420e-01,4.751192775146243635e-03,6.831862745468357360e-03
1.302973562257053221e-04,7.792731228858283676e-02,4.121731034383682019e-02,9.007752858186250308e-03,7.022942337563372120e-04,1.175600486098993605e-02,6.928354828422987610e-02,9.063281250147538215e-02,2.972760633621028548e-03,1.951024601067640613e-02
1.448861865445869826e-04,8.518965027409236557e-02,6.521700529555737869e-02,2.252607870210312450e-03,6.636715477067053025e-04,9.217020070659382239e-03,4.835018473928720528e-02,7.711099580402831777e-02,7.925278868824353617e-03,1.897376855790067901e-02
1.542916053708707862e-04,5.949510887515215007e-02,6.944378805917940378e-02,1.029629016119784114e-02,2.192937075972633404e-03,7.260779216839517887e-03,4.186699558595920190e-02,7.190738035423085983e-02,9.648985091603189124e-03,1.532673933423627823e-02
1.614479416065143591e-04,1.625004000509711055e-02,5.431454349675512994e-02,1.205005442379592472e-02,2.691078234113090852e-03,3.904251287530426627e-03,3.742269770426916164e-02,7.205112426716439589e-02,9.165436856454241624e-03,1.918456250307307154e-02
1.657704495441848704e-04,3.332453431585158388e-02,2.604098769425594942e-02,7.751887823447257270e-03,2.467668411851837475e-03,1.475826014573664285e-03,1.256340849701578603e-02,7.039134466065695428e-02,6.489690845105174424e-03,3.201132324181592270e-02
1.658582238734716103e-04,7.936560705650679004e-02,6.326308644706496627e-03,7.714505064594819050e-05,3.739153764043985900e-03,5.710216248531523216e-03,2.602855189489883606e-02,6.193304909472258091e-02,6.136577576623110201e-04,5.440642597318866291e-02
1.620575987117428725e-04,1.067521822018381999e-01,3.157514515767881336e-02,7.780680851176190183e-03,6.345841244432083583e-03,5.856823436303414988e-03,5.009793066184325960e-02,4.224241516107554717e-02,7.728481481904228914e-03,8.530709164565077052e-02
1.552233276219237726e-04,1.048623062130671080e-01,4.048333736507093300e-02,1.296151892696597793e-02,7.939472232050714950e-03,2.879695387696942950e-03,4.666165683135393982e-02,1.198470334893355672e-02,1.503722842563537734e-02,1.115624588757824359e-01
1.454964269165696998e-04,8.138314996991630190e-02,3.268815900866477164e-02,1.387661479560749374e-02,7.634107285930016862e-03,4.414916479297979410e-04,2.544878475911060284e-02,1.594996391440189898e-02,1.825193422534324150e-02,1.151062554007416666e-01
1.328633825715386490e-04,5.601719786378782373e-02,1.645334868198630729e-02,1.137168898641014066e-02,6.507892021268490805e-03,2.659927467418788001e-03,9.444240455879718971e-04,2.592505051641844083e-02,1.775840399341786779e-02,9.349835754865976067e-02
1.177264831045196495e-04,4.144016975406014658e-02,1.084924178603738918e-03,8.200926958115431487e-03,5.494414267899794778e-03,3.576186464466257417e-03,2.501115244418924966e-02,1.740345036627693673e-02,1.609474207693919329e-02,6.335646459623435478e-02
1.006314790028128164e-04,4.043428703113158273e-02,7.827735707763933126e-03,6.937001701723766699e-03,4.893721149042578808e-03,3.307212290426030359e-03,4.042932123874174583e-02,4.255554753855380831e-03,1.493991303354470952e-02,4.215314431326641631e-02
8.197942137363151236e-05,5.854401454303265889e-02,7.643418086194146352e-03,8.639322704846923509e-03,4.892525260719093882e-03,2.528258305234626878e-03,4.617402994914290154e-02,2.911096373514755753e-03,1.407031714950972290e-02,3.223106998264523709e-02
6.214623970795218855e-05,9.940300984243810589e-02,2.171225507708474806e-03,1.276469928948940381e-02,5.288537438535367147e-03,2.108409730647410954e-03,4.823422703711524595e-02,4.733686853192449820e-03,1.207880782169682386e-02,2.370216442796551151e-02
4.161159836022908665e-05,1.418543212018686384e-01,1.917639513295247428e-02,1.725018859413130629e-02,5.368493619456022291e-03,1.759261280037051518e-03,4.742770276166377585e-02,4.645530626441891561e-03,8.177091295128464249e-03,1.044830713589672833e-02
2.086537642236133703e-05,1.461024480058562003e-01,3.772790425184005536e-02,1.960768312512025865e-02,4.597316177143648437e-03,3.438982093412893456e-04,3.571008966109942562e-02,2.886394150013930557e-03,4.325008455563406420e-03,7.955490296406419332e-04
3.111678566041783885e-07,9.807117471371799844e-02,5.092418129477975508e-02,1.941525400673827992e-02,3.308351711159215024e-03,2.007385619321895402e-03,1.268153384911025611e-02,4.886530246553215384e-05,3.940136742160700416e-03,9.466884723981165012e-04
1.965907884989807281e-05,2.828727174379646464e-02,5.480792367892775574e-02,1.854600226923953238e-02,2.490354623732008929e-03,3.660097085413758708e-03,7.645776873855072465e-03,2.300522288134631763e-03,6.806294588063121695e-03,6.646345083154775284e-03
3.859310982791649730e-05,2.508563501356979308e-02,5.149377742785365974e-02,1.755386823388424902e-02,2.585488398620536688e-03,3.771962802643173511e-03,1.462868326776288821e-02,5.321777183532716560e-03,8.079962211489617047e-03,1.030021133397202721e-02
5.612790441357598569e-05,5.019126321416238212e-02,4.620760178803513807e-02,1.415879646375238846e-02,2.875457352836478450e-03,3.104886025594704151e-03,1.177669998663909146e-02,9.815501373875008123e-03,4.672013611378547648e-03,3.895923291869732297e-03
7.212795103098926675e-05,4.956363933675279887e-02,4.147161258054245236e-02,7.540899576956132389e-03,2.590607642304967873e-03,2.397966267921468938e-03,3.776948597782104657e-03,1.065936094646354262e-02,7.907328721240192062e-04,1.259871033682577815e-02
8.641323350187878982e-05,2.153715669876707373e-02,3.727981132942934095e-02,1.527447662370117008e-03,1.937185814139203441e-03,1.709950172726195988e-03,1.178570990763538537e-02,1.735975238115528875e-03,4.562353964204964897e-03,3.791268780562488672e-02
9.850135167129111158e-05,2.785214416858328851e-02,3.483471726660900686e-02,5.418205947141760577e-04,1.421456922910386113e-03,1.246000349409868155e-03,3.223887557518641950e-02,1.485498084445857278e-02,6.335852157530462957e-03,6.308585261590451965e-02
1.081906263460114394e-04,7.131563257101233844e-02,3.472863707973643937e-02,4.076856138983397937e-03,9.902436368012389363e-04,1.306481530918655572e-03,4.274821847595047797e-02,2.986807381461328154e-02,7.311457514905246417e-03,6.979039534186451399e-02
1.161273736721295561e-04,8.090355837681988127e-02,3.401596782304473765e-02,7.657337297112844048e-03,4.635811103520436028e-04,1.660013351740202399e-03,3.114134022605753033e-02,3.509533409773077373e-02,7.622340139993693739e-03,4.725630242055106622e-02
1.225860321406660187e-04,5.896455007954923278e-02,3.071989361049196066e-02,8.199987793514034590e-03,5.681167970727156848e-05,1.882936635961030784e-03,2.890526946349809747e-03,2.778610290282499187e-02,6.985743399917025698e-03,4.828249493494314593e-03
1.262325289257223331e-04,3.174931426040113885e-02,2.747236801580429238e-02,6.432114894002523980e-03,1.896888457076773135e-04,1.948897838765427338e-03,2.531204876872057349e-02,1.136478024430410440e-02,5.242843982541250253e-03,3.742466994199079161e-02
1.266917626357733366e-04,1.308634276378159954e-02,2.560067123498484254e-02,4.634440575554580645e-03,8.170091578640157476e-04,2.043404937140519666e-03,4.170733981938943430e-02,5.531045045408525956e-03,2.494781299361343609e-03,6.299178105854283394e-02
1.272441842254615088e-04,7.433963468157132014e-03,2.133980983560829908e-02,3.845015880078663829e-03,1.990920927846072733e-03,2.187929970592611406e-03,4.384985822803742078e-02,1.419453965738643776e-02,1.429328133395998729e-04,6.446680106963456613e-02
1.293997871514956629e-04,3.804628861255247158e-02,1.303776107833814688e-02,3.316066078564463854e-03,2.845041414854515300e-03,2.297833604293657208e-03,3.285981877822073682e-02,1.155280790730303306e-02,1.302078335089440974e-04,4.688241307705622030e-02
1.269802665925716747e-04,6.745887651486125181e-02,5.372643335827388331e-03,1.607395235843645355e-03,2.714132549935160087e-03,2.362151293517468411e-03,1.261208194666252162e-02,5.652518848129838534e-04,7.492866861833181145e-04,2.640814532716577109e-02
1.175296257418035527e-04,8.204079196298387500e-02,1.823813112280447610e-03,1.629695030182164509e-03,2.227752753920121155e-03,2.419971227415303964e-03,6.703932622889903839e-03,1.225991732062194431e-02,3.536436645505450205e-04,1.611428147090629079e-02
1.152236500173399529e-04,8.283678946727529580e-02,1.567467309076730694e-04,4.567648176633925909e-03,2.262005983751531283e-03,2.475945421128269205e-03,1.415916337115023099e-02,2.011603147338186098e-02,7.268196715058108850e-04,1.338430695121525620e-02
1.268092496502455700e-04,7.679359662572018963e-02,1.323013232306372543e-03,4.944686486977886188e-03,2.693469904504599242e-03,2.510353296946328961e-03,1.055402988172993509e-02,2.079948402929651663e-02,4.425368912846322457e-04,7.957619654545004112e-03
1.233759178015991559e-04,6.463882833014879259e-02,7.094078492283929088e-04,3.151306182866087709e-03,2.952909201741128666e-03,2.518860508399836488e-03,7.469212814567869133e-03,1.706960966811973957e-02,2.934667902872040331e-03,1.962756853121557735e-03
9.097196330453769376e-05,4.362021606580512856e-02,2.220968807173665828e-03,1.730858722316257203e-03,2.968636963534609496e-03,2.508311500327522515e-03,9.407380236310641103e-03,9.575964349215594987e-03,1.689727997669309171e-03,9.034460449948910829e-03
9.218456673081358804e-05,1.664466693651257823e-02,4.844096532548866976e-03,1.479320552317039440e-03,2.983161341339136876e-03,2.478164590707156081e-03,6.037387366113438139e-03,5.922572914985128542e-03,3.960796388526179046e-03,8.026122724544551210e-03
1.596154700346714451e-04,1.682275777724435636e-04,6.248353317716523123e-03,9.375644779794523476e-04,3.039003578204626296e-03,2.422498331708365128e-03,9.667660595046633290e-03,3.078414630943799440e-02,6.931071447371535237e-03,1.348947058945572895e-03
1.614173512620217918e-04,1.703734399336649316e-02,6.912641830678048667e-03,6.533936633406325824e-04,3.029121124088437512e-03,2.338834676451707287e-03,2.513616889831947823e-02,5.738257289706883563e-02,1.588779900584379873e-03,4.658975045434500875e-03
2.510879721941099418e-05,6.618738939788475217e-02,5.476800607158804554e-03,3.932320795615238188e-03,2.930826800684228645e-03,2.227083005632948462e-03,2.305706290004900377e-02,7.490817184890129210e-02,8.033151135077085461e-03,5.677092229195982408e-03
3.345075733640708764e-05,1.112228983544640143e-01,1.310738603026640001e-03,1.104279497805159618e-02,2.789832502971923561e-03,2.085506084594669369e-03,6.153519057659678770e-03,7.970345541000083134e-02,1.324473081042168085e-02,2.165958504340570988e-03
3.609636090010543449e-04,1.210947178819427872e-01,2.239757164811745187e-03,1.649126504506584837e-02,2.630343082399381419e-03,1.911987001151554521e-03,7.242267120875969105e-03,7.687736318227691990e-02,1.060704025091293440e-02,2.955658477095256427e-03
3.752479261323038700e-04,1.057778615291121022e-01,1.803459869868601941e-03,1.523725210212623950e-02,2.454356907431514898e-03,1.706048581899250512e-03,8.432142423340120013e-03,7.203210525042288981e-02,3.491941282453776222e-03,8.549813070600702225e-03
6.093177078585603488e-04,9.100201707864832845e-02,1.442680242355446046e-03,9.023537211421373341e-03,2.240942251139841235e-03,1.466842761490054058e-03,5.206476571335235011e-03,6.509061938867970187e-02,3.881180087488909046e-03,1.589587941468440305e-02
1.843617192439733071e-03,8.033309482513882605e-02,4.349931925714014581e-03,3.505005796926124757e-03,1.960032391115477252e-03,1.192180178115705060e-03,5.905550436389825179e-03,5.377212572781715771e-02,1.072098508856769890e-02,2.594489024090569640e-02
1.820902723240054978e-03,6.375041024321623229e-02,5.743216978822422193e-03,8.323431294960612634e-04,1.664266211600261367e-03,8.827885251217851585e-04,9.163979078094587269e-03,3.921121639618860288e-02,1.797279719938589190e-02,3.740757530447732376e-02
5.465740446477606153e-04,4.436287176841559321e-02,5.315183269554202110e-03,1.201744362252418416e-03,1.456870536215695410e-03,5.431153450754229277e-04,9.639500716645585388e-03,2.492054370164757324e-02,2.425425211866588660e-02,4.625083639096324445e-02
4.735691092039792118e-04,3.721087532587182695e-02,2.503576312449261754e-03,2.930879885406355821e-03,1.251944730623142992e-03,1.724065742878730639e-04,6.644263256431359732e-03,1.189563232386892620e-02,2.579010486519657877e-02,4.651134806894279689e-02
5.038013623395606010e-04,4.927753718009796752e-02,7.959730229782296202e-04,6.650248135159513886e-04,8.351885630359775960e-04,2.364773431211270168e-04,5.140030439170552648e-03,3.012389059827204688e-03,2.135457527192394581e-02,3.510974703959111182e-02
2.250269044794216675e-04,7.075707863270164211e-02,5.923356146679775811e-04,6.938606516554523054e-03,3.930587405348790809e-04,6.780377066479241358e-04,7.895341981911553966e-03,2.270768136264007114e-02,1.520062035451285459e-02,1.737638853396247102e-02
2.440751885050818884e-04,8.665042357793187322e-02,2.801879622185132149e-03,1.481458881838486688e-02,4.544589424026394646e-04,1.131459464314042099e-03,9.289651158349633217e-03,4.316327207991713794e-02,1.299540377054274852e-02,3.697836851340440337e-03
3.960194677512324452e-04,9.302357184574411297e-02,3.040033556980037757e-03,1.718762169928533118e-02,9.057967315865410752e-04,1.601215893163681269e-03,3.290019806408776490e-03,5.412825670792552335e-02,1.606973197056170422e-02,1.597889941997425716e-03
4.503177328686346938e-04,9.531805803403772814e-02,3.403030335853674763e-03,1.382448315526182969e-02,9.501654633487786102e-04,2.123778875943900957e-03,6.239614524934418947e-03,4.966971752624546599e-02,2.097789486469812947e-02,4.640971896362916863e-03
4.591672973181298769e-04,9.412506868967981943e-02,1.076133551057933090e-02,8.047764988602119224e-03,5.141002868757778808e-04,2.681195871766458433e-03,1.249066116857193778e-02,3.470020337902933460e-02,2.338619877902564648e-02,1.306992832206809417e-02
4.425669545347205567e-04,8.439736483304741133e-02,1.114665386199572249e-02,2.308136911909908825e-03,3.629892689985223810e-04,3.184724244923487629e-03,1.662104282925114251e-02,1.855455571634208323e-02,2.162085940031301806e-02,2.517505975325628684e-02
4.078631508494290391e-04,6.498674813621928281e-02,4.409346616845921316e-03,1.935527906114627595e-03,5.044497866567795603e-04,3.659157833899004657e-03,2.129120515737918662e-02,7.194662094009842551e-03,1.713285204781000992e-02,3.079366770766127359e-02
5.341626041688945191e-04,3.803320216026279121e-02,3.867570104944096244e-03,3.312158576971906826e-03,1.764944166103039479e-04,4.282763176153722012e-03,2.127697220668631900e-02,3.911298394907940235e-03,1.154147301344204263e-02,2.228699397390964537e-02
7.652731384848232348e-04,6.093623760492057617e-03,1.038133076582923101e-02,1.922743406428740901e-03,5.567527926050566591e-04,4.994614785272047559e-03,1.066237918927740239e-02,1.128111847133747223e-02,4.399115305378991508e-03,1.909444899317827397e-03
5.694912022506681305e-04,2.193649647454311638e-02,1.514510819125128478e-02,3.327782629321458276e-05,8.898929321173357741e-04,5.398611391325957957e-03,8.315542008317010694e-03,2.890183443417472173e-02,4.049311856212820145e-03,2.145719087817640758e-02
1.785998349409489961e-04,3.383741223804375559e-02,1.756476800718497974e-02,4.232038054316120644e-04,6.798861902631898489e-04,5.604648439037127235e-03,3.096285344109659526e-02,5.281844984097892881e-02,1.063422534852679659e-02,3.913373793903483083e-02
6.286158033090501500e-04,3.100389887861371846e-02,1.648772652897967372e-02,7.164093755863897798e-04,4.615008703076328147e-04,6.476884091433480171e-03,5.549509032477870779e-02,7.785563085309940567e-02,1.430441252600763574e-02,4.566454715704384298e-02
1.490773687757144291e-04,2.949989501370255465e-02,1.317978789891383409e-02,1.813192265625600003e-03,4.709557619976973146e-04,7.764473582069695429e-03,7.559425330872199256e-02,9.712224445070356815e-02,2.007021432247782511e-02,4.009738711157639218e-02
6.393028900582055363e-04,3.686220376094412332e-02,1.083261541958883273e-02,1.856941894742464337e-03,4.721947151487157989e-04,6.960939718709853105e-03,7.686494472539733003e-02,1.021894152511811232e-01,3.209054849679524035e-02,2.721272308676722998e-02
8.858142609786526017e-04,4.193074173439702984e-02,1.078168175230011239e-02,1.181545804691786503e-03,2.647054742693369725e-04,2.445363036227380348e-03,5.104166268835245296e-02,9.120919345890905749e-02,4.624879206195472992e-02,1.365466555242060565e-02
6.870015808666495027e-04,3.545043805975049700e-02,1.108565970633541842e-02,5.018638523448144817e-04,1.171000453967439001e-05,3.035825728340436382e-03,1.021981913000529624e-02,7.444616090105286854e-02,5.509694847994095479e-02,1.974511661244570358e-04
5.624280746846428182e-04,2.571502547236888606e-02,1.000725774000315454e-02,1.211554994303538045e-06,6.170541760811375904e-05,5.238557971933610440e-03,2.298524292763658161e-02,6.216107465951162953e-02,5.635992564177574882e-02,1.746265693983108103e-02
6.307629070729435473e-04,2.529634753513779200e-02,9.196100388070761744e-03,5.010728428012813226e-04,1.864748630666878911e-05,4.250294414928033719e-03,3.970364663751817930e-02,4.975737628499679599e-02,5.205031285327602064e-02,3.767386197613584176e-02
7.447523582574755528e-04,3.624586699261707345e-02,1.033568295850760717e-02,1.056577639886734912e-03,3.556275304639456257e-04,3.938206098039812898e-03,4.933872307667835910e-02,2.670737333319836079e-02,4.346237105094026554e-02,4.901090178832136213e-02
7.625753905885671686e-04,5.520925958174639769e-02,1.041281449472783796e-02,1.566658126990224612e-03,1.309813248060064193e-03,5.908900727403453360e-03,5.855718169896004938e-02,3.755064740157159318e-03,3.143556502439670552e-02,4.179804809112734609e-02
5.891273535793135592e-04,7.911434488570101564e-02,5.654601936519730240e-03,1.991788308196622715e-03,1.946096228388356428e-03,7.722035417207360163e-03,5.904639134651498006e-02,2.775344363197818423e-02,1.901175921729572615e-02,1.896167126913023138e-02
4.594560599856887390e-04,9.857251883842321760e-02,1.462655187610522375e-03,2.358500472008365038e-03,1.567640275247618887e-03,7.407408968882026566e-03,4.263436365727121813e-02,3.872504939365803422e-02,1.024192988495253344e-02,8.019883641623298115e-03
7.841984139633364310e-04,9.844526476315312857e-02,5.474239884836189229e-03,2.660298681368930638e-03,8.379130653144933145e-04,6.239754700629145112e-03,1.760138052572390865e-02,3.871277007557553246e-02,5.596141184201857549e-03,3.067110755315589909e-02
1.085013176548901706e-03,7.569814746441451414e-02,5.841504237822903699e-03,2.873086388728849413e-03,7.546519335054469426e-04,5.867919704675033689e-03,5.689035844022830198e-04,2.951509908869017623e-02,1.317691423342926861e-04,4.679564067865814303e-02
5.785527658515087428e-05,4.984144096006706132e-02,4.999372666455814337e-03,3.008598868437806825e-03,1.139853274036889451e-03,5.481600201254359199e-03,2.225755716810791547e-03,1.720162323919181141e-02,1.149894588131612425e-02,5.314292755528442214e-02
2.196156047034194571e-03,4.453334171528478685e-02,2.380154824085762948e-03,3.066516257105541318e-03,1.134408888995962509e-03,3.510060303136589357e-03,2.722083141928473456e-03,1.686700539753714645e-02,2.274656983858871356e-02,4.247082896946747371e-02
3.395372913917670075e-03,6.113372008677179364e-02,2.137700811508590985e-03,2.993962687051654904e-03,7.578825558859920552e-04,3.959306908941253970e-04,8.817724458147248312e-03,3.676838229300107008e-02,2.102625685029273564e-02,1.431006915089338451e-02
2.122472828786306758e-03,8.060364094348418385e-02,3.234753098727547339e-03,2.796005229847701480e-03,9.276924970182947195e-04,1.898000718749698812e-03,1.489127381190346461e-02,6.234710937490169774e-02,3.282467618476311681e-03,1.690431778662782047e-02
1.167413316488773731e-05,9.000660395688542259e-02,3.106044795341665436e-03,2.590709326791731763e-03,1.765874589355066445e-03,2.356607804739116636e-03,1.874104547539956825e-02,6.971698821885922992e-02,1.739108436255833515e-02,3.318498800036958490e-02
8.508525234111853023e-04,9.401111817509393009e-02,1.144550382793916611e-02,2.370066369792487963e-03,2.046734639214399867e-03,1.696583170615867994e-03,1.450546046886646602e-02,5.483832063369550869e-02,2.705358477562498989e-02,2.960322154664774344e-02
7.502016658040872466e-04,9.775634600081545278e-02,1.387002983340102254e-02,1.889324134280081580e-03,1.183688940357325876e-03,7.921670897259965776e-04,4.847304240362744661e-04,3.933846331778830668e-02,2.552269367541595488e-02,1.506463648029289851e-02
6.873421387374189801e-04,9.313666347694973813e-02,1.280119471456055667e-02,1.172809177257561194e-03,4.381626668753099349e-04,5.802366860570369513e-04,1.459860247390438667e-02,4.360843013229036280e-02,2.138545128467912032e-02,1.796737337639780357e-03
3.902520247763926244e-05,7.222676453119054873e-02,1.798828846935412659e-02,8.140466391734818476e-04,8.138900773086599639e-04,2.652071250078386153e-03,1.843727501670956725e-02,6.189711845890011332e-02,1.915419521492599600e-02,3.951845202641435587e-03
1.941919896782564074e-03,4.539691418408131618e-02,3.093991263925671004e-02,1.060967778371137409e-03,1.286667657737890214e-03,4.335971844987743934e-03,8.496112555367040658e-03,7.341589943337958890e-02,1.713070967754741145e-02,6.432774094582167229e-03
3.993045061646878328e-03,3.252840074597140169e-02,4.193307624336359979e-02,1.018378159092917998e-03,6.598744296383737785e-04,4.640342127290384387e-03,8.064833015069841626e-03,7.361812019018808273e-02,1.444169166464472250e-02,1.437711582359659998e-02
4.282880419576526494e-03,3.751817873763108047e-02,4.518443821827659163e-02,1.805910506638980641e-04,4.555549277447050027e-04,4.608733354152226916e-03,3.005860576166478199e-02,8.011841532436865532e-02,1.334058636685708440e-02,2.657847702827930911e-02
2.835516891246547648e-03,4.435881317335066409e-02,4.719993407447966444e-02,1.814615303546729961e-03,9.488972368559637485e-04,5.824943034663108282e-03,6.524840694959278820e-02,1.050753797017674879e-01,1.359943438946735125e-02,3.054127035061868223e-02
1.067995260155621840e-03,4.177356771316576012e-02,5.440787591862898676e-02,2.435545420560779242e-03,9.556886571781583566e-04,7.924057993604943090e-03,1.102301172780040389e-01,1.350756346224471494e-01,1.048220375292364254e-02,2.054716391763339312e-02
7.172159151173045219e-05,3.815604178849184291e-02,6.113966611025786757e-02,2.028462083014789894e-03,1.126692056746325405e-03,9.628659845420569838e-03,1.428739321628547110e-01,1.467994294740703476e-01,2.137222700797843187e-03,7.246635870254558055e-03
5.312395435275777365e-04,4.327395690379504112e-02,5.778338042587473355e-02,2.012081693722567437e-03,1.429675543301895269e-03,1.070271645974987113e-02,1.454620456122022454e-01,1.335462421990454007e-01,5.406596755774462602e-03,2.304080733483054692e-03
5.809774678596383917e-04,4.829188908663923502e-02,4.507049767156091902e-02,3.079531134059926289e-03,1.602689512933194206e-03,1.090861368673494945e-02,1.229382674479449766e-01,1.065535773039907319e-01,6.018433965475942365e-03,3.615484613183918110e-03
5.057430435860149100e-04,3.740079231196394294e-02,3.224114544355157624e-02,4.337557457845117419e-03,1.835458112540633161e-03,9.354987517541662675e-03,9.291114063662996025e-02,7.825940269698956897e-02,2.855853963804690348e-03,4.648221189167812614e-03
4.850324539732196803e-04,8.051588411390718514e-03,2.467356756495789685e-02,4.866628241178419696e-03,2.191837936038037744e-03,6.764653787908396325e-03,6.927495640050010395e-02,5.607451024242184751e-02,3.627463363599860331e-03,7.721700178032812195e-03
5.156699763392714325e-04,3.229438488488720060e-02,2.051768458254181471e-02,4.893157093306229471e-03,2.128925950347886151e-03,5.556092496851374601e-03,5.685762039606780810e-02,4.570632801213327101e-02,9.327826528945438664e-03,1.548436560045750657e-02
5.269007899717215691e-04,7.450659173268257829e-02,1.626108247038835636e-02,4.993449428732179597e-03,1.456704263480177852e-03,5.908325199772959321e-03,5.128577434529067725e-02,4.600874896487335691e-02,1.452070036833977111e-02,2.020187390955901011e-02
5.138155157834747811e-04,1.024043316096051315e-01,8.792472807859354894e-03,5.178980761330510482e-03,1.030298086989654650e-03,4.650223902505673697e-03,4.209352861018019615e-02,4.338320477608043763e-02,1.618321456092427016e-02,1.717126526461752734e-02
5.081094702049604407e-04,9.918892244827635929e-02,3.951944005104522477e-03,5.194743970126564081e-03,1.516074055927639757e-03,1.499915458311704987e-04,2.214099405169322674e-02,2.575364049908830319e-02,1.561752821950667877e-02,1.616033420518183522e-02
5.122112017622319682e-04,7.054636336213959691e-02,1.740674287746727528e-02,5.025997569402705471e-03,2.281227820030399742e-03,5.926820687600859242e-03,4.968543953313247531e-03,1.346068666057846641e-03,1.403865399434937877e-02,2.152364591502085173e-02
5.109513702261393991e-04,4.254193081795312747e-02,2.069000484597231793e-02,4.792242121606177761e-03,2.442348512736642208e-03,8.844955685434330653e-03,3.037347646326610945e-02,1.120177267663386746e-02,1.207555446958984494e-02,1.665444927426886976e-02
5.026294209030247699e-04,3.014921156877479677e-02,1.017896392734656333e-02,4.506783041051057835e-03,2.120467650266543314e-03,8.551489979780349526e-03,5.078891445882448286e-02,1.102401525274119068e-02,1.171731068589780198e-02,1.083825625411913296e-02
4.940002726603407845e-04,2.636318918163254102e-02,2.681352043574489197e-03,4.121962683435088752e-03,1.887443905178650501e-03,7.579586079596568188e-03,6.750213750656836043e-02,1.640223830232155969e-02,1.432172109879692977e-02,4.401554142357266136e-02
4.856760573780626315e-04,2.223188812672844891e-02,5.014012933571886446e-03,3.642109221553019999e-03,1.816443984297318832e-03,7.271361510524934450e-03,7.830018413514482079e-02,3.661922714387536026e-02,1.786042467462770761e-02,5.646659163767125261e-02
4.743005066227211873e-04,1.680915307363321787e-02,1.362366609422891763e-03,3.103532743153194357e-03,1.665101320049657994e-03,7.066611194723729748e-03,8.160792574864175752e-02,5.962310169137973598e-02,1.887296122459190123e-02,4.373026463653120061e-02
4.594172858683490623e-04,1.009179367240650889e-02,5.304250545223705531e-03,2.521061524165926597e-03,1.396834865104116391e-03,7.148282152831183199e-03,8.447448385543061822e-02,7.079775550054107081e-02,1.638626998628785539e-02,2.156778236813839192e-02
4.425404048118392161e-04,4.407251240433998282e-03,2.606463911983122536e-03,1.896358204279796969e-03,1.130766901114598150e-03,8.469676222658865938e-03,9.212024185398734466e-02,6.967812966248218554e-02,1.261798414745325669e-02,7.161262324825291500e-03
4.239293775343492415e-04,7.130539614385450475e-03,1.864205957062627355e-03,1.242610306596063103e-03,8.950913197563459527e-04,1.013721205495054026e-02,9.548415957146413890e-02,6.567257766080628056e-02,1.055317058492018234e-02,1.051167281747016416e-02
4.029856567223525157e-04,2.009790890434859367e-02,4.581481502930976474e-03,5.804534971417394306e-04,6.416548487929978756e-04,9.812011317582967559e-03,8.386746144181102258e-02,6.663739125259868223e-02,1.114349572333534280e-02,3.102402827844274319e-02
3.797660300146489380e-04,3.493666392306059992e-02,6.657919280937166749e-03,7.415169833620575881e-05,3.611576505145748495e-04,6.944163558221743728e-03,6.004050029213156559e-02,7.057006125729770041e-02,1.237669530564399975e-02,5.633250792364204868e-02
3.548120211386803554e-04,4.365542100957912897e-02,7.601947499715355425e-03,7.086866486156642546e-04,8.678859918300168685e-05,3.418993824364004522e-03,3.038799172851384955e-02,6.534588570765927085e-02,1.185439487042153073e-02,7.182332927617786356e-02
3.284337932457315700e-04,4.596473946644801661e-02,4.121922866513040226e-03,1.308912927655077069e-03,1.590697695261505018e-04,1.235322648080035453e-03,4.047805255832361178e-03,4.399847205775609532e-02,1.056652797364273852e-02,7.251709849038670552e-02
3.007741366897834245e-04,4.845807694525377379e-02,2.782141246339747340e-03,1.859906426631641185e-03,3.870412691246464740e-04,1.130373907396911353e-03,3.628012362184059730e-02,1.941600720574852140e-02,1.207197155539396945e-02,6.359706303386347681e-02
2.721358187988842810e-04,5.851534685975519345e-02,6.310236437666193535e-03,2.348983630817378168e-03,6.185315930333915631e-04,2.878071403802521210e-03,5.144212211507512983e-02,1.221842111558199898e-02,1.716339927426032211e-02,5.368258875150078158e-02
2.429455041973991355e-04,6.976485939062335162e-02,3.398102751366820391e-03,2.765714761638107897e-03,8.333971576369590857e-04,5.494327702921799998e-03,4.419699821023406749e-02,2.592088356539175298e-02,2.198459630490290362e-02,4.893299801649758640e-02
2.135887949105612729e-04,6.232324764722919214e-02,5.120950226866460278e-04,3.100969124781482750e-03,9.739929957995554664e-04,7.328283427224704938e-03,2.553134039490200999e-02,4.353091390355092599e-02,2.299427872590075611e-02,4.917815645780287265e-02
1.844130260852897148e-04,3.612087159364393146e-02,1.339116709479809108e-03,3.347256430197245291e-03,1.059147703605762712e-03,6.974497761118114356e-03,1.141972191332389988e-02,4.577092388114419041e-02,2.121165678679949942e-02,4.914768029534051508e-02
1.557919175072587669e-04,2.634782209498902003e-02,3.688755169293103132e-03,3.499471900344443623e-03,1.198867252281480156e-03,4.501092328320278890e-03,1.091324674582456328e-02,2.866956719712999979e-02,1.945514245391199992e-02,4.518977889793790448e-02
1.281122157402777705e-04,5.708003969258629295e-02,1.143788603026629422e-02,3.554967068228354846e-03,1.351042599548234625e-03,1.677952930481078821e-03,1.978848201287756320e-02,7.262590697348584451e-03,1.790284293548695047e-02,3.837604292511332532e-02
1.017305289611139952e-04,9.846156581012857623e-02,1.825183865271072514e-02,3.513345936210655624e-03,1.271688683445121662e-03,9.265722131168854315e-04,2.104962320119385666e-02,3.498577322673878179e-03,1.502288724700272249e-02,2.927120949059486277e-02
7.696673162559843745e-05,1.024458792982597816e-01,1.541965912985745167e-02,3.376492819174634410e-03,1.029638764937893230e-03,3.544378019107530600e-03,3.910318700167129437e-03,2.757129434885272762e-02,1.113773996860738247e-02,1.386331275875842331e-02
5.411248467213456575e-05,6.565373421887905903e-02,3.655736959135465636e-03,3.148648379986226063e-03,1.189283958698815393e-03,7.798322727062049348e-03,5.475789542368390828e-02,6.552873731802150159e-02,8.664387341192398076e-03,1.007376167468680001e-02
3.342386736586066886e-05,2.724539773586842628e-02,9.593698045506499072e-03,2.836294706868478736e-03,1.875448170269598163e-03,8.829718505217626703e-03,9.647857839084204856e-02,8.187378654082580476e-02,9.159739211884074597e-03,3.366896731857689506e-02
1.510806185226731802e-05,1.536393205076585187e-02,1.989701139691617965e-02,2.447937032019415621e-03,2.221134799399206161e-03,2.688164640249036778e-03,8.065810550686304536e-02,4.641183062899102013e-02,1.115605066060556053e-02,4.107640255297112519e-02
6.811421551447543890e-07,2.105591527914786598e-02,2.711060015587025279e-02,1.993900247297054201e-03,1.591845955000699333e-03,8.539103776142295543e-03,2.685982239224873804e-03,2.864274491877886672e-02,1.139297997590959892e-02,2.716256841126330965e-02
1.384332577812923457e-05,2.096933536752488419e-02,3.104569369016838692e-02,1.486102352542108349e-03,6.302864854375162234e-04,1.786727711094892798e-02,7.957514123154321717e-02,9.046663714079652974e-02,8.172451271447368770e-03,6.669690698371205304e-03
2.433349831044616873e-05,4.858495137446712867e-03,3.164795029561595641e-02,9.377553653898255698e-04,2.111828426868587951e-04,2.068714788269030228e-02,1.069987936217509372e-01,9.829162393807541753e-02,2.852562765281648274e-03,1.580510771891164082e-04
3.216414121847705604e-05,2.198911914961550196e-02,3.111535457212644823e-02,3.630298573440206029e-04,2.169034539971552520e-04,1.837587478365638322e-02,7.939449338748259810e-02,6.176129474531523444e-02,1.953847169186439473e-03,1.120727123862963991e-02
3.740454077108870521e-05,4.816899507649896606e-02,3.146613268905351646e-02,2.232789392810510896e-04,9.010584874496812505e-05,1.405366133751988038e-02,3.553109271854327372e-02,1.707332004341295673e-02,4.738262584236071877e-03,2.863369396229660871e-02
4.017848061249930256e-05,6.233427939884980673e-02,3.195067995117890913e-02,8.061087338446252994e-04,2.313737230027324671e-04,8.432840884274653975e-03,1.983034829275203033e-03,1.811100079404229235e-02,5.321769457774671100e-03,4.145139265818795909e-02
4.066061746315126091e-05,5.941559798099191325e-02,3.173576134665607312e-02,1.370525559395128568e-03,4.986433266656981837e-04,1.684395274241694881e-03,3.776597067003575892e-02,5.196949031518998535e-02,3.343172821860291785e-03,5.085425005332706860e-02
3.907084030116883392e-05,4.515040429586403281e-02,3.198863735571922523e-02,1.902088959045011721e-03,6.665745010056635693e-04,3.904792231330240365e-03,7.563992000921383740e-02,9.150465916790517795e-02,1.899765333807763206e-03,6.051556787941242410e-02
3.566872733224049467e-05,3.077751543797530367e-02,3.222677994463978707e-02,2.387147627988900952e-03,8.415245682196907705e-04,5.946835333884926793e-03,1.047839466985297091e-01,1.242583184530209606e-01,9.070954613372586225e-03,6.602693018432358174e-02
3.074933695981494269e-05,2.354677616323829284e-02,2.856111148543927919e-02,2.813176588348868020e-03,1.038020443589741286e-03,4.975847749031387518e-03,1.147835148471769845e-01,1.305078753112488554e-01,1.455673252148304009e-02,6.093278578444226434e-02
2.463505465904222607e-05,2.417744039488775934e-02,1.966605218750177089e-02,3.169206541557495396e-03,1.199104110916291224e-03,3.530346718857127215e-03,1.095162316434062505e-01,1.073736211745556085e-01,1.692861166548675217e-02,4.827969130591624330e-02
1.766151045247085251e-05,3.032676752937339335e-02,1.094597773220169247e-02,3.446086375935695882e-03,1.310707632134734029e-03,3.179662253659478605e-03,9.836759854371826539e-02,7.302953911912812845e-02,1.893382675368237428e-02,3.787657453407142910e-02
1.016993313323403991e-05,4.069573814947197860e-02,8.636059377949896823e-03,3.636444629700213375e-03,1.393750697826566303e-03,3.594475724848325646e-03,8.247644502687175028e-02,4.674068530473040467e-02,2.254902235887725620e-02,3.459589273999034292e-02
2.510999698735149783e-06,5.747757705872522799e-02,1.267700799154915930e-02,3.734877230764680964e-03,1.450622442697021121e-03,3.988220480958613000e-03,6.004462876029795226e-02,3.188421930821149636e-02,2.548568873365560095e-02,3.676200040845727796e-02
4.965707526015394969e-06,8.164489431842329725e-02,1.822137465327258038e-02,3.738641534821816187e-03,1.468339278883194245e-03,4.272172078111457702e-03,3.655022369932630494e-02,1.978905422010015375e-02,2.537960946490112196e-02,4.255150322153614106e-02
1.194737736920915840e-05,1.026710631773193882e-01,2.113910883412554315e-02,3.647723487803285897e-03,1.443745972343683402e-03,4.277497770524901592e-03,1.584097848356789268e-02,3.176603737625462512e-03,2.428263469048699483e-02,4.962401476303128500e-02
1.816296323592800775e-05,1.029013900422225819e-01,2.037920582627479257e-02,3.463640290737039946e-03,1.382391511588112326e-03,3.118671095476077942e-03,9.269444926084165898e-03,1.642322416405493993e-02,2.561542647503149694e-02,5.241700443038398161e-02
2.333245351099463684e-05,8.099392254335928409e-02,1.768808791018491866e-02,3.189374796627180049e-03,1.286684677558825847e-03,8.591150894477757143e-04,4.161004060652267328e-02,3.107205878000741939e-02,2.784085459829802045e-02,4.789347517614262612e-02
2.717839131235392545e-05,5.748501581436776114e-02,1.571372634165768903e-02,2.831862712912208528e-03,1.156260404373018460e-03,4.594483897683769667e-04,6.533468146747578587e-02,3.485267376542207363e-02,2.505360649727250699e-02,3.928423536131054467e-02
2.955559661497464882e-05,4.457807868126022893e-02,1.437106527674217836e-02,2.401953929172081365e-03,9.935736625522654207e-04,6.174753566886239829e-04,6.400450605594713849e-02,2.890358929378900044e-02,1.588441534323043261e-02,2.889108692962323588e-02
