2.606013618624827485e-02,3.999244717009677041e-02,4.932786271725351189e-03,3.274412571538851385e-03,1.619557640940025431e-03,1.153776001383279796e-03,7.674139271735638563e-06,9.336724135675844929e-03,3.611270792054198245e-04,1.842657822368985558e-03
3.420204472502134246e-02,5.638644362128094473e-02,9.363221920499674661e-04,3.287944397876354369e-03,1.832047629853215216e-03,6.728672007790865604e-04,7.482169056402395390e-05,8.429055341034625420e-03,1.579711309739680438e-03,1.817445347970640798e-03
3.951720657351141114e-02,6.503344517993378537e-02,1.562077785577638571e-03,3.289341292379515010e-03,2.046098675324243676e-03,1.213563911910199475e-04,1.509259707417513285e-04,7.524058001473732729e-03,2.218347246588692027e-03,2.064625136849785030e-03
4.188969199847220048e-02,4.356108866092225917e-02,3.332658722778336375e-04,3.277216689579296339e-03,2.259157465165738746e-03,3.588402807672144094e-04,2.193172270435086015e-04,7.192389778606031632e-03,1.674635844930455301e-03,1.485433479752965415e-03
4.430729094090816306e-02,4.545952130270639567e-03,4.195591464611575592e-04,3.249734366308252177e-03,2.468577468250204247e-03,1.622421466921828109e-04,2.789024636292345392e-04,6.003118274192228813e-03,2.683592889989324260e-03,5.178016566654477376e-04
5.119821280183860235e-02,4.588478524257710162e-02,4.014605274684247653e-03,3.205834195012385868e-03,2.671674392297409585e-03,9.416241398527169272e-05,3.288321454758785616e-04,3.345889027040627878e-03,6.692372835037500335e-03,2.708294204181551420e-04
5.743233392869360326e-02,5.792794685197105026e-02,7.796594740662066841e-03,3.145270790745099965e-03,2.865873433943533569e-03,2.220652343627567361e-04,3.685208934526976784e-04,1.620500255294735634e-04,6.429056299583689287e-03,1.255595758805666171e-04
4.634308366096978604e-02,5.104246425522322717e-02,1.121223671252918538e-02,3.066045344678899453e-03,3.048751900426753710e-03,3.022640501804473132e-04,3.976685141093526388e-04,4.395676018279334046e-03,8.167415198012107497e-03,1.927174249934097972e-03
1.135367110869171629e-02,4.080229112209770442e-02,1.423784613468356830e-02,2.964309459750227947e-03,3.217834649373689949e-03,2.946322038324838445e-04,4.162686253361663866e-04,9.324175956809182750e-03,3.384204998594909919e-02,5.959233666547865058e-03
2.725904966046702183e-02,2.518410559554280087e-02,1.471787295688329819e-02,2.839904386912703999e-03,3.370646789548674849e-03,3.102010664867313429e-04,4.246067259161142270e-04,1.391181779739497811e-02,5.331673757818903431e-02,8.892339756138309056e-03
4.137614357972781154e-02,1.239241509604883332e-03,1.126118453655555914e-02,2.696770562428135991e-03,3.505317598487702520e-03,3.677212550634252402e-04,4.232534285979084199e-04,1.700160447925226984e-02,5.419061711641429829e-02,8.016660436362840064e-03
2.983195764856203663e-02,1.693952767718006486e-02,6.529073426544127097e-03,2.531189443706429332e-03,3.620619051291705526e-03,4.138984879882952805e-04,4.130520478936525468e-04,1.831718936750309154e-02,4.022032210616474646e-02,4.738495201963940917e-03
2.478869540451106995e-02,8.651085101456521334e-03,5.310730391789716606e-03,2.330662926791832353e-03,3.714787606522692524e-03,4.376628832957320876e-04,3.950980976018778914e-04,1.862395302730536842e-02,2.247624212708050628e-02,3.622719729488222372e-03
5.758079563816020235e-02,3.528670374663206433e-02,1.045650865548976467e-02,2.099054710888216286e-03,3.785514382493108607e-03,4.621930743717183221e-04,3.707115432581158695e-04,1.979056648771163746e-02,8.058257839405389908e-03,7.945893003769457716e-03
1.206009966816775913e-01,1.064981779486867536e-01,2.076627750954940579e-02,1.859696575277072165e-03,3.832550500167937989e-03,4.913766901999608435e-04,3.414037046133782749e-04,2.322217787695447441e-02,1.250537040945979596e-03,1.634144808033750895e-02
1.733593267847398089e-01,1.813171926541563561e-01,3.136927238207744273e-02,1.601829208565700444e-03,3.857859785618599196e-03,5.129244886781385336e-04,3.088394007713280050e-04,2.747236646717865841e-02,7.223372340738865548e-03,2.341403526206710731e-02
1.865587064222158087e-01,2.302198965182303270e-01,3.666517831758745599e-02,1.272613096369287463e-03,3.860096855913176632e-03,5.234696393307537417e-04,2.747946253393159996e-04,2.933141371409509618e-02,1.463101384486035703e-02,2.408560901487709002e-02
1.655943587847051590e-01,2.349447016206447358e-01,3.409465945955764826e-02,8.913516931039650341e-04,3.834152872710516659e-03,5.274552336410056556e-04,2.411108245269170665e-04,2.744783635009690609e-02,2.606823210397071072e-02,1.817880896273501440e-02
1.293828484881338059e-01,1.986819635438624998e-01,2.497245954250374919e-02,5.697023873300385410e-04,3.782928937527151037e-03,5.254962862916789197e-04,2.096471542650259179e-04,2.287893735905821915e-02,3.395093045422378081e-02,1.032494474075148529e-02
8.464462907209387155e-02,1.389746248151775831e-01,1.287653819657810089e-02,2.683028200663750435e-04,3.718580401122444264e-03,5.147789612069643070e-04,1.822318347060890081e-04,1.658530260739839168e-02,2.447643363944265044e-02,5.006607079692263797e-03
3.087919770156118821e-02,7.666648762229674730e-02,2.860537010707188844e-03,2.556320543978401224e-04,3.637348209427393279e-03,4.943298618629287386e-04,1.606136376012332469e-04,9.045193961456294771e-03,4.429143272971161269e-03,3.341387734694332631e-03
2.022387002571005010e-02,3.058553192663928527e-02,2.791073241209737765e-04,9.338082020510509677e-04,3.516164867301287220e-03,4.649189214470981850e-04,1.464147024651488865e-04,2.325093920965009414e-03,3.541138582680770919e-02,5.159927582486183335e-03
4.752713878100176675e-02,7.639456866902327031e-03,3.568353523739804366e-03,1.202931698010470136e-03,3.366217255816462972e-03,4.270447273111738652e-04,1.410859308443523311e-04,5.612461406301540601e-04,4.894143395516307310e-02,1.050434185963560786e-02
4.640543583684433870e-02,5.552919411928237958e-03,8.735292314652476353e-03,9.393987500069143556e-04,3.241479754024252560e-03,3.809533283218486137e-04,1.458660649885475048e-04,4.571702935053292144e-04,4.263856884976675865e-02,1.708973187865230753e-02
3.830143643998507041e-02,2.488695799037230622e-02,1.014797982878442098e-02,1.011973976645598157e-03,3.124405271760830223e-03,3.266343930665423310e-04,1.617453921768855071e-04,1.919760348579819913e-03,2.778394746382183492e-02,2.059489145538240251e-02
4.662985259554773554e-02,4.215447662593754113e-02,9.264388085379495277e-03,2.058290406515198619e-03,2.904439129888010482e-03,2.637946458395192635e-04,1.894349883116145294e-04,1.651297493288476394e-03,1.370812784061787790e-02,2.032190344097540430e-02
7.356273173775104701e-02,3.724521773967222338e-02,1.061050445461995950e-02,3.440052562192659046e-03,2.621415587455983368e-03,1.938655417357762890e-04,2.293424278431453528e-04,1.449959034149608502e-03,2.395820595596680810e-03,2.054542673272698877e-02
1.041887197726108355e-01,1.308437400356762120e-02,1.406081843909523683e-02,4.286264172508212275e-03,2.520544804665689979e-03,1.200946910776179075e-04,2.815546266548288800e-04,3.208024835248450557e-03,6.846211664817576474e-03,2.375699923330700999e-02
1.222454011848275179e-01,8.236884034598568674e-03,1.450879509166812763e-02,4.717034312417264959e-03,2.537780913552083271e-03,4.226989306985709158e-05,3.458280313437028168e-04,5.316328305272077087e-03,1.468355710936528405e-02,2.665420021347349525e-02
1.186558999217122573e-01,1.772384691139999857e-02,8.414578631951913357e-03,5.294755012979998100e-03,2.110225571950156368e-03,4.368847335292522184e-05,4.215863958490091690e-04,5.247888713131772416e-03,2.311401628232327352e-02,2.515988659553592549e-02
8.988536936558927382e-02,2.336987613249846829e-02,2.353908737222659264e-03,6.090391693725129112e-03,1.110793368652492324e-03,1.340937526183196677e-04,5.079268088676808582e-04,3.324715252632981163e-03,3.571554207542777110e-02,1.985478799245638665e-02
3.218500805141000926e-02,3.306831021792233649e-02,1.226306507429297810e-02,6.859095919554649388e-03,4.128594264077609468e-04,2.163787251088950003e-04,6.036340313283814320e-04,1.694260951147901276e-03,5.337843224313534862e-02,1.432288710285367639e-02
5.080552989859992569e-02,4.968424939459583495e-02,1.670064259783094612e-02,7.551783322506159211e-03,6.669808355959145783e-04,2.941991850660807123e-04,7.072017047486466685e-04,1.149230089492466822e-03,6.848199490473293183e-02,1.073106546931574742e-02
1.301885724164646707e-01,6.880102182154869406e-02,1.671906101108563969e-02,8.280530908717494837e-03,1.230411618360929349e-03,3.905627831494004783e-04,8.168596490299158235e-04,8.381380294994556033e-04,6.854514662627007870e-02,8.946211052561695368e-03
1.624505106957464251e-01,7.660382406802479505e-02,1.833912057132364160e-02,9.082282019973386342e-03,1.209070555608522104e-03,4.942883619202033960e-04,9.306091060719470093e-04,3.442425614528212214e-04,5.106447626284833091e-02,8.443471591084890371e-03
1.324684861298505989e-01,6.245635988674638761e-02,2.500413072816715446e-02,9.901234796113805164e-03,7.360776566373103012e-04,5.520029846930453151e-04,1.046265900070171388e-03,1.363738294912422580e-05,2.924574065125154498e-02,9.114584087971007442e-03
7.074483800984469883e-02,3.030031923104040820e-02,3.369711990917034772e-02,1.068683612340424853e-02,4.269802410349914806e-04,5.824139694407606815e-04,1.161505290529590796e-03,9.040206534531387752e-04,1.827717700759716457e-02,1.044228417632540179e-02
1.737526370324662950e-02,5.733011672682131882e-03,4.097116541593348593e-02,1.146616948430671627e-02,3.292062726389110325e-04,6.966002452164222732e-04,1.273905696318871576e-03,3.772921692544212342e-03,2.280281819831146348e-02,1.140335974578917874e-02
1.365115284343163503e-02,2.848582706343877335e-02,4.787478239069631325e-02,1.232722811914384840e-02,8.582268867005508396e-05,8.545633289743561354e-04,1.381001388642362189e-03,7.169430750566128420e-03,3.861522817380301509e-02,1.147742820067663289e-02
2.218632124591700047e-02,2.571657812821769723e-02,5.487383540237143753e-02,1.325130047822688575e-02,3.036842215223294799e-04,8.126974644072638672e-04,1.480346997162239938e-03,6.807563677519046057e-03,5.593742774392580774e-02,1.074017768870826756e-02
1.473567145034315132e-03,1.065516952512024842e-03,5.702688898034893178e-02,1.405480250028457757e-02,4.832553559340416064e-04,6.385063742675116784e-04,1.569568649594641450e-03,3.659640031681834159e-04,6.270709229031340426e-02,9.310269364142970475e-03
6.033564736503364834e-02,4.218525346280075500e-02,5.016397440733313257e-02,1.475053889884563214e-02,5.038980413242370206e-04,8.948469540301868044e-04,1.646391169364135433e-03,9.567784493999472589e-03,5.729838062302284457e-02,7.873396084517340562e-03
1.281750330377185720e-01,8.931762271619546334e-02,3.888083508412228106e-02,1.572620856793563796e-02,9.877829869257659205e-04,1.704825784251063053e-03,1.708690922706632576e-03,1.805168035607862195e-02,5.421673566671283973e-02,7.449557483295573580e-03
1.721007984645879785e-01,1.288063057373878550e-01,3.236737202882646047e-02,1.697957516182532073e-02,2.067057401711515363e-03,2.198457327737974795e-03,1.754594319398310480e-03,2.189017211310221797e-02,6.401605551324036913e-02,7.373619331545448741e-03
1.841107983183264962e-01,1.413870510125691815e-01,3.339253066790431879e-02,1.763851392888656291e-02,2.837871068402696758e-03,1.737063543665384692e-03,1.782512831983544327e-03,2.113646425308601112e-02,7.439450242880596420e-02,5.850704849427769416e-03
1.712451547389030881e-01,1.222883678844726707e-01,3.677427900386973092e-02,1.742522291284642408e-02,2.663420588578626052e-03,9.595369475589413414e-04,1.791065434457000428e-03,1.778071140198160191e-02,6.713731365361705339e-02,3.325516587300954979e-03
1.358216801640357851e-01,8.569961075494447744e-02,3.803328791401141412e-02,1.787844498272632768e-02,2.218949409227369447e-03,7.372472197502396088e-04,1.779117027210610916e-03,1.366818227027557023e-02,4.716031011276990842e-02,1.927766260346502631e-03
7.958152851624536450e-02,4.292713096465035350e-02,3.756068465230990444e-02,1.998893809737848845e-02,2.367893638495955581e-03,9.470658759393775364e-04,1.746040832181459078e-03,9.468067683375193389e-03,3.679681067156556629e-02,1.345628907450778771e-03
6.257482875697448557e-03,7.927135141104654087e-03,3.614883793959459968e-02,2.134268993545529458e-02,2.930574890235771411e-03,1.024093761212220436e-03,1.691717063085371479e-03,4.753253777424218569e-03,4.508913986827752657e-02,8.767989159852272599e-04
7.939295305398158531e-02,6.873907901378165097e-02,3.263005883016360797e-02,1.876993339551542850e-02,3.362958139857328936e-03,9.022358345859104014e-04,1.616022671008919814e-03,1.212080351122507733e-03,5.961293338567365263e-02,4.908406463251267782e-03
1.524538378529746441e-01,1.286285133259755242e-01,2.752561040529373851e-02,1.350317836151622430e-02,3.711513343562299755e-03,8.304147935706710035e-04,1.518846008717847536e-03,7.888182953123362012e-03,6.549016633160767431e-02,7.964522684958424970e-03
1.685613888819078310e-01,1.646705995803137423e-01,2.461481518063862381e-02,9.731032913984557012e-03,4.180209481372952618e-03,8.460982292797383049e-04,1.401176354776636742e-03,1.290227353513452753e-02,5.441386055697845087e-02,8.271384627651303875e-03
1.181721496562579410e-01,1.553076937554433989e-01,2.576532824217943329e-02,7.707217460994226013e-03,4.563473759950713651e-03,8.269416865972792309e-04,1.265074676187933917e-03,1.452155743503878715e-02,1.783830716486503251e-02,7.339222988053136984e-03
5.698825121980393565e-02,1.003389243347886928e-01,2.568078562909113099e-02,3.026062692245529498e-03,4.815868926448209873e-03,7.593055164128752936e-04,1.111294481647063246e-03,1.400513563666353108e-02,4.529903029125968705e-02,7.973635178092842307e-03
4.892507158178113769e-02,2.792194871322242755e-02,1.677190990327793313e-02,5.831061236281226585e-03,5.479491370168333014e-03,7.202774834986797482e-04,9.392065755900339073e-04,1.376411918367260144e-02,1.114282016246866402e-01,1.135879778124841179e-02
9.633808459996966167e-02,2.525421347527109089e-02,3.825996441596656722e-04,1.408436568693858561e-02,6.727447833851977164e-03,7.098935392864260232e-04,7.517801930543047085e-04,1.444009675728998021e-02,1.448635805818891120e-01,1.638356358607946997e-02
1.456469114516280028e-01,4.260224292171832516e-02,1.338219783237973998e-02,1.674113217650210345e-02,7.696821198374457877e-03,6.528839541073131652e-04,5.557558626171377756e-04,1.580255413253204774e-02,1.314821196812183679e-01,2.111046876190811675e-02
1.491340676422673039e-01,3.303404039685940707e-02,1.854840149525781301e-02,1.358024815331669924e-02,7.721638515547990869e-03,5.663367227464103206e-04,3.508771463413707520e-04,1.863808483303009550e-02,8.565158038263816220e-02,2.459957545666868750e-02
1.155182252094531514e-01,9.977509057165359976e-03,1.837107524598475053e-02,7.231618998465340342e-03,7.431562912253726616e-03,5.730079324222002663e-04,1.290917018321531453e-04,2.293934891203886980e-02,3.066299203001988244e-02,2.744883112372189377e-02
1.005634864379418292e-01,2.425846727710786674e-02,1.712761777762042067e-02,1.488189608427919162e-03,7.703507450761787334e-03,6.329496864411394454e-04,1.026315492699698126e-04,2.638520677409791210e-02,1.111999554068906527e-02,3.064005161481398593e-02
1.386822893136206714e-01,6.945886574113885326e-02,1.459985476822688207e-02,1.183360376806108071e-03,8.412160086463033037e-03,5.003109379256906854e-04,3.201659408161929314e-04,2.847251142258248532e-02,2.172514588393417365e-02,3.417711481511222921e-02
1.940280421458391857e-01,1.144039440804195673e-01,8.825706120468006233e-03,7.555955805402311300e-03,8.984083256714368859e-03,2.494896059969194568e-04,5.310685744607433973e-04,3.321161866467305795e-02,3.033252172446037655e-03,3.743844645500861434e-02
2.033978324616078082e-01,1.410855356213306377e-01,1.517599819931132656e-03,1.371514371839121713e-02,9.344655399235646601e-03,4.414053419540012136e-04,7.805889789537769031e-04,4.124498563008876378e-02,1.877443188454276310e-02,4.070272562761489965e-02
1.566512926983760490e-01,1.384767339292424515e-01,1.614516871641273263e-02,1.049817938069388945e-02,9.733716722854781137e-03,1.183108072221399857e-03,1.047671152383533111e-03,4.254468808263535406e-02,2.020086112022502142e-02,4.490143260089301397e-02
1.019557350569503945e-01,1.116316796106456011e-01,2.828929061783552745e-02,1.187272841793280981e-03,1.018542647442250738e-02,1.612079626810840847e-03,1.229423718777409007e-03,2.767071229820073849e-02,7.752743426680563585e-03,4.895216780765861142e-02
7.575073807794122094e-02,7.820715430598375317e-02,2.324363816513815365e-02,7.821455424039735344e-03,1.058091963689514019e-02,1.123701448621933826e-03,1.362941810114535459e-03,4.778699287624802415e-03,1.053076275909474793e-02,4.914166316051952338e-02
6.502025841500766457e-02,5.086192772827708569e-02,7.106881109612488145e-03,2.092513988118080252e-03,1.089444106964004670e-02,3.373866926183045185e-04,1.667288144726455923e-03,8.259866285865323857e-03,4.770706428083668071e-02,4.356559779751762590e-02
4.712315273492438672e-02,2.680503692515981418e-02,4.816498910506103459e-02,2.268825733323567850e-02,1.117315403976993152e-02,4.721349296254044093e-05,2.074855527723386706e-03,8.717158417139308363e-03,1.058352046470000529e-01,3.575926565232147303e-02
3.091042989033378208e-02,3.517916605414995318e-03,7.454397055849515397e-02,3.712361880339366121e-02,1.142175789024382944e-02,1.661707914516559925e-04,2.070983007030715185e-03,1.066649800333833650e-02,1.496712278472748237e-01,3.062430941830839373e-02
3.798209737191710761e-02,6.461839421869328137e-03,7.838356904438999184e-02,3.796930326460349475e-02,1.161062478537653979e-02,2.908513705883549903e-04,1.531347460296018492e-03,2.125616863693858757e-02,1.550749593977873708e-01,2.809383066163115977e-02
6.858079365342746592e-02,9.435528073031071092e-03,7.131498055053532570e-02,3.261141727469367424e-02,1.173001837266192914e-02,2.741731805605498616e-04,1.221711827511277057e-03,3.158974213044954404e-02,1.268237040153057660e-01,2.514349520674618102e-02
1.054177739948719272e-01,4.460977723144701063e-02,6.136862076461014476e-02,2.987558785268308245e-02,1.178695459905192665e-02,1.904644192345595954e-06,1.780800486147687779e-03,3.235971618239837783e-02,8.670090150755142833e-02,2.265124444116578539e-02
1.315897678614121047e-01,7.982463985530766082e-02,4.656975276847104966e-02,3.011876509765843909e-02,1.177988333905407269e-02,3.229525117749434894e-04,2.796774304578981095e-03,2.370457442009494403e-02,5.361506978579794191e-02,2.377801553217796099e-02
1.318216273490630808e-01,9.914119074304419965e-02,3.062817477615555062e-02,2.833721425320469625e-02,1.170012073087238307e-02,2.874288779358560126e-04,3.416696082580528235e-03,9.985864248912179608e-03,3.522688794812411928e-02,2.525659128079726923e-02
9.861266869686234615e-02,9.563789348244969291e-02,2.630754633806678747e-02,2.188983643256350517e-02,1.154374517884793755e-02,2.361469869931748320e-03,3.241317654677870579e-03,1.937713866108146986e-03,3.228844718946311670e-02,1.832032212235499419e-02
4.739815320991591641e-02,7.567457936875521263e-02,4.029841270948578136e-02,1.512913139243139346e-02,1.131069637204555611e-02,4.471394365975331700e-03,2.534306337906238205e-03,2.412479523079737436e-03,4.740152058899795712e-02,1.566111631880935402e-03
1.507958775485822474e-03,6.141319447904020068e-02,7.001826102822931996e-02,1.599657933798321469e-02,1.099929329665604721e-02,4.412340411993161647e-03,2.146002366310394496e-03,1.037030616421735253e-02,8.387805381421771511e-02,1.422790775775174127e-02
4.003310521923791887e-02,7.321523371400526226e-02,1.159932138594054890e-01,2.575831394268237803e-02,1.060750386585249290e-02,2.028329829098158774e-03,2.855917833443921000e-03,2.377938095018822598e-02,1.345360003252233094e-01,1.815503803759067197e-02
8.956158219086447769e-02,1.043041318939880308e-01,1.773244594836495269e-01,3.596884962670893887e-02,1.013539802901105256e-02,4.629953611166712961e-04,4.211591618658431548e-03,2.494186747938498261e-02,1.796466024890449320e-01,1.016838313237573496e-02
1.316314415364518986e-01,1.263469549021673521e-01,2.327067633582987627e-01,3.971307403956337440e-02,9.582633219075304895e-03,1.191869623108391838e-03,4.585083059063541598e-03,1.554240680054822313e-02,1.980574922372453639e-01,2.135532991227147119e-03
1.385220191117528254e-01,1.199710783991359553e-01,2.506375092270489713e-01,4.007418543454630000e-02,8.947455546725295236e-03,5.079926744745163559e-04,3.062507140107764269e-03,5.007279904153586099e-03,1.788915621661632260e-01,1.097015764680896351e-02
1.243806144721844725e-01,8.500460081970669102e-02,2.253007078117152950e-01,4.261864090953410705e-02,8.231939584880738209e-03,1.590371409519876868e-04,7.859542944419831145e-04,3.141463200201373429e-03,1.315502644877976635e-01,1.144081924569352940e-02
1.385162710524730501e-01,2.821741274134113853e-02,1.818155031353864137e-01,4.601493273610567092e-02,7.442099012611457648e-03,1.105539107614068265e-04,4.239730602929899081e-04,1.105507950405917872e-02,8.614595637677292805e-02,4.428659576677240403e-03
1.934851298907470096e-01,3.696084356283706879e-02,1.418315795745101748e-01,4.496726336851051414e-02,6.576537014372298845e-03,5.097536948110632272e-04,2.505800529464987238e-04,1.918910152570535779e-02,6.772120704831023630e-02,3.311252485296792107e-03
2.388393983706535995e-01,8.374254105756939737e-02,1.026395511808257249e-01,3.706366847771523643e-02,5.626700330812249226e-03,1.387431603429203908e-03,3.966366821440900359e-04,2.568489160617566658e-02,6.599611338448399533e-02,8.246660779231239705e-03
2.227953602005404155e-01,8.696032321310770419e-02,5.402459883565044474e-02,2.338788920874857249e-02,4.600955823274449803e-03,2.174366566530477538e-03,1.174835634353348871e-03,3.075166157179447246e-02,4.702362401123046098e-02,1.571490207131471389e-02
1.518032847695381382e-01,4.697448884033744720e-02,4.876341486051930657e-04,6.638395500129358126e-03,3.524027121370757951e-03,2.605319426752882202e-03,2.496467608177220434e-03,3.769357178713730883e-02,3.689171773163442761e-03,2.879245022144267044e-02
7.748584841225135411e-02,9.887914061984318104e-03,4.650406764300091256e-02,9.235894680228689049e-03,2.385335695955686456e-03,2.793117554913548614e-03,4.344007188224405236e-03,4.828522897474699788e-02,6.733722751258934547e-02,3.823342503232402684e-02
4.035283998788443544e-02,5.316651347767053365e-02,7.474224673634641269e-02,2.071351911850744659e-02,1.138846508803848662e-03,3.030286435153989322e-03,5.989500630571252364e-03,5.743374809302110445e-02,1.214678078225457369e-01,3.330707032276428864e-02
2.957935289726555672e-02,6.945138385515287061e-02,8.790726818488935057e-02,2.756999265223081946e-02,1.868049476824389750e-04,3.378422829636943629e-03,6.874487853856021784e-03,5.557831387390154559e-02,1.645079484492458777e-01,1.633605857010676787e-02
6.947178722604991502e-04,6.771592700307615953e-02,9.375834735961043054e-02,3.224568692574803636e-02,1.485274367092071337e-03,3.729778637971583547e-03,7.195357657360216923e-03,4.014082316594170391e-02,2.061221643756235844e-01,2.068707542188016196e-03
5.725441386937422938e-02,6.395988395304209873e-02,9.618360893356678321e-02,3.616697037750568611e-02,2.807801687889986252e-03,4.051379288354518132e-03,7.461052517797033684e-03,2.189055182575044139e-02,2.480264051844777995e-01,1.684848516434397578e-02
9.187146452176062073e-02,6.000143590098414720e-02,9.607660614830712542e-02,3.891898118178713922e-02,4.378868121157936284e-03,4.364165595262766741e-03,7.825905331794790615e-03,1.384888477223490330e-02,2.832986087509021256e-01,3.092813264187915107e-02
5.433091521030641857e-02,4.745361915937078290e-02,9.763790609712491575e-02,4.056472452483369379e-02,6.098141913271575183e-03,4.672498684928476538e-03,8.186091359975417037e-03,1.653182791881964431e-02,3.066943116663073399e-01,4.680349374208268159e-02
2.790010930173139267e-02,3.293973997099326756e-02,1.061232618866473076e-01,4.124649250876133433e-02,7.435604814191656108e-03,5.018122158004007308e-03,8.605781066708260291e-03,2.175773144289312733e-02,3.131749716248762860e-01,6.077624468690966120e-02
9.107011620263302798e-02,3.333305265572419906e-02,1.191745487137161053e-01,3.867342177381990348e-02,8.333259268729308750e-03,5.417080926247454936e-03,9.113351880701040311e-03,2.692942745669504867e-02,2.882272371020092039e-01,6.680887153477324536e-02
1.204008091474596809e-01,3.340857586063195050e-02,1.285344262693038364e-01,3.049447758222766786e-02,9.588014445923706552e-03,5.731974433960059651e-03,9.400192080206011894e-03,3.444283661174852434e-02,2.193443284880418620e-01,6.365665184455167325e-02
1.335646079685089416e-01,1.607439933076124441e-02,1.316412954426083304e-01,1.969680497333327340e-02,1.169389967091625029e-02,5.906235244215795287e-03,9.465378208011280062e-03,4.032346960809997383e-02,1.259691285505826763e-01,5.468326218797892047e-02
1.156872940852940040e-01,1.279752586099398015e-01,1.334302543556840082e-01,1.318687518009162805e-02,1.416416604379015093e-02,6.261117975743426232e-03,1.006177762226534780e-02,3.731886155509361869e-02,5.694248953982635614e-02,4.267173316942461658e-02
5.751985328059860958e-02,2.402143658757041889e-01,1.360248817252747988e-01,1.412334170055677164e-02,1.645308219980375075e-02,6.922481808493044508e-03,1.115648894260257498e-02,2.783664618337622007e-02,4.299616924253277239e-02,2.999830934907618193e-02
2.507453986627597442e-02,2.876067241973698785e-01,1.364644744891144179e-01,1.917635825816496262e-02,1.834748025071290117e-02,6.870680012704300822e-03,1.045850407873886653e-02,2.075455014114985577e-02,6.992871978257325649e-02,2.066577321409488605e-02
8.987073549040774934e-02,2.831960406168563815e-01,1.355974828551590738e-01,2.354164809452639201e-02,1.939179419541602750e-02,4.579340473570229358e-03,5.564410301859686221e-03,1.932619687214118948e-02,1.085316005425173980e-01,1.524712855421133176e-02
2.072482580422403409e-01,2.829155493076169758e-01,1.381245918058603694e-01,2.554279136568696554e-02,1.944609429785461308e-02,1.399114320620464553e-04,2.748384545856638519e-03,2.342517202070227428e-02,1.448117860824180703e-01,6.317996376532854577e-03
2.555033295169633067e-01,2.954099257894888253e-01,1.431487064354474148e-01,2.653111569788251314e-02,1.961277779200817570e-02,4.228808399039436609e-03,1.160124648435907797e-02,3.118913711084222301e-02,1.695756185788258874e-01,1.724008770707333507e-02
1.886539462027770064e-01,2.808295724226136381e-01,1.472418890386237855e-01,2.885695365642538743e-02,2.128240395212391625e-02,6.506768845832269256e-03,1.943144355699716330e-02,2.619539842860881679e-02,1.706870481293961128e-01,6.309190252022631173e-02
7.677498837794684283e-02,2.221611724845334868e-01,1.549278011863612081e-01,3.327882729618523300e-02,2.470970704952553734e-02,6.747127759703352642e-03,2.573691947013907744e-02,1.491753753655717177e-02,1.526128325092345195e-01,1.273540704872627161e-01
1.150638687865837041e-03,1.432685599621264794e-01,1.673148214051212168e-01,3.634522479165310654e-02,2.905076566279938058e-02,5.857251962901098216e-03,2.910336939874993978e-02,8.574141549362052084e-02,1.340542188491083420e-01,1.877483826282685397e-01
3.667570791863622448e-02,6.837315548997181802e-02,1.621471104435906752e-01,3.206950806497353701e-02,3.274596625771352548e-02,3.744457832955587397e-03,2.852964799641536514e-02,1.438383773479704753e-01,1.116287776303845763e-01,2.145416595435440943e-01
5.320325528640372503e-02,1.220844162419175774e-02,1.121540233485008448e-01,1.881542778062323881e-02,3.409508372473717824e-02,9.627761894658059313e-05,2.517589628083454628e-02,1.547103880143566035e-01,5.646945589020101186e-02,1.958557459791285538e-01
5.016652632460449207e-02,4.256315745199714534e-03,2.790761988908088687e-02,2.863138766467333927e-03,3.311705987844227456e-02,3.910573070340480489e-03,2.071375179157711882e-02,1.238404970249537967e-01,3.829886757354702964e-02,1.462181807584763404e-01
2.246891653649207149e-02,2.600483105827442604e-02,4.363600062176662547e-02,7.294188200833776753e-03,3.240582423180735083e-02,6.566286496434400703e-03,1.590655716955402879e-02,8.217075234499611469e-02,1.365605129187468236e-01,9.258142125790450039e-02
5.613426356194974043e-03,6.852877896768312660e-02,6.960693500107248410e-02,8.593074212283986421e-03,3.461882376148192608e-02,7.928716127467559660e-03,1.162026498146448428e-02,5.632351650339492699e-02,2.007223673552961940e-01,5.815311123296078993e-02
9.392769410824737542e-03,7.388324390802945840e-02,5.862855989323022265e-02,3.711533781586060995e-03,3.962219520439102388e-02,9.286114564515321468e-03,8.321203927177681092e-03,5.057768124032490514e-02,2.258812709738962365e-01,4.958669450243140958e-02
2.242617388881634928e-03,3.180671919090428262e-02,3.511549255045196688e-02,3.713011045981430037e-03,4.508367383912781357e-02,1.049754911699770157e-02,4.571078071656927040e-03,4.768917515567847043e-02,2.200864438644250798e-01,5.267609930367677523e-02
1.058159210601506729e-02,1.846530951015604854e-02,7.763956276879493967e-03,1.167205375923692848e-02,4.926166614253655457e-02,9.939632197603538027e-03,5.241956538413524574e-04,3.122099055805310081e-02,1.820941674173942593e-01,4.870982737448113775e-02
2.898738838064469914e-02,3.599517400760249286e-02,2.852302085998041636e-02,1.918814225840029253e-02,5.234939288313879280e-02,7.335560998299725521e-03,4.279734839911899028e-03,5.380943557939384808e-03,1.158045982140025743e-01,3.417436450211754073e-02
2.653127759881853884e-02,2.582461955361770381e-02,7.167675360055553169e-02,2.562708551474265559e-02,5.513164242474825893e-02,4.502233605065252692e-03,3.721608436205274539e-03,1.604581671533538562e-02,4.361819785332039789e-02,1.673037058210282910e-02
1.031121563328951836e-02,2.652022380277285069e-02,1.054318432516536536e-01,3.057731276387755381e-02,5.716636572011275091e-02,2.593993903543745632e-03,4.892256337921496549e-04,2.993973882384297000e-02,9.347374520905624498e-03,7.643992431967221168e-04
5.654228746118063198e-02,5.841514129039090952e-02,1.149769703791820447e-01,3.340154661452172935e-02,5.755188347858440634e-02,6.034849102265257142e-04,1.382176691291270255e-03,3.712143944965039244e-02,3.356541546057632830e-02,1.268882600637244971e-02
7.457466966884306048e-02,1.038725946942254397e-01,9.910252430973066906e-02,3.275745998094520273e-02,5.751958778115517229e-02,2.568263869050115607e-03,1.069884153091578589e-03,2.796123488570671778e-02,3.333916581942461543e-02,2.116156403238415168e-02
5.389268148440685968e-02,1.306525342402732048e-01,5.822481998602842962e-02,2.683526936982928365e-02,5.987879455457102706e-02,6.213941426707530157e-03,8.018053842311582274e-04,3.158488787349535490e-03,1.557391374185846701e-02,2.503026060804260794e-02
1.408733109802081350e-02,1.166528087686147935e-01,1.479913688542767655e-02,1.453148193637917446e-02,6.385825983457607546e-02,8.469119101487499607e-03,1.081364226170714342e-03,3.639139358956634124e-02,1.269256990790174240e-02,2.882445826424340912e-02
1.802320116695938987e-02,6.487148087440913757e-02,1.129261011066683279e-01,2.763697814729045368e-03,6.274195070540719565e-02,7.888008171392620754e-03,5.170786734194955398e-04,4.173488801881904131e-02,3.675438551344397536e-02,3.371297167284541263e-02
1.757602850865573607e-02,7.424401838668695866e-03,1.960146036837457639e-01,2.025322683414043645e-02,5.043641027492363343e-02,4.978126481102976286e-03,5.049160284868214540e-03,1.636205928881517141e-02,4.055328289820641502e-02,3.637345140133277366e-02
2.672478125602100602e-02,1.891637556233457390e-02,2.206392163772270265e-01,3.197073957145649820e-02,2.852283099077274064e-02,2.701601878697449093e-03,9.158297284368998106e-03,8.674956375317888907e-03,3.518717320645024793e-02,3.650907459839526636e-02
8.927251032292038424e-02,3.521259801544317138e-03,1.894412903887831012e-01,3.538048622928568337e-02,2.256480325015467608e-03,3.697492424143907202e-03,8.778066777061371145e-03,4.528612102915977392e-03,6.024712299734912707e-02,3.833062271958147249e-02
1.246261691100177676e-01,3.978666020508844769e-02,1.465085081626627261e-01,3.274962634024927710e-02,2.650775375902852254e-02,6.537855242435791463e-03,4.837512821035979196e-03,2.209429942694506391e-02,1.301710049043427464e-01,4.435416458247244675e-02
1.239137609653729322e-01,8.572518753454484719e-02,1.185879423786172782e-01,2.690746882858762248e-02,5.532077559924904880e-02,7.210216561301256537e-03,1.999659567855139632e-03,4.224665035903140548e-02,2.015843225414456485e-01,5.135587292881161475e-02
1.269855839830091870e-01,9.770496410776680074e-02,9.101593131790462754e-02,1.824565628680917609e-02,7.600350481340194253e-02,4.787174017032836890e-03,1.803880022887467639e-03,4.449125249201863613e-02,2.245628193888092594e-01,5.153789387115330356e-02
1.677236121022878390e-01,5.147219160785388575e-02,5.466274169827590318e-02,7.954545384252716816e-03,8.360181335299246563e-02,2.731268044579966258e-03,8.723870432501573289e-04,4.313141612187734036e-02,2.034158659274740433e-01,3.826437028021266451e-02
2.261465643253749436e-01,2.207354966031434274e-02,3.789223044388603107e-02,7.046982035749617054e-04,8.421727196627751266e-02,3.886095428739719075e-03,3.169206299879946329e-03,4.905313437780139257e-02,1.760197351940971655e-01,1.411361453653694684e-02
2.451693187697484844e-01,5.943026025124967249e-02,6.379796051748486130e-02,5.132768256557077675e-04,8.412543822917444014e-02,7.001240870981316304e-03,7.731811989398202148e-03,5.372718153475260217e-02,1.559673463222150114e-01,8.534672562991505937e-03
1.935462598745552321e-01,4.806098278758539483e-02,1.079509126439235633e-01,5.902116359660332552e-03,7.976389243936984896e-02,9.179983475471886756e-03,8.928465630942912512e-03,4.551083526649482569e-02,1.298993180850082363e-01,1.954793213609781408e-02
1.038605815704603669e-01,3.825025756513733555e-02,1.290903356488013742e-01,1.159095592467606142e-02,6.789597076286849053e-02,9.477218131641106796e-03,6.172087599897143825e-03,2.474768500206693533e-02,9.776412529380906768e-02,2.137466941470483536e-02
3.705177250566545066e-02,5.650305020592590044e-02,1.181060483386665860e-01,1.359212999230405457e-02,5.496143474513912747e-02,9.003178992924439419e-03,1.360357798980696246e-03,1.052965791823816909e-03,8.068576639765261127e-02,2.221505551679641907e-02
1.948849754286280378e-02,6.567546891427158973e-02,9.446453519896298723e-02,1.157051369437554073e-02,4.701691913508795201e-02,8.962916768505283308e-03,3.862758609373059815e-03,2.367673370667183405e-02,8.823464421978610694e-02,2.262630147487592475e-02
2.973528609777051357e-02,3.114127357478587571e-02,7.484836499676526811e-02,7.840481151910426785e-03,4.018677988101542614e-02,9.457092001583245963e-03,8.183081622984708994e-03,3.416075011918476984e-02,1.005741583176499587e-01,1.633946318518238183e-02
3.096328273080037330e-02,2.806285085033681861e-02,6.047994908995437541e-02,5.154843672890638273e-03,2.815783418714786282e-02,9.535122083500383733e-03,1.028291826916388763e-02,2.918753585007812998e-02,9.052912102795983296e-02,1.852777916522868780e-03
2.638801290690365522e-03,7.590520822479969454e-02,4.244037368816125366e-02,4.853655886192724360e-03,1.073284245959602382e-02,8.214667626566220932e-03,1.043837745725069086e-02,1.899996423052620342e-02,5.331326925585753995e-02,1.458042078688889971e-02
3.984015559096406450e-02,1.044082374455042039e-01,1.627627770044634548e-02,6.971608949906079808e-03,8.517082514413659711e-03,5.793836486554623973e-03,1.057214378211183102e-02,1.798599797846927098e-02,7.096103323595316648e-03,2.739470337835895122e-02
4.836348028280072764e-02,1.235434594426043503e-01,4.545620962424451982e-03,1.209989908342122382e-02,2.324691260907734564e-02,3.941700730552956042e-03,1.091669951538639868e-02,2.778133872337748209e-02,2.942470223806899210e-02,3.759059988116762036e-02
1.060235863207039178e-02,1.373348433129167878e-01,1.853869118935565566e-03,2.159073096295666822e-02,2.075674029791549011e-02,4.204426703029446113e-03,8.778073375507171316e-03,3.847121711489472767e-02,4.847907834385778436e-02,4.840887740344438500e-02
1.029420541346059842e-01,1.439663867991633761e-01,2.022178327674788861e-02,3.493495588271058883e-02,9.184805299829058162e-03,6.397735480285362576e-03,2.738301511746036882e-03,4.141302101313080325e-02,4.392584033384046294e-02,5.724787544703805603e-02
1.497871657024791303e-01,1.395419474369475332e-01,3.971685947246044596e-02,4.819996832851790314e-02,5.621286060609476110e-02,8.478862181139872403e-03,4.202666435799126687e-03,3.184546334384785043e-02,6.941301564342413494e-03,5.575720152485316022e-02
1.220580434373477047e-01,1.171723773812255454e-01,4.169171004008644793e-02,5.601710468453637015e-02,9.264726950856869148e-02,8.337496578839429309e-03,8.073253401559381953e-03,8.403282598062604414e-03,5.743242003924721450e-02,4.144888812069207756e-02
8.168444959128320915e-02,7.694350438688525584e-02,2.050774099917463192e-02,5.493256055781486208e-02,1.009445607487678004e-01,5.846374546111593115e-03,8.441450183256163364e-03,1.933557527993726155e-02,1.169065449860017397e-01,2.533905207845977767e-02
9.380194939515837382e-02,3.457239620070644281e-02,2.397853461787953500e-02,4.558974533749417246e-02,8.744703767420501650e-02,2.838829574762489517e-03,7.422863480550430208e-03,3.287170689321144285e-02,1.309834555183156390e-01,2.042684638385166077e-02
1.264865604380328856e-01,1.137252044368384715e-02,7.042734667400388227e-02,3.255500095759019524e-02,6.712473854124831329e-02,1.223365164395716787e-03,6.161187446109878466e-03,2.276276458301557115e-02,8.890492354416182352e-02,2.580614897201624972e-02
9.383390582399706026e-02,1.836644045971900716e-02,8.245710235929123999e-02,2.064918845131075154e-02,4.646265948334618590e-02,1.132065181334617919e-03,4.190163315958075896e-03,3.121538197856875071e-03,1.958114111857867795e-02,3.065953669884529526e-02
1.662453122417173815e-02,4.586967268692140887e-02,5.712230689023839458e-02,1.015551122844609092e-02,2.361684365191227958e-02,5.400627590774760133e-04,1.127832040780807820e-03,2.970218808283994413e-02,4.510366679239071613e-02,2.955924075599664774e-02
1.231266682445411459e-01,6.590965415196026189e-02,3.509413514296218228e-02,1.714990779329852826e-03,1.670753560476003798e-03,2.472664364635551205e-03,2.373999026554260428e-03,4.384670158818858299e-02,1.027308356730873840e-01,2.447483612892415242e-02
1.483663673945058992e-01,6.195909313033002436e-02,3.502459531604804749e-02,1.294853288854961454e-02,2.061459774277982909e-02,6.619230099740830431e-03,5.206073741449060432e-03,3.824561558367604863e-02,1.536996223645369641e-01,1.611352352129887325e-02
8.420370323604758900e-02,5.228900640909064923e-02,2.146252277785553469e-02,1.593877951898017148e-02,2.038479988666618004e-02,8.599685945962666847e-03,6.760266905019087467e-03,1.836804198390258602e-02,1.641656475141007043e-01,3.707331063618892614e-03
2.208221557005497770e-02,5.323529346959757214e-02,2.778470406364223072e-02,8.649926300404094451e-03,9.308935233324176772e-05,7.877767170079083558e-03,7.070147945461292306e-03,2.738457964417678227e-03,1.049274095383936067e-01,7.945702262696587373e-03
9.850224245885388918e-02,3.750277137958120399e-02,7.296992971384884397e-02,6.798882847370429916e-06,2.487312723255100805e-02,7.101501890419931011e-03,6.364608851687688154e-03,6.586032453871524910e-03,1.550493874804792852e-02,1.015069785417082975e-02
9.489780644306095025e-02,2.122443666388035971e-02,6.961965208844919650e-02,1.334013645818445809e-03,4.074326106727746422e-02,7.340411397260845558e-03,5.140220334467538767e-03,2.632098474094008572e-02,2.782066277137122332e-02,7.276845656392950945e-04
3.186098585274078909e-02,8.891749438605670020e-02,2.759702743341701722e-02,3.073117639236831213e-03,4.864954701420692168e-02,6.799795797348016577e-03,4.329341686409606677e-03,4.520948993621542317e-02,1.880995189665910471e-03,1.269104932601567044e-02
2.646289759346070330e-02,1.163567382603417077e-01,1.874583106250478012e-02,7.562341807948493901e-03,5.381465064145414534e-02,4.879185707992141768e-03,4.455217186409122544e-03,5.190405753378428411e-02,5.614401510613448165e-02,2.189196596559038824e-02
5.195056167153606907e-02,1.100492653340943150e-01,5.609032769411718966e-02,1.177783192848519574e-02,5.298543261760392531e-02,3.712609321292867706e-03,4.902039412749597050e-03,4.982336207842699011e-02,1.160679703410077840e-01,2.705564214442741228e-02
6.572506894066718064e-02,1.008557257385163525e-01,8.220804235374318258e-02,1.783738400488229375e-02,4.083623115960522548e-02,4.723996888692603285e-03,4.792981216931993180e-03,5.095483710038152536e-02,1.745271672328790324e-01,3.340963890928524971e-02
8.453760304893602473e-02,8.551208259711527704e-02,8.946623946071229072e-02,2.437728351166907823e-02,2.019602090801352751e-02,6.582264928491293396e-03,4.128062622567782100e-03,6.349388739326447539e-02,2.210693754418447399e-01,4.060449281643879055e-02
1.008244418619613364e-01,5.257525855944487903e-02,8.337589442520755567e-02,2.948215097690682837e-02,8.691287214488392990e-04,7.440201001795228482e-03,3.344427289406049983e-03,8.342704932348379843e-02,2.405622228269762020e-01,4.108914740576384561e-02
1.108556206037111663e-01,2.491540976546487152e-02,8.754478437473875441e-02,3.395931635062394288e-02,1.697662578291461721e-02,6.962437805555081113e-03,2.138174168914958040e-03,9.587729151373829140e-02,2.433626179157330482e-01,3.192333382565484129e-02
1.284913873458423395e-01,3.365268040144646366e-02,1.076786131627966436e-01,3.638242953523088130e-02,2.731088169154705786e-02,5.629062934893335271e-03,3.738422672624003512e-04,8.637626500582561151e-02,2.427497792679069732e-01,2.197056518459872959e-02
1.663132522487479059e-01,7.428785534852511141e-02,1.149341620827193516e-01,3.115516687763784237e-02,3.372336450193029467e-02,4.031504736856411815e-03,4.011705594009959235e-03,5.263291718660750157e-02,2.120604884884523811e-01,2.008204486183463866e-02
2.157356355188306818e-01,1.082621572921973474e-01,8.386081898538705337e-02,1.662269858887310478e-02,3.824252282331266906e-02,3.150275928304577429e-03,6.897954496312551365e-03,7.161826009378004926e-03,1.199629968061810548e-01,2.148822351860987453e-02
2.519754446197050579e-01,9.850226024393066160e-02,2.509972982578833819e-02,1.048638839618928594e-03,4.017516201189346575e-02,3.640148509388297770e-03,7.308129872493990264e-03,2.796480429462601391e-02,8.592236052875467517e-04,1.630247213884147145e-02
2.561853246461818778e-01,4.411183385534873241e-02,3.274580836174678655e-02,1.535308901018227895e-02,3.689738326806320939e-02,4.776467385564205081e-03,5.453821619170501518e-03,3.359711986117888682e-02,7.948300552462046753e-02,6.718979481138705190e-03
2.252996432426364881e-01,1.806637873169842853e-02,7.041041393423470851e-02,2.399461481052883594e-02,2.880926193314023442e-02,5.336499974827781621e-03,2.718603345532421244e-03,1.272798188016714162e-02,9.421876108932163152e-02,2.654476431550246724e-03
1.638672673420869252e-01,5.203288015453163412e-02,7.950375151046626399e-02,2.498715816191117087e-02,2.027795989020616738e-02,5.147811582809871944e-03,1.833623305055147854e-04,6.693303522342153311e-03,8.049128140189443226e-02,4.368423329108523170e-03
7.956895534654889746e-02,5.594381803782300794e-02,6.334355000738869923e-02,1.662366044333675463e-02,1.478614887574719421e-02,4.767048135905727069e-03,1.439100341030679622e-03,3.771944517164504095e-03,6.287418281783957452e-02,3.046771992294699302e-03
1.311827093282642159e-02,5.136514471138076132e-02,4.201813600885774547e-02,2.458451642090688730e-03,1.265200670721601875e-02,4.364648982985649094e-03,1.729478859863459953e-03,6.907049057361577468e-03,3.286460281396610950e-02,5.278046123256780429e-03
9.397891704112869282e-02,5.280315114107418661e-02,3.465886035624141798e-02,1.035199608545505842e-02,1.334181405873557588e-02,3.829957173671082876e-03,1.101663316737808412e-03,1.396045080650206403e-03,1.068392420385902951e-02,1.778325964984233884e-02
1.456290195791364872e-01,5.494534768161237620e-02,3.866134186451995053e-02,1.746458866852261191e-02,1.650049847440351880e-02,3.162448421577744063e-03,3.696836173492027279e-04,2.372406734578289336e-02,4.411951401378816362e-02,3.184458758274036350e-02
1.635970454979754352e-01,4.238818005779792369e-02,4.275499953434724887e-02,1.806625401604624800e-02,2.102553112072727201e-02,2.324502697550279249e-03,2.485487440484390373e-04,2.835067556249466769e-02,4.704038963293021014e-02,4.521728310500277431e-02
1.561420156069251719e-01,1.174232299267535459e-02,4.722912749789867637e-02,1.270951837704790977e-02,2.573854668571093698e-02,1.615265119045798236e-03,6.886476937318027113e-04,3.769086581983875205e-03,2.333814244273196836e-02,5.366761349509065193e-02
1.286339576824235276e-01,1.754705300335745316e-02,5.480434621369170006e-02,4.732535702227767642e-03,3.066666630444131111e-02,1.791034572368046564e-03,4.410698268877434321e-04,2.384161742298265829e-02,5.426820756124575013e-03,5.407562622443358447e-02
7.812666372700069473e-02,2.427972750553105200e-02,5.657434559237888017e-02,7.445073750310241857e-05,3.595355732420853212e-02,2.715740842699531591e-03,4.476549450326679181e-04,2.569890352899218550e-02,1.383273332755166271e-02,4.778464391905892783e-02
1.744851057167220304e-02,8.799807725060825384e-03,4.019562621132124342e-02,1.932828840209045718e-03,4.019386221779054635e-02,3.119638265707643486e-03,1.101064571786979432e-03,5.206997820932442352e-03,8.404518408738792523e-03,3.943666266733922982e-02
1.534017072633241455e-02,1.694647328887343568e-02,4.787254445972464155e-03,7.669186453895341163e-03,4.173699910488072595e-02,2.802844619759888023e-03,1.305191637206917256e-03,1.136623314512217979e-02,3.474741943530142152e-02,3.270404096289854928e-02
5.233150629199234162e-03,4.474172581021515493e-02,3.195441606787031291e-02,1.178753737446635100e-02,4.084373609083365858e-02,2.979466348742922620e-03,1.472697716772142966e-03,9.110186678563324605e-03,1.759370152898630246e-02,2.567427852092863533e-02
7.845317493095084439e-05,6.491913439209388847e-02,3.990917447475630930e-02,1.005368193748975604e-02,3.837572274560312885e-02,3.200659160453393423e-03,1.073741344744451971e-03,1.514448799456310450e-03,5.250514065793602386e-02,1.396606363807272391e-02
5.042225297965161057e-02,7.163020937039106528e-02,5.548248564142625391e-03,2.169844457121473686e-03,3.381145307887511997e-02,8.104918372500299287e-04,5.056256121068732155e-04,4.673994299374710677e-03,1.234585967045969956e-01,2.672778341855901879e-03
1.251079300634301283e-01,8.068303857770500742e-02,4.384055888517886246e-02,7.349300805545183959e-03,2.740139371025246753e-02,4.694393124599823344e-03,2.021616901752690265e-03,2.929538129074799654e-03,1.412074145856068164e-01,5.891138277047461985e-03
1.446176691522845226e-01,1.098680490212793487e-01,6.683271418853396761e-02,1.307429213353895718e-02,2.209998847590505938e-02,9.694486437665131989e-03,1.902961535392178397e-03,1.155969670282446654e-02,1.129626049808087618e-01,2.569336874843971413e-02
9.144859007646380378e-02,1.357146597326282511e-01,5.667472556967761282e-02,1.442509726140355983e-02,2.001001784705123271e-02,1.088212606343739140e-02,7.618287089369733464e-04,3.487235476212961066e-02,8.458789543365594077e-02,4.376173437283401024e-02
1.978392092217468382e-02,1.111216854342685079e-01,3.916389920116827850e-02,1.423367090556567835e-02,1.956216779109967371e-02,8.896791533373263339e-03,7.745396816442488364e-05,6.029029273981736242e-02,7.042766262755877082e-02,4.420000334807185766e-02
3.091640046229167729e-02,4.027929813489158906e-02,2.739068466204232916e-02,1.194426004828686751e-02,1.906449152015550139e-02,5.953207934906313246e-03,1.012280583713548557e-04,7.182805507898572250e-02,4.100468370005706797e-02,3.175122644076254497e-02
6.655192658074735035e-02,8.421163664750016056e-03,6.774179814638191070e-03,3.967490350649361709e-03,1.919044659001563347e-02,2.932314738826722559e-03,3.646962214958259863e-04,6.009437759994383510e-02,1.728861458591561193e-02,1.866140525641754588e-02
9.011804256347266673e-02,8.511806027764735189e-03,3.230280969890227810e-02,8.013208886012234897e-03,1.922764842793172821e-02,3.035614297535087561e-04,5.677901039625128437e-04,2.895669474705928406e-02,6.772869792402763656e-02,7.123451438229442580e-03
8.365177901886831913e-02,4.612826466817923632e-02,7.009972399040871605e-02,1.527947890425617253e-02,1.572445750435758419e-02,9.525521406229877112e-04,4.261200844030355516e-04,2.054844475715120189e-03,7.253347326316308963e-02,6.375848905030801969e-03
4.968156242921465543e-02,3.209062338457528002e-02,7.937399195801635166e-02,1.226419206575216775e-02,8.220924087030501842e-03,7.239627865534326067e-04,1.715584640307141488e-04,7.040712957833174072e-03,4.868049815331153274e-02,2.015595310674985624e-02
2.788280359147276774e-02,3.801158276452400175e-02,6.154697820794720331e-02,3.875150775739335130e-03,1.880798943475530706e-03,1.433389427074822421e-04,5.427139739688575297e-05,4.136862846954334622e-02,3.676653622748728145e-02,2.938742818300133300e-02
4.164948618507559319e-02,1.027469206490224107e-01,4.455109266049207817e-02,1.333788103604296831e-03,1.110022052351521994e-03,1.405247593961440021e-05,9.934771994870770194e-06,7.065303241006209989e-02,3.323859358961625543e-02,3.313933549849619464e-02
4.991807399342031160e-02,1.112472996070888315e-01,4.724243533496859382e-02,8.611283735044420688e-04,4.143075846714344007e-03,3.520817415851362547e-06,1.407127703017347557e-04,7.131383854247494436e-02,5.013869422969372859e-03,3.365748529061800970e-02
6.808508509230310271e-03,7.101418264232056687e-02,6.371272207813642730e-02,2.859277994355564380e-03,6.466643005188214659e-03,1.452966977183153059e-04,2.983857637161914942e-04,5.496026716987616190e-02,3.586348846902383952e-02,3.138998489770859074e-02
1.180987438093168140e-01,3.599950757179228716e-02,8.306461932844759477e-02,8.470410474496750317e-03,6.384351172586691381e-03,3.579051556963933826e-04,4.233004463666906149e-04,4.119124223414374203e-02,3.598785726162941762e-02,2.373195104911071662e-02
2.085398646523868860e-01,5.298553202200850798e-02,1.027850451940313242e-01,1.575242759679239268e-02,5.086346600086871089e-03,4.735443160265533471e-04,5.301127458459506565e-04,3.132641529501786759e-02,1.085396296420740835e-02,8.673692854514594708e-03
2.317981896339579850e-01,1.058143386199359298e-01,1.153989504405647792e-01,2.238303185715263127e-02,3.755479872189405269e-03,5.367863028050749935e-04,6.437697367494939682e-04,2.250630763704893761e-02,4.334374427490413767e-02,9.907254770545496220e-03
2.094421464168532976e-01,1.361635866068111600e-01,1.032928784372019737e-01,2.427816704580249008e-02,2.572605663142251125e-03,6.225447957597336551e-04,7.546041229363953037e-04,2.231292615319684786e-02,2.257277869502669759e-02,2.229534638974684652e-02
1.763707450349015771e-01,1.304193506970202920e-01,6.184576351790081750e-02,1.900833871861368554e-02,1.390416824765144856e-03,7.103867089587653089e-04,8.478420643421324433e-04,3.322626471465580517e-02,1.437574560895552370e-02,2.219997925106862238e-02
1.404716912805503426e-01,1.291447365971853112e-01,1.458838041606714576e-02,8.886134736477206003e-03,1.758917442482451320e-04,7.648294490705214018e-04,9.250731430754962183e-04,4.314974713319161270e-02,1.086362860423291041e-02,1.505053678796573237e-02
1.001799822250421107e-01,1.400810506252097298e-01,8.880648018900167556e-03,1.004530004241192256e-03,9.262259524467769678e-04,7.951848530060513136e-04,9.907705903344390767e-04,4.277579038403420825e-02,4.655220786654670068e-02,1.225837317237380569e-02
6.074359391961599297e-02,1.242966168922203379e-01,2.903135927037198138e-03,1.569953552156792744e-03,1.734423750198968829e-03,8.186971713462058448e-04,1.042140431745335657e-03,3.534444108256995509e-02,1.286878197930354795e-01,1.713549347570697892e-02
2.658842275455321202e-02,8.167848232135294095e-02,1.487947315839062770e-02,8.377126385024713864e-03,2.459476879155203001e-03,8.320633977038343482e-04,1.075367459871903178e-03,2.432791623835312000e-02,1.868063299363351693e-01,2.169418648459177021e-02
6.394551587557327499e-03,5.971040203757640996e-02,2.557131171089414845e-02,1.174799578673080963e-02,3.610633618762573542e-03,8.283300986002368679e-04,1.090492353940366362e-03,7.515046950500776229e-03,1.823502001603373723e-01,1.903984520407525291e-02
5.195701087670507451e-02,6.612178902548379589e-02,2.127490434696584221e-02,4.702941455933039132e-03,5.058137372492892310e-03,8.104125912849373999e-04,1.088582664648357016e-03,1.289067095617835862e-02,1.222492496267859469e-01,1.264763023592401121e-02
1.194425688243183625e-01,5.928987937484540838e-02,3.522404900759596065e-03,1.022158588811067706e-02,6.011600471017982186e-03,7.833187555958768524e-04,1.069438067933340840e-03,2.718621041318954046e-02,4.634538071082174721e-02,9.033471378648362179e-03
1.844545595264040494e-01,3.145345418772751284e-02,1.848644883263391575e-02,2.459335036542172753e-02,6.405182313176565126e-03,7.476881925965224310e-04,1.032897434056586098e-03,2.966933612177496266e-02,2.308178377858853547e-02,7.534380769187614020e-03
1.942038737669020965e-01,2.471398822185379499e-02,3.205002101754727412e-02,3.140120813450057030e-02,6.999484207949465200e-03,7.033137646116605600e-04,9.799264085423174848e-04,2.457660842729540024e-02,7.831905620256994494e-02,3.434933419278080827e-03
1.311584000910081815e-01,5.971557814729123309e-02,3.246697241349140450e-02,2.863169585080672236e-02,7.793946891838311047e-03,6.521650033310893253e-04,9.120024837097448663e-04,1.944148889630587310e-02,9.131514580020436145e-02,3.445191834054798976e-03
5.310609300147688117e-02,1.054213555920664458e-01,2.608739691785279258e-02,1.916546003034382689e-02,8.030701365080878187e-03,5.967280986357772089e-04,8.305691579868211853e-04,2.142907795173526128e-02,5.079816645524494467e-02,8.340809970481439378e-03
3.377911036641625953e-02,1.214145199075931242e-01,1.764760139477458689e-02,8.858331656285699934e-03,7.788565456669451284e-03,5.385199439924350006e-04,7.372760839442166290e-04,3.511007149090153434e-02,1.661511096330933052e-02,6.685709109601688585e-03
7.505594135917298404e-02,9.597359023473843453e-02,4.999470326626304778e-03,2.869550795548630236e-03,7.871211851907745222e-03,4.787965265039999859e-04,6.341854731517794757e-04,5.076520792867458137e-02,5.905492418025467399e-02,2.343510678715238129e-03
1.154588440888669049e-01,4.721219898667699394e-02,9.041222315833676720e-03,2.172548440977825276e-03,8.398559288034655040e-03,4.192070552971957501e-04,5.236001381715491140e-04,4.588709712824192571e-02,1.546401567690467993e-01,1.436224825695184455e-02
1.150975182302269584e-01,6.205345532373451010e-03,1.388163002868923399e-02,3.831353089105826032e-03,8.845630714785477494e-03,3.614215522379411478e-04,4.078942868121304775e-04,1.448025987055267388e-02,2.119549499847430962e-01,2.163582722085874085e-02
8.819377650517901124e-02,8.050136933682144891e-03,7.207513429487747043e-03,4.430497611113173341e-03,9.034530250301596108e-03,3.067740753902200006e-04,2.895153069154838676e-04,1.982180267248241992e-02,1.893681905103069552e-01,1.973979511473266876e-02
5.955905496904696089e-02,4.904953132750571043e-03,9.166408822794415955e-04,2.286135372151449317e-03,9.193977305935905828e-03,2.563906502197726674e-04,1.709821714650679712e-04,3.294772658708675778e-02,1.238049985694653077e-01,1.266264808333446464e-02
3.853390262781521136e-02,7.828387704452301199e-03,4.511370840523772768e-03,3.099361780248012163e-03,9.413149945603676086e-03,2.113206267343362794e-04,5.480056815052706284e-05,2.439849908014937382e-02,5.447486371460154991e-02,8.671717390804105016e-03
3.414491706692572570e-02,3.091782997227184374e-02,1.350892027111662633e-02,1.163997301452516890e-02,9.578843226339709208e-03,1.724467989374883596e-04,5.662280097182907884e-05,6.050364169165206932e-03,1.589320020078834744e-02,1.075491672758707717e-02
5.236508498726024502e-02,7.476871749398386613e-02,1.901563755208836998e-02,2.124361214268258996e-02,9.651898562747045912e-03,1.403976194357290058e-04,1.610241199623538885e-04,1.148809048994034986e-02,7.625406807773554840e-02,1.399915669052039825e-02
7.957020336102342550e-02,1.220674551215333997e-01,1.861392894093306938e-02,2.694977842222190390e-02,9.703892806063950383e-03,1.155699980848320582e-04,2.563199097006610156e-04,1.964387643629411997e-02,8.246045856673572816e-02,1.337209328800566081e-02
9.625283087050473529e-02,1.305762830227963078e-01,1.271254231536866376e-02,2.447681183902642929e-02,9.746351398756762305e-03,9.815982755872860945e-05,3.406610056041496550e-04,1.645349146245383976e-02,1.428963210494641617e-02,9.855555071545821569e-03
9.176399540981054759e-02,6.693452403742397583e-02,9.695676245818408458e-04,1.513478135984405379e-02,9.705153158681369477e-03,8.814839305214313011e-05,4.124865867875464440e-04,7.647599559131677306e-03,7.331732833403131755e-02,6.353991359483066384e-03
4.851365048221117221e-02,4.200962032298480309e-02,2.181124643985076633e-02,4.704209488271548188e-03,9.589529079782638243e-03,8.529222566005899417e-05,4.705560434885881771e-04,3.768881559163507131e-03,1.026111492657529045e-01,2.476155626710380923e-03
5.068956612648291282e-02,1.248973835702822388e-01,4.163453008548225615e-02,2.757832578252687045e-03,9.522205616433953093e-03,8.914110328870486553e-05,5.139610581688616080e-04,1.752193072495950021e-02,6.755164524379929369e-02,3.061772907040664297e-03
1.749086486707328025e-01,1.371655341035378228e-01,5.411626458629013176e-02,7.272634322325006138e-03,9.470507922119106303e-03,9.906190048826902638e-05,5.421476698058425026e-04,2.463551822170327241e-02,3.209352148197035931e-02,9.099753848020680075e-03
2.464411848496469437e-01,9.234491938666243571e-02,6.262849791872876493e-02,9.289907064566168410e-03,9.187022649049440479e-03,1.142559468249261436e-04,5.549550995117676295e-04,1.396539960732277527e-02,3.824094150934044534e-02,1.387344944189086715e-02
2.184345977190522703e-01,3.072561610932042497e-02,6.954633276790578300e-02,7.218322217742529842e-03,8.736101796001382452e-03,1.337795271222324406e-04,5.526134272942171289e-04,7.988371531332106104e-03,6.390347063800635996e-02,1.688629437049763912e-02
1.229364137153675651e-01,1.892013122600803496e-02,6.594026728836037410e-02,4.097090861407014142e-05,8.685576560890126419e-03,1.565726223770582879e-04,5.356769899692690080e-04,2.113280189655424024e-02,7.385046172473216930e-02,1.799029387877797495e-02
3.145395021486407927e-02,5.171021585376796292e-02,4.465624608853305255e-02,9.088852422584885182e-03,9.166537662027756175e-03,1.814905254505259978e-04,5.050128604732127520e-04,1.804509489662375551e-02,6.168561302229455534e-02,1.764642173980825179e-02
6.402360251131206277e-03,7.833290847178751848e-02,1.832237666457486175e-02,1.333332803357057707e-02,9.307694452509601007e-03,2.073348635934555806e-04,4.619001626429587856e-04,1.023447725941991661e-02,3.211759989389822989e-02,1.763330470608470008e-02
1.039061196386814948e-02,1.091191050608633084e-01,1.012626651954372237e-02,7.565379748582783115e-03,8.461199911120320660e-03,2.328854106388133214e-04,4.079894830246594815e-04,6.635602831493094857e-03,1.041241161415857111e-02,1.845435180327781310e-02
4.024451444427739472e-02,1.438856537942194425e-01,2.540054758673509702e-02,5.871690375385294619e-03,7.273385094010358792e-03,2.569331963810109957e-04,3.449971909208265561e-04,4.325324033268809765e-03,4.044729882435792179e-02,1.763784957529574565e-02
3.397715464777367744e-02,1.717728546807504308e-01,4.365656493004633348e-02,1.813208236639578599e-02,6.641568238840996063e-03,2.783131203365869712e-04,2.746684475656922917e-04,3.800786226257788988e-03,2.296135427849558056e-02,1.380700775793707036e-02
2.003198097925532398e-02,1.772625034577193781e-01,4.415031371391902465e-02,2.198588900522540843e-02,6.435785599216941981e-03,2.959346684719168477e-04,1.992936898068601421e-04,1.277890649125448981e-02,3.221987005456018044e-02,9.948921322557582533e-03
8.963259114941549144e-02,1.534853470283058519e-01,2.835445467168235673e-02,1.732666861289317017e-02,6.044090490102549049e-03,3.088104505634267031e-04,1.216498101491248558e-04,2.846733147635661584e-02,6.503870902498866402e-02,9.237197271709953958e-03
1.404188842306437757e-01,1.171681339369533142e-01,7.642341832727155004e-03,7.424220235999904119e-03,5.421991875251058399e-03,3.160821699546047248e-04,4.373187356469590017e-05,3.533468501608334755e-02,3.767304326606098902e-02,1.045089259538954478e-02
1.695153052628002865e-01,1.022927216014830609e-01,1.605611231652549070e-02,5.853917659103443846e-03,4.928384964221103198e-03,3.170432007188321057e-04,3.332663772122480540e-05,2.771878284307144336e-02,2.023673582664446691e-02,1.072616051052754406e-02
1.905973448659634972e-01,1.248917037051488488e-01,3.875300170947703488e-02,1.859460130349731635e-02,4.567268290668242275e-03,3.111571026263945812e-04,1.067237555228131498e-04,1.807821676213475226e-02,5.718928216439318757e-02,9.781336418986772210e-03
1.987713607323149112e-01,1.587179146633305171e-01,4.016344376004936378e-02,2.181276292198344388e-02,3.987808469039977669e-03,2.980717416611439706e-04,1.719288150128530344e-04,1.742739177895735042e-02,5.579255671078387629e-02,8.385506173354331794e-03
1.716727140066115487e-01,1.650902729789597567e-01,8.564552045889080312e-03,1.029894002282212562e-02,3.242472811534773125e-03,2.776287626765597976e-04,2.282557207936234799e-04,2.287746578370224160e-02,2.696469688661564529e-02,5.721876621764452296e-03
1.083109053175797670e-01,1.442645085125227600e-01,3.177050023618643165e-02,8.100674820243156798e-03,2.950662457725669596e-03,2.498681641670981424e-04,2.792997528280369941e-04,2.836604554848077067e-02,1.254568371732325653e-02,1.756014064346978019e-03
4.338500715660763979e-02,1.320641347362449813e-01,4.545333146553684478e-02,1.988163616233035516e-02,3.249286397656478594e-03,2.150278576024867332e-04,3.211965494753344199e-04,3.386183047094602772e-02,3.600089604033099994e-02,1.393113908244219060e-05
9.602269237599481838e-03,1.483704306919981508e-01,2.905026182006655716e-02,2.050732739753764744e-02,3.247965412487934661e-03,1.735382679841099914e-04,3.415164030507348647e-04,4.044314664191886455e-02,1.816646449426304738e-02,3.957745028113584737e-03
6.258693100565968816e-03,1.783009733423781551e-01,6.291318839205437517e-03,1.569058984543726318e-02,2.306954016674532364e-03,1.260121471573204808e-04,3.444236795910901681e-04,4.657301753608975026e-02,2.539136338665725842e-02,1.114862726156377187e-02
1.810216140308731556e-02,1.985360687873254093e-01,8.607577712424669542e-03,1.156402469382241706e-02,1.079020132485794883e-03,7.322986238888830074e-05,3.537862346941184457e-04,5.156293428993269368e-02,4.520803039144216662e-02,1.495555716395319777e-02
4.082389280206799587e-02,1.933067166345640853e-01,1.945569510954187412e-02,1.000905865924656135e-02,4.391991641756825236e-04,1.612053343704896965e-05,3.595913894943148729e-04,5.579642769881864445e-02,2.309133390297118602e-02,1.283308848273338916e-02
6.986946744839339640e-02,1.580077158218898825e-01,2.744329834279926258e-02,1.143842348896446579e-02,2.615755089600472864e-04,4.426049817061811291e-05,3.099418332222644520e-04,5.685302697813107015e-02,6.679493272945821215e-03,9.396334013669136245e-03
8.621911259456570276e-02,1.127055837493617235e-01,2.519595619241342399e-02,1.570036544869296904e-02,1.619370185461290607e-05,1.067572979714357550e-04,2.253027005258409271e-04,5.079724125381188810e-02,1.477963696814493105e-02,1.002038007230908294e-02
7.537553402945036674e-02,8.891567004002667862e-02,1.211577689793253559e-02,2.000045081423117502e-02,4.583270656531011379e-04,1.701414285638032701e-04,2.186958818353428990e-04,3.883565023661006421e-02,1.284103506600001166e-02,1.472335413331937390e-02
4.702321974965789630e-02,8.325091976688797635e-02,1.520754739121683158e-03,2.089955307132642520e-02,8.204188498481079610e-04,2.331418065589639004e-04,2.522062368727547455e-04,2.970732948566100207e-02,1.764875613968744719e-02,1.985046968254119623e-02
2.068650603449259662e-02,5.786164585228941587e-02,8.568559287902110036e-03,1.897119618544142877e-02,1.063756407848312317e-03,2.944755899018442662e-04,8.452479443937387007e-05,3.027169473715050213e-02,1.880410425249212647e-02,2.282551615412336046e-02
4.958518590931322405e-03,3.123719752275808115e-03,9.844344121703938258e-03,1.706373429653006493e-02,1.300312526936197449e-03,3.528793372551226534e-04,2.143962550174901421e-04,3.139058785890133652e-02,7.066958415809431945e-04,2.355494984551967722e-02
8.677961364561442327e-04,4.078727149172763078e-02,3.801349583485587411e-03,1.429183028346794546e-02,1.549851878388431095e-03,4.071396789216620462e-04,7.941865893046263396e-05,1.261832045173717429e-02,3.558985501113977323e-02,2.280091158273108223e-02
1.500917340137874513e-04,4.184455357458184699e-02,1.425361897000763066e-02,7.216697300057554540e-03,1.761325197901005913e-03,4.561227537462833191e-04,6.146395777702136657e-04,2.999720443534415609e-02,6.230011052551910622e-02,2.082758475778245452e-02
5.069360532966979763e-03,1.826367004530084562e-02,3.811269723753303584e-02,2.793952367741752135e-03,1.925883873992982782e-03,4.988016988664921263e-04,1.000173074065774815e-03,7.171534022109207762e-02,6.401018418664670973e-02,1.819858748708842733e-02
1.757317628289379804e-02,1.013530734501951087e-02,4.759365297444317910e-02,8.682178000919010125e-03,2.068244385973438439e-03,5.342815292876384060e-04,4.411148621507288928e-04,8.621568200006121674e-02,4.674296019333792906e-02,1.670461017846619142e-02
4.232779776721715126e-02,3.825229644717634964e-02,2.908653421418732135e-02,5.784639392368826072e-03,2.195624644016333071e-03,5.618208104284551233e-04,4.220553678889679434e-04,7.381090254385674898e-02,2.876556062734504648e-02,1.709907974735624600e-02
6.433915119377514591e-02,9.290157227326271971e-02,5.183283568843884657e-03,2.323312120158976639e-03,2.301161820720435975e-03,5.808496068395309180e-04,7.174307385797478375e-04,5.310674166119155187e-02,1.695977597070547765e-02,1.697684777855001936e-02
5.610422024498262772e-02,1.439773908300200911e-01,2.861197888228088348e-02,7.791467164425802672e-03,2.383472712231469743e-03,5.909832823892304920e-04,5.661114357214234614e-04,3.686547014980696285e-02,5.431319394816986820e-03,1.426183190873834238e-02
1.664387829495401344e-02,1.698394641081000245e-01,2.949534996404119813e-02,6.541219069106014340e-03,2.444938832101734537e-03,5.920318293007645859e-04,5.294765923582208213e-04,2.578535940101923246e-02,3.964323184584392541e-03,1.133739718627745433e-02
2.095803937784478446e-02,1.775413288669047407e-01,1.729212399974663222e-02,5.025909082033675705e-04,2.491638932372842140e-03,5.840045129357755065e-04,6.741369557878464222e-04,1.700957207045291145e-02,1.336480116815984102e-03,1.193484202946331479e-02
3.290153159328613325e-02,1.770460849127379055e-01,2.173934664878010049e-03,6.755467516466218993e-03,2.534874129730137985e-03,5.671097333635889259e-04,7.559443970956807035e-04,9.359640342083860171e-03,2.467249456678818897e-02,1.528379614302827552e-02
3.203459173810860317e-02,1.566155380979685485e-01,1.479120771105009620e-02,1.346931921226384929e-02,2.571499376815695927e-03,5.417501207836727993e-04,7.347190245301720530e-04,2.775336117940577219e-03,5.492860061189475118e-02,1.682639177941351247e-02
3.817206390882156575e-02,1.156371078522536039e-01,3.103990506966637641e-02,1.877186815222041047e-02,2.580633819481339269e-03,5.085129970254667706e-04,7.218502193220414399e-04,2.887957826365766204e-03,8.256331286972926065e-02,1.440658302431961635e-02
4.503621216592582077e-02,9.119758629339756728e-02,4.069928372376337145e-02,2.190236239092468659e-02,2.574612322068587505e-03,4.681564468454376673e-04,7.368449701209391555e-04,8.652338970553860240e-03,1.054393859461927180e-01,1.148553833702514217e-02
3.747034762648016742e-02,1.118596854725631834e-01,4.601228514699586686e-02,2.369638715462374368e-02,2.606975019601388745e-03,4.215913478754646773e-04,7.275475369685855277e-04,1.586385797490442312e-02,1.201946124559824386e-01,1.291312605788333748e-02
2.221074473327103518e-02,1.548549854578568918e-01,5.302127182053575916e-02,2.555853791416090592e-02,2.659384450521487184e-03,3.698598043453213023e-04,6.843944496589921770e-04,2.358050792951672109e-02,1.213253215667304541e-01,1.726578175427622569e-02
1.968479510398013499e-02,1.881874169134267194e-01,5.342186594845101111e-02,2.508564640845568558e-02,2.621385735926567463e-03,3.141105148320633058e-04,6.324006868594401771e-04,2.812366948583246845e-02,1.059422294179619556e-01,1.566897331961514608e-02
3.960816980722479952e-02,2.203742724511283668e-01,3.088122724842760902e-02,1.699651483174939581e-02,2.533281888439657854e-03,2.555716762719080037e-04,5.775485692168960510e-04,2.758739240910258045e-02,7.255887461943415218e-02,1.642187842095817587e-03
7.996248475065770300e-02,2.651799078704426549e-01,1.045655479650840769e-02,1.708182886400558135e-03,2.638523345687834518e-03,1.955220836200425878e-04,5.098534024183538470e-04,2.538338081959020179e-02,2.473134816831639923e-02,1.977856919093090235e-02
1.344278200505494569e-01,2.941033948413503407e-01,4.559917365156272023e-02,1.165707802790171693e-02,2.869274614822133092e-03,1.352611255469167396e-04,4.284633871742443462e-04,2.620484835368393911e-02,1.996442522710075579e-02,3.755341162529099441e-02
1.872133967267009258e-01,2.711382436682080455e-01,6.046327195212852779e-02,1.493993409520213977e-02,2.662480255761487564e-03,7.607840049878367215e-05,3.404801039790036226e-04,2.865876082270279665e-02,3.885344992303443185e-02,4.657993028923705647e-02
2.149948080712735798e-01,2.050709511386418771e-01,6.252336085455119374e-02,9.518784020530293363e-03,1.894841746441941000e-03,1.922368382073574259e-05,2.491314545961002759e-04,2.542723470033164332e-02,2.843039617929820143e-02,4.869696222507722411e-02
2.094547772195189395e-01,1.307429638618531897e-01,6.026692220103534170e-02,2.133256377912428389e-03,1.435553324393387805e-03,3.412203463754498499e-05,1.541123774090202999e-04,1.202182452002122613e-02,1.026204936963084034e-02,4.629864866853543315e-02
1.891691457484246108e-01,6.754221988159564427e-02,5.341550302080991242e-02,3.519964100056368131e-03,1.922012572136437471e-03,8.287375159218893477e-05,5.705380235407071354e-05,8.868789027853393389e-03,7.659949669815580703e-03,4.162695932427259993e-02
1.756439256384758341e-01,2.473298719903024509e-02,4.197280709785470437e-02,8.046235739730053793e-03,2.714918848614624944e-03,1.260672443474193845e-04,3.864766464484598030e-05,3.353001608144048906e-02,2.037873056579458247e-02,3.822359178499627058e-02
1.660002187753671088e-01,1.659655832513070792e-02,2.835160762315351926e-02,1.244458755751755817e-02,2.943344635726637647e-03,1.628808725422058721e-04,1.304718403507834309e-04,6.059323583952939268e-02,2.676326160696221659e-02,3.714814599797842953e-02
1.435232209932969794e-01,4.206896715546758203e-02,1.282916489809875042e-02,1.592718125538396604e-02,2.728896256810298473e-03,1.926538767471960433e-04,2.168060541788618067e-04,8.528463287256125847e-02,1.227146114001496230e-02,3.528342337375907356e-02
1.070914891657712975e-01,7.226658107011003918e-02,2.595739303876127939e-03,1.681950466243813461e-02,2.633008184469100635e-03,2.149007493970515946e-04,2.957862355350531348e-04,9.950707711076539619e-02,1.036954709245027119e-02,3.139782371459937799e-02
7.664441105735364523e-02,8.147686629118952584e-02,9.842073731612856896e-03,1.406654435552838651e-02,2.722471595776964834e-03,2.293213497762158532e-04,3.653440832113548841e-04,1.013927418996747598e-01,1.812577305449201981e-02,2.943348263037003781e-02
7.487652285446430578e-02,7.237418514179268236e-02,1.834691188144549692e-03,7.589575693885019202e-03,2.753447922353307892e-03,2.358065385221237839e-04,4.238183273899418847e-04,9.661809552210462448e-02,6.243734264224972547e-03,3.200235527321945717e-02
1.073391002297853364e-01,5.805320840089506912e-02,1.898286298542146977e-02,2.123142897838588804e-03,2.685004415497376472e-03,2.344392158376165745e-04,4.699971232847540890e-04,8.883013409538695337e-02,1.733773093451027036e-02,3.542513301878467274e-02
1.504088060280427963e-01,3.901054352761813143e-02,4.250787257988375423e-02,1.344549037938462359e-02,2.626721822521592333e-03,2.254907586734158768e-04,5.028854722424574942e-04,7.671128137998305119e-02,5.460502307205657158e-02,3.500089262763091125e-02
1.631510002085266309e-01,9.047004727403645113e-03,5.807182981405146355e-02,2.249947807741612890e-02,2.597860919878776896e-03,2.094129628665212628e-04,5.217338535352356813e-04,6.119518550597150691e-02,1.071804927284573106e-01,3.094580032628015814e-02
1.288064452781048086e-01,3.042891305667620033e-02,5.943052902830732453e-02,2.497707102784191974e-02,2.547730931990513197e-03,1.868257039357887025e-04,5.261776171513215432e-04,4.827778185335349775e-02,1.531783530871993759e-01,2.635008802481385304e-02
7.823255668135085938e-02,7.290144232878710551e-02,4.708880064458444148e-02,2.034563810281548105e-02,2.464460658568041161e-03,1.585006323601543155e-04,5.162257889932112985e-04,4.228049852464317582e-02,1.643226961290756849e-01,2.268675508500260854e-02
5.233317607538568589e-02,1.146484306003216630e-01,2.726846312872414219e-02,1.221865722879259680e-02,2.366635472594445962e-03,1.253413132621051444e-04,4.922050591785925898e-04,4.073404663845240498e-02,1.402751092721028214e-01,1.888870829958085029e-02
5.054663506038468979e-02,1.477115271601201207e-01,7.906457982283980265e-03,4.073853802632642317e-03,2.261509578361486396e-03,8.836030425689630336e-05,4.547998806110680413e-04,3.834577816629915203e-02,1.040357959535326005e-01,1.305289430191097430e-02
3.996203347729034711e-02,1.536907382077000728e-01,5.000756421820223147e-03,2.797406952790284281e-03,2.149252407741326313e-03,4.865373683104114465e-05,4.050582128288012645e-04,3.299843760960904926e-02,7.161662770312188231e-02,4.931039334922443854e-03
6.723654720302497251e-03,1.242472637185598888e-01,9.615381871731665253e-03,7.396015118665127779e-03,2.022955671028977068e-03,7.374024309084959970e-06,3.442564041746685923e-04,2.559632815023559285e-02,4.323749826649971040e-02,3.001415155927618806e-03
2.934320950968622929e-02,8.238312305844155969e-02,9.281912948751878945e-03,8.711656768439147297e-03,1.864401084734335339e-03,3.429863807518391953e-05,2.738595505677197733e-04,1.679386149549201221e-02,1.652055698689746180e-02,7.958855876826424758e-03
4.994410957508657600e-02,6.211799218934860312e-02,1.063797395355814933e-02,7.687533272651350148e-03,1.685862253297454403e-03,7.518528922651119585e-05,1.957197745229089848e-04,6.645926967052942849e-03,6.512521079801924032e-03,9.906153234099360563e-03
6.207325655227662053e-02,6.919393133453627387e-02,1.838172234213347744e-02,6.642685407666522671e-03,1.538480943513132262e-03,1.141370330791974166e-04,1.120316122741730786e-04,4.205598941214483584e-03,2.388341455390830328e-02,1.089055054197436874e-02
7.873713946794973217e-02,7.740793516995282675e-02,3.021138091774297485e-02,6.377289631104597796e-03,1.403506722641281127e-03,1.500629904765030760e-04,2.477431106233494120e-05,1.494377891751990338e-02,3.662375029830845785e-02,1.203483085146719520e-02
9.432164534887158003e-02,6.237815654217843814e-02,3.764574824871540909e-02,5.789715303527356860e-03,1.171937409915843956e-03,1.819567022755334796e-04,6.434375159988826051e-05,2.496804026483203168e-02,4.635259793503587050e-02,1.279096809151569585e-02
9.433172905714264089e-02,2.997937362056230307e-02,3.503986396861134833e-02,4.373253343275670599e-03,8.853622900825422947e-04,2.089203540286967652e-04,1.528519338830938126e-04,3.357935828987618221e-02,5.310673076712521534e-02,1.275389573830695150e-02
8.208291659366639959e-02,9.933761422526495716e-03,2.771153670765018340e-02,3.230778716784767947e-03,7.883630148877095959e-04,2.301862476971331577e-04,2.375409627923430629e-04,4.087983713030514388e-02,5.603969964631082962e-02,1.250894544370703687e-02
7.763598033252785968e-02,2.183698002593979434e-02,2.587479098473623174e-02,3.184188876258829941e-03,8.149785821282071316e-04,2.451350145581381729e-04,3.168383072118474914e-04,4.791522527529653436e-02,5.498835957904701227e-02,1.250459702987516061e-02
8.875901844748688985e-02,5.142193241338327558e-02,3.038049013182323940e-02,3.492285824088248083e-03,4.046877933952469988e-04,2.533101440682024893e-04,3.909844624970682946e-04,5.420065086822106054e-02,5.113612329057130867e-02,1.242159955091179033e-02
