2.885220670771963467e-02,8.593053505505952872e-03,1.034566495570519735e-03,7.922411344597658431e-03,5.235602676318233412e-04,2.076508609309207602e-03,4.888568167374362020e-03,2.815365441070787414e-02,2.678306806856416145e-02,3.135241908481582740e-02
3.774636461746398025e-02,1.467539963234523737e-02,1.061678978587357429e-02,5.306018502528462438e-03,7.232455755217739738e-04,4.164846151344178335e-03,3.147095621324854514e-02,5.819756442443816541e-02,7.134914757941894156e-03,1.256729160449597538e-02
4.665775021233119907e-02,2.150533477853054654e-02,2.198926613492130366e-02,1.262354752173422976e-03,2.960615029717457870e-03,4.040233726777782766e-03,2.338998739532702903e-02,6.151072444722315707e-02,2.611467789943831396e-03,7.282204577665297128e-03
5.604683557856986187e-02,1.200398130834097118e-02,2.805891152311332237e-02,8.799667134299099134e-04,4.497503212138628630e-03,4.090313973220339322e-03,2.338496505717751334e-03,4.749343296375008183e-02,5.027529897216166145e-03,1.527470545400814311e-02
6.852814044574843944e-02,8.334013451123137252e-04,2.655636260517824782e-02,1.112289660287783463e-03,3.820180950110088972e-03,4.417778996538240625e-03,1.970848937240142137e-03,3.069976452316729165e-02,2.132753953355473464e-02,3.380122163028306814e-02
7.563721120091056183e-02,1.785546322770643901e-02,1.963078634125435193e-02,6.188204476967635627e-03,1.547328484843028297e-03,5.116546606850766281e-03,2.345354818929733937e-02,1.526101142469996411e-02,3.110898768211136159e-02,5.109472745748438322e-02
6.080592220233486944e-02,5.013407600478680254e-02,1.187442959233454311e-02,1.047370860733085919e-02,4.409945481598190765e-04,7.366677435633588525e-03,7.828225749083202178e-02,5.897573726642454895e-04,2.515830715519641950e-02,4.169325869724158085e-02
2.626504202440490751e-02,9.020545803753743375e-02,6.415916491735271232e-03,1.037712639703242817e-02,1.382208497263383686e-03,1.046867982212468240e-02,1.448246452045338639e-01,8.382465164641203850e-03,3.923768600427581139e-03,4.872636133517418110e-03
3.024287230639510597e-03,1.127500726534803321e-01,3.396721028302331080e-03,6.227341791691447595e-03,2.033268805607861638e-03,1.143546905209158991e-02,1.891310249183902337e-01,4.817661402746007543e-03,2.772812475414981187e-02,6.046639703596634607e-02
1.373055384649059935e-02,1.054376169246272754e-01,1.528594538632671107e-03,1.586614999385644416e-03,2.818034121357922920e-03,8.758877061941365214e-03,1.928355473256888886e-01,9.704310708997319901e-03,6.515615120799150839e-02,8.966192022241614712e-02
2.053397680833265321e-02,8.050597395182650107e-02,4.216836183596698456e-04,1.525611065869130964e-03,2.704565965330922323e-03,4.115359105135321313e-03,1.710342731365651348e-01,2.487206789598813556e-02,9.993436698421548359e-02,9.297154751035119347e-02
3.805997773026934677e-02,5.494967080959115013e-02,3.364190765830660582e-03,3.859280844071283877e-03,9.794505395167634951e-04,6.107730521527559111e-05,1.409864170127404503e-01,3.214196653437301904e-02,1.163146273726907570e-01,9.189404941571956142e-02
5.956685765354474693e-02,3.188258770461247643e-02,6.705815450156926878e-03,5.163155949924863597e-03,6.525218475096059879e-04,3.100512798529415481e-03,1.005669944775736679e-01,3.070737941460544712e-02,1.046823894269027083e-01,8.604260181575779098e-02
7.397547338902743519e-02,4.667450643684373235e-03,7.493129146671759222e-03,3.723195105121641750e-03,5.479263516982691795e-05,6.157977371559735479e-03,5.874498778856752229e-02,2.148847167961175433e-02,7.986217714615395646e-02,5.860658791301658066e-02
8.262234726812632546e-02,2.710688764128905970e-02,4.351034361665786013e-03,4.441563112065330041e-04,2.292130747797246730e-03,1.015705171584673633e-02,5.224550162601639819e-02,3.585204339385421931e-03,6.940464329105658359e-02,2.039547399965159838e-02
8.802644753733537830e-02,5.319494151026822604e-02,2.422895285046003724e-03,1.362242722437534328e-03,3.038586003392337864e-03,1.356436597745676667e-02,1.006738214819985766e-01,1.825668469114446330e-02,7.708390246448489080e-02,1.598475474766930179e-02
8.312976975214335373e-02,6.489318150459658097e-02,8.886569193683630311e-03,6.817389420512513353e-04,1.118899721978262787e-03,1.346751104439553384e-02,1.684078579973577461e-01,3.429733295578667879e-02,7.576119664081283622e-02,6.839838337404470503e-02
6.217557144163533139e-02,6.304009251515274581e-02,2.181958291804528965e-02,1.268614516824361242e-03,1.916691268303266421e-03,9.621874945785086411e-03,1.968486865886915904e-01,4.392292599595205155e-02,4.657091334159797757e-02,1.355494010906611035e-01
3.200570509647519823e-02,5.066732960604821562e-02,2.940694089064557759e-02,4.977605764321831917e-03,4.362443689705440900e-03,5.336633804808183119e-03,1.625834620734299962e-01,5.314268739939681518e-02,7.540635056327659944e-03,1.520418484111226431e-01
6.926312331161059953e-03,2.995953182709599344e-02,2.335873129676667437e-02,1.162516446876852953e-02,5.803996877458028614e-03,3.367988299985086829e-03,9.402186928346038808e-02,5.397191029141170521e-02,9.499141944973098911e-03,1.097287894326841595e-01
8.947165420050383344e-04,1.116192397591381051e-02,8.142869853591395979e-03,1.927626001751845536e-02,6.393656655762862580e-03,3.331821965147457616e-03,4.648990565727866009e-02,2.894081229892351767e-02,4.049434487627984192e-03,6.516456155089624114e-02
1.476198447399897605e-02,8.225480474986043844e-03,5.895960193152583774e-03,2.434011939755995058e-02,6.149504118647866786e-03,4.042884842767322136e-03,6.303366980884977933e-02,1.835822755687483224e-02,3.083317688130387743e-02,6.631239226208578141e-02
5.026297184474354252e-02,1.931825974534264259e-02,1.316671382912318507e-02,2.577732483687468490e-02,5.111132905280681149e-03,5.678837850079648981e-03,1.342513205613361238e-01,5.958676014544062038e-02,4.905913894349250848e-02,1.023469745026115707e-01
8.802479023981636674e-02,2.820883507531391290e-02,1.335415779864670971e-02,2.494566028614766257e-02,3.432783095378880156e-03,8.147715704224385222e-03,1.938861850055246527e-01,7.390217948281078975e-02,4.625366419077327901e-02,1.331363049247026031e-01
1.046634633329112662e-01,2.969035140118990446e-02,7.498635212402629362e-03,2.252127164847872454e-02,1.087315481920630511e-03,9.605850646392521952e-03,1.862653736070374044e-01,6.757049753342060650e-02,2.060934224650984303e-02,1.403822031522928560e-01
9.006787941437313649e-02,3.590142940325463661e-02,1.003204596758042232e-03,1.818414853550916199e-02,1.786478934573572592e-03,8.639403756102559395e-03,1.393403465865608315e-01,5.982427789172484189e-02,2.033438204271447586e-02,1.311131145460093239e-01
5.612802461441072227e-02,5.073593512742255451e-02,6.489894098859198129e-03,1.279784894183905349e-02,4.114843533154236878e-03,6.301611868456855406e-03,1.287204118390473107e-01,6.157337014682481152e-02,6.086432060211807021e-02,1.094524725347653521e-01
2.484941980759286170e-02,5.307069272862660614e-02,7.432500567780042471e-03,8.320746279766259162e-03,4.688503040181949896e-03,3.882990088198358999e-03,1.690118243595593317e-01,6.927985068538927704e-02,8.155551367074249935e-02,7.153763468279969451e-02
8.784138966140418031e-03,1.729277196713015219e-02,6.726168987908951943e-03,5.274071300535821891e-03,3.672170685663692265e-03,3.999261588243493894e-04,1.960302482632749754e-01,7.201560683900586068e-02,7.093977199699430525e-02,2.410061944459198496e-02
2.496650964883839058e-03,5.314412906507387513e-02,1.740752614443860950e-03,2.922982283119132489e-03,2.012114525599087000e-03,4.950521007127743969e-03,1.616203995333074517e-01,6.318739169707771053e-02,3.520937781169446168e-02,1.524693369225128305e-02
5.945354527593016934e-03,1.218914415972179172e-01,1.558745663132563714e-02,2.353327518670032380e-03,1.015805140776816957e-04,9.728192069581999973e-03,8.758335183194412843e-02,4.874631513096183699e-02,1.029178625489737472e-02,4.038964100538527946e-02
1.650125631711332058e-02,1.523296286811105515e-01,4.360131037152221306e-02,5.876854639135028688e-03,1.920250716697769573e-03,1.148794899070726058e-02,2.018627833631922441e-02,4.249296875010667024e-02,5.657219407504383846e-02,6.221010551359013041e-02
1.744053843914274149e-02,1.372643993314375255e-01,6.724083083371006075e-02,1.254351761685004382e-02,3.922882989699935652e-03,1.252535314511408517e-02,1.671995841643848443e-02,5.020756701055536370e-02,9.771465581396487909e-02,8.533409756788296052e-02
5.222443192879042823e-03,9.362393813588615332e-02,7.433642611761069607e-02,1.785094628884552337e-02,6.158514857456481167e-03,1.677407081707812248e-02,2.214819562013649323e-02,6.165280406010342773e-02,1.196002063898338741e-01,9.518010880349821179e-02
4.852141300521174705e-03,4.099008730619747853e-02,6.507126834327160714e-02,1.863566181869262886e-02,8.238807646311376714e-03,2.275148916363428642e-02,1.251027952508494689e-02,6.188319621573478563e-02,1.091921119602719537e-01,8.074263683601247410e-02
6.131835749454688823e-03,6.443573761276827350e-03,4.344126705214667455e-02,1.533881375928110129e-02,8.497414737282122515e-03,2.425108786951999523e-02,1.580240051087434400e-02,4.690579270285541447e-02,7.257067601392067080e-02,5.772116258729130533e-02
3.762455743237560352e-02,4.140599116229269627e-02,1.298588140646091994e-02,9.802107904222713206e-03,6.375563546819442914e-03,1.868947224396350429e-02,4.751543448168409761e-02,2.571222209545814472e-02,2.855638249660143180e-02,4.931657648904796964e-02
6.874707783742177447e-02,6.810263992325650551e-02,1.505274749139920779e-02,3.670856696266935719e-03,4.103338324018272060e-03,1.127319242245819648e-02,9.419667189653593842e-02,1.072700655174857638e-02,1.277875272041988260e-02,5.225983677804021954e-02
8.307586743099434901e-02,9.312731758614981037e-02,2.431034138361566274e-02,1.204005325596388355e-03,3.866608932362070906e-03,8.964607161876355507e-03,1.301668788231798990e-01,7.777321008075803281e-03,4.881588150428996936e-02,4.574327467856243584e-02
8.401219410947309563e-02,1.070721976870105951e-01,1.333030478693848775e-02,2.919415764494056893e-03,4.803261380104582000e-03,1.236952326705787787e-02,1.439022731743728467e-01,1.303046604130384499e-02,6.782917483148299953e-02,2.758584341427433931e-02
7.698169272371524485e-02,9.292945818474811215e-02,2.585871523856941336e-03,1.212837555192496607e-03,4.755299191645104458e-03,1.638201342991899012e-02,1.438697426070622287e-01,1.848580270775991574e-02,5.806796102250509628e-02,1.777607905605499417e-02
5.405474294553468118e-02,5.663266825347698652e-02,1.158815588544531185e-02,1.003746793895568448e-03,3.146136998436598487e-03,1.754195202980152191e-02,1.483836547891125568e-01,1.778394785706200604e-02,3.189639319123048489e-02,3.250055252752174356e-02
1.550232668227298320e-02,2.796610361452937094e-02,3.541261291356172236e-02,8.762882392484027966e-04,4.305063229831994045e-05,1.679500338449398805e-02,1.724576037858480126e-01,6.039429542553344937e-03,2.004080741754815653e-02,6.991649470572268432e-02
1.334018403439595456e-02,2.570563642887734382e-02,5.178347226917401347e-02,8.517621871616861545e-03,5.308338493249961827e-03,1.519964724762713423e-02,2.115911034109832223e-01,1.711701738845072471e-02,4.158555713758244760e-02,1.102858864432743197e-01
1.207225634634823998e-02,4.026527708706821584e-02,4.653143868486777496e-02,1.787286018418807881e-02,1.212373157142544559e-02,1.142294595949585288e-02,2.379840053650046361e-01,4.020587514895440640e-02,8.710545306021763579e-02,1.265483218560154166e-01
5.670548110546207686e-03,5.241061005642332071e-02,2.548473717038990394e-02,2.269449301200683264e-02,1.635709040713874407e-02,4.967112477131301572e-03,2.296633241866461173e-01,4.772732182130617895e-02,1.250700836684697503e-01,1.139082869051387253e-01
1.526639781153535033e-02,5.215085730690557919e-02,4.708382750749827428e-03,2.072569199243409072e-02,1.453051192293102964e-02,1.407843813474641149e-03,2.026878406176592373e-01,4.133774575491833136e-02,1.271242004438322415e-01,1.045803858013776150e-01
1.594024023132773957e-02,4.131980946813766653e-02,5.278231196677867117e-03,1.508011976903757614e-02,7.966823827003083683e-03,4.654651208505701521e-03,1.978549462593794384e-01,4.108979127614553056e-02,9.843485295265747004e-02,1.294485430000384962e-01
2.262276169132064474e-02,3.036470015841012671e-02,6.809900891869157327e-03,1.029458692665852389e-02,1.226406915639524035e-03,5.090489011319198308e-03,2.347007686952803929e-01,5.941405413359421295e-02,7.567118065765462975e-02,1.730846496192511852e-01
3.503368085684111649e-02,2.386751700780708266e-02,1.009588060348988979e-02,8.542184702723889037e-03,2.364732926253648466e-03,5.107554075273693789e-03,2.857855574035623181e-01,8.302024632135952820e-02,8.255939930134027771e-02,1.913154474565457452e-01
3.489670143734129037e-02,3.040836573921257627e-03,2.132011682536164021e-02,8.488181450303762185e-03,2.625513619859116618e-03,5.407765072274639540e-03,2.970508649369524301e-01,8.635581867933289635e-02,9.903959130459166760e-02,1.641938283751562533e-01
1.638249790213196569e-02,5.451409159369319940e-02,3.535341069772580946e-02,7.286480165804739423e-03,9.675691933384903375e-04,4.856235237726634797e-03,2.407570224219943156e-01,6.073529113555010961e-02,9.132092146680914624e-02,1.077776478316686271e-01
3.979474143936605895e-03,1.300500070273186426e-01,4.026019230682219285e-02,5.236217788229371138e-03,2.065272908402630836e-03,3.584692293609090599e-03,1.520034755699331275e-01,2.682916235414085915e-02,6.196723063909428258e-02,4.626544728290151592e-02
2.154160457992968306e-02,1.704088052132619602e-01,2.825535682641414428e-02,6.300159139195322423e-03,6.805823016936383626e-03,3.601148305093324065e-03,9.509194542779317305e-02,1.275213565951105292e-02,4.614358601329360959e-02,1.163814052286132883e-04
4.982761821696126553e-02,1.500710977443643068e-01,1.638468128196339958e-03,1.171454124809259700e-02,1.240877374418172460e-02,6.031096471958020955e-03,8.680428251378773108e-02,2.045429092986998654e-02,6.052174768480833578e-02,1.422201532640035224e-02
4.531739846810948352e-02,9.586505201132541898e-02,3.062207405830060652e-02,1.800174053028892260e-02,1.720830555004948526e-02,1.004553407430578034e-02,7.972775107083295010e-02,2.615807778921671461e-02,8.202452176527935679e-02,7.779741149925422511e-04
4.380472132080555532e-03,4.524282917513796493e-02,5.746010899945203088e-02,2.337885854028784460e-02,2.100969025423687561e-02,1.458874602100848628e-02,3.400192120356222703e-02,1.488073109019696569e-02,8.129813770291773045e-02,1.565771401077573760e-02
2.741080312594018284e-02,1.285009794902640737e-02,6.492811140101274747e-02,2.820805422310987756e-02,2.357893498844315303e-02,1.855777737627897772e-02,2.702254226528160233e-02,1.792649650323114695e-03,5.012359005485059193e-02,9.259487109873131699e-03
1.896800740720122960e-02,1.732503221152879684e-03,4.040150197110644464e-02,2.772457129358071176e-02,2.154443751277868718e-02,1.941846899965854120e-02,5.843571931698621214e-02,3.911615720787684110e-03,1.066333401895899410e-02,7.256856176208422750e-03
8.464094141312793196e-03,1.496282369694647979e-02,1.227244461807142778e-02,1.563690331639136857e-02,1.206047985132928206e-02,1.494641387635609574e-02,6.642618145712238242e-02,1.523109750551773084e-02,9.590595939314225382e-02,1.404502345393859181e-02
1.804005240157304651e-02,4.484627163711291109e-02,6.837049856706650663e-02,2.817370171971186887e-03,7.908718992430908631e-04,6.736586921493380002e-03,1.009524082249427801e-01,4.596214054166611329e-02,1.750798163759746950e-01,7.760598677116859606e-03
3.921296647284883141e-03,6.869265704086406632e-02,1.030084918761679930e-01,1.353942571205873913e-02,9.336818776921253227e-03,7.409927072396282942e-04,1.771394011643981359e-01,7.241470919485207269e-02,2.036553931484193225e-01,8.405886140907269793e-03
1.066947801879938006e-02,6.740795500582343058e-02,1.114619147101031382e-01,1.164015653389989524e-02,1.185664962941240103e-02,4.530159530933164369e-03,2.403158422849034637e-01,8.715343209537439184e-02,1.753793626679955586e-01,3.515634156223786111e-02
8.781935262241219453e-03,4.519437122816899466e-02,1.043441784252286814e-01,5.793637843775461746e-03,1.272490272915633922e-02,4.641942543678915720e-03,2.325964272155857937e-01,9.345085332138709788e-02,1.337900701853003138e-01,6.397874418876925429e-02
2.523141522003323825e-03,2.325277674772632808e-02,9.063280857349112485e-02,3.465321618365667638e-03,1.362719180299123284e-02,2.418125469384542654e-03,1.718616479839834288e-01,8.861039971381860780e-02,1.173247545152657917e-01,7.049342085633369948e-02
1.332253549947275129e-02,1.099005472197123884e-02,7.104130938442135279e-02,2.334277430398322070e-03,1.126026352181331257e-02,4.142196941491029568e-04,1.254382433147689657e-01,6.120623567951442162e-02,1.174044246573619221e-01,3.271949921347075407e-02
3.130339271260546008e-02,7.498493188944984830e-03,4.367222511827979076e-02,1.749125118555810814e-03,4.493401187735270204e-03,2.521251647289077333e-03,1.166199154341349548e-01,1.831772041514805743e-02,1.013755556298671090e-01,4.751328932832472179e-02
1.831055370426021636e-02,4.824379773888497897e-02,1.031282822437375006e-02,6.602554770416222199e-03,2.014405924161717567e-03,4.340416887275449880e-03,1.096763209195052990e-01,7.552148345830594044e-03,5.770477571609106821e-02,1.393210823572056112e-01
3.332706548414757913e-02,9.681169494969581180e-02,2.355361279206023492e-02,7.118345403264576127e-03,3.651236994523279680e-03,7.058575537238800414e-03,8.630984722402636200e-02,1.811671815693825793e-03,6.153797266031272445e-03,1.958980876919294289e-01
7.262250893693936171e-02,1.188703084278530664e-01,5.060383789364567703e-02,2.842522847170090260e-03,1.487589493748513528e-03,9.683769753745737757e-03,7.756160836613212872e-02,2.629812348942042743e-02,2.829463276985796916e-02,1.867679073989674532e-01
5.205534981865563710e-02,1.006981121340580071e-01,6.345537896684425028e-02,1.142542844058277995e-03,1.378272081677945054e-04,9.696505730486679187e-03,1.039720612533223260e-01,3.926646261507119734e-02,4.211852986942658805e-02,1.292806410928148686e-01
4.814919085048502932e-03,6.570161983107979109e-02,6.193049812785603181e-02,7.064315372067541104e-05,1.143054794016464242e-03,7.261364227254527015e-03,1.279465084830397892e-01,3.810916248391493094e-02,5.240901946752379165e-02,7.445384322148036749e-02
3.978658506877594953e-02,4.668243312374431575e-02,5.711697156096515182e-02,6.162723049597451305e-03,4.520197659005883821e-03,5.802180788309812924e-03,9.692558596714576091e-02,2.861709779895231162e-02,6.775252607528545190e-02,4.897754462425314009e-02
4.351360949890786117e-02,5.088009513739310402e-02,5.838078721446805786e-02,1.216116668595262559e-02,7.786887134933137729e-03,7.109740486047498066e-03,2.449276616842047463e-02,7.267070914820045711e-03,6.791690034024321088e-02,2.996221635077598797e-02
5.050416641748348145e-02,6.010030550720237702e-02,6.153022553099378456e-02,1.436275287154344278e-02,9.320884366640981231e-03,8.703098026441815141e-03,8.642309944329957042e-03,2.290228731273954987e-02,3.354721803485213177e-02,4.621550089495975178e-03
6.771097583143952103e-02,6.201787128178301578e-02,6.005165762720612865e-02,1.503769519069025028e-02,9.331671659507944500e-03,7.797783662565962136e-03,4.300200375660041124e-02,4.531863844459020629e-02,1.032752860949091508e-02,2.199507283240379266e-02
6.655673843256267042e-02,6.817316812802011461e-02,5.640519524025707637e-02,1.845671682618933718e-02,8.952114460724752351e-03,4.996875387246014349e-03,1.260895697416486438e-01,5.690677723002521282e-02,1.954065708823161246e-02,3.102923098661708456e-02
3.855052928689098324e-02,9.001424562244504657e-02,5.180519327716955752e-02,2.332999270852698787e-02,8.127854325086737372e-03,1.594604456630088892e-03,1.666949468924407984e-01,7.619159220613061501e-02,3.511414063124309844e-04,1.396931292281720638e-01
7.478997912413172175e-03,1.058919134441384108e-01,4.031605795389544417e-02,2.393731957400688920e-02,5.725396810131859818e-03,3.745788380647411056e-03,1.650769540760122778e-01,1.088629591269192204e-01,1.797203024130609225e-04,2.145256135245621198e-01
1.087618033396497291e-02,7.498300772886069832e-02,2.125224611168225267e-02,1.784625579734193390e-02,1.383071639979462260e-03,1.210343109623784018e-02,1.618039064662875892e-01,1.322699346234897377e-01,3.125781378336133648e-02,2.001962269002690031e-01
2.283104437835600450e-02,1.075946922642690741e-02,2.951007459755028168e-03,8.164582145808835581e-03,3.981015027085058229e-03,2.039220075922074452e-02,1.562396194550425554e-01,1.270572621283780068e-01,4.621669934967960469e-02,1.452900285592202967e-01
3.575942452654853887e-02,1.084929432504495028e-01,7.964806647298509554e-03,3.695557446323861146e-04,8.629761550595450859e-03,2.396859417479269352e-02,1.165019332931605117e-01,9.803674644130322413e-02,1.341487714308028066e-02,1.205010600617460181e-01
5.097165084033769555e-02,1.672465865630739790e-01,9.931165282822224452e-03,4.535874358634995468e-03,1.039868593935970587e-02,2.169218225813947243e-02,4.262299430463523109e-02,5.495202063802130665e-02,3.607616706635562165e-02,1.175263416755402551e-01
7.040421560932094702e-02,1.734509249236155792e-01,2.797172860584342183e-03,4.043464719072045917e-03,8.426911134564596048e-03,1.587658561863330292e-02,2.666433290756680882e-02,1.583529920909311668e-05,6.064414323299860410e-02,8.759765193061909427e-02
9.105199647331380097e-02,1.483407476680862203e-01,1.171291605611709738e-02,1.817945700214707895e-03,4.850730537750740784e-03,8.926475618501576031e-03,5.823999165335716488e-02,5.418713464390990941e-02,6.571772660043523340e-02,3.312496890020351359e-02
1.000892116917631164e-01,1.161079901270755249e-01,3.032251729958750433e-02,1.499659271329925950e-03,2.845143561215630890e-03,2.077088729526373276e-03,4.773619254449264215e-02,7.946462448095692466e-02,7.958206167965337086e-02,5.269769261054536164e-03
8.803475222736091566e-02,8.446980249360479254e-02,4.995780404198461866e-02,4.193301386960435889e-03,3.237173776016245060e-03,3.779174864654536933e-03,8.984772708047608636e-03,6.252240909651174405e-02,9.719463498049797645e-02,2.163960269728952557e-02
6.108843637000142823e-02,5.126696393623465797e-02,6.556153972762158999e-02,8.438437488728465705e-03,4.874803981839883303e-03,7.574415723003803669e-03,3.518302055670022299e-02,2.486452047760545278e-02,8.816154444283129388e-02,4.794350259096726019e-02
3.184265441904676752e-02,2.067760009032937676e-02,7.085893080638300257e-02,1.292128197350295854e-02,7.377849342125880269e-03,8.599681114405231461e-03,5.604058336910559823e-02,4.820381912216850986e-03,5.655056984490287875e-02,9.750784447013118028e-02
2.921025292110295424e-03,2.889698979240747524e-03,6.547768313747767688e-02,1.781228950985925402e-02,1.128178692795415473e-02,7.468611780387086549e-03,3.669872966673375092e-02,2.477620792254648166e-02,4.927518928824922012e-02,1.415908904221261921e-01
2.866746818654898957e-02,3.968553021333516215e-03,5.707189132867845904e-02,2.211659270859048926e-02,1.573852573491076740e-02,5.930367297762069098e-03,6.872381712464872144e-03,4.755769794975243242e-02,9.066528373936809382e-02,1.414539869121512194e-01
5.511660105938866183e-02,1.769512467919052978e-02,5.352454682017047244e-02,2.167325432277946232e-02,1.808303596551698311e-02,5.303580723324324495e-03,3.732322301607110537e-02,6.620410388117183020e-02,1.466577045778608701e-01,8.768373211715389803e-02
6.433429076902759391e-02,4.783958535958540009e-02,5.448027279055035060e-02,1.405299278678048477e-02,1.644892211510287638e-02,5.712509394243302230e-03,3.592547419947807880e-02,6.023552364813780646e-02,1.726299595539265708e-01,7.164296002669446814e-03
6.191192673224067688e-02,7.907241873894700623e-02,5.214910078237686153e-02,3.417980916671918643e-03,1.152390185987935654e-02,6.895506259183735269e-03,2.135976081370566382e-02,2.996362546578683339e-02,1.630303391256910372e-01,6.067611287168920425e-02
6.469099967569413856e-02,9.140996338733496651e-02,4.101645561751797453e-02,4.539297227193630525e-03,5.167877487407677994e-03,8.398197096630824476e-03,2.211966718822475086e-02,3.829305303661963492e-03,1.377449470365579298e-01,9.216419427224140093e-02
7.146319182912289070e-02,8.743121172344980874e-02,2.426022071311813993e-02,9.189213074076583304e-03,6.645634315177942212e-04,8.315468393029551084e-03,4.045926728251483112e-02,3.169489602282638679e-02,1.117089276928211472e-01,8.844434374791240727e-02
6.320321843262413641e-02,8.464146683020037920e-02,8.703465441950084674e-03,1.247172792402187480e-02,3.244035334956507990e-03,3.861787743272972889e-03,5.643390675149875801e-02,5.805139895253980109e-02,9.413510291988513856e-02,6.226924243759987543e-02
3.629820807568639313e-02,8.753240483400882843e-02,3.163170032697270977e-03,1.443912801545282551e-02,6.556927476181002769e-04,4.477953618268639205e-03,6.207896836018941128e-02,7.677315143984081436e-02,9.115029573849341149e-02,2.189239365740460255e-02
1.159585993128439858e-02,8.340160539705651632e-02,1.348795397091360516e-02,1.387416358129466010e-02,5.044423646701793815e-03,1.124164551234899112e-02,7.255971620357655472e-02,7.778897525833983195e-02,9.428708591798744265e-02,2.936932291585390292e-02
2.505207101209652384e-04,6.664481277114507607e-02,2.194499874348012844e-02,1.030853931845901808e-02,9.168622309864128683e-03,1.179655364150550105e-02,9.963801038392482157e-02,7.565284404307551225e-02,8.986082420602584109e-02,8.235483469347215646e-02
1.680435674069091778e-02,5.494269051997800052e-02,2.048732474451164104e-02,5.718510178976548425e-03,8.992093552318395494e-03,7.990843320053200166e-03,1.323657446515820180e-01,9.634447451957242614e-02,8.864906534612898570e-02,1.161911066109529156e-01
5.745679287624185644e-02,7.017224308433384072e-02,3.835644264139042268e-03,3.804368530416374263e-03,5.405403827856342103e-03,4.740983791700081190e-03,1.533806150249127642e-01,1.335157441539957524e-01,1.084687246037704389e-01,1.081665184416123471e-01
1.026884569114481227e-01,1.037221268159935900e-01,1.228316577010657787e-02,3.734880593334261381e-03,1.811737814972506260e-03,3.518957718594553294e-03,1.606020935777971448e-01,1.498476082937883758e-01,1.175053281242729175e-01,5.803167509212474318e-02
1.134239344345465139e-01,1.173766420280967088e-01,2.764090192993014228e-03,1.534015498098563381e-03,2.057996110144143676e-03,2.176752848090461254e-03,1.631887648213646014e-01,1.262450491480766879e-01,5.584953375596518610e-02,9.335605911776319668e-04
7.601042542884832443e-02,8.967048163439471364e-02,2.864703151207865020e-02,1.452810063926393905e-02,6.561925977512926209e-03,1.117625635956509371e-03,1.643427121099140242e-01,8.189751895822602878e-02,6.835698144797409948e-02,3.252693853170093852e-02
1.344847495084688233e-02,4.372256632400342569e-02,5.110906526422124424e-02,2.770441756636916539e-02,1.106267031575038431e-02,5.256872985164961869e-03,1.550173734990340502e-01,3.978241749047109477e-02,1.769617062908361571e-01,3.785648950219731856e-02
4.420287681882102693e-02,1.095857085084486413e-02,5.675463211202352865e-02,3.512073646793170689e-02,1.205992939460744789e-02,6.114786407692853094e-03,1.235443488724495553e-01,1.728072460831213235e-03,2.297120126465727052e-01,4.411408505405258612e-02
8.393866622851815784e-02,1.409742177852385883e-02,7.118236667862495870e-02,3.948207028164905236e-02,1.079995220814472523e-02,7.116329997662234957e-04,7.478340195582440508e-02,5.033387821603133722e-02,2.512406501314465301e-01,5.573413535716465611e-02
1.069677131169846224e-01,5.662090350904993435e-02,1.033898635507563696e-01,4.135100858896164494e-02,9.055907326766346813e-03,7.319673834326409674e-03,3.796282716265221568e-02,9.377208560049860031e-02,2.482037459275039659e-01,4.616306935775192632e-02
1.177093322139780435e-01,1.125032987525372424e-01,1.289007489673063278e-01,3.521403566850448558e-02,5.788084613698606454e-03,1.048960252382032804e-02,3.759691113122537454e-02,1.127317855376420291e-01,1.994463897844877542e-01,8.010222008111161918e-03
1.175420941349118453e-01,1.461630524382746543e-01,1.325942686859825359e-01,2.318810217803980722e-02,8.701258333683810527e-04,6.576291712940755645e-03,5.727636347776444981e-02,1.083630800857479093e-01,1.323545065839767665e-01,2.002910907493656717e-02
1.039264085760370077e-01,1.334345222745612902e-01,1.250934139252003752e-01,1.648286064052406977e-02,3.961138722181803407e-03,1.105629048211895747e-04,6.322514772072795886e-02,9.564713639701288850e-02,1.038093395653425094e-01,4.618994282616666579e-03
7.909593938803842483e-02,8.375599812120071430e-02,1.105560872235994557e-01,1.641285567994248129e-02,9.439045630869571935e-03,5.937201030059794521e-03,5.864224921538527258e-02,7.741987200049775530e-02,9.953273550851632345e-02,3.108080325626431939e-02
5.858737681441802958e-02,2.276664855595912640e-02,7.870108854893263783e-02,1.154276120561535841e-02,1.640713845217178085e-02,1.011079819902642278e-02,6.764105418787251522e-02,4.897186764314354762e-02,5.347898077857814181e-02,4.727721703231428652e-02
5.998705747329190208e-02,2.504443473126219746e-02,3.368198509728913270e-02,2.814195485414435881e-04,1.941970276978870202e-02,1.117237718414520325e-02,7.563285263793091684e-02,2.285182852462035175e-02,2.771079786477830334e-02,4.699154857504656002e-02
8.377604267562450968e-02,3.562271323295935349e-02,6.036231519004108328e-04,4.902715016393010411e-03,1.210641326246735157e-02,8.252491031349304049e-03,4.837567858760818962e-02,2.009516091240183544e-02,4.987764054048125090e-02,4.588331872355461138e-02
1.155201644617602358e-01,7.355394587836261780e-03,7.510364580030631440e-03,7.276816882436662123e-03,1.765837762415093217e-03,4.768464991803807521e-03,2.866887632256924154e-03,3.620976010584679716e-02,4.764119440201809025e-02,1.966325151843754948e-02
1.400439716636918686e-01,8.900424499662426547e-02,7.007587924978634503e-03,2.762600528542402678e-02,1.130884587641291586e-02,5.424369241739158271e-03,5.024666623559765136e-03,4.322057327870181681e-02,2.142276972202772634e-01,5.884805580090881477e-02
1.419940481171877711e-01,1.619215444975579954e-01,2.391759708184932123e-02,4.098994874241473907e-02,1.137290052938250487e-02,1.071730119355331079e-02,3.599354996805671086e-02,2.739841970758932765e-02,3.427741754165750110e-01,1.567364967409151377e-01
1.078141814741103433e-01,1.864621999602389946e-01,2.961222884563403240e-02,4.187598793914042855e-02,5.945360731591914881e-03,1.731857275276828950e-02,6.780736710833173975e-02,3.628802315638563446e-03,3.780440439363221272e-01,2.079045202509684498e-01
4.689898881979166767e-02,1.660549815952477304e-01,2.772020843838739895e-02,3.597995971654852770e-02,1.039722747994135683e-03,2.107456810819943044e-02,2.425346054028264600e-02,3.626307848032079510e-03,3.566490207712439964e-01,1.906358946189448400e-01
2.225595678074977594e-03,1.315166612438838922e-01,2.828214828128785413e-02,3.023913591815572538e-02,7.130001309469352448e-04,1.812360943780809766e-02,1.025117991358201058e-01,2.224396474765145265e-02,3.359884783578548917e-01,1.426443452652929600e-01
9.811097466790996008e-03,1.005426142927055566e-01,2.714165950386969103e-02,2.516640295007248340e-02,4.536927963694599658e-06,7.431968546124016403e-03,2.515813337989058485e-01,7.873737220692117456e-02,3.098582330961994202e-01,1.086513024062174398e-01
8.259673418911565521e-03,6.771643036067773180e-02,1.551097615348429395e-02,1.850086242630930716e-02,1.284414323936742446e-03,5.940977138525500162e-03,3.409365194818109179e-01,1.370065441876207601e-01,2.346459117082044521e-01,1.040321643498027804e-01
1.236629096310169068e-02,2.770000859615181360e-02,7.048180758748680448e-03,1.247963723305619242e-02,1.956383043873433439e-03,1.392663868245539414e-02,3.322515511169960578e-01,1.621039713058920473e-01,1.198477059071651751e-01,1.223400800165132807e-01
1.012332956789114766e-02,1.089835290379194063e-02,2.425728434139189787e-02,1.101224745451426235e-02,1.809004923372714135e-03,1.349368056816908565e-02,2.548898961990457290e-01,1.482428105276098196e-01,3.143615825534601393e-02,1.436765145291397650e-01
3.999565013663388541e-02,3.715709879768847729e-02,5.840242672555419345e-02,1.289980685020102394e-02,1.114245033227406973e-03,9.187362500395838613e-03,1.677795805241532323e-01,1.179233453128875203e-01,5.970352823854149782e-03,1.378368213951567112e-01
6.395893372607204530e-02,5.049248048753132018e-02,7.570092055795943353e-02,1.519542602039656784e-02,8.628485855838407929e-04,7.030949061176445733e-03,1.018480428662394688e-01,8.824736311217817875e-02,1.367604750797526969e-02,9.493274019338379666e-02
8.732363856513963851e-02,5.997972380040201418e-02,6.177741606326257046e-02,1.818857894434177183e-02,1.835101539939922640e-03,8.188430408494358145e-03,4.662893927638067648e-02,5.837086363944122419e-02,7.624088568715801234e-03,5.257866451084163006e-02
1.099764595421226371e-01,7.707435306043626533e-02,3.152657577140532269e-02,2.018386260188754014e-02,1.985993891556831099e-03,9.531413856359707837e-03,9.723961410309454531e-03,2.729128311947662602e-02,2.958487281715348888e-02,5.508080895218640805e-02
1.188748063189159487e-01,1.019898656029628037e-01,2.138954042572383321e-03,1.525052428450818058e-02,2.019896438205482075e-03,8.678615677939595721e-03,5.140526579318296929e-02,3.484697341320428660e-03,8.458967476843747002e-02,8.631718086919816513e-02
1.118451989841352107e-01,1.136808135298722350e-01,1.823419693122518143e-02,2.990123695126740803e-03,8.531966506238136683e-03,6.492888882853041152e-03,6.471136353785758577e-02,7.745848618440465128e-03,1.324681165927084070e-01,8.835738336097555268e-02
1.055342633719870832e-01,8.890168382507669664e-02,2.551544566358910845e-02,7.881163614596547323e-03,1.085927162537705763e-02,4.424434879094793147e-03,7.209317683704197233e-02,1.433438332067923926e-02,1.558217813341521429e-01,4.708437132095100175e-02
1.072168843391591159e-01,3.389001534559523549e-02,2.496441476798502007e-02,1.132508590505060773e-02,6.643089497348291482e-03,1.612623182373401414e-03,9.780338570196009385e-02,2.609895894557849594e-02,1.467746843423818615e-01,1.691946370720240692e-03
9.934407536786525605e-02,2.164935764848974556e-02,3.063005111024152266e-02,1.169308820102780110e-02,1.860773515694599464e-03,2.772066866360877249e-03,1.160830314827877574e-01,3.987276293801260418e-02,9.943651031078365454e-02,3.255129930821461237e-02
7.059801012436518752e-02,5.925790510877218531e-02,4.634688011300863719e-02,1.584880994322768535e-02,2.011903082634149305e-03,5.905276885187911787e-03,8.416103049705070394e-02,4.698591405182556136e-02,3.014720281731605306e-02,7.827475032373136521e-02
4.246784885925712627e-02,7.862181670991717775e-02,6.121905028300306945e-02,2.459316842510487350e-02,5.197294835365713975e-03,4.544221467826388069e-03,1.829013098775302687e-02,4.915055605327553478e-02,5.745093804425177239e-03,1.275750900883901862e-01
4.030009995749806589e-02,7.714107252563755235e-02,6.896798583379259995e-02,3.478140600823890344e-02,7.174543931265336787e-03,1.114987791009345707e-03,1.855359000587332441e-02,5.303691012119520626e-02,3.022776982503162443e-02,1.389478234306692206e-01
5.447677145103531349e-02,4.858209196380146311e-02,7.375309602993583569e-02,4.416034001727135727e-02,7.769930478369354090e-03,1.359596194605149511e-03,6.701813568329027977e-04,5.629218649186942813e-02,9.654916264631276113e-02,1.109113349487179656e-01
5.638439529540156814e-02,1.445414726422423850e-03,7.803033387370220120e-02,5.195212700975530146e-02,1.001839891547516570e-02,6.258270204004584732e-03,3.863023569867169577e-02,5.347625609905422295e-02,1.224722269797918622e-01,8.736928767362997506e-02
4.098295286102343615e-02,3.998408581034168519e-02,8.156752773554154512e-02,5.835250489321452266e-02,1.667969515622177989e-02,1.078682671449262762e-02,5.971162499372186655e-02,4.858553850368134419e-02,1.054770797888992806e-01,8.540943646530732569e-02
2.917948358888049210e-02,5.717020000849783179e-02,8.383394418187377350e-02,6.372636311917281859e-02,2.697678855889855051e-02,1.010010847558955906e-02,4.909042032725102755e-02,5.014926782709266256e-02,9.752837936827826737e-02,7.787195799272114694e-02
3.391744500824289688e-02,5.372749787703373636e-02,7.709692437642574891e-02,6.634970357238585692e-02,3.443745736820476994e-02,4.206303977026010221e-03,1.654598286190345907e-02,6.083674581389693359e-02,1.160705026681092267e-01,4.799703162235380988e-02
4.392484043415073591e-02,5.070541376796972727e-02,5.573610498854519868e-02,6.335601571546471689e-02,3.227622036053572757e-02,2.180395912332351929e-03,6.418200585041205358e-03,7.740456322337663231e-02,1.310723070303214666e-01,1.159204751382003976e-02
3.985605905405402438e-02,6.762845298644658276e-02,3.532516607467200281e-02,5.541544737140121496e-02,2.290116438746506167e-02,4.002020286568480113e-03,1.234773801631708183e-02,9.164445914146297778e-02,1.242618700835653872e-01,1.247708777725652432e-02
1.422096095392243534e-02,1.028751386540646823e-01,3.562658577617094230e-02,4.629453000236306154e-02,1.514437879771563661e-02,2.021284496327865887e-03,6.071176845443270603e-02,8.876751709356171804e-02,1.076158335673926825e-01,1.299669509714285187e-02
2.184351738775902954e-02,1.305741246410656309e-01,4.718235417130366843e-02,3.661410761410542614e-02,1.103999146784464223e-02,2.305721924640162339e-03,8.572276640284376414e-02,5.741532629450315367e-02,9.020318129237425708e-02,2.127700951991085346e-02
4.545325091608783813e-02,1.258020865034750746e-01,4.559194404126983707e-02,2.401300265198075268e-02,4.843217833058597287e-03,6.989850285856499638e-03,6.049179765742426079e-02,7.937804024910328701e-03,6.525915324243966587e-02,8.162733594721058306e-02
4.288465808981832550e-02,9.445149183154394334e-02,3.319258618257941301e-02,1.113726471048314889e-02,4.348505036163119279e-03,1.052650460207639992e-02,1.313494408038785172e-02,3.029922804296700245e-02,3.298313315201795853e-02,1.265653364475674836e-01
2.580892275359308180e-02,6.412110582823338234e-02,3.395359161031604595e-02,5.768941267543671765e-03,1.029384423905903984e-02,8.840547331107518822e-03,2.655293819681326870e-02,4.011166403571388844e-02,1.327554545710483980e-02,1.191902882667174590e-01
1.592512325190908323e-02,4.333593215566441254e-02,5.080315869798989609e-02,9.668871946700241526e-03,1.077151716544971251e-02,6.234322120539129500e-03,6.554068402126586590e-02,3.518246678140638656e-02,2.129847622382403244e-02,6.504448546045160651e-02
1.526804495292940697e-02,1.096431753598258937e-02,5.933618427311079802e-02,1.498325576320448660e-02,1.010593300168661363e-02,8.531305918219159873e-03,1.110487186220447120e-01,3.519883818094119571e-02,3.819504341951475423e-02,2.624262872119412747e-03
7.381088911405022691e-03,4.429397346388071893e-02,4.557074387430768564e-02,1.590077395624342124e-02,9.705111461982871002e-03,1.417490497000709927e-02,1.378440531146107595e-01,3.459728989695607521e-02,3.263472960805918061e-02,3.303809649398854048e-02
1.395418373732534335e-02,9.692065801534550940e-02,2.324866414377306512e-02,1.675654596210895964e-02,5.669731348592309435e-03,1.654370008682140222e-02,1.186179425019056322e-01,1.367873772573025004e-02,1.513982906754934681e-02,4.032040423884088176e-02
3.620693384428785161e-02,1.161689444235128738e-01,8.068450318316496006e-03,2.374149048183058636e-02,3.411829092026280597e-03,1.233016844484338681e-02,6.013821192020923911e-02,2.789775942089576730e-02,3.055376852528964710e-02,3.904913341427859730e-02
5.011362892485463072e-02,1.062004866460038860e-01,2.825211875320896709e-03,3.405662981570910935e-02,1.378020348921025345e-02,4.245953443007894484e-03,6.008537839360474780e-03,6.621831225810505261e-02,8.193469940780430394e-02,1.807268457503972969e-02
6.091080096981715125e-02,9.253743321846408243e-02,1.724541944463925044e-02,3.875871063621489504e-02,2.197874249091533172e-02,3.546376940082441101e-03,5.147100009075681465e-02,8.064724145042913295e-02,1.129723936739716328e-01,6.361937459043823240e-02
7.146634479603772294e-02,8.286282344317012771e-02,2.959210767093106362e-02,3.455724670414232758e-02,2.775864523953357546e-02,9.731560085554123024e-03,6.916387216020468409e-02,7.607184568133563973e-02,9.279999291992047095e-02,1.916256127300006717e-01
7.264843640885032539e-02,6.249424744889198191e-02,2.489069446376384470e-02,2.854839102517246763e-02,3.179423101791602896e-02,1.462650029692329559e-02,7.786143523840276248e-02,7.250027877481965422e-02,6.821252983318459862e-02,2.733929981585141999e-01
6.018477237798600110e-02,2.209272579519416108e-02,2.324655435507876414e-03,2.906982276572124199e-02,3.409268021301898460e-02,1.733172819807322906e-02,1.035427124690330991e-01,7.551172941342691736e-02,9.506459066351412301e-02,2.473617680519233364e-01
4.575797146355580630e-02,2.393814272053864170e-02,3.585118918872774035e-02,3.370452325448764636e-02,3.420219187785798060e-02,1.692011663602848576e-02,1.452341063867851334e-01,6.900748719072076487e-02,1.566219613992642368e-01,1.596344187179349616e-01
4.114686140529423553e-02,4.975718192710019971e-02,5.205959199327540171e-02,3.216718526967154990e-02,3.104599929243832476e-02,1.454515093085698499e-02,1.680409262366751033e-01,4.273319558718310929e-02,1.950375078672405560e-01,9.511782190662901315e-02
4.145040819545647848e-02,4.678032840128496656e-02,4.986472133765743747e-02,2.152892024722649969e-02,2.362164291880688299e-02,1.140147980962637544e-02,1.447110798794333242e-01,1.265482095083592627e-02,2.017021722135250161e-01,7.869029808783598035e-02
3.189873585520502236e-02,3.053072425921899216e-02,4.829686692717381769e-02,8.797556389502698970e-03,1.258056170383708983e-02,6.819066313799723549e-03,1.001415662667617251e-01,8.734892948754043387e-04,2.174960685134926242e-01,7.005568411163187736e-02
6.003365848053867672e-03,1.408693388125971911e-02,4.618815033615974314e-02,4.790603556140421090e-03,1.136786429385852268e-03,6.760915784336927374e-04,8.748611628216410030e-02,5.254998196005796970e-03,2.388629109040806275e-01,2.809408875195858538e-02
2.835800667820692969e-02,7.689098845269788304e-03,1.600916291076594569e-02,2.821928834093818603e-02,1.862153870997769467e-02,5.381611864168529824e-03,1.035677300230238435e-01,5.210547177397550911e-03,1.968574598909798301e-01,3.423331601537613067e-02
5.572243997668160920e-02,3.495999948143042879e-02,4.289377131695291945e-02,6.125758936853337167e-02,3.900464551545529401e-02,1.046430191702912675e-02,6.710668234315814162e-02,6.590646338751962596e-03,7.281421294735740402e-02,6.149758441406368709e-02
5.899761801579438136e-02,4.397338637582272336e-02,8.084365659104394974e-02,8.464077985286276584e-02,5.397142231241997684e-02,1.453637388906241570e-02,6.898610202505078837e-02,1.573258325054229662e-02,3.436969884438988848e-02,3.401172525081248149e-02
2.843194023129071504e-02,1.277665216715458477e-02,5.826108857661574381e-02,8.223037773982952436e-02,5.423366444240097783e-02,1.593776560426868674e-02,2.216157771324951398e-01,1.098233885216485725e-02,2.802679482825812252e-02,8.714181729456586811e-03
1.951946463442177926e-02,4.303114605718488805e-02,3.020030458174500880e-03,6.283680079602420310e-02,4.259362548461854969e-02,1.323465582433917473e-02,2.680981581755429444e-01,1.089769771211927633e-03,4.967826223795941687e-02,3.795639870054443726e-02
4.164113998841530856e-02,8.003287885566948145e-02,2.431928294605190111e-02,4.741545330853326468e-02,3.221198052634051401e-02,9.243612030671335272e-03,2.030667685986522197e-01,1.677912147224087241e-05,7.763877370188035365e-02,8.036655201653220004e-02
8.277759123766093713e-03,7.342325418196961329e-02,5.682683864280346081e-03,4.207425062103443275e-02,2.953052543335232469e-02,8.271632033763560640e-03,1.274013196767113665e-01,8.342178645230374778e-03,1.630136611542185032e-02,6.151310577788402650e-02
6.004652625813743094e-02,3.858313285413161875e-02,2.545293552380284430e-02,3.694398828663610079e-02,2.738151650724104241e-02,9.182451061080404084e-03,1.084753279443430307e-01,1.746950407143283215e-02,6.901131110531452673e-02,3.362631693546115977e-03
1.143164244512654831e-01,2.688982783703727265e-03,4.094074873208401744e-02,2.774291432536174148e-02,1.889477438783360858e-02,6.442043759522652832e-03,1.266399289818966878e-01,2.118502655657855324e-02,1.237149277751819487e-01,2.872003019158182735e-02
1.298677827187404432e-01,2.626613818351366050e-02,4.790851382626475780e-02,2.314839121652943060e-02,9.206959545726372748e-03,1.035615847436110147e-03,1.395758634190075453e-01,1.830874895008652303e-02,1.587707504037104145e-01,1.414585636092499654e-02
1.208832119990695814e-01,5.109785842484345503e-02,5.777689969515466956e-02,2.745283391173976989e-02,6.079736129115770674e-03,7.904226606906050029e-03,1.280364807995426069e-01,1.131548053382789784e-02,1.817267709012466148e-01,7.391366595383935811e-02
1.078028333182601689e-01,6.496302697837673390e-02,6.020094312608812587e-02,2.957953085686100894e-02,6.107815935647652184e-03,1.098908298158208195e-02,8.026022874077483327e-02,4.118916716303978182e-03,1.551244440218384757e-01,1.167981436289440428e-01
9.162210850874061285e-02,5.780549305313029129e-02,4.506286784763689768e-02,1.902801615042892108e-02,3.999112047981196252e-04,1.286605410255326452e-02,5.622673005048902176e-03,2.910225652669951729e-03,6.981777883407133678e-02,1.564849980205167690e-01
6.546581964770609163e-02,3.374864773825075187e-02,2.705232623898378222e-02,3.808551544536208089e-03,9.201647064961522571e-03,1.358460848408770023e-02,8.426607847261195772e-02,1.012530106234617658e-02,5.383107859473343013e-04,1.793285844461511014e-01
3.404012068224061133e-02,6.562592850322657677e-03,2.865687688813847722e-02,8.446720316530736961e-04,1.026381495961041675e-02,6.966106797780258209e-03,8.118672907626578450e-02,1.024285360911047181e-02,2.405779049079987547e-02,1.347029984159635319e-01
9.852711808398577353e-03,1.755557013080456460e-02,5.047761272416535078e-02,1.334600118450400899e-02,2.708903927185129807e-03,9.030140292334981611e-03,1.398429428350182920e-02,3.564974389905203878e-03,1.155398724852684522e-01,3.000475404517779013e-02
9.400246022378778640e-04,4.168073175995209989e-02,7.168645864365751075e-02,2.800414839244742826e-02,1.955675628698541960e-02,2.523137833330871618e-02,1.101966036420564815e-01,2.128168984667609676e-02,1.803773695275451561e-01,4.367515957405788962e-02
2.210143090461622051e-03,6.727883829377298563e-02,7.081025851819552908e-02,3.116136394248443867e-02,2.631617230226561410e-02,3.091844905501120455e-02,1.101390233776766148e-01,2.397341914863633863e-02,1.588376595130442936e-01,2.027033445500815712e-02
4.255035342102270884e-03,9.139847132736843294e-02,3.830387083092618578e-02,1.918882079093704729e-02,1.927998383029489241e-02,2.528198305496619572e-02,1.269884032216731309e-02,6.326344395046768106e-03,5.787541866021983505e-02,6.205303426145791779e-02
1.630756137693675084e-02,1.106354614967933331e-01,1.748288567508569577e-02,3.052957065646663692e-03,4.898583290633341802e-03,1.453337150874647529e-02,1.112662159329983469e-01,2.196306050497741011e-02,8.136485840689554327e-02,1.232738397702032446e-01
3.583137367636392290e-02,1.205762383455109277e-01,6.679103342695004442e-02,2.552701565097276887e-02,8.257086625752536879e-03,3.127273344265604597e-03,2.087417883507614036e-01,4.906770773390605606e-02,2.043993358872467359e-01,1.392660640001979477e-01
5.131152107137722240e-02,1.177556084188069035e-01,7.701894029427665267e-02,3.786403905685513382e-02,1.516767813859621304e-02,7.364782082835494813e-03,2.642971477973792283e-01,6.280676004224985953e-02,2.635262519041070006e-01,1.417893674254143144e-01
5.836295142260641833e-02,1.074804672903569985e-01,4.689562739081586801e-02,3.730986422778043848e-02,1.597412946243689791e-02,1.496940096070855514e-02,2.569176871922576044e-01,5.035419155883379821e-02,2.516946337238326614e-01,1.516543120280327839e-01
5.768036192559169301e-02,9.722178978897078050e-02,7.221927079326581275e-03,2.920173507164981405e-02,1.304246383089035372e-02,1.799939830494775433e-02,1.664305313384840945e-01,9.288777929460640195e-03,1.969624470152820939e-01,1.556177245121168062e-01
3.940371189797597928e-02,7.714759242725047206e-02,1.843136888014338531e-02,1.780986884335477791e-02,6.445507347563029198e-03,1.776356965342239941e-02,3.359355214888900404e-02,4.370956740869742091e-02,1.186016380750553323e-01,1.413338857740366050e-01
3.063519221722129163e-03,2.882151811210916306e-02,3.299523788211541214e-02,3.505437807026071106e-03,4.366179205264853272e-03,1.745362638544482523e-02,5.027845811090821126e-02,8.082733553670282123e-02,2.531495124528419793e-02,1.172139485229844180e-01
4.698826458268393763e-02,3.755503916887835414e-02,4.298888802158601363e-02,9.809637234322706595e-03,1.523844606743955492e-02,1.819900553519710265e-02,4.572811103618264900e-02,8.349090752360301126e-02,4.970761667782318954e-02,9.266697876909378573e-02
6.275058124802222748e-02,8.139736649224177389e-02,4.415432606198541748e-02,1.442308217120088186e-02,1.981595522369922549e-02,1.764979680620130248e-02,1.206993888659611824e-02,5.800702549620126436e-02,7.305091389228322851e-02,6.363628597869251668e-02
5.982742730965304873e-02,8.024034576807848040e-02,3.836703176818988259e-02,1.039071870440599205e-02,1.814608049711140952e-02,1.287904448507227496e-02,2.845429143525438423e-02,2.904508604824394824e-02,7.893152584900586799e-02,2.435018066166591555e-02
7.400880804906903587e-02,5.422609136883579928e-02,3.949579158957369079e-02,9.307392142894376288e-03,1.729789381668022166e-02,3.931571177937337631e-03,1.071965703604833425e-01,1.526859894208847969e-02,1.474390861617435600e-01,1.974313924449972238e-02
1.101421593558292167e-01,3.098485145075298430e-02,4.935189236171861477e-02,1.979340717520648371e-02,2.155678344472000338e-02,6.024259745402868460e-03,1.970816037106626062e-01,1.494630665795904610e-02,2.876680616307949467e-01,5.450255847423857852e-02
1.322945773571634620e-01,1.280757790229773013e-02,4.654164819902611994e-02,3.388447305106612878e-02,2.615523410088219092e-02,1.328524240368124040e-02,2.368107946450652701e-01,1.704951619372432198e-02,3.983397473278760259e-01,6.846673882338452644e-02
1.132179349247110500e-01,7.978851033051312033e-03,1.565929780066914467e-02,3.585038535884448041e-02,2.379251240924382463e-02,1.580633703776132895e-02,2.007442084292832551e-01,1.754354851892982528e-02,3.841069755308839095e-01,6.127919997086306997e-02
6.744544454358754326e-02,2.437687487490903734e-02,2.361984207441446965e-02,2.264251249114439257e-02,1.467860505718571879e-02,1.428964561988061918e-02,1.182144525193131596e-01,1.770441838869969697e-02,2.689966252976255801e-01,4.448089328812897258e-02
3.152649764181181952e-02,2.196013659410999547e-02,3.621410681600827769e-02,6.741227481317027710e-03,5.943988662546115069e-03,1.202390637200146523e-02,4.835712590983309855e-02,1.704069342557709352e-02,1.524566495919619513e-01,4.176472097064453520e-02
2.606360740178355340e-02,3.118924765538251195e-03,1.635872885485575856e-02,8.968787508830757026e-04,2.281321195663254045e-03,1.178016075368708455e-02,2.549296771178637469e-02,1.816944557660030851e-02,8.864306840262665965e-02,8.160814496133701745e-02
4.002397403052238012e-02,4.497759572144419127e-02,8.960142234448884718e-03,1.156641056790789004e-03,1.707924844991302394e-03,1.218210254480720303e-02,3.553250022999608626e-02,2.642839355454698613e-02,5.776039164306867590e-02,1.638715162125074232e-01
4.718811924564787069e-02,9.613614238306834869e-02,1.980452506270929253e-02,4.335271719482045472e-04,4.139432416937485152e-04,9.652073468151453964e-03,4.375693442742010358e-02,3.526113113824920486e-02,3.034190094394176654e-02,2.358183344139549997e-01
3.414364211957730821e-02,1.451382948890183044e-01,2.066295336064952887e-02,1.995674288109258038e-03,2.475223783114913548e-03,4.075304931748031240e-03,2.965215329431973926e-02,2.822905398554385534e-02,7.349421561263815017e-03,2.353082967794486724e-01
8.610592319774953290e-03,1.728165916496375021e-01,1.755439089074303446e-02,4.817667407238566089e-03,5.353873580350608161e-03,8.154046345482121941e-04,3.456104735523828683e-03,5.484667896994022823e-03,5.754933997707240012e-03,1.603341807476260927e-01
1.587994472717359912e-02,1.620594308715943566e-01,7.141063865978335493e-03,1.045040700235021040e-02,6.189178076983292177e-03,2.766106601111739324e-03,3.696308799857558891e-02,8.817959869537098788e-03,3.948217647791504858e-02,6.783422697557289771e-02
3.309500559519482077e-02,1.169499475865523191e-01,5.607788266192441189e-03,1.893832498044579343e-02,4.001732137744228382e-03,3.166404871220126691e-03,5.431526119615112669e-02,3.574926687799938503e-03,1.092380478514253656e-01,7.670777637390323832e-03
4.098188581169194544e-02,6.741829079767105992e-02,5.213901445461922510e-03,2.742032017108703493e-02,1.498250114112265876e-04,3.368713505741281495e-03,5.625063243944000008e-02,3.261912603248811465e-02,1.929283912179053651e-01,1.429505990466659743e-02
3.669876053722691267e-02,4.246392580388315408e-02,9.114112001477251215e-03,3.133879997018650110e-02,2.428426866911940693e-03,2.034297599827412147e-03,5.451255737324686018e-02,5.858633230091855187e-02,2.505498457292821834e-01,1.351535704627174206e-02
2.231855264691493326e-02,4.004700243243741742e-02,1.692051281766451809e-02,2.819341766210808550e-02,2.081607110296051447e-03,2.060641444966705184e-03,5.299191270702369172e-02,7.844768476640444355e-02,2.504734536514532373e-01,1.534977636466582432e-03
9.729426923737757513e-03,3.781522385699917499e-02,6.911305514602814754e-03,1.971994185099413405e-02,5.037947451771231403e-04,6.507471964906149688e-03,4.957890754203687217e-02,9.824882758200478849e-02,1.985366904722130621e-01,8.824333805182611734e-03
1.060436027811639294e-02,2.761369325126680763e-02,4.404914035513738876e-03,1.050533932757678757e-02,4.038714344429286847e-03,7.369188444471147861e-03,4.810002303778989491e-02,1.115437244995930305e-01,1.380073749856660092e-01,3.480350627330506229e-03
2.237375042008714690e-02,1.847865595972653791e-02,6.705791252196614946e-04,4.239835824940182962e-03,7.930483986049112477e-03,4.247914601740381685e-03,4.513708960662139724e-02,1.056613915688662253e-01,1.070815333286258275e-01,8.156820116048612082e-03
3.166292522106261415e-02,1.165783736727898402e-02,1.346722159890214633e-02,5.783634365795439249e-04,1.202289439238196991e-02,2.852531165911558527e-04,2.127240410315471911e-02,8.246623995966628762e-02,9.876041231365380313e-02,8.370497037457260564e-03
3.220157764329499572e-02,1.583414131915619923e-03,1.620384630515057239e-02,3.693771915443325084e-03,1.608262042261721439e-02,2.707563150559899254e-03,2.619423942154865820e-02,5.411387374421856855e-02,7.720033663124940826e-02,6.594683773861491349e-02
3.224315302972791814e-02,1.810546893547373276e-02,9.303016975271282893e-03,1.021120561452051011e-02,1.957168164378312453e-02,5.903356367031604990e-03,6.464920726398411255e-02,2.309721962304740056e-02,2.261928514405989188e-02,1.245325053505496882e-01
4.200406010790518063e-02,2.554710149095928973e-02,1.609910044164704216e-03,1.738948425812152435e-02,2.186692887786370262e-02,1.011020664729212794e-02,6.541351210400828120e-02,1.665851683219262899e-02,5.537246842776877287e-02,1.285477662986737879e-01
6.010065271163013423e-02,3.070030559791792762e-02,8.215803797946100509e-03,2.284783215866316441e-02,2.270109769366598571e-02,1.375957200873932987e-02,3.795251136208355192e-02,6.017991624772059400e-02,1.272953094060439994e-01,7.119798782638563084e-02
7.607814728784384473e-02,5.239852430310337761e-02,1.924117410735386516e-02,2.512331655835315855e-02,2.202661111715558881e-02,1.473051477495752534e-02,1.320168246606154283e-02,8.725323131770502949e-02,1.516732390139997055e-01,8.850224974979767345e-03
8.208511311377814090e-02,7.403257466750085003e-02,1.513796275310176111e-02,2.379314414443268327e-02,1.957346668465073311e-02,1.231682285161514977e-02,1.353963255401234925e-02,8.359770356722426299e-02,1.047686053567995768e-01,2.242958687443504656e-03
7.957009626443038719e-02,4.610756115461112081e-02,1.408992029718840119e-02,2.026218834422210957e-02,1.518695369867655541e-02,7.484856041206755690e-03,3.691774472541961560e-02,5.818543366731858402e-02,1.887115227594628186e-02,4.752723367284527461e-02
7.725343984887200754e-02,3.769221951606196996e-02,4.981988516416296225e-02,1.758639276413967445e-02,1.007961049588435194e-02,2.636989945060477097e-03,5.514547093206353945e-02,3.200137051214406447e-02,3.863848576254214073e-02,8.566584260769805059e-02
8.155524731750180001e-02,1.120178754889634282e-01,6.246669960451384229e-02,1.802126813631984778e-02,7.266140297958073938e-03,8.199629201846238453e-04,3.680999299917003115e-02,1.724357716717688643e-02,3.280439812373562442e-02,7.539549409509642419e-02
8.606584847435774788e-02,1.208400877923029026e-01,4.326425380827440825e-02,2.155705078903857874e-02,8.978186066706510954e-03,3.589193474880944534e-03,1.922784640675241977e-02,1.538199619919970902e-02,1.861703090720506770e-02,2.643408654653744971e-02
7.612699781877005356e-02,8.415872841640233137e-02,6.271422671693249219e-03,2.708183920769497571e-02,1.321416935040281918e-02,9.056700271788670556e-03,8.260188416346840590e-02,2.321227959205598643e-02,8.555018961914043207e-02,3.206976008206151307e-02
4.954794274664047621e-02,5.085538951708262756e-02,3.310265454386095846e-02,3.336901643517325988e-02,1.528372685451319553e-02,1.308831034853108997e-02,1.250638656660277015e-01,3.085084036047582023e-02,1.509042163869373510e-01,7.924755900980184897e-02
2.410397922564862239e-02,2.769693750356299125e-02,6.801624977237730185e-02,3.834473962296740257e-02,1.364738871621401853e-02,1.341380777119882683e-02,1.410645390580856084e-01,2.784582153586714556e-02,1.993072645200790471e-01,1.025036573543205570e-01
1.536135045417093975e-02,5.709187489855994425e-03,9.093985341604267358e-02,3.885980108791951132e-02,1.139848280461577823e-02,1.179413836027602691e-02,1.346451810760556367e-01,1.880086451025846442e-02,2.144098092381371834e-01,1.024114324220686684e-01
1.633550275184412343e-02,4.340853667762426676e-02,8.952061493238946954e-02,3.284545789969245400e-02,1.099714870668709599e-02,1.148301918220456970e-02,1.102366937104902744e-01,1.931810507490320031e-02,1.932311947516876516e-01,1.000192898672891129e-01
1.143080167855248241e-02,5.859620279114626656e-02,6.133507373212313679e-02,2.186091512019926880e-02,1.092630037289911947e-02,1.369804377691155421e-02,8.471284790379071672e-02,3.574398959360981093e-02,1.477698110173995272e-01,1.174798621594193709e-01
2.488938461460639233e-03,4.966330299445929214e-02,2.547085308745183907e-02,1.039583504566643501e-02,9.222500666292727384e-03,1.695923743325257818e-02,8.162983116331092026e-02,6.250112667378547593e-02,9.404240843201938649e-02,1.494003147804758846e-01
4.611243379730118122e-03,4.359780248868329322e-02,6.338383971174050419e-03,2.297349128323718584e-03,7.000783450721607612e-03,1.871889439143869030e-02,1.024050635250638164e-01,9.284003451539270257e-02,4.789370901960839089e-02,1.715198174542175158e-01
1.968692194498649489e-02,5.637412751927840110e-02,7.696755851298589350e-03,1.190452557488380810e-03,6.070855184733117693e-03,1.764728411445648515e-02,1.251333728823473268e-01,1.163121698405513299e-01,2.410467934042323512e-02,1.769454279207201275e-01
3.274857132050579267e-02,7.742920810280484734e-02,1.436403225813480400e-02,2.467970226349420863e-04,5.791987563054518985e-03,1.480911624299485058e-02,1.316293047599749189e-01,1.156307112179754681e-01,2.928627641934271678e-02,1.797084559774781987e-01
3.656600468695794803e-02,9.043900631048315542e-02,1.683164499611702544e-02,4.284171426051315568e-03,4.832141515453858283e-03,1.180267043252605091e-02,1.149578304483750424e-01,8.571722800596053016e-02,5.513364226754756403e-02,1.803721387953618471e-01
4.137635045078148083e-02,8.886342404871799827e-02,1.903794460795322704e-02,9.572287365089152122e-03,3.620784782056740703e-03,8.177250510725708743e-03,7.506726791275823707e-02,4.905294762509799372e-02,8.162300926077410701e-02,1.575755210586618493e-01
5.319426217629242420e-02,7.556526105255692571e-02,2.259230533343588310e-02,1.111453386251666856e-02,2.755962797132607139e-03,2.710294405761970709e-03,2.943692360274767494e-02,3.427826637381348879e-02,9.177200777339862559e-02,1.028540026971920540e-01
5.909278299280929653e-02,6.000832653293428076e-02,2.059756583556371021e-02,6.935168208259546996e-03,1.458621953181225579e-03,3.271747367319773319e-03,6.632418856976216720e-03,4.453158768775324766e-02,8.557060872600534551e-02,3.750564352155546372e-02
4.657358164866760852e-02,5.050022157125038519e-02,1.038943538457534448e-02,5.437351285819303111e-04,3.496931851841057759e-04,6.447529102803778098e-03,1.179313243828519243e-02,6.055438232471645199e-02,7.359727267401755535e-02,1.646715292951447807e-02
2.595615628202380815e-02,4.527331056040517082e-02,6.835718406234588679e-04,2.763305097200214645e-03,9.350926003395762260e-04,5.440131965889001553e-03,2.143325888317868660e-02,6.774777410266137612e-02,5.962047891637592412e-02,5.970855083020787379e-02
1.763366828142173132e-02,3.756457443855654166e-02,4.333450885512209541e-03,1.802417703771003014e-03,5.008408067568707357e-04,2.341115320893564708e-03,1.877580424108052370e-02,6.618560247785068573e-02,4.284792718776053722e-02,9.591917732339111380e-02
2.328796492862971260e-02,2.777151723493265917e-02,2.583240118656775913e-03,6.435090324398116957e-04,2.245841782756144780e-03,3.245527138015228590e-04,9.761838097210840184e-03,6.018156537670157208e-02,3.216406526873596267e-02,1.085451906559317392e-01
2.689158949591599623e-02,2.440030463420748627e-02,1.990130689386413257e-02,2.712630978360988307e-03,2.628082817495375114e-03,8.284631173953517806e-04,4.929497732604387443e-03,5.207370165749373309e-02,3.955920680031611847e-02,8.203876657345075818e-02
2.119356847670033142e-02,3.477910893722958169e-02,4.449923696760034464e-02,5.158132444191895240e-03,2.039207617521625326e-03,2.719098590167855645e-03,7.802824457168509517e-03,4.390513484536092553e-02,6.246628616971550141e-02,3.869067536960774795e-02
1.519994297331473190e-02,5.653830127136464517e-02,6.910096266931871345e-02,8.381326345467326328e-03,1.423503637901364118e-03,3.448604750713670560e-03,1.978704685613974154e-02,3.652514803606709409e-02,8.713015889531690317e-02,2.263564157730242610e-02
1.770057010534339600e-02,7.604906225743761350e-02,8.590281553657434788e-02,1.076185880374648518e-02,8.808286888009869003e-04,1.134796012898626159e-03,4.219909603581853408e-02,3.056036147349855403e-02,1.046848417628011146e-01,4.279879177992038791e-02
3.003552208379685687e-02,7.753338238421801643e-02,9.275902581872919050e-02,1.088946346204626263e-02,6.074081275671957755e-04,3.848650265445409044e-03,7.269050765116401303e-02,2.966325723183129218e-02,1.123612241665180589e-01,6.334289831582355645e-02
4.748148544928776360e-02,5.776684913828579460e-02,9.207752710976646604e-02,9.106740466182060290e-03,8.970823621402828230e-04,8.211862501735764375e-03,1.015870530058070181e-01,3.181477358716371107e-02,1.050714497202431957e-01,6.081152049954493405e-02
5.125963048954686879e-02,3.044239390695275757e-02,8.203391358075269590e-02,5.710766751095194653e-03,2.639500041952653293e-04,7.042806586444112435e-03,1.114177402339437961e-01,2.025252546101669396e-02,7.878621652776456041e-02,5.784504902567275120e-02
1.602577509572489928e-02,1.494049967839826756e-02,5.674164672518148406e-02,1.850614762257626368e-04,3.708350945812333849e-03,1.264402701209057806e-03,9.125794277563771539e-02,1.749875259648434045e-02,4.144310341118750962e-02,8.060127993282745207e-02
5.366823740591548930e-02,2.172037100745398408e-02,2.023148223762746833e-02,6.342837316242811926e-03,1.019202169250362118e-02,1.115071953887709910e-02,6.075618884723239799e-02,6.375594233432388402e-02,1.058934186530326692e-02,1.111690102998298124e-01
1.133593146282584757e-01,4.287232550467292430e-02,1.105290545379189644e-02,1.050812339564862960e-02,1.462419810962412546e-02,1.537662446987471919e-02,5.811717473495900399e-02,8.611555568041845410e-02,2.727135298623529006e-03,1.128172328527056456e-01
1.260635260616130016e-01,5.285370060728371983e-02,2.707862868254698116e-02,1.020029868030899317e-02,1.419793695990223016e-02,1.463522693103266360e-02,7.731170876442912399e-02,7.863301474449466144e-02,1.449054923837489114e-03,8.521768618313607657e-02
1.037056322934523239e-01,2.877533842314501655e-02,3.378972135371576674e-02,6.802200626438795368e-03,1.119548336498736585e-02,1.592606101520891923e-02,4.574580397142505306e-02,6.810761123814174089e-02,7.268335136793174778e-03,5.862518944608676591e-02
8.732907294360212069e-02,2.488657940919549588e-02,4.001022353990155850e-02,3.346994585148351919e-03,9.237640768370955491e-03,2.137877941385226549e-02,8.482802904007888389e-02,7.935685710253541358e-02,1.850577097670239382e-02,4.153664532539131510e-02
1.014391988098349573e-01,8.264096497772317751e-02,4.807358272480279776e-02,1.957577739451070095e-03,9.014727677335647796e-03,2.593431373905314904e-02,2.505604148287882693e-01,1.110470873369375777e-01,2.274048301682761453e-02,1.538047350362081039e-02
1.375165001538618259e-01,1.265874891559362614e-01,5.784603645793977983e-02,2.778447229235643783e-03,9.430683077298770284e-03,2.652353034704547918e-02,3.410699830464668514e-01,1.463589023363668917e-01,8.289267829869670715e-03,1.662803289237243382e-02
1.694090106498181703e-01,1.520813797130355638e-01,6.667293987069404515e-02,4.254590033371686425e-03,1.009463288894306594e-02,2.581496157336376357e-02,3.300176954230038540e-01,1.712532984571320527e-01,2.078097085621323850e-02,1.948598207792343398e-02
1.757239784766323476e-01,1.529541319352327733e-01,6.649007655192799848e-02,4.934858686513017741e-03,1.044787920548300580e-02,2.549181699441003049e-02,2.784093963745386535e-01,1.768123581945371392e-01,4.294311796575435436e-02,1.919943806589365087e-02
1.533549745768477413e-01,1.253145349140031006e-01,5.217876622241626738e-02,5.018913955253901868e-03,8.932809621469717590e-03,2.270246179990601659e-02,2.323153845721414590e-01,1.566395561542256731e-01,4.320865089886363059e-02,6.165271487748773260e-02
1.161806085706897362e-01,8.265449400642793654e-02,3.134071722731922999e-02,5.415548235572538970e-03,5.569711589445650035e-03,1.552449235801512360e-02,1.828325338341845463e-01,1.145350238868826642e-01,2.831288831728173000e-02,6.691255741479054664e-02
8.114787498604882077e-02,4.601960206445629420e-02,1.718192032407110659e-02,6.206004836460022114e-03,3.138624773976518741e-03,6.882860465808769354e-03,1.171684301317775373e-01,7.059728296226686073e-02,1.440222344383615752e-02,3.759097657469044618e-02
5.444328680839081308e-02,1.851751003041117449e-02,1.219678044527017051e-02,6.942045767397968942e-03,3.310489110332198032e-03,6.379630683480202406e-04,5.033948261944914265e-02,4.644163741481176916e-02,8.842451246969968218e-03,2.949412031577209811e-03
3.185238037975425540e-02,1.479732553198756691e-02,6.045704140944232682e-03,7.393610205535093398e-03,4.038143062749906080e-03,2.538480661744710321e-03,1.324549093104313707e-03,4.297211488646774519e-02,7.386751231622638164e-03,2.119652305820617089e-02
1.208368508975730081e-02,5.651035921467339324e-02,7.864132905542706165e-03,7.455655218379313165e-03,3.342216021303055958e-03,3.646579109807650872e-03,3.827442816683573890e-02,4.219184593030526897e-02,4.342360701307006361e-03,3.796112986757761015e-02
3.541437951882327878e-03,7.908128618401516485e-02,1.979021712713397579e-02,7.384767706423145221e-03,2.936112072365010955e-03,3.086598974257914654e-03,6.040290982458355884e-02,2.952549129372070494e-02,1.335263133305663761e-03,4.969025136252547270e-02
1.310993881476857879e-02,5.294775001972970574e-02,1.496179937828863611e-02,8.165659106439331766e-03,5.215516989920373873e-03,1.251680910382886071e-03,5.801856203752045471e-02,5.286464749628402154e-03,4.325781271899496738e-03,5.183291674855153297e-02
3.482422136497434484e-02,1.245381729633323470e-02,5.532714388294091533e-03,1.031189008067990263e-02,9.153940926515960474e-03,1.382996496965049242e-03,2.588983041058341011e-02,2.129034952080315068e-02,1.435602615247937031e-02,4.382881032373862895e-02
5.699554340010236364e-02,7.456017668253191177e-02,2.463441888958586845e-02,1.237714351477206542e-02,1.194762245592728873e-02,5.188642811203945417e-03,2.663480506553494304e-02,3.837598202170178913e-02,2.557156020437598154e-02,3.186813798406679804e-02
7.451876755677262765e-02,1.024154796812857260e-01,2.889389881135957794e-02,1.218524270822369041e-02,1.254274034433238219e-02,1.010133964282269176e-02,7.772259123058324060e-02,3.439215125216885799e-02,3.103164156572454230e-02,1.866523128558673916e-02
8.703741848318394259e-02,9.662687115214385614e-02,1.859412454183228397e-02,9.652912007080840726e-03,1.126148902735031945e-02,1.404690411392888957e-02,1.037382508160177436e-01,5.745072286103859727e-03,2.731007602787983296e-02,1.891976100223830611e-03
9.093497724466183263e-02,7.001736720270046455e-02,9.495478098746001298e-04,6.989204854306842879e-03,8.203362066865404340e-03,1.498818215943889011e-02,9.916367790070536314e-02,3.411009526805159481e-02,1.691095837080608746e-02,1.380122213575290732e-02
8.065632184665207094e-02,3.291926806657049370e-02,1.451068151068671958e-02,5.897229687672406358e-03,4.145759861251077129e-03,1.373854255327091635e-02,8.331812489309506353e-02,6.039233769710198457e-02,9.101536623853056368e-03,1.595421633072936773e-02
5.534587005972514684e-02,1.498245933760143688e-03,1.600259713257288011e-02,5.824947055085276208e-03,1.071418155608075233e-03,1.249931246810072338e-02,7.490470387995977475e-02,5.906036253556341820e-02,1.312120380826608396e-02,3.620045451348568449e-03
2.048409849973339622e-02,1.854932566346634629e-02,1.086805872351980298e-03,5.356651397476391678e-03,7.233558025882100458e-05,1.129769488082454226e-02,7.144126785016879921e-02,3.953981901569264545e-02,2.763274434008199110e-02,4.732998718254733880e-03
1.403559902906414622e-02,1.415805615077860360e-02,2.610640210499601613e-02,4.357335168080412810e-03,1.564089695853772884e-04,8.373644825833023025e-03,6.771761502525018572e-02,2.084005985870574645e-02,4.214915626634545970e-02,4.138204489262346276e-03
3.646143636399216958e-02,5.051734607793316109e-03,4.593205098797679964e-02,3.910137168117082916e-03,7.277835133081373906e-06,3.826084724772793426e-03,7.026221865512000120e-02,1.149398280454238391e-02,4.972353690941991311e-02,1.594045959978561758e-02
3.961243232845787499e-02,3.136754292462812926e-02,5.993889941667067400e-02,4.304901134540092475e-03,5.286017561259772225e-04,6.315363706620061128e-05,7.381289864633776288e-02,8.030956382845285541e-03,5.158823284218146121e-02,8.045523560949494057e-03
2.672900690947935948e-02,5.572924696892218172e-02,7.115599637751221507e-02,4.233660942377932834e-03,9.411857345682297926e-04,2.412843400007050505e-03,5.571799548007646402e-02,5.124088714359519188e-03,4.985158944497446176e-02,1.642285803754350154e-02
7.438206388857667578e-03,6.557063362850293342e-02,7.392212021319972959e-02,2.855711926324848784e-03,1.182803491095504823e-03,4.669439062771428735e-03,1.774592344474518885e-02,4.349619836747577357e-04,4.458278406704434260e-02,3.248616357703524443e-02
1.008974148621231103e-02,5.500433997088103460e-02,6.412943804177811957e-02,1.529343945543006587e-03,1.447645825158285241e-03,7.620129488959917485e-03,9.647451225165519506e-06,5.130128770978539116e-03,3.938006344492883670e-02,2.813444757638911345e-02
1.955914299839367834e-02,3.106231078255142219e-02,5.042594116621183786e-02,1.839205863885605636e-03,1.764864106706976691e-03,1.028128303233046860e-02,2.671721236606681982e-02,7.818820554666473105e-03,4.096000602579103617e-02,1.777097219883808088e-02
1.454089448173718872e-02,2.339476017511024804e-03,4.185345437298310795e-02,2.887087037143919004e-03,2.060772564292969334e-03,1.203317172648297670e-02,6.413664428839399578e-02,7.890592808751512033e-03,4.933626981249138177e-02,1.989116865174490531e-02
7.393434220999339432e-03,3.004881662636212786e-02,3.389724334985024651e-02,2.598642074592420748e-03,2.308357501205098722e-03,1.361193484753432659e-02,5.865338317802028939e-02,1.560169883433922336e-02,5.500153407573030173e-02,3.525986506416659699e-02
3.931614135430032408e-02,6.396693840847393620e-02,1.775226122356695843e-02,9.273171694569313280e-04,2.491104464217559419e-03,1.558984439181190264e-02,1.393998990040667529e-03,3.756779069232732415e-02,5.014304184870954639e-02,5.239017188310638590e-02
6.803357658652603446e-02,8.936500473316742743e-02,4.972348743477246480e-03,3.683251054685734039e-04,2.634077510047265567e-03,1.735175712855864180e-02,6.926157875927617391e-02,5.949538488496690369e-02,3.732250095176642413e-02,6.670939768590905539e-02
8.544855752552431294e-02,9.895263534124629223e-02,2.575651296834483364e-02,5.090161875939836888e-04,2.846190293821086997e-03,1.829167153518775069e-02,1.206523556453899942e-01,6.172375637921234670e-02,2.386735907458220618e-02,8.383144361777589149e-02
9.521276908239825754e-02,9.736814614074110197e-02,4.010658482935970659e-02,2.958634930140693984e-04,3.094144009392512436e-03,1.875523130468687710e-02,1.508234860155761858e-01,4.848693913030367036e-02,1.351791385642060923e-02,9.994380877827609144e-02
1.050606016172424967e-01,9.194820190998112541e-02,4.796760740196913397e-02,3.786251335270321514e-04,3.066729369124565792e-03,1.836656032571440389e-02,1.605959212972991879e-01,3.969279529112586247e-02,6.439386787648907970e-03,9.160770401041543054e-02
1.163428248969809314e-01,8.335628756403934414e-02,4.962171004498224652e-02,5.331694511704556001e-04,2.576012723255656674e-03,1.522170395566837045e-02,1.409952632010902651e-01,4.058952789778978720e-02,2.449271109576297081e-03,4.330676694390701853e-02
1.256765193878302544e-01,7.085537573195879735e-02,4.609994112232881219e-02,4.745222085364938537e-04,1.927874598360332413e-03,9.128928733893731939e-03,1.024732818675360008e-01,4.260908628616057181e-02,2.483693822938582221e-03,2.282430497876977715e-02
1.314441667946401604e-01,5.640979966785084065e-02,3.807701320680972890e-02,3.070052400603119668e-04,1.637411715787334861e-03,3.305624472143657566e-03,7.641387373056712784e-02,4.502241308319961111e-02,9.045568871746243259e-03,6.734515969333378094e-02
1.338279233376579169e-01,4.052196964656001876e-02,2.306189482361524837e-02,1.743834637939254252e-04,1.935590018716867302e-03,3.632257932508736308e-04,7.162878623679051759e-02,5.499073418007274089e-02,2.287598344227603775e-02,7.622937489398756705e-02
1.344511769354442277e-01,2.461821743476426752e-02,5.060988571857424900e-04,4.132892555426960057e-05,2.596740519894483092e-03,3.178724954378876234e-04,6.869994133586494744e-02,7.408743143442206303e-02,3.784879445365332135e-02,6.178196136359021678e-02
