1.651432465808596109e-02,2.628192008386822862e-02,7.999603819349965575e-03,1.793800302586352150e-03,4.630191488653441034e-04,2.683139682728365345e-03,6.668160492953869797e-03,3.958652030183038018e-02,9.398379807354945593e-04,7.492278320324375317e-03
4.457268082599377332e-03,1.962360847181521262e-02,1.019521300635076524e-02,1.010351486373208896e-03,6.973976644771418118e-04,2.826202845491032536e-03,1.812103232009776429e-03,2.324526817132010689e-02,5.132846233217811319e-03,1.404332656370403144e-02
5.683220759413570161e-02,5.379332903102563776e-03,1.077123602123315760e-02,1.898669424668222644e-04,9.356818957252454423e-04,2.962913679015694111e-03,1.913850511272934679e-02,1.185320942154980406e-01,7.810683057058329104e-03,2.045500558121550114e-02
1.160963077612472000e-01,3.607866589819626324e-02,5.610105259451235449e-03,6.552924923859170057e-04,1.175406608472257539e-03,3.080823994180698598e-03,3.691475377762196142e-02,2.035219053514315812e-01,8.559095479041356133e-03,2.423937002700405491e-02
1.452405363365132096e-01,5.291824657905466744e-02,3.301809379931515236e-03,1.512375771368902394e-03,1.414123937423482358e-03,3.125547510786756862e-03,4.431569036507547465e-02,2.327166302265663289e-01,9.176812246828891864e-03,2.325060799044824725e-02
1.329910523442542347e-01,4.933702360463385062e-02,8.328006907039707876e-03,2.368532354607784125e-03,1.649461775942775380e-03,3.114693546481214857e-03,3.963813756548214412e-02,2.027598103553808484e-01,1.066125898290647828e-02,1.730710274818089700e-02
9.700785337530964947e-02,3.294170794815642900e-02,5.245468010472043897e-03,3.211104591821566361e-03,1.879139885979055685e-03,3.158786796770217745e-03,3.046838708226368847e-02,1.483261689170366215e-01,1.176034318808381191e-02,9.348324814840838770e-03
6.111059420422179644e-02,1.339617550419508127e-02,2.915319456583440744e-03,4.027914407254760791e-03,2.100987409478908587e-03,3.218578962284966705e-03,2.340885318768157197e-02,1.047037053744896418e-01,1.123751023589242629e-02,3.072829033221352764e-03
3.940838131523791144e-02,3.275777437019350511e-03,1.125626871294793489e-02,4.807536565916883074e-03,2.313041441173026985e-03,3.051169554415914496e-03,1.764370259996131049e-02,8.374165503698344226e-02,9.479348779137667866e-03,3.236332651854985430e-04
3.325242558275005866e-02,1.376683522285422796e-02,1.688970262675401623e-02,5.539551896481568864e-03,2.513632185013928676e-03,2.722995707486182675e-03,1.041376787699096855e-02,7.816229618643565080e-02,7.005880059224671962e-03,1.576267516629329497e-03
3.462562135450321377e-02,1.761444751498565317e-02,1.776632547675959656e-02,6.214775344966154240e-03,2.701279153267322451e-03,2.796827136015436321e-03,5.349540499439949318e-03,7.930583142113487027e-02,3.501963745079762942e-03,1.050932469576877464e-03
3.453673901983787126e-02,1.702028666625845371e-02,1.325275792830126267e-02,6.825452672387551968e-03,2.874593036082924782e-03,3.400317901601539444e-03,9.759942758361688300e-03,8.732321455538173682e-02,4.729132423418732842e-04,8.969241617390698437e-04
3.130496468454514042e-02,1.533804613746797031e-02,6.478502010616728549e-03,7.365418129059891558e-03,3.032561104680585838e-03,3.666753574844603802e-03,2.373087706227128280e-02,1.047705294873640114e-01,2.934326112749018143e-03,2.884052165195053179e-03
3.134884176818492074e-02,1.613522689213761976e-02,2.148738659428007288e-03,7.830209879033966577e-03,3.174808758534572277e-03,2.951338415637322268e-03,3.789772490207096722e-02,1.280794174274821895e-01,3.301931451910103225e-03,3.639888533283291636e-03
4.074315583578933669e-02,2.106747379312852442e-02,1.677426172523307796e-03,8.217145852798634145e-03,3.301018563480280846e-03,1.889705915489884409e-03,4.363553970274824945e-02,1.506335673695685662e-01,3.815541489747098329e-03,2.915631474282942472e-03
5.512086358560824156e-02,2.783908986335244945e-02,3.141504737568922428e-03,8.525356353428189052e-03,3.410354978844984224e-03,1.370296713535520180e-03,4.084328920600018703e-02,1.671078625502504522e-01,6.147825454486814493e-03,1.039330765557336476e-03
6.216470408045970258e-02,3.371966733773811703e-02,5.618085129052458916e-03,8.755760220508787897e-03,3.502665359646212843e-03,1.281502476120872881e-03,3.464455549075070445e-02,1.714817711016111412e-01,8.476519786405664614e-03,6.997908704952362710e-04
5.581596079804910376e-02,4.058092332524129708e-02,1.058502322716159579e-02,8.910988128989345142e-03,3.579692703028669772e-03,1.026218027287496013e-03,2.826165567580415927e-02,1.582563021805821479e-01,8.393562805838297378e-03,1.385959993867410709e-04
4.061109078109197135e-02,5.119112203790791849e-02,1.780056384677578679e-02,8.995280938693251196e-03,3.642474057649999503e-03,5.165154706821238617e-04,2.068896199832354066e-02,1.273699854272062615e-01,7.282220075437050542e-03,3.205694441926552462e-03
2.133198371468545892e-02,6.106184275507604148e-02,2.187106279217197746e-02,9.014359419188369346e-03,3.688594950653107784e-03,7.276420928639852430e-05,9.853960429557832162e-03,8.367469300417165745e-02,8.903921042304452013e-03,6.539184649753830569e-03
7.983183887544731752e-04,6.174986724050523373e-02,1.682509269741267605e-02,8.975212404115254922e-03,3.717568993915048008e-03,2.162253593273485942e-04,3.457122549326206891e-03,3.258680991322657899e-02,1.403881672651281255e-02,5.826828629950953423e-03
2.102903256649624880e-02,5.355210103754734496e-02,4.715014587131183092e-03,8.885819991737219786e-03,3.736722680911877710e-03,6.244761313372434921e-04,1.521324247730873776e-02,1.960610143378532788e-02,1.893783184520479376e-02,1.231772451216044031e-03
3.184488884214378007e-02,4.513036329932745144e-02,4.963886652540480671e-03,8.754938594185844927e-03,3.749729812519833356e-03,1.289733252350331108e-03,2.075496837869697173e-02,6.068372443346910228e-02,1.952371944051393277e-02,1.314835867836877843e-02
3.314646937138424759e-02,3.773078042881395505e-02,6.317065151651814550e-03,8.591931786352249509e-03,3.743606491950114343e-03,1.782958975532755990e-03,1.786960303333859704e-02,7.603550436627594389e-02,1.588683363677887567e-02,2.405800485026808599e-02
3.381952206275568723e-02,2.246941676841523669e-02,2.773633561474858969e-03,8.406394310080455429e-03,3.712715743552519147e-03,1.545712948407745001e-03,9.638403371479108139e-03,6.718281872074093053e-02,1.181866326053572676e-02,2.786425243789638836e-02
4.119717178526657170e-02,1.148664817583990505e-03,5.144378374676214765e-04,8.207617493038277257e-03,3.687025301502152696e-03,7.773968964425908082e-04,4.290247132393348525e-03,5.915726215614756922e-02,9.869365574871143479e-03,2.523359311319241932e-02
5.308340804234885912e-02,1.755046153235111442e-02,4.965902887060454074e-03,8.004458972714590184e-03,3.681440271956058601e-03,3.973698560609859433e-04,7.782349261648442533e-03,7.243999065648934477e-02,8.094818050585698976e-03,2.279175545404653336e-02
6.043753341094434961e-02,1.461251288596459794e-02,1.441114101418867859e-02,7.805551387465204868e-03,3.633994289080019671e-03,9.891293830820526746e-04,1.491051486860201468e-02,9.216660213860342066e-02,3.338273356899348291e-03,2.311838449896580841e-02
5.571075964810944664e-02,5.282969882693007435e-04,2.476433093469114152e-02,7.618669638997244663e-03,3.512323120876002704e-03,2.077929664150289513e-03,1.337158552080760371e-02,8.619617688170719272e-02,3.533526760271424750e-03,2.094790377605008913e-02
4.016574433126529620e-02,8.386869117196608242e-03,2.500198676734511141e-02,7.449388713097305527e-03,3.448476797311075467e-03,2.593802638980643657e-03,8.357976375810371138e-05,5.411586011280010433e-02,8.700419608077032338e-03,1.276513877008494773e-02
2.454804924000122263e-02,9.390152469841994004e-03,1.162332773507584842e-02,7.301578876908372713e-03,3.515101974709555332e-03,2.187444614828431416e-03,1.249251645435950527e-02,3.390126634637579545e-02,1.092996838459540238e-02,3.916596306159233869e-03
1.932817182819160026e-02,1.075844396757816984e-02,4.130149988586946305e-03,7.179544003072373462e-03,3.428723168831657262e-03,1.829534005730377609e-03,1.134415696308358444e-02,4.975821107990321956e-02,1.261289638253327954e-02,1.277116608404497804e-03
2.292197701272679494e-02,1.094512655049523914e-02,9.538646023881852676e-03,7.086378216014340911e-03,3.013136277714476442e-03,2.263299807724313949e-03,1.015430975921471565e-03,7.570023866424915870e-02,1.533820354957993355e-02,4.863872828803119872e-03
2.386460028573213210e-02,4.069858736651395248e-03,6.754236474637095519e-03,7.018831129480636831e-03,2.899838176392954565e-03,2.301762442320929181e-03,1.116737848517262467e-02,7.020695388586149777e-02,1.720837560386411641e-02,1.116223716024153552e-02
1.548817087752034881e-02,3.881132726221569323e-02,9.497887890052632287e-03,6.970288812519202792e-03,3.774547745301322019e-03,1.787015753994481901e-04,1.139648815278773882e-02,3.202864847281274713e-02,1.526262507956742745e-02,1.763065763116974938e-02
3.050332177124002314e-03,7.606652245444248117e-02,2.459797999073649877e-02,6.941564516987681725e-03,4.885525324478300069e-03,3.898136024415286595e-03,5.414449641952509377e-03,2.709616107511772683e-03,9.680366883712529513e-03,1.999490466261701072e-02
4.599560287264470824e-03,9.257842093642941472e-02,4.239146057832014064e-02,6.934710305630571378e-03,4.720154642909889231e-03,7.853879797347373265e-03,1.768207310143063839e-04,1.279798135209912410e-02,4.677716829637795261e-03,1.354927876142019393e-02
4.726674024435405241e-03,8.073759679612549367e-02,4.802848837860820841e-02,6.929860173091990753e-03,3.282724229932923281e-03,9.346305633012749053e-03,3.061045092513598864e-03,1.409519795636079639e-02,4.036592590357011845e-03,1.463544154000255039e-03
1.074050181399466633e-04,5.221946678225300453e-02,3.843332244232650768e-02,6.898044985147957879e-03,2.084103664032482556e-03,6.806206456102907587e-03,3.230118479850977668e-03,2.475049620163609354e-02,6.436042084441793293e-03,6.166238204613621286e-03
6.211376856161901147e-03,2.416889148433847348e-02,2.333898676956531332e-02,6.851334724117880831e-03,1.854337961263209178e-03,1.200712891742510393e-03,3.049573284461786892e-04,3.465361774723933752e-02,7.743345068400964148e-03,5.483491633945051028e-03
1.110181251121642246e-02,4.419615145398595075e-03,1.226835409776394319e-02,6.817274630960706329e-03,1.892753381287484065e-03,3.242565578401003078e-03,4.155029145887195741e-03,2.507688676691577356e-02,7.072097341510910976e-03,3.766053644082136258e-03
9.898511812224706358e-03,8.726690722690163410e-03,6.231642310348757020e-03,6.731754060722180272e-03,1.594896119117266775e-03,3.085773186364729626e-03,6.228919555627622333e-03,3.238929487294588128e-04,6.987438691257151675e-03,7.673632338881133767e-03
1.979454815891428052e-03,1.504462893485683864e-02,1.876528021588650926e-03,6.491547021584052543e-03,1.158468249168933054e-03,4.313253955664662822e-05,4.927737023261664039e-03,2.341070519328679322e-02,8.464913350436841996e-03,1.375493310386624070e-02
4.361600033776817480e-03,9.673336163717214525e-03,9.537885688224211414e-04,6.185464052335688627e-03,8.002075175578219485e-04,1.663669146102654929e-03,4.163867559945660067e-03,3.798618324174607430e-02,9.846043154143953313e-03,1.473583933043377293e-02
1.760886513958003028e-03,5.608255693892189725e-03,6.958933171552416849e-04,5.989383500896270675e-03,3.880858448294443935e-04,1.158092586007667627e-03,5.549411369853781903e-03,4.938311224190911064e-02,1.064491494256906978e-02,9.627245162555201491e-03
3.256407036815297563e-03,1.818711178260973976e-02,5.903256280470636254e-03,5.668089724294053840e-03,7.965552547484646524e-05,9.532799232807383401e-04,3.318610946942735212e-03,5.635768873539231255e-02,1.220532157799600337e-02,3.640718461303895943e-03
1.452446800142926341e-03,1.682085661717588193e-02,8.056718661639615531e-03,4.777884279219211591e-03,4.479094102295219258e-04,2.258328684170930398e-03,7.269598188261695675e-03,5.246498086178838505e-02,1.411766820372882709e-02,1.311891696959722933e-03
1.342878843002266558e-02,2.464530774514357963e-03,3.481163096844643208e-03,3.784830472797053990e-03,9.381702064417381595e-04,3.474653494080301268e-03,1.982437607443666289e-02,4.151441951748757742e-02,1.376267033284571742e-02,2.710664219308908055e-03
1.848267838093347465e-02,1.334943388206804270e-02,1.526656489408218095e-03,3.932469142058654839e-03,1.851869308431067273e-03,3.282077318492161461e-03,2.355412670399457953e-02,3.487382436975396127e-02,1.014830746083671999e-02,5.925737725315957834e-03
1.514998532016631483e-02,1.598248711848789319e-02,3.057026134693721468e-03,5.086513282966309210e-03,2.591195801208822508e-03,2.709341535563652981e-03,1.756406407680646126e-02,3.394545661986150126e-02,5.278078435583684856e-03,1.102744950967652314e-02
1.797848495149948281e-02,2.518621927505815608e-03,1.845604282173016891e-02,5.097721304704195405e-03,2.226711394339431042e-03,3.265423545828413654e-03,9.303157681624478481e-03,2.894605007535455687e-02,1.497796280937258723e-03,1.788357908414435135e-02
3.171786174943683895e-02,3.460806361756908062e-02,3.437773715801990815e-02,2.600457768111333248e-03,1.479748337011604301e-03,4.371595412012234914e-03,1.974414225931853811e-03,1.748725564857004505e-02,4.738443964816275436e-04,2.021541087893162156e-02
4.107132845567035284e-02,6.079311101119687366e-02,3.928327488170067078e-02,1.099209011754543166e-03,2.383010849807710822e-03,3.797118444556602402e-03,6.947145237615586985e-03,1.401968625933043902e-02,1.532421220699739690e-03,1.038974244251427217e-02
3.219383831460231188e-02,6.588326604495253758e-02,3.085472919756288013e-02,4.071500080982888396e-03,4.974405264342202961e-03,6.125252578543760292e-04,1.807736143427121633e-02,3.354630607985083224e-02,3.436635494190935954e-03,5.366889098111504719e-03
9.142330809536042963e-03,5.010775017508074108e-02,1.610346520576380266e-02,5.885421848486228381e-03,6.291590480241273514e-03,2.780181170374180100e-03,2.930689996276082329e-02,7.027089464009712849e-02,6.765283977044398919e-03,8.015309796022296665e-03
1.488343190277017017e-02,2.456712355349652960e-02,3.795288940092243594e-03,6.870179841058456083e-03,4.259265983163537488e-03,2.814458764670455145e-03,3.973045279533121005e-02,1.023672599667743988e-01,9.345834709081686509e-03,8.568209596392373228e-03
3.154543660574003761e-02,1.890284804398361393e-03,2.452846629827119991e-03,7.084232380922151663e-03,9.056486322852186485e-04,3.917901939917062043e-04,4.903038475267360030e-02,1.160475472403098701e-01,8.631375592068123853e-03,2.492238702414391327e-02
3.968921059658701150e-02,6.651826163579274698e-03,4.676355018442150679e-03,6.605305901584759658e-03,1.378241287328974300e-04,2.669415507247715688e-03,5.520693783311304836e-02,1.116604416330638366e-01,5.461442497235161411e-03,2.132218994985309729e-02
4.052550812619093445e-02,5.362606402048677133e-03,5.544425846345348366e-03,5.905866000572593255e-03,2.068424232182597498e-03,1.557000808010637139e-03,5.601469837935145468e-02,9.140973004975988525e-02,3.374378118020071073e-03,4.202524090547688287e-03
3.603819710244759306e-02,3.021768968227283789e-02,5.532493854586760171e-03,5.932193410461833460e-03,5.749452494107147940e-03,9.164386300337928198e-04,5.200587016622865155e-02,6.270073505428891414e-02,4.323496458868331810e-03,5.966907277701390989e-03
3.107849722930432212e-02,4.750428887171840447e-02,5.660862424422595171e-03,7.543990342760306667e-03,8.960670628015829017e-03,2.314978603966105081e-03,4.664111641112337475e-02,4.767923795486202904e-02,6.799946709850894500e-03,2.771249235585838099e-03
3.040425968793952771e-02,4.382371007265222634e-02,8.835836435419953255e-03,1.028914036415412396e-02,1.026790017692403786e-02,2.412772036347884431e-03,4.225898665026410483e-02,6.331207149884851559e-02,8.350040385602995260e-03,4.266300146008985064e-03
3.212014037446703218e-02,2.512726714429214595e-02,1.598249404995757267e-02,1.270651759572836645e-02,9.034512849209403937e-03,1.258367237194051762e-03,3.624558977551149697e-02,9.419444850120826940e-02,8.661272853361202256e-03,8.512973087316907245e-03
3.092460651529994192e-02,4.770521510129036025e-03,2.345628873606650858e-02,1.407498778286711376e-02,6.990725238779927839e-03,6.101210047970602457e-04,2.316328484922722253e-02,1.049741421733743629e-01,9.222618305658793550e-03,1.271340158208345353e-02
2.883621543414554428e-02,1.091816257806624973e-02,2.623886666492685968e-02,1.427434181296880975e-02,7.284733320472168601e-03,2.748319475821774495e-04,1.401060510729092027e-03,7.851322873572635919e-02,1.064548335645193293e-02,1.925788971504870106e-02
3.331041594194734945e-02,2.027268589875678290e-02,2.223500461601360043e-02,1.240717036171505062e-02,1.035865687002426351e-02,4.343086566738450782e-03,2.377924089142899669e-02,3.043720287111553041e-02,1.217076123308736407e-02,2.564303862989799135e-02
4.146231800515031568e-02,2.032431026381846528e-02,1.273466505151354955e-02,7.808921194409141481e-03,1.294571343089045631e-02,1.012543504878007580e-02,4.492073717861933685e-02,1.166339117827363756e-02,1.357486868031846164e-02,2.983400890567220257e-02
3.662545140734364824e-02,1.132783778336252621e-02,1.273302293557608371e-03,2.131233827853053209e-03,1.247202085149091630e-02,1.232800632130832963e-02,5.853971703658673170e-02,3.474370896029584793e-02,1.492448963231183569e-02,3.173636093137117975e-02
8.387191751431131298e-03,1.741513853779455643e-03,6.507935211075695399e-03,1.388472042461465954e-03,1.038715906767677215e-02,1.147780623701237512e-02,6.436210596015413954e-02,4.536327320180652545e-02,1.453164251557053505e-02,2.928132557295393817e-02
3.036821050581510126e-02,1.686830340264280784e-03,5.454338333319256292e-03,5.438388231121119368e-04,9.647446816061258992e-03,1.223271539977223432e-02,6.056724781265285240e-02,5.441595718135677773e-02,1.053268109014108937e-02,2.011091616953294275e-02
5.424900721694885658e-02,1.346843646598370504e-02,3.941224310373907247e-03,4.863284343045740955e-03,1.075823648212894182e-02,1.639146122641901501e-02,4.505204683099349461e-02,6.182953960202747234e-02,4.708369814209673217e-03,7.227413800587638090e-03
5.098538852186789566e-02,3.227686900531193809e-02,1.567579312043280992e-02,1.361781356849928702e-02,1.213533328879355840e-02,2.100274886405720937e-02,2.156327611224677712e-02,5.847903553740921995e-02,1.285193230727087188e-03,2.492783199367599838e-03
3.093048978095250603e-02,5.221354214622186962e-02,2.457193518237252988e-02,2.327240889011271407e-02,1.260050611764304204e-02,2.250016576391805981e-02,3.090036645930517838e-04,4.209164054584099007e-02,1.784480860721044315e-03,5.375207803139587723e-03
1.137286287804434130e-02,6.717466687667765501e-02,2.930973339483642498e-02,3.059407383741396050e-02,1.163436122140319197e-02,1.986623612619664928e-02,1.311282960214524458e-02,2.499087323780450898e-02,4.047114686594963269e-03,3.499452135954585381e-03
1.806570579408847904e-03,7.070945354514371339e-02,2.982685212830830587e-02,3.345684256102620519e-02,9.179695500333158453e-03,1.492212779306992428e-02,1.802037993927167389e-02,2.254111490898652592e-02,5.792948148053266716e-03,1.951745628033595137e-03
1.202954351880657254e-02,6.139491121577951571e-02,2.580633371401183304e-02,3.232467400431150023e-02,6.782643826832397346e-03,1.107229201351456367e-02,2.207973480704856009e-02,3.965923022396879161e-02,6.358568299998262549e-03,6.064850631218314699e-03
1.801655541449386291e-02,4.564377380405457152e-02,1.744943678582455693e-02,2.935941262124271839e-02,6.517170617935236915e-03,1.018890331721140734e-02,2.771837564775267090e-02,7.234505527935954083e-02,5.738922132069363725e-03,1.854743183562905517e-02
1.162874854937906953e-02,2.942706805756510613e-02,5.563292790770099638e-03,2.666522319475905789e-02,7.721796312180914321e-03,1.048465908887507778e-02,2.791717455087584787e-02,1.143448571508846739e-01,4.093417444031183586e-03,3.609856360604297987e-02
1.023366665244799904e-02,1.012941314935086531e-02,7.706289414278229624e-03,2.581098131845755220e-02,7.568499242526435800e-03,9.292688209181209150e-03,1.840030959169729544e-02,1.530804953132784973e-01,1.819050817408949996e-03,5.120131424787471158e-02
3.700347944105746023e-02,1.522362533176618848e-02,1.754485158310267745e-02,2.755255665488925629e-02,5.446523569358627075e-03,7.057289576520115945e-03,1.009356981247649943e-02,1.653976791513578903e-01,5.002885775576886235e-04,6.003521777861010877e-02
5.121148841038543342e-02,3.631027095379339709e-02,1.889659688447955371e-02,3.071951102279414300e-02,3.941056770034889224e-03,6.467479307507164633e-03,1.690433971351972334e-02,1.353716299083607688e-01,2.062684175607313805e-03,6.524899828353016018e-02
4.499507786263851061e-02,3.678450394938026502e-02,1.159747004152934975e-02,3.306156754641059736e-02,4.981520399529952223e-03,8.599662978829143711e-03,3.495844946738174003e-02,7.840332097700350444e-02,2.734057931409667949e-03,6.778368833532306958e-02
2.621134508456783238e-02,1.630263824963957414e-02,1.235229284676896654e-03,3.456170660837454278e-02,7.333803618468828951e-03,1.168229362931795870e-02,4.792307266074139621e-02,2.873568035371500823e-02,4.077691963417041932e-03,6.243006418372853278e-02
5.925817340249934888e-03,6.646396092335258091e-03,5.634161406861094672e-03,3.746812920450829504e-02,8.545397738021378101e-03,1.340523571372009490e-02,4.811071100621303748e-02,9.772881668281517553e-04,7.431248754254149262e-03,4.856757983328873624e-02
1.185116733054649742e-02,1.614118026616532739e-02,6.274759208145975695e-03,4.213490566088000377e-02,7.857965790214398866e-03,1.342258076885421113e-02,3.959581686905395970e-02,1.563778617704028595e-02,1.086477939814393424e-02,3.811234651452309607e-02
2.435922459328077050e-02,1.415672758594667749e-02,3.150886829549097261e-03,4.661101776878944641e-02,6.278572092339865414e-03,1.292288830689694232e-02,2.811045128885236721e-02,3.040503558543487111e-02,1.079390487198620546e-02,4.244714542466761220e-02
2.723859930022519416e-02,1.317983997600512963e-02,2.310559448884449366e-03,5.019755492042041883e-02,4.718561423045703092e-03,1.219265367938718314e-02,1.909807756637394924e-02,4.477467702143671235e-02,6.864974700998843424e-03,5.712429300945819771e-02
2.415813987186993250e-02,2.021751481361621500e-02,8.222913157936559761e-03,5.164879477307556671e-02,3.369556486108921892e-03,1.026319087215884010e-02,1.634142309722424677e-02,6.182842034337543424e-02,2.402046926456821111e-03,6.909288657170398196e-02
2.695618849049231935e-02,3.113376013340101583e-02,1.726496840663709065e-02,4.527962991395644704e-02,2.341253295287243179e-03,7.185964948097145477e-03,1.514372772893686318e-02,7.613311617962302547e-02,1.675973890639949305e-04,7.388176262619078338e-02
4.076889964482224848e-02,3.881029408340999631e-02,1.927599558064146609e-02,2.759893072079604506e-02,1.519385478715290765e-03,4.945605084349636270e-03,8.094757483668479567e-03,7.044152289941815748e-02,1.259741454032918670e-03,7.826361629278559551e-02
5.998646776758194410e-02,4.219027045142692556e-02,9.858508385723928694e-03,7.618366104414208730e-03,4.064714780224774416e-04,5.697395906333858721e-03,9.952801983154234075e-04,4.144704705089886226e-02,1.179399967320391785e-03,8.962892959867164999e-02
7.938226452104778230e-02,4.296439498392643636e-02,2.705373150629779115e-03,9.093396006059561391e-04,5.854120841365408317e-04,9.703653849101210802e-03,3.949911366815450804e-03,4.421675625646936947e-03,1.277677023599340864e-03,1.046851577978506337e-01
9.467283057586929618e-02,3.769847611712129343e-02,7.861143190531322614e-03,1.066017223233442501e-02,2.522773230694557605e-04,1.425851568923505210e-02,6.313626900882384450e-03,3.821952435542232129e-02,5.759016217827617537e-03,1.052550475471147606e-01
9.444077991068486333e-02,2.227282467909584909e-02,4.962979197584076012e-03,2.188079632703752997e-02,3.293516243880331967e-03,1.472729545652032117e-02,1.996835381515425431e-02,9.794633113928864765e-02,8.682664222133297527e-03,7.161694356832615238e-02
7.110306082739836775e-02,1.972850945757273662e-03,3.272622341129673325e-04,1.835359152303377150e-02,5.562493795185910993e-03,8.729508405504932123e-03,4.067347232081617442e-02,1.609901544111785043e-01,7.165796362222672314e-03,9.121977711135959010e-03
3.770286200140330474e-02,1.180512055253964132e-02,5.365267215875112010e-03,5.273118130886526476e-04,3.608242804020432917e-03,6.294134860996261540e-04,5.105369547002632652e-02,1.866277286876081853e-01,3.190054665309312310e-03,4.727270393966361006e-02
1.405445901642217617e-02,1.381670273304257991e-02,1.014894474146077648e-02,1.686256403452807140e-02,2.022150389757325709e-03,7.599396749684667225e-03,4.333356456187324041e-02,1.556270640503552016e-01,8.336999598128149759e-04,6.789254540726495646e-02
1.371327945634285596e-03,7.804109813382984276e-03,1.345456494693979960e-02,2.181691418265556404e-02,7.658192861511621888e-03,9.190850372103527219e-03,2.471634613647145928e-02,9.279201197908963639e-02,1.312013395219080447e-04,5.956493745957004704e-02
1.124331567365564367e-02,6.408235146191285612e-04,1.475761964294508913e-02,1.819324559934642691e-02,1.170957587163336255e-02,6.577782406778732126e-03,4.702068134989269982e-03,3.852430506364982327e-02,4.014366043583459873e-03,5.040945680699661369e-02
2.581272149958857218e-02,7.524452577478514710e-03,1.504150016508606393e-02,2.240713740584570138e-02,1.607788993242023970e-02,3.932985180520683424e-03,9.204502829159648750e-03,1.774218046211933214e-02,1.184562985838662902e-02,5.536828179609960821e-02
3.949642777246206715e-02,6.781398561384416497e-03,1.193514786818666157e-02,4.372547033443673764e-02,2.215495461465947016e-02,7.381358685422773416e-03,7.614537842122090158e-03,3.080684790603672313e-02,1.832744302771094347e-02,7.169502446507361459e-02
5.689461272419420873e-02,9.290346900807213218e-03,9.153006149104485367e-05,7.002445576324856091e-02,2.853560758659215088e-02,2.043772990736292261e-02,1.318135951872866779e-02,5.562030755865825932e-02,1.809688025087359542e-02,9.741247180235394765e-02
8.089589554007516059e-02,4.022777933110655013e-02,2.066844476260513985e-02,8.282948734753999009e-02,3.337792393600533952e-02,3.818068579894676878e-02,3.969211815918465003e-02,6.178471642736563241e-02,1.184898598558581546e-02,1.346634069196371297e-01
1.025908539680964043e-01,7.256241153912881825e-02,4.046877824002378943e-02,8.219012997832553236e-02,3.635071814009043639e-02,5.098448423200948459e-02,5.200235766200094617e-02,3.783825932320535740e-02,4.051658429404879358e-03,1.759652513933832596e-01
1.129785826370981461e-01,9.137259437229686143e-02,5.091813197127401797e-02,8.150118050026934624e-02,3.752195199142407955e-02,5.527144713560525058e-02,4.855669263550563969e-02,5.390890711385721776e-03,2.986111096554507505e-03,2.012944363006368698e-01
1.128008389609666123e-01,9.259454396578042923e-02,5.129744757764600344e-02,8.273955065312506296e-02,3.632598841145300711e-02,5.451603750440952439e-02,4.490030897691341116e-02,5.250538525251475033e-03,1.010744925464843354e-02,1.941473131531032958e-01
1.025654104449478798e-01,7.873526109660225480e-02,4.416369403215919531e-02,7.522859810189970464e-02,3.220579810895528305e-02,5.000602019875675930e-02,4.429011321250482525e-02,4.720111807851970140e-03,1.741378012177372675e-02,1.561949530082827331e-01
7.772389809837727814e-02,5.133478328142521141e-02,3.101576239983426519e-02,5.691198129503349801e-02,2.539465501242012258e-02,3.931802176855001690e-02,3.095294973338649780e-02,1.989366548009591923e-03,2.219417986878905250e-02,1.045859636130918174e-01
4.199177234316274487e-02,1.745690264997047311e-02,1.531540252150316236e-02,4.085293043917261058e-02,1.750224581975561369e-02,2.508278335894145034e-02,3.172014643446368146e-03,3.208143619411234909e-02,2.189202049951975357e-02,5.983701100942692697e-02
1.154470427186204962e-02,4.878731878032342012e-03,3.758822279903515067e-03,3.863772592910361126e-02,1.173484859235597068e-02,1.655860327499880658e-02,1.111413251524318718e-02,7.150635422120484030e-02,1.789470278115032689e-02,3.746253358839612274e-02
9.338418575672025046e-04,1.612161955709942585e-03,7.235637042818233826e-04,4.668016838198221774e-02,1.074180335801876336e-02,1.882283877844753706e-02,8.543847569563617003e-03,7.748811276108209800e-02,1.451407719096591518e-02,4.173225576421287636e-02
3.229190450495467157e-03,1.969463615634355069e-02,3.340635243921390683e-03,5.200901294207183057e-02,1.320024799008678341e-02,2.590282925934727157e-02,4.210642772309853427e-02,4.848904310322081634e-02,1.405507423093261578e-02,5.965240509944110675e-02
1.339740075327784663e-02,3.771330510634362393e-02,4.809540273658545646e-03,4.653850586400828243e-02,1.483054383360856397e-02,2.851059002664306508e-02,5.588190334325179864e-02,2.149792037964215821e-02,1.484716360481594562e-02,6.704161764277528912e-02
1.529086707824086136e-02,4.074571566300263376e-02,2.499157173815701530e-03,3.232235933130571393e-02,1.378329032156081976e-02,2.487848580350978528e-02,4.657835882269807659e-02,2.748796024302627497e-02,1.504402172190392670e-02,4.954839991061532611e-02
1.493602756684370668e-03,3.343031483084635963e-02,8.714782814289298227e-04,1.689801527269218714e-02,1.187194997765884420e-02,1.974335990756981296e-02,3.490906219397733878e-02,6.296676693714980955e-02,1.547624264055770874e-02,1.682506617887439410e-02
3.161474530860678561e-02,2.338440422962322768e-02,4.232428362185099505e-03,8.134404839919409658e-03,1.008732930682995459e-02,1.592135562518623079e-02,2.866286384437742932e-02,1.093587731116015399e-01,1.627494206398543211e-02,8.924398069826290636e-03
5.733022252033134758e-02,1.165630162081462799e-02,9.475173964348649475e-03,1.084651673791604647e-02,7.277948614447127956e-03,1.240436189430770691e-02,1.863459671612045787e-02,1.598298621907099926e-01,1.409538364498034643e-02,1.850338620074915008e-02
6.885820187479463339e-02,2.935959949702028962e-03,1.448083188413775216e-02,2.370750860930137538e-02,3.472396025808880196e-03,8.469436189628715833e-03,3.707428000232638587e-03,2.100805069704511086e-01,6.810898191291949420e-03,2.509417187383696998e-02
6.985144608257955190e-02,1.717918448707182744e-02,1.313014783264410297e-02,3.928895549644537827e-02,1.998603507046626312e-04,4.334045290148537052e-03,5.692381439609617635e-03,2.405230332571730578e-01,1.984613151084355619e-03,4.426193605723659219e-02
6.066045557859577747e-02,2.459611702180965892e-02,4.225076172088325713e-03,4.792709867339296770e-02,2.104174893430030800e-03,1.130957806453150062e-04,6.958709558559380594e-03,2.333928405187073174e-01,7.513560545912916291e-03,7.031312165719427743e-02
3.436367110530998137e-02,2.265274148438965393e-02,6.255913014303228839e-03,4.246702557466959516e-02,3.635687639384602415e-03,3.245398351219057342e-03,7.177971700389921411e-03,1.982505014213591932e-01,1.020163230596424740e-02,8.334911849183644639e-02
3.316213730133394863e-03,1.757491281677243250e-02,1.218053000786266209e-02,2.339360850301962572e-02,3.378623708625545265e-03,1.612722557661140383e-03,7.054389880234086460e-03,1.594107789583927293e-01,1.357519380616910125e-02,7.704112941209115273e-02
2.877680497606208837e-02,1.939814957321032637e-02,1.220055206920737587e-02,1.432714880899708509e-03,4.682164770815901936e-04,4.759318180766754225e-03,8.466427235461022535e-04,1.267817545604382201e-01,1.815733701604913680e-02,6.512986586833111047e-02
2.820037046130706437e-02,3.119999570860286509e-02,9.198304718718233394e-03,1.015771005898521290e-02,3.432684459402032991e-03,1.027136900009133387e-02,8.777394128969462708e-03,9.585899103554232359e-02,2.107871685310980583e-02,5.922460171180831540e-02
1.622253467574238592e-02,4.617287569117763807e-02,6.991138535680649184e-03,1.011529901206363428e-02,4.872889826500153079e-03,9.438617966174204718e-03,1.125376694620020858e-02,6.549531208078171463e-02,2.042714415482355800e-02,5.374158798635438050e-02
1.405792599090702373e-02,5.676564761654962626e-02,5.703624567058473115e-03,1.154045273621718930e-02,1.871361509813418466e-03,2.395884231157266106e-03,3.908935486042860140e-03,3.682300840840824208e-02,1.730516577776424619e-02,3.762965393180331408e-02
2.192947884944387860e-02,6.243691572847746840e-02,1.044854798869896025e-03,2.520335859374499970e-02,4.169894728754059213e-03,6.534762460628508809e-03,4.450894128595115837e-03,3.015541612676961303e-03,1.393989515233273399e-02,1.240538697954908856e-02
2.630173684371420184e-02,6.469810323024188792e-02,9.284306761412119968e-03,4.453717116911008744e-02,1.029850254620894717e-02,1.389199139214666867e-02,7.703003467455381628e-03,3.825189804312961739e-02,1.138781648691154780e-02,7.245202297902442364e-03
2.358326927231736356e-02,5.923538272836271351e-02,2.009853705625420581e-02,5.267928726918368054e-02,1.489346215918168834e-02,1.904828998146996730e-02,1.079245470215154865e-02,6.822078559211729176e-02,9.333979070782457213e-03,8.255064416846055395e-03
2.348615881947780856e-02,4.058199707607709067e-02,2.251946097049514414e-02,4.242242697231564386e-02,1.754228264974848350e-02,2.210735610194905151e-02,1.856968230648642013e-02,7.008002028007902229e-02,7.355161640530437535e-03,9.285994258541100527e-03
3.482357141287075603e-02,1.245838162464696884e-02,1.317855711397932297e-02,2.384331077284899958e-02,1.751099776932649177e-02,2.223711511336011123e-02,2.431608283662659020e-02,6.490452827479947784e-02,5.916656661797243047e-03,3.496372234203264096e-02
5.754533596922915134e-02,1.437341451422916028e-02,1.573914772662292263e-03,1.208869427870203767e-02,1.455145673515166778e-02,1.863090475279561772e-02,1.974209588594719525e-02,9.069074663966031347e-02,5.944650198614219797e-03,5.786289269718103423e-02
8.505565958881861066e-02,3.248908234472924067e-02,1.132550979107621592e-02,1.294200587995073155e-02,1.049863363734546140e-02,1.207390962343020575e-02,1.066179256882765145e-02,1.459402470291245035e-01,7.204672209497003585e-03,7.126086298467135260e-02
1.070665995707353046e-01,3.920715901091660627e-02,1.131485440353311930e-02,2.263482720215611102e-02,8.015774919277131663e-03,5.299256642581999348e-03,9.398312434716966229e-03,1.908679116890590888e-01,7.732737618507091841e-03,7.215620636617953165e-02
1.130000995705299355e-01,3.295276288841719747e-02,5.418735427196420644e-03,3.628377738358661009e-02,7.607394343100029252e-03,1.177875188155912828e-03,1.541425644319439035e-02,2.034563718105793229e-01,5.796896132125172081e-03,6.214457124027652352e-02
9.946058615605259112e-02,1.729485781912878245e-02,2.749939301496455261e-04,5.079667154633388249e-02,7.370384082078358656e-03,2.577088812005562564e-05,1.779634023215188876e-02,1.955832098016810905e-01,1.752225252475298530e-03,4.836994179490591156e-02
7.362806998413728987e-02,2.748420230657784222e-03,4.358710615772427854e-03,6.207155851789963874e-02,6.320383565534869533e-03,1.976518574057276566e-04,1.396380200435595395e-02,1.775105097146315036e-01,2.990488450693986819e-03,3.827430268348613190e-02
4.643802457983896292e-02,5.082825556477529004e-03,9.543892501925404018e-03,6.550107256183242133e-02,6.322277894355582059e-03,1.154328327344708019e-03,1.063287874829450634e-02,1.473130210136520124e-01,7.729508573631353741e-03,3.197914854227878328e-02
2.557421355218738798e-02,1.193835469659083881e-02,1.688636153764655826e-02,5.917682537482872596e-02,9.090975375414981491e-03,3.069968045712189852e-03,7.845010869582693530e-03,1.141506440278738654e-01,1.208365986309549792e-02,2.493184331409886018e-02
1.418694806254950855e-02,2.004035476431861862e-02,2.201922855002690083e-02,4.324679761956053831e-02,1.265293394898224164e-02,4.380450291606940993e-03,2.448435393595684798e-03,9.738548256660627123e-02,1.498960575997641473e-02,1.906556937630976209e-02
8.037963203655674321e-03,1.826274180636919611e-02,1.838441571722616158e-02,1.925458670232678415e-02,1.343220428389373632e-02,3.781331381817969791e-03,2.126008512039409548e-02,1.017192760117104910e-01,1.536700924788845200e-02,2.271479626489753684e-02
3.829545413887206363e-03,2.199065801152768522e-04,5.387876351533094944e-03,5.421733009413099401e-03,1.146782973110646239e-02,3.544240704114579726e-03,3.891559336591587925e-02,1.145166036134634829e-01,1.347543286857248376e-02,3.547766327167332229e-02
2.565916943858275248e-02,2.236020178547147921e-02,8.489485745678921128e-03,1.791294869512186777e-02,1.068247590520624880e-02,6.739749877940844763e-03,4.663664277930846397e-02,1.221382462950451331e-01,1.105894888852067617e-02,4.308219288327722052e-02
4.818625544389291276e-02,3.012202532243439188e-02,1.341941010523246824e-02,1.243032130739670990e-02,1.356361346551990255e-02,1.263500596419411294e-02,4.140451088088623749e-02,1.123126819528048187e-01,9.732539369347720931e-03,3.461094508040863521e-02
6.344192538528577174e-02,2.079040555161269788e-02,7.926411960047313743e-03,1.934617317019904706e-04,1.810280328747537401e-02,1.830411526213511497e-02,2.258175949002084321e-02,7.241197367064243495e-02,8.811319329612559217e-03,1.621923791407626700e-02
7.405542489597662092e-02,4.159440791121786496e-03,1.166448810068654134e-03,3.061629600424048761e-03,2.046741402243586888e-02,2.227350352255869428e-02,4.277096739734114438e-03,8.507597453577098179e-03,5.634402229129763934e-03,1.394297494125701364e-04
8.144446409549042920e-02,1.044894595203262576e-02,7.103823942320121668e-03,6.782826703634799344e-03,1.865997662003619426e-02,2.354364948216057865e-02,2.345720161043946678e-02,4.185218051898534353e-02,6.082009190374751753e-04,1.275433084878596288e-02
8.145674494012752898e-02,1.937706093978558419e-02,9.542918246081319444e-03,1.571904041626815546e-02,1.368121145712040618e-02,2.077769448249448120e-02,2.228047200280136586e-02,4.430146011048583660e-02,6.526575636795575210e-03,2.628293103901579650e-02
7.695428641246782053e-02,2.450207660133161408e-02,1.308068701806556697e-02,1.269213989111353871e-02,9.002926499588049386e-03,1.581845665760218955e-02,8.522395269534832271e-03,1.514177143675268095e-02,8.316655762741188840e-03,4.002486572830379896e-02
7.801985393505639355e-02,2.909182104918092357e-02,2.038309225624066953e-02,3.693444346044633640e-03,8.088157232699592566e-03,1.385830869136899131e-02,3.190900425805776909e-03,2.740313436124196950e-03,6.829038156372707266e-03,4.855431771538213509e-02
8.497536966117087698e-02,3.025153308620941173e-02,2.713793903555642914e-02,2.494099000587429900e-03,1.026585586335790855e-02,1.641104742131195907e-02,1.391827642510986944e-02,1.572895664701814272e-02,6.021996397008243067e-03,4.880001952938467502e-02
8.438452794259193590e-02,2.120974526626745113e-02,2.590487410095045420e-02,1.262175378185957653e-02,1.039871758505810789e-02,1.827862374894503525e-02,2.683373831162266798e-02,9.620586686967001061e-03,7.578985089807025420e-03,4.108060518184317167e-02
6.699264797264985194e-02,4.511042102993783470e-03,1.632326409013112878e-02,2.416063009285401159e-02,5.438519562778746513e-03,1.562899857093534919e-02,2.940680363193410793e-02,3.812396122985486913e-02,1.005237347437175528e-02,2.707191305624491104e-02
4.159722962051055212e-02,7.032465618142909151e-03,7.549107533352484786e-03,2.601385000888905424e-02,4.720394601936742356e-04,1.274414754266892449e-02,2.883400377460242775e-02,8.463615932257775865e-02,1.174798871643217488e-02,1.076262467267146729e-02
2.557952684715985789e-02,5.990143795542756527e-03,7.116964707936652805e-03,1.758829416489828684e-02,1.486231843015082838e-03,1.533633932091374615e-02,3.721139446498075015e-02,8.412770811732488141e-02,1.163731107247410572e-02,1.139546222036367769e-03
2.517554673122794975e-02,3.764334670311642386e-03,1.203829978676153323e-02,8.198889131821736689e-03,1.025430087025738964e-03,2.059681923763903924e-02,4.869926267248283341e-02,5.429527168220367461e-02,9.198382074188420771e-03,3.815362483875732111e-03
3.082357293706664697e-02,1.584424683038994364e-02,1.539219229114522150e-02,6.291561419017664518e-03,5.616649202669324499e-04,2.038300098467221710e-02,4.820693878880537298e-02,3.928544446479118740e-02,5.391508297972468465e-03,9.904135240735713157e-04
3.173068015918887458e-02,2.337404126144087407e-02,1.594725774270189939e-02,1.133931682094036116e-02,4.188561599409970811e-03,1.309800784502086410e-02,3.782668630059394382e-02,3.537517607843161660e-02,1.919269916052500705e-03,8.203284309270260366e-03
2.886492727361715527e-02,1.755451269429438368e-02,1.515323485562094716e-02,1.697101216104810947e-02,7.519075421136848549e-03,6.061520863690631963e-03,3.403935959169840375e-02,4.734843683859316261e-03,1.109699114045776310e-03,1.719683681838452341e-02
3.007519080173316067e-02,1.380131675110855827e-03,1.074431635034336051e-02,1.850447460982290737e-02,6.029678720363539773e-03,4.909670405929713981e-03,3.905651916550726549e-02,5.047474938044795023e-02,4.287505138852386669e-03,3.071111341782532117e-02
3.773685649814736282e-02,1.795813924086520422e-02,1.754641971291067467e-03,1.460712757236947573e-02,3.512775792081390160e-03,6.326817529654638929e-03,3.752353732917557833e-02,8.655084269442882283e-02,6.229783185823008045e-03,4.370432868862680204e-02
4.820743849972809747e-02,1.706551809123466046e-02,4.702255815294049089e-03,4.933357532879239192e-03,4.225688450845744432e-03,4.748463640866727384e-03,2.434293081670645467e-02,9.205945277740483490e-02,5.372650137630092734e-03,4.213503361496892530e-02
5.978806604915389705e-02,1.376599879705913635e-03,1.237185917387489129e-03,9.205940501839454670e-03,6.499699204681226236e-03,1.566743154285703352e-03,1.357219573226472326e-02,1.035684011192313791e-01,3.703450214462201528e-03,2.134997984155430004e-02
7.200341917157283833e-02,2.737459339576502407e-02,7.728368090685796762e-03,2.273161601960282246e-02,6.267206513258218037e-03,2.217504689123368962e-03,1.548605226405927460e-02,1.393989236850864677e-01,4.501053795089555477e-03,2.066212783551672760e-03
7.956625920214219216e-02,4.978551144078248447e-02,1.127026361368288487e-02,2.962436234970072108e-02,3.048319822563911371e-03,7.040101099517895658e-03,2.410484822958665688e-02,1.748785852542253383e-01,6.921422569078083259e-03,8.853985724258795278e-03
7.778878020212892652e-02,5.941555786751354096e-02,8.247686897768424438e-03,2.935156247360816428e-02,1.190393576614023332e-03,1.128975682168119159e-02,3.147414210210842250e-02,1.924960042749004341e-01,7.014205799132803253e-03,1.425105104804800984e-03
7.291614440974231171e-02,5.433125677650423729e-02,7.781023342987991066e-03,2.810171048584227463e-02,6.070561968465878165e-03,1.303254182507626591e-02,3.833114953637047767e-02,2.045178337556736448e-01,3.615231454539218764e-03,2.745462886734066979e-03
7.563765179469177091e-02,4.149394966496852688e-02,1.227150619483890516e-02,3.120442067387546245e-02,1.127894795868301936e-02,1.451374598782153268e-02,4.603569785070990572e-02,2.182407592266785434e-01,6.619893301480421315e-04,4.615834198726851030e-03
8.174095195671539360e-02,2.733872270676512145e-02,1.130127196920889011e-02,3.554001216016210163e-02,1.320162340274416528e-02,1.537842098890195193e-02,4.833525932742738923e-02,2.205515157822511008e-01,3.811565139208071985e-03,1.746580297186557315e-02
6.990544560193405477e-02,1.257501874878910395e-02,2.784505700027320452e-03,3.339684809034134533e-02,8.393458831598522157e-03,1.121822230009379522e-02,3.570011354049153207e-02,2.004763091448538981e-01,6.064610833599517331e-03,2.798245594510005707e-02
2.751213074095806843e-02,2.748369366277061271e-03,2.275464352868722742e-02,2.417284020104157327e-02,6.169358047422941662e-04,8.563479022766218307e-04,5.335415626849901449e-03,1.589387434616789940e-01,7.311684330462081896e-03,3.309091915262100253e-02
2.887578031336760637e-02,1.941014127783184662e-02,3.617898678117735523e-02,1.633960744326282133e-02,8.008635701223107417e-03,1.060488306252927240e-02,3.351242163191579804e-02,1.002191057729574925e-01,6.796663589855323970e-03,3.275750273108441607e-02
7.117389743330518326e-02,4.107781633280580685e-02,4.011271377088106160e-02,1.506475350951355652e-02,1.192257792763919654e-02,1.832479819416009056e-02,6.466340330238620759e-02,3.505684484372987436e-02,5.909426910643250652e-03,2.793430047751824241e-02
9.079759745895690792e-02,6.474230574787953607e-02,3.981129093771076238e-02,1.520198405011995331e-02,1.423779972559739010e-02,2.241775652520457129e-02,7.676108398234154917e-02,1.282661549477303459e-02,7.284646692808914061e-03,1.846101538491414992e-02
9.828926871594828585e-02,7.697584903376934740e-02,3.806219435068777801e-02,1.162901911888756731e-02,1.518014780375959161e-02,2.407793800998853442e-02,6.971535195581578248e-02,2.209887600330163321e-02,1.021161459205006602e-02,4.141376436548119266e-03
1.011791559336938512e-01,7.123962604758778128e-02,3.289414697828558359e-02,8.274221824822812488e-03,1.337794713813059491e-02,2.197644415184411143e-02,5.086153091403720905e-02,3.600431489066198421e-03,1.094521722021397567e-02,9.730871299362489971e-03
9.678793408067608295e-02,5.855284538361500701e-02,2.411161360772911405e-02,9.673924689191830753e-03,9.486260569040970425e-03,1.542981151366781475e-02,2.760105663001136828e-02,4.134123415062328916e-02,8.093573783036106181e-03,1.327997465829604956e-02
8.126845615471224582e-02,5.092282318834152194e-02,1.599037243016292534e-02,1.176743122278479069e-02,5.277844987513088948e-03,7.381462037951044310e-03,4.229250903140155914e-03,7.437325681010130418e-02,3.622874454122923180e-03,3.495192460356353996e-03
5.912351075355104513e-02,4.564177054435923642e-02,1.213761096182545268e-02,9.543958295915925399e-03,1.093241784772924817e-03,1.469160177439236218e-03,1.539762458811774065e-02,9.564625972461744674e-02,1.064680288211034172e-03,9.122516628131785085e-03
4.655505547553112633e-02,3.508763768839965463e-02,1.087959751420957723e-02,6.720102239550222040e-03,2.307411576423975055e-03,1.161471486356127321e-03,2.591966249659776594e-02,9.283908706719680437e-02,5.793353451410025896e-03,1.117173091922204348e-02
5.929321443960800658e-02,2.121182399575419208e-02,7.738607228933034633e-03,9.207002758205391421e-03,2.262715885956579145e-03,6.821319087593718904e-04,2.569059113922944615e-02,5.611405502031713982e-02,9.466281865819206262e-03,2.570174572121649258e-03
9.088630542971573578e-02,1.093728726182163942e-02,1.393933751774941538e-03,1.404567269413547689e-02,1.869147463263493144e-03,2.549758985320503199e-03,2.069746503823441039e-02,2.224782597835083323e-03,1.120642998073317215e-02,4.306631838340567106e-03
1.131870897167051443e-01,5.724534179774629084e-03,4.667202140003602964e-03,1.264626559298585515e-02,6.198800454886778388e-03,6.571104488128785143e-03,1.760052821625623584e-02,3.027494903289862371e-02,1.237528476835944059e-02,3.424107506833415967e-03
1.054877421950694838e-01,5.091788483193728822e-03,6.649944026891600572e-03,2.962529421326394984e-03,6.820140945056160642e-03,8.141654281996923981e-03,1.736857509966398955e-02,1.697437890021147311e-02,1.472028592328577037e-02,4.383329648030229349e-03
7.435093040434295752e-02,1.305926968120589733e-02,4.681697861365899035e-03,7.187068629758788102e-03,4.359696875440744780e-03,5.941895806512426277e-03,1.941267505473666388e-02,2.712611914680998493e-02,1.796144629340977114e-02,1.646906502241160183e-02
3.942772447403066621e-02,3.016964244190147026e-02,1.314361178933432309e-03,9.236831447104113316e-03,1.832524700457731403e-03,1.893334179831490834e-03,2.368367184810039883e-02,6.191867331901368399e-02,2.049075928083402345e-02,3.181922232383510574e-02
8.422990058576076272e-03,4.447131502087806748e-02,1.512880768477582218e-03,2.803513639044404732e-03,1.285093213322101476e-04,1.360639263956178171e-03,2.708678046492271271e-02,6.635300284825854100e-02,2.083954734272319351e-02,3.465931883805695168e-02
2.521415452359859061e-02,4.116207323256021455e-02,1.502175674941595577e-03,6.259960341911828888e-03,2.373178533492251337e-03,3.308816136359562544e-03,2.824872810834140255e-02,6.343348152276041818e-02,1.837762029793367849e-02,2.176218023401505983e-02
6.296187170012089440e-02,1.871485831992696774e-02,3.969992111344152960e-03,1.392130786255019528e-02,6.495234196521868127e-03,5.134959583890528513e-03,3.302130119134394359e-02,8.303579655947702920e-02,1.410219679358190419e-02,3.722217115482503221e-03
9.042789536417479568e-02,9.997123919543479675e-03,1.230305657566815175e-02,1.983678236136591708e-02,1.002139430609504459e-02,6.525787704020341931e-03,4.238526185907924571e-02,1.066043490026680474e-01,9.956163566709783780e-03,9.873955223959667016e-03
9.127579698224509708e-02,2.895776798108426475e-02,1.469178575216738107e-02,2.259950616752813904e-02,9.585607046963985980e-03,4.583455433592812864e-03,4.208142073409491812e-02,8.399953767017509509e-02,6.331505440141808709e-03,1.694911729998833591e-02
6.607915229544311653e-02,3.022223233422256100e-02,6.282033702868281173e-03,1.955971155099597847e-02,4.667932372039743268e-03,2.139632595035597870e-03,1.978581303630593674e-02,3.502949614263945691e-03,1.817352723263247413e-03,1.768546196120510117e-02
3.081393157949643274e-02,1.884951122470625295e-02,7.564265110670666779e-03,1.226336172296262766e-02,1.499866253451371092e-03,9.948803056828461194e-03,1.531200903441076039e-02,9.587080094616215464e-02,3.983693023148410228e-03,1.213086464537900186e-02
7.618937129917650528e-04,6.344808499600389229e-03,1.979410395222213834e-02,5.498662794275806232e-03,5.562122124213103418e-03,1.358468502335869951e-02,4.298956878266667336e-02,1.770480583300761968e-01,9.304009244665288267e-03,2.788795335098148611e-03
1.818651493848146353e-02,2.123015787588668126e-03,2.921385273353959561e-02,6.334634264942560523e-04,7.473493275034995102e-03,1.280657211742594094e-02,5.280335596365152290e-02,2.280635466940043043e-01,1.225010032276351545e-02,6.772345380753251771e-03
2.673888781053193608e-02,8.943979308859581479e-03,3.482613264277966553e-02,1.139436584457420229e-02,9.375367967578452158e-03,1.190944413423834086e-02,4.692796835200000599e-02,2.450408068446449650e-01,1.276677020680173566e-02,1.551970248523323534e-02
2.723965757464765977e-02,1.350049703822623660e-02,3.197137533470485043e-02,2.925503714059518243e-02,1.178548847515452531e-02,1.301811871512249981e-02,3.444184964394456788e-02,2.312913456994523109e-01,1.288776234839942615e-02,2.262163982149021160e-02
2.115115372099247992e-02,1.040322609761979399e-02,2.087050625479912325e-02,5.090021781103314102e-02,1.269830142876485213e-02,1.372876925360177504e-02,2.738784049366287110e-02,1.996983907908846112e-01,1.524803673653688310e-02,2.410418640723616807e-02
1.032591453081634775e-02,6.326597222869924115e-04,1.104596726601910980e-02,7.164441680409336377e-02,1.098045956101253127e-02,1.191354123309869284e-02,3.060274457247489505e-02,1.529817458448575473e-01,1.996623633569212866e-02,1.761132004625513142e-02
1.802587541353461650e-04,1.222700779830335552e-02,9.605943750463450531e-03,8.707704415413095034e-02,8.533547323494582518e-03,9.399979956642504075e-03,3.503390499336066222e-02,8.461969665518724593e-02,2.345761198170636178e-02,7.376132160942436983e-03
4.194986200340653296e-03,1.827488245895441885e-02,1.083339943311809397e-02,9.213882598096961862e-02,7.530490412566563305e-03,9.486796491053845620e-03,3.281678168071664597e-02,1.481960111414328679e-02,2.239687753406498921e-02,1.462225870335087576e-03
1.712872349720895304e-04,1.961399350993556917e-02,5.309399989186655566e-03,8.463911648679861566e-02,7.416407756009226436e-03,1.268239896568163633e-02,3.360929478628074674e-02,6.271697628510498543e-03,1.767333659398120232e-02,9.142790436169195845e-03
7.925930790406782861e-03,2.061535129106111669e-02,4.840087111788970303e-03,6.922393612590693746e-02,6.422774387447838587e-03,1.639471625903464111e-02,5.028842121339547472e-02,4.408295416137709283e-02,1.192857407798381467e-02,1.615819006872950409e-02
1.584043763763988422e-02,2.409997295383731197e-02,9.197106954278666535e-03,5.383526562357067446e-02,4.456578574474044825e-03,1.841906326069980837e-02,7.497666260147571593e-02,1.233726309461398857e-01,5.337638731061375950e-03,1.791114921164934856e-02
2.251784046433750672e-02,2.844080485873621070e-02,5.683527806709732719e-03,4.245902103429190222e-02,2.975300908327334522e-03,1.906041793989864119e-02,8.690241751133948034e-02,1.672093300912028679e-01,2.673221952389667495e-03,1.108536028042518551e-02
2.724795919032895614e-02,2.666476143904627019e-02,3.502471726255530597e-03,3.352583853837919764e-02,3.046953108776659803e-03,1.905767796783662538e-02,7.896674260054162287e-02,1.549136142801533222e-01,9.587703546689863021e-03,4.530078154231453012e-04
2.724983841251906597e-02,1.217416404665310620e-02,8.569482040192817618e-03,2.427500941200510728e-02,4.337061629546702657e-03,1.739380275423314803e-02,6.164200153080601902e-02,1.160357769623584084e-01,1.175912323966841859e-02,5.869670626826849549e-03
2.168833296499462354e-02,1.013899652332838318e-02,1.599746811913769010e-02,1.442568470066187859e-02,5.417542464721898134e-03,1.295832523234568580e-02,4.551960804408441280e-02,8.782836218164498387e-02,9.374029467225470855e-03,5.058072523198173416e-03
1.251810430093332899e-02,2.364543045901600429e-02,1.976743963127126566e-02,5.964590704272187960e-03,4.818330567443439467e-03,6.725532182680768294e-03,3.128132775835987950e-02,7.888885052446410751e-02,6.384608646683184383e-03,8.006986677324520914e-04
2.712816502656023414e-03,1.695768064320248361e-02,2.079792574167141014e-02,4.648888988060722108e-04,2.005728955087307443e-03,4.010865271668996937e-04,1.395491149772931996e-02,6.642587418277758060e-02,5.650336535711370824e-03,3.014355986600717602e-03
2.722907867958221373e-02,2.857123634586287639e-03,2.127367199220794869e-02,3.051219368527140208e-03,2.218832491789131563e-03,5.286331660816840500e-03,7.200284073471820145e-03,3.069912634455246314e-02,5.982575484179025391e-03,7.239431239040017112e-03
4.802067925707343560e-02,1.906547028075150987e-02,1.889473448791336233e-02,6.787710407300627004e-03,5.633887744928211747e-03,8.896557486582155894e-03,2.145923305742232501e-02,3.225451196198393308e-03,4.547974862695669876e-03,1.274333704180518126e-02
4.202435399544612871e-02,2.453870026787988851e-02,1.251814716812228376e-02,1.102502785591006826e-02,5.647713314314055204e-03,7.323833014619715240e-03,1.464691594577879896e-02,1.783952965569174376e-02,1.628772324867845851e-03,1.396842994201741295e-02
9.714716372854328985e-03,2.760317740375389448e-02,7.418370379698225638e-03,1.433213853013516094e-02,2.156993268241239395e-03,2.193178469083786192e-04,1.083793375404665596e-02,1.003423782502958772e-01,1.075925867234713874e-03,6.520469058979735250e-03
2.058618587803918987e-02,3.755697197546819383e-02,8.343090339550706183e-03,1.640862257347043204e-02,1.198113742331884113e-03,8.929403369006388633e-03,3.354890998375235911e-02,1.793515910985809259e-01,4.509568463724173033e-03,8.659775591555732765e-04
3.093000830088301831e-02,4.887766249131657997e-02,1.162136708739999746e-02,1.792887762262706380e-02,7.427057914906668151e-04,1.236023534860380101e-02,3.634470890447832891e-02,1.924734753823574840e-01,7.775236677732067989e-03,5.313425519713294194e-03
3.085707439963682533e-02,4.792086465631254649e-02,1.083013802005435705e-02,1.851098051908451822e-02,2.770684947003453774e-03,8.902745332718977472e-03,2.234834730219089488e-02,1.454862624663593729e-01,6.617165095473966779e-03,2.295115066394229006e-02
3.203685667193940934e-02,3.418357467483894296e-02,7.390244155441471133e-03,1.798094719081387918e-02,5.532545148030075868e-03,2.366422523178035153e-03,4.631449894701806722e-03,8.477350041986492224e-02,3.348317243835617456e-03,3.450688797394974028e-02
3.187828868611571054e-02,2.183178848874196137e-02,8.564187129899768908e-03,1.817462609816914570e-02,5.795657980493494621e-03,2.953401891429410786e-03,8.815585783948278603e-03,3.763290051187373475e-02,3.416502506596424613e-03,2.845830106659935632e-02
2.542434510358437469e-02,1.720490747699305462e-02,1.549449485306280024e-02,2.032640502137319366e-02,5.145460047444770472e-03,5.932798143740676891e-03,1.684643744949157473e-02,1.935294015064665391e-04,7.057396008026730824e-03,1.034551146347384085e-02
1.443895674244272294e-02,1.024791491787621286e-02,1.970876664686309690e-02,2.259182698801438099e-02,5.046786817129164833e-03,7.497783323113467457e-03,2.107574478944888863e-02,4.056694202852215159e-02,9.148407017637284755e-03,8.038324912051985488e-03
3.896981269861058729e-03,6.027936377817362697e-03,1.389329340993609996e-02,2.304666748666091974e-02,4.878460689391595287e-03,7.759829149158885969e-03,2.379148003816692128e-02,8.442362140668374648e-02,7.021576892215049097e-03,2.096256868603981957e-02
1.056931813996194662e-04,2.338885794498433632e-02,1.662977131749806322e-03,2.283232451396256801e-02,3.962471753846430120e-03,5.894464886694143757e-03,2.578753258698956649e-02,1.200622644996881955e-01,3.945265612298399366e-03,2.879433014005571695e-02
7.799505088682411220e-03,3.229976222784381595e-02,7.308230889564375048e-03,2.370528984878438050e-02,3.200235545952323339e-03,2.434796138022030359e-03,2.533113449696094283e-02,1.330271564978957322e-01,3.459760116142247821e-03,3.338886210928445480e-02
2.551667630431517578e-02,3.379239703745712253e-02,9.068702622279881803e-03,2.497569103781392685e-02,3.477341356584539352e-03,4.746178601635814612e-05,2.218926685699544252e-02,1.196642325794100709e-01,3.641632087014011129e-03,3.595701869548513507e-02
4.236080328803156630e-02,3.182607381692568321e-02,7.590908947365309842e-03,2.529733045089956403e-02,4.122426002191060049e-03,1.090938896194782511e-03,2.033877763196947214e-02,9.008257797516086574e-02,1.498568806948438444e-05,3.612256856104791025e-02
4.939668080598309807e-02,2.584689723685373169e-02,6.442056656551392937e-03,2.514099082950953939e-02,4.156026454825352025e-03,4.603823512290340300e-03,2.128211551711120531e-02,5.548248740654797284e-02,7.269981143555552007e-03,3.305623862137852670e-02
4.771028977783772773e-02,1.596935925779673776e-02,3.515980821292703264e-03,2.546166728231744406e-02,3.754524195672535002e-03,7.104106264006701706e-03,1.890428623203587941e-02,1.932381675686125136e-02,1.286837735865983476e-02,2.813348569261608922e-02
4.321315055514575454e-02,6.785271015159783856e-03,4.084344757824502972e-03,2.585816847188913969e-02,3.515852562893840346e-03,7.205935827722964072e-03,9.400970852268352926e-03,1.188586792788244931e-02,1.308960144440451598e-02,2.364246904598936438e-02
3.657630687538845210e-02,1.185186149569012522e-03,1.351659340341505866e-02,2.544175994205234020e-02,3.395049283619208224e-03,7.408591117320528253e-03,1.159252588672995271e-03,1.915237546691807638e-02,9.543998841618129073e-03,1.973074593353824416e-02
2.303644310607166207e-02,3.726523513335585659e-03,1.844459418569459330e-02,2.401459604266788575e-02,3.161885648426036952e-03,9.849400394751267607e-03,4.804580514796285597e-03,1.217099371251002468e-02,4.894515826383311931e-03,1.603937864098663180e-02
1.786203515536902760e-03,8.648257979832247797e-03,1.623012703187878131e-02,2.157553387236431711e-02,3.019486089711859080e-03,1.299472142197200149e-02,1.843098763906295123e-02,6.954938996542758822e-02,8.570451253057738590e-04,1.344059378973856689e-02
1.935033922933823355e-02,4.199285116754833749e-03,9.103940719218616556e-03,1.777244026313854267e-02,3.023724477667680353e-03,1.421951432216987839e-02,3.125997645872814756e-02,1.203970686711391402e-01,7.560929125465889501e-03,1.112989383280156390e-02
3.173020753518342174e-02,1.873630613884754229e-02,3.109560013413900886e-04,1.255199307655292459e-02,2.631519859576395004e-03,1.286917846940326821e-02,3.691519975675935233e-02,1.423347069371064255e-01,1.196568397413582709e-02,6.566714665903745744e-03
3.543851083192943452e-02,5.084395549073805753e-02,6.917164694332829898e-03,7.190146701053135372e-03,1.662165232979364270e-03,9.759106321064237727e-03,3.658916517924962197e-02,1.390505842309332218e-01,1.084199279293293801e-02,7.778302053142015920e-04
3.695439927739356534e-02,6.919650948667660506e-02,9.566791558735767559e-03,4.366962696945928327e-03,9.757967957145159991e-04,6.379029040980892760e-03,3.324157727366165715e-02,1.268807149964402137e-01,5.529425513800595091e-03,1.533269297229742636e-03
3.989495966719386333e-02,6.279085600748707252e-02,7.340676408697771778e-03,6.196368301110392537e-03,1.238317821507717385e-03,4.769933574734736004e-03,2.767336697393677283e-02,1.132267003156594287e-01,1.018371124104690620e-03,7.246747438908430431e-04
4.316501150925558528e-02,4.062901685212078062e-02,1.766977127623834765e-03,1.139173532890264476e-02,1.817334841451974815e-03,5.797920579164702118e-03,1.919409595981428490e-02,9.235391573633297546e-02,8.691233347084859366e-04,2.864958895699916928e-03
4.590071143473156007e-02,1.419410316105437601e-02,7.235594583850900492e-03,1.586293684170705237e-02,1.831483815259580400e-03,7.882915478284315686e-03,8.502753637196871703e-03,6.002658640885199376e-02,4.007036979005789042e-03,1.173341345106339393e-03
4.896133008317394425e-02,1.205405657962302889e-02,1.852765414528224561e-02,1.721323828237306119e-02,1.402464510474185676e-03,9.025021783852544763e-03,1.363227238279293707e-06,2.738862130890839033e-02,6.418183811299847663e-03,3.577409776015151588e-03
5.322922182684895753e-02,3.234678144384027509e-02,2.542700234295131728e-02,1.622488518103382127e-02,1.100569057832494462e-03,9.215282663707738062e-03,1.751477036800175302e-05,1.614176203773268897e-02,5.884204122127738995e-03,1.034787847808762984e-02
5.969403892680485296e-02,3.960860834610588355e-02,2.211189295689792306e-02,1.274741364516586602e-02,9.965704520661800708e-04,9.581866522194854713e-03,1.086581542567241834e-02,3.779381712468294491e-02,4.652541018929362039e-03,1.932652136767749537e-02
6.877618273483286637e-02,3.685739237908147725e-02,1.287238369987706715e-02,3.968753588962128410e-03,8.462838935475872418e-04,9.992847984602518455e-03,2.729374289149713237e-02,7.978414262492095066e-02,6.002119758216044841e-03,2.793582603661537087e-02
7.723544765436068937e-02,3.380046758833572806e-02,6.519948484690979429e-03,1.070322369958506825e-02,6.113385145222326612e-04,8.828751767775104911e-03,4.059174277599244401e-02,1.156920883779076897e-01,8.173504237964609662e-03,3.135843061175731805e-02
7.798564464376582517e-02,2.994037092968415345e-02,2.820697897799223034e-03,2.614623323806235938e-02,4.064999821878438591e-04,5.198663384975333798e-03,4.546815401193252115e-02,1.272669771655659254e-01,4.895669098084949947e-03,2.875257135860336336e-02
6.583313546319218001e-02,1.568027320346140202e-02,6.022229413780077513e-03,3.596105180662643314e-02,2.532597006385503059e-04,5.308879707551380188e-04,4.112024753952636669e-02,1.126172437879902344e-01,6.145217759085119975e-03,2.438163107937224225e-02
4.329787044410667723e-02,7.183066604830408951e-03,2.000673726700835653e-02,3.874853499328770323e-02,1.000840120581106534e-04,2.761202930140079469e-03,2.764503298433098818e-02,7.763418772563157599e-02,1.865175727717051021e-02,2.099632577517921567e-02
1.763541817676394369e-02,2.146664695905819986e-02,2.784923181309444454e-02,3.744101894106648121e-02,6.190381784504286194e-05,3.859627939590550352e-03,5.877280588631037493e-03,2.850248041119611206e-02,2.443605073534313443e-02,1.564172717170977944e-02
8.180989586101149874e-03,1.670527425923422349e-02,2.302009201227576268e-02,3.411926686059453540e-02,2.069772234834319630e-04,3.917644850694576922e-03,1.893634061561175891e-02,2.692803266654497651e-02,2.194383613645368297e-02,4.416278791078876928e-03
3.529174294090803993e-02,2.371644706552468451e-03,1.445712475575756245e-02,2.869005728441702263e-02,3.293106644733863916e-04,4.016023640190979731e-03,3.751353986818148356e-02,7.606054989512754660e-02,1.564744077415775036e-02,1.067773791995118605e-02
5.845295297376178201e-02,7.538220940175921481e-03,1.425531344658756069e-02,2.134721595475093381e-02,4.399051874908654273e-04,3.699064841698628502e-03,4.316134613933618469e-02,1.037863282886836158e-01,1.002362491870886774e-02,2.252313008350230808e-02
6.490278935695004137e-02,1.236474119068437481e-02,2.099550969098146896e-02,1.318166727522731944e-02,5.406243365307227423e-04,1.933581902147228854e-03,3.660423140060932445e-02,1.001771301601872832e-01,6.347537606566225517e-03,2.564605774387693909e-02
4.774945678053899717e-02,1.966953646181502161e-02,2.331597562082771483e-02,5.396623954049366116e-03,6.253389461549860870e-04,9.365750841592167426e-04,2.276932584615060789e-02,6.503974591906439007e-02,3.271220260236631754e-03,1.998159625814232079e-02
1.469587088000282211e-02,3.058471119151135592e-02,1.579789932487818405e-02,3.174038121076721902e-04,6.930388089809345290e-04,3.105584936101956142e-03,5.285101274016424516e-03,5.318389145874503204e-03,9.180380831201223656e-04,9.324369489185272905e-03
1.741416305821532479e-02,3.883640803646910833e-02,3.713342872286165292e-03,2.468323015249409939e-03,7.474861539370599361e-04,3.444805005039925077e-03,1.216246567511822252e-02,6.191775275009110679e-02,5.959720315012797046e-03,1.574966116000802840e-03
3.309237147616867630e-02,4.003304565799586240e-02,5.573413543819593675e-03,1.771815922261123742e-03,7.890958449946733734e-04,2.711919657029436201e-03,2.154028295656004038e-02,1.030968366661149105e-01,9.346119594614493015e-03,9.245049923526550348e-03
2.686243770684825644e-02,3.569088163920459272e-02,9.895198171840991971e-03,6.403170149475720992e-04,8.148924373185179905e-04,2.143556375427347650e-03,1.518582425725388020e-02,8.795450122273282267e-02,8.506789619085014867e-03,1.244684955545400512e-02
6.816282252649065627e-03,3.037967872531413538e-02,1.139758949879630598e-02,5.280789410444688796e-04,8.265145369959849865e-04,1.942446316187060058e-03,3.631558933071972993e-03,2.688880736979369634e-02,3.396392285715727367e-03,1.161139717293599612e-02
1.192680802840405049e-02,2.751190288499010678e-02,1.124198610358228406e-02,1.004340769122582513e-03,8.306318742540264553e-04,1.691236216303765088e-03,2.126667127681649769e-02,3.247568784149330867e-02,2.836948615369302984e-03,8.717868297283796683e-03
1.903528729731434471e-02,2.570570701888678228e-02,6.540316835552006068e-03,9.148466458279968508e-04,8.261764201125449845e-04,1.292314614056559643e-03,2.701611893723249863e-02,5.401498741174400736e-02,6.546088713822111049e-03,7.355623709108557833e-03
1.330002375534358738e-02,1.972792596363745141e-02,5.136817872565271892e-03,1.819003512649878303e-04,8.030387839922548555e-04,9.308974565772544941e-04,2.134536107927659937e-02,3.907479320539010426e-02,7.325811956581159551e-03,1.008200385123096329e-02
8.236663822142474729e-04,7.800752865747162534e-03,1.853196709478333037e-02,1.306381891291121759e-03,7.671869569242847084e-04,6.528135404294042703e-04,1.096948345965889117e-02,7.256997935097945530e-03,7.482677806360904342e-03,1.585972205264362875e-02
1.534803464154176761e-02,4.463678815085305243e-03,2.369668921668142275e-02,1.075279327249064817e-03,7.440065110467191213e-04,3.710681375635493159e-04,1.418290371761993804e-03,2.174700350528520690e-02,7.929371661756322645e-03,2.243743088887725431e-02
2.115525495620595997e-02,1.047278939610978878e-02,1.783729265806196368e-02,3.855464157899039833e-04,7.256093511239480572e-04,6.248318259543329855e-05,4.943396822385553828e-03,3.062002343353595335e-02,7.515947215731812008e-03,2.909930640430578863e-02
1.580276640448117706e-02,9.341735149890811885e-03,8.110020619477607134e-03,1.608051420545586951e-03,6.622438793060429849e-04,2.327764339530365861e-04,8.190110575584962083e-03,1.544636654216379086e-02,6.163035332904361931e-03,3.376895391424481613e-02
7.532011014190128154e-03,3.288676594749547714e-03,6.424574811235887013e-04,1.887220288257081182e-03,5.740611268213887362e-04,5.032244650935507272e-04,9.966441624095760676e-03,4.948743837881251599e-03,4.959273098221550838e-03,3.121645941319491427e-02
6.366646496858634208e-03,6.530262819327405620e-03,6.683627689001732548e-03,1.872879697438963823e-03,5.723963363873071962e-04,7.669764163783874406e-04,1.221346002621668050e-02,6.574923422354728327e-03,3.472359392020194901e-03,1.974171634123693397e-02
1.301309893068637417e-02,1.724091844898637677e-02,1.635908270644093401e-02,2.158171983234584857e-03,6.217560386718391698e-04,1.028702213371570024e-03,1.586526323132469649e-02,1.339341551036927862e-02,8.012664722379418073e-04,6.618820683076865122e-03
1.918587518048685270e-02,2.137797901468529299e-02,2.157574007754697182e-02,2.567153716128395269e-03,4.851664856308536555e-04,1.278705459635220065e-03,1.903129815448522527e-02,3.273069039187591345e-02,1.333501057339817530e-03,6.684973614161442926e-04
1.550644254072600786e-02,1.164394069937538939e-02,1.244489587867693425e-02,2.818601972625088114e-03,2.269737800747782884e-04,1.513115791236255975e-03,1.625959118127597719e-02,2.321507646805455113e-02,5.615401440021367332e-04,1.408649997798992835e-03
1.469676073698297086e-03,1.246625097501757179e-02,9.032979695165520642e-03,2.970122297951700591e-03,4.011767980733604313e-04,1.734621907242771786e-03,3.941008647769120646e-03,2.259383482405512289e-02,1.643676924659649360e-03,1.299526287232946695e-03
2.485231920153949461e-02,4.401241914606546929e-02,2.869069216652589405e-02,3.138719730537890482e-03,1.141828297410948630e-03,1.943087440921824468e-03,1.228722994070157240e-02,7.864710717433791298e-02,1.427001960186588233e-03,2.833337030679362704e-03
4.085933263087281053e-02,7.251522655331391065e-02,3.620191638759515801e-02,3.286570736548058598e-03,1.601552259417878682e-03,2.135160057893911115e-03,2.149745669091491368e-02,1.082456734179401553e-01,1.673203663601408476e-03,6.338519750612609319e-03
4.250116134314622929e-02,8.882318359082529147e-02,3.365453370483010437e-02,3.348167325845373236e-03,1.121187990169318551e-03,2.308731087350094236e-03,2.059689007647930170e-02,1.032023467537188377e-01,4.041033992021025520e-03,4.524984475136013991e-03
3.692801049407080927e-02,8.964381748919297843e-02,2.715354786887557575e-02,3.332472675767582469e-03,2.919797830281465993e-04,2.463244865024283824e-03,1.704547626307288330e-02,8.839489213890133756e-02,3.220352461232530578e-03,6.737004621794090604e-04
3.301555916929792278e-02,7.834643470797285347e-02,1.809004642041959696e-02,3.264864955101278148e-03,2.786039729047370679e-05,2.597685755055106297e-03,1.719619340695278248e-02,8.588940233533103041e-02,7.709574566266970234e-04,2.954731925730132679e-03
2.799340081493322668e-02,6.069729952072608348e-02,5.680621904880126839e-03,3.138696440309520462e-03,3.076927291497582933e-04,2.710477946463399172e-03,1.914157513848726774e-02,9.107918022101767208e-02,6.097462147252474427e-04,1.586457734487071742e-03
1.568039432906630226e-02,4.102044952081834728e-02,7.376781593160873507e-03,2.941920169933433422e-03,4.765800991439702629e-04,2.800492050635558158e-03,1.902156251245220794e-02,9.016422361019774123e-02,6.550350855683206505e-04,1.078789346845002856e-02
1.042167255789032193e-03,2.210812433660653761e-02,1.597695086500509551e-02,2.680068829361610932e-03,2.428057175221816615e-04,2.867163910402955110e-03,1.725440099287988555e-02,8.349913717174017869e-02,1.094888177086889881e-03,1.892043302799411783e-02
6.148718395283812692e-03,5.457957678798066627e-03,1.815534893534516067e-02,2.363974900649865041e-03,2.879876266670584883e-05,2.910077120421945916e-03,1.495996486715407345e-02,7.753322849020274909e-02,2.306267287343853872e-03,2.197368517760275863e-02
7.136102576483736686e-03,9.160188898764574580e-03,1.680760801753993297e-02,1.998706185524419445e-03,3.969613081675975970e-04,2.928946174467777011e-03,1.006923231779770916e-02,6.712751089927691817e-02,2.132855544013275741e-03,1.985779022101255564e-02
8.995861332461736054e-03,2.203409061323256812e-02,1.558304818580942552e-02,1.588968264765287883e-03,1.114573467233952479e-03,2.923845977552101769e-03,2.106740428390687682e-03,4.611587310703701287e-02,8.512229871762741051e-04,1.472116724034463683e-02
7.212718024625582730e-03,3.135241066259865372e-02,1.529939844515773931e-02,1.144086875673656087e-03,1.359208310187541222e-03,2.895246254174254318e-03,3.449733328520335034e-03,2.750032719629932551e-02,4.717670272073392658e-03,9.114892795606699752e-03
9.153802709011333097e-03,3.430934040061335566e-02,1.503084983804929900e-02,6.752291159720813941e-04,1.106957835620674645e-03,2.843917080575996889e-03,1.659984183364773000e-03,2.983648402313945208e-02,6.837145161712872461e-03,5.219719998446642473e-03
3.568249861500473463e-02,3.027268654217196361e-02,1.438439595800027060e-02,1.926888794671293532e-04,1.128173105816101867e-03,2.770912735074994738e-03,4.098601225839894856e-03,4.703093940677753604e-02,7.389868494551097081e-03,3.933790888776689774e-03
5.366582304513900503e-02,2.244877042192899852e-02,1.359317702134489776e-02,2.932217255019849080e-04,1.397531467124288719e-03,2.677605342310528450e-03,6.716692736841389788e-03,5.482140917586280499e-02,7.939694137478359171e-03,4.427022231489342527e-03
5.374053285121861007e-02,1.596850801551961269e-02,1.292551342201425819e-02,7.712865610716534807e-04,1.147665555898919531e-03,2.565671186781177601e-03,4.726815800264874863e-03,4.451956534517849395e-02,8.075481335762163537e-03,5.213538192073788498e-03
4.267310817742583223e-02,1.291089821806097604e-02,1.263557528461671173e-02,1.230198001771602451e-03,4.642062066140184768e-04,2.437042386597979698e-03,1.470424057071264071e-03,2.738770882590083056e-02,6.123754316951879155e-03,5.548642401637557744e-03
2.714720022553634288e-02,1.012651586546222185e-02,1.242991948563306956e-02,1.659387420095907078e-03,1.506933215840275300e-04,2.293870347522996428e-03,2.025041029453749329e-03,8.661605422583680894e-03,2.553041855146976919e-03,5.549089311131604960e-03
7.069290527520958115e-03,4.872678815644943158e-03,1.141367768305463770e-02,2.049050517460958808e-03,3.208192101926821268e-04,2.138496653683482490e-03,7.370431719350779669e-03,1.843587850330308947e-02,4.765267125525707781e-05,5.434025746548356434e-03
1.373550677684196725e-02,9.869412396558696621e-04,1.006945602364966302e-02,2.390134656360296331e-03,4.483169540284917673e-04,1.973410856056203450e-03,1.374943247932332302e-02,5.132886601185832065e-02,1.270867307701941361e-06,5.169286862311891530e-03
2.507959551884306540e-02,4.494152691606240549e-03,1.056322828350103951e-02,2.674673899232123467e-03,3.553132540343422862e-04,1.801198378623159032e-03,1.781756861832715227e-02,7.201235694069334226e-02,1.041725392584849468e-03,4.684239647599240490e-03
2.330276433344712420e-02,1.334104189902574587e-02,1.189384235427229375e-02,2.896108898790780185e-03,2.663385707901930752e-04,1.624489786324379969e-03,1.829049236806159703e-02,6.982763300842914633e-02,1.299436302098300102e-03,4.025671083753901147e-03
1.714201948686686766e-02,1.735276113298839587e-02,7.430775898449099547e-03,3.049399149475732086e-03,2.709570595651052908e-04,1.445911742747127285e-03,1.700391456983560076e-02,5.741597673022206388e-02,6.023085623893475148e-04,3.262648072635537279e-03
1.713594303371068078e-02,1.076189083688376680e-02,6.835225341219309213e-03,3.131088868652978727e-03,2.644096027354947160e-04,1.268036163196276968e-03,1.588744716896206208e-02,5.587187726395701631e-02,2.227985675350666484e-04,2.413412909537479382e-03
2.538252181596028709e-02,2.413512475799615238e-04,2.367326157297341277e-02,3.139413713798068582e-03,2.045836322616775729e-04,1.093329158090733302e-03,1.554399780358952342e-02,7.090920953344845290e-02,1.083980338804921197e-03,1.487906920715933610e-03
3.725941942520345079e-02,6.049548863144240188e-03,3.113593475307161601e-02,3.074370300655518591e-03,1.445681155794922954e-04,9.241031938399035589e-04,1.577245500472157502e-02,9.021848769118014089e-02,2.436725435285553524e-03,5.214569965067293502e-04
4.740429152097003218e-02,4.614415698820293482e-03,2.602937601542265958e-02,2.937704377104913018e-03,1.035133050815263494e-04,7.624734743336852340e-04,1.526083971513637720e-02,1.002986391690412343e-01,2.753316736567870508e-03,4.457634631650261425e-04
