1.297917607059145828e-01,8.765357565592318302e-04,1.980091395813165784e-04,1.713283262308153620e-03,3.144099541971900876e-06,1.584185210794060501e-06,1.739992180911736051e-04,1.705049838651092123e-02,1.302872192457201384e-04,3.136082949396548462e-03
6.882457343796849480e-02,1.863047903455363613e-02,1.835891151504557737e-04,1.603745127810161063e-03,1.215998984505097185e-06,1.736216597422530695e-06,1.881819786958257093e-04,1.682877293682956410e-02,1.265934098324192076e-04,3.209771159663337391e-03
1.049436140800401665e-02,4.506844088323554154e-02,4.643165491994236138e-04,1.536959215813681881e-03,1.105788576114309346e-06,1.844870925524259815e-06,1.979300276555234848e-04,1.404474532829386516e-02,1.198098267476003159e-04,3.287194134637314979e-03
5.957555589716505284e-02,6.575876997569655991e-02,1.134419250553248297e-03,1.474685835064656197e-03,2.389973083943755924e-06,1.907703368676898655e-06,2.030168710132043339e-04,8.839116093772443963e-03,1.101192107443428418e-04,3.081475881007629449e-03
7.276595546401846970e-02,7.163657644396824453e-02,1.310561269694659635e-03,1.402204797375859562e-03,6.776098274783849054e-06,1.923405866076878380e-06,2.033254400536580592e-04,2.406534939808713594e-03,9.777474332100132470e-05,2.811723850677533103e-03
8.314082713448459061e-02,6.563213451266462772e-02,7.171904382159342145e-03,1.338142035548784466e-03,7.196400799399322115e-07,1.891833408652565718e-06,1.988507559015902993e-04,3.308490352660327025e-03,8.309346077606863921e-05,2.644090601564667853e-03
1.035496036017709981e-01,5.424378360658949072e-02,1.136048120858770653e-02,1.290186698197497671e-03,1.081720565269963410e-05,1.814001655734822561e-06,1.896999745715469317e-04,7.470704566242566610e-03,6.644813441984017918e-05,2.681058171137222501e-03
1.140536669569463535e-01,3.885102586434562022e-02,9.364270500908641881e-03,1.249941445806062494e-03,3.486653106899368513e-06,1.692056087511960390e-06,1.760898133142715764e-04,1.106159229848010378e-02,4.825782437237573084e-05,2.800299245749784255e-03
1.134088109815549889e-01,2.360976291820681555e-02,3.501429580347437120e-03,1.213595892573642422e-03,1.284967908897126762e-05,1.529213595765214419e-06,1.583414200047693202e-04,1.537179202589360888e-02,2.897734586994707326e-05,2.482516606896610807e-03
1.298605170113180107e-01,2.000408322924969104e-02,4.832899207671389943e-04,1.184599970602191439e-03,1.388605117810261259e-05,1.329678086932316325e-06,1.368728067393739669e-04,1.978549200845159534e-02,9.085912462550711395e-06,1.618931957524311028e-03
1.637535254157157227e-01,3.030517206866637295e-02,8.087921905232856425e-04,1.164033853634668459e-03,6.373525719751882879e-05,1.098532301039296518e-06,1.121890253780546037e-04,2.204580444137477571e-02,1.092476068062994654e-05,1.105846017554098755e-03
1.701980331770253374e-01,3.756022576486232889e-02,3.661907613957510969e-05,1.149263624708411931e-03,2.449489933090469196e-05,8.416086222471821682e-07,8.487031517660405938e-05,2.167362519755003381e-02,3.056259836066817963e-05,1.601403261014354602e-03
1.224554718440618445e-01,2.661566642620908502e-02,1.098189856518946546e-04,1.138466145969968405e-03,6.481022097127851788e-05,5.653421579354640816e-07,5.555849969079933019e-05,2.148307657291181200e-02,4.934725236236130099e-05,2.354155964990179047e-03
5.394131744993205940e-02,6.246000151679166439e-03,5.560275224300097966e-04,1.131351946803943465e-03,3.850061982268390839e-05,2.766097814592689267e-07,2.494195071549957862e-05,2.363265371597590356e-02,6.682183732533762232e-05,2.421483623294296700e-03
1.342439475206711613e-02,3.844417977703708071e-03,6.300895256597508799e-04,1.127098515660730684e-03,2.660738582581224205e-04,1.744084085851080527e-08,6.260529789927742468e-06,2.575738236151584384e-02,8.256402907928034275e-05,2.190135112230380977e-03
6.544048094458370171e-03,4.186381316865824681e-04,5.391228269285220287e-04,1.124033757569673636e-03,5.455591859203593477e-05,3.095679928134975965e-07,3.731653380718255212e-05,2.381938685002997144e-02,9.619625620316866424e-05,2.404195054301770142e-03
6.461024212518456933e-03,4.035372527718092059e-03,6.234638348152943569e-04,1.120649840649193957e-03,7.193098741482573675e-04,5.926140559825310107e-07,6.749718511479363241e-05,1.788251854978683414e-02,1.073947392446872019e-04,2.522438913023876666e-03
4.392661313434489262e-04,2.955831893294374579e-03,7.867467388634423854e-04,1.115815313924470222e-03,1.185901025337896333e-03,8.596806843534950381e-07,9.609419142234657983e-05,1.203059632391134323e-02,1.158971616194865031e-04,1.591178893822109809e-03
4.251206682843467963e-03,7.346618873230008340e-05,8.655795895487149692e-04,1.108354713764516004e-03,7.070927315738943309e-04,1.104296723655061221e-06,1.224364133914987581e-04,8.686595453077372575e-03,1.215087909433765250e-04,2.691958345346946724e-04
7.080746073342634658e-03,3.250484134981566822e-03,8.999726226653190133e-04,1.096994794054596389e-03,7.868185513461440608e-05,1.320574793020515186e-06,1.459055644526786552e-04,6.295678419118861009e-03,1.241069085538689602e-04,2.235740836382908573e-04
1.626720249764332382e-02,9.582116525088659950e-03,9.638771002963431988e-04,1.080609096356654813e-03,3.014994259969840476e-04,1.503352745642865055e-06,1.659506755841845104e-04,3.555068108056965923e-03,1.236434472705480675e-04,1.569899051991984970e-03
2.771827287329155232e-02,1.733014451798781802e-02,1.036622529208947778e-03,1.058290992173247132e-03,8.433072794817000526e-05,1.648316615379751110e-06,1.821009879653832854e-04,2.574010606558512458e-03,1.201457819706631172e-04,2.641639553223734498e-03
2.372898632333057464e-02,2.250055027036264657e-02,1.080755676232049607e-03,1.029280331153384484e-03,9.734714571456204077e-06,1.752102127802014111e-06,1.939769729818711800e-04,5.321060866853902747e-03,1.137156632118683223e-04,2.468419161016644804e-03
4.815127078082175049e-03,2.562896105710964212e-02,1.103249906095118797e-03,9.929630372329213087e-04,8.742094726594981614e-05,1.812372394965945386e-06,2.012992226012149928e-04,9.042616889682605213e-03,1.045263297910131240e-04,1.980191481951997477e-03
4.523157533806109604e-02,2.876704671570125271e-02,1.119860457613857481e-03,9.489337278518611418e-04,1.329153845149678504e-04,1.827870009606971794e-06,2.038950026455966580e-04,8.699791879999130978e-03,9.281788066498321515e-05,2.293427902793283065e-03
7.541954830492859918e-02,2.759265615363019203e-02,1.126074345104746558e-03,8.970178558116580388e-04,8.756124456574559576e-05,1.798442391585428880e-06,2.017023158168083344e-04,3.734469085180609771e-03,7.889102898884965155e-05,2.710975871750617456e-03
8.507302584136824941e-02,1.438450681214822717e-02,1.113482390782036561e-03,8.372562621257129351e-04,6.344206764147794270e-05,1.725039901424572729e-06,1.947713792225507911e-04,8.396461512031531786e-04,6.309940011994105897e-05,1.313293236842080335e-03
8.191307711614941034e-02,9.175407758301386968e-03,1.083607558937044321e-03,7.699003344799470062e-04,8.044294561129651381e-05,1.609686906301984143e-06,1.832634812712455091e-04,8.163984275340453560e-04,4.584057035069438886e-05,2.282123225361296082e-03
8.206984550092027986e-02,2.944326567771481107e-02,1.040422058773284898e-03,6.954168997225203611e-04,8.646038245420115749e-05,1.455426646398033871e-06,1.674472437542023537e-04,2.334369972052130829e-03,2.754607303261098858e-05,5.584632420257517119e-03
9.651276697102341429e-02,3.590099726905696120e-02,9.837833650340242850e-04,6.144803628593980584e-04,7.165562169010058114e-05,1.266241387857762251e-06,1.476923753078990384e-04,3.881355536809882531e-03,8.670622930221284395e-06,5.657150462955623169e-03
1.170118856246182976e-01,3.147885346147259039e-02,9.128485022236317806e-04,5.279525108281158535e-04,6.044732458822370946e-05,1.046949947250180824e-06,1.244610608470153601e-04,1.197793044417054184e-03,1.031917246623598347e-05,2.561965959482177119e-03
1.144978534032393969e-01,2.332975915525194177e-02,8.291682664086633863e-04,4.368609875887792169e-04,5.791490702758728294e-05,8.030852168304528435e-07,9.829718662741072075e-05,4.360828606145227514e-03,2.895633474421621098e-05,7.459886459981760138e-04
6.960515119303892217e-02,1.385885050887993540e-02,7.350940000835185254e-04,3.423770251149447835e-04,5.288619215198856312e-05,5.407547970501210624e-07,6.981365106032636891e-05,9.651577514943995156e-03,4.678498529998131167e-05,1.940722247263629904e-03
8.634179288035788435e-03,6.232106769799294899e-03,6.322664311052399741e-04,2.457880870535789032e-04,4.306645939914870413e-05,2.664882412622869528e-07,3.967805608329558876e-05,1.216778650082461777e-02,6.337148354770065994e-05,1.476932717995065557e-03
1.484271125369493634e-02,6.274089526044157941e-03,5.222908298631446893e-04,1.484660385305061083e-04,3.389449621609654428e-05,1.292527193998343977e-08,8.597111760848218494e-06,1.049479040767422981e-02,7.831496079345870497e-05,9.756465829794818984e-04
1.662486388430874443e-02,1.224998829179144502e-02,4.073920812924846442e-04,5.183393660950099237e-05,2.675639542042250604e-05,2.906048080016088255e-07,2.269988304283895842e-05,3.921106401227759941e-03,9.125699422301767044e-05,9.527982387833042535e-04
6.542374689945959498e-02,1.403647638366847458e-02,2.900387977936275509e-04,4.266766818652751453e-05,1.937132935388339734e-05,5.597469412096821993e-07,5.347809931139038160e-05,7.278569487113340473e-03,1.018901879054145239e-04,9.383189880736281761e-04
9.428186984890322975e-02,7.403297292237286109e-03,1.725588261226723697e-04,1.336151594818364154e-04,1.130917824426808797e-05,8.137922558790264512e-07,8.301437838439772307e-05,2.055838743994792966e-02,1.099654557752242922e-04,7.108544832130367710e-04
1.058849855203644746e-01,1.867109614177608120e-03,5.723367409162774446e-05,2.196362054177082026e-04,3.871451002670806091e-06,1.046585013801283657e-06,1.106141732354258366e-04,3.047257674994340373e-02,1.152978345061496797e-04,4.760609550559474052e-04
1.102900672028848117e-01,1.035041406030132172e-02,5.359910976057446249e-05,2.994426852357056040e-04,2.499420449345138938e-06,1.252522106247144108e-06,1.356278351101410410e-04,3.173035964480157289e-02,1.177706911927280315e-04,3.440861733784987444e-04
9.564879583632421300e-02,2.065592118735693622e-02,1.576677983349438134e-04,3.718613610689094949e-04,8.201262732036904864e-06,1.426687691468991516e-06,1.574658649862133771e-04,2.433536330256831637e-02,1.173382308853981962e-04,2.329522709168784780e-04
5.664910092213031739e-02,3.119250060570302047e-02,2.528930472919705980e-04,4.358617844319973380e-04,1.326364712643076327e-05,1.564970288138763958e-06,1.756127730431792592e-04,1.352332460198503970e-02,1.140262512750844618e-04,8.986111678718395365e-05
1.257595027727429968e-02,3.613669903541885664e-02,3.374059317898424814e-04,4.905807781740703297e-04,1.734614498767024580e-05,1.664159541966229511e-06,1.896392213719893074e-04,3.723909897581577713e-03,1.079311351480814811e-04,6.299803397108863295e-05
2.311784742433990042e-02,3.641220243419274194e-02,4.095571354412136465e-04,5.353427967094674536e-04,2.030770334186059365e-05,1.722020395526478583e-06,1.992121647774188311e-04,3.972238811377603457e-03,9.921711456071809871e-05,1.896077125579264842e-04
5.174600835539526489e-02,3.566219464341144341e-02,4.679699041343785763e-04,5.696756727109406190e-04,2.221715519442216753e-05,1.737342957167680281e-06,2.041027508225326244e-04,8.021545928901698333e-03,8.811188295187930540e-05,2.564917060427212713e-04
5.712297869069844769e-02,2.653463833498134056e-02,5.115892689533929876e-04,5.933214337121454690e-04,2.308863541613954533e-05,1.709966969616568909e-06,2.041917921680871462e-04,5.672116898528612242e-03,7.490067158740931904e-05,2.936071393802539573e-04
1.137722634214513931e-02,1.817246378609335298e-04,5.397010485256497139e-04,6.062419479166733082e-04,2.287443867091139537e-05,1.640780407518526465e-06,1.994726805750482934e-04,1.853604173099688245e-03,5.991894383792990196e-05,4.025472506361182576e-04
7.219795586117987163e-02,3.307216494746640506e-02,5.519414955117660790e-04,6.086192578826669572e-04,2.158893048316518225e-05,1.531692370105853648e-06,1.900516713654412410e-04,7.553084876121245704e-03,4.354389393536578745e-05,5.379562643309960266e-04
1.338269434046069628e-01,4.699662702978613799e-02,5.483094424221076008e-04,6.008506131109071996e-04,1.931261029463970198e-05,1.385581064816560770e-06,1.761455283017096995e-04,4.752657475848498167e-03,2.618496524017318534e-05,4.610610879127169512e-04
1.314504474481463792e-01,3.486481857672824730e-02,5.291707861560438321e-04,5.835383560901427060e-04,1.613246535326322154e-05,1.206218284578038398e-06,1.580765803314644385e-04,5.981367385427000666e-03,8.273626008595726930e-06,2.428058464395853235e-04
7.988594959651373895e-02,1.536110175602370398e-02,4.952493818896425365e-04,5.574749318634612556e-04,1.213682902363845313e-05,9.981723508576016936e-07,1.362653020270130158e-04,1.718197849424958623e-02,9.747342358240256198e-06,4.449013146141247792e-04
1.699352423397443995e-02,6.035567851986023760e-03,4.476090661707975366e-04,5.236234028558537897e-04,7.439965772985578584e-06,7.666920126960747730e-07,1.112205874246069588e-04,2.180457399645538072e-02,2.743477896010716683e-05,1.190097954400968615e-03
3.672222541599747675e-02,4.687892472992867890e-03,3.876299670847833056e-04,4.830939635038855400e-04,2.180811317012026403e-06,5.175742463358293915e-07,8.352794098972919949e-05,1.919253106628852901e-02,4.435602925277643021e-05,1.610806742614038839e-03
7.404944756201337075e-02,2.815402317860205440e-03,3.169775365948595538e-04,4.371170478869933576e-04,3.493109251407907621e-06,2.570192799088234578e-07,5.383585834159376694e-05,1.303601367931172400e-02,6.009951600921238445e-05,1.070952448746126644e-03
9.050592691534019296e-02,1.207315732893395315e-03,2.375636836297476617e-04,3.870137019767736549e-04,9.430318280175414993e-06,8.523535971435377310e-09,2.284071201804674085e-05,5.890486886718822833e-03,7.428473741244574454e-05,2.103271313546162648e-04
9.351213383073801733e-02,2.111850778028890631e-03,1.515018597871251884e-04,3.341639542767765826e-04,1.547329331433606523e-05,2.725151848060095082e-07,8.729507050295655130e-06,1.355040345963866126e-03,8.657144972260761889e-05,9.936659615742183291e-05
9.564427214044668446e-02,1.586425315832042029e-05,6.105776293190773513e-05,2.799739649045120691e-04,2.146186515765858760e-05,5.284878299294123035e-07,4.013221439590364682e-05,6.816274257455371896e-03,9.666781325410997081e-05,2.132949148207527825e-05
9.008586040374429171e-02,7.982679806014318993e-03,3.140364225217518661e-05,2.258427598200183695e-04,2.723990925992532557e-05,7.702030972792290293e-07,7.062762669269132562e-05,8.742961097338845800e-03,1.043373070154224850e-04,1.182952918790753575e-05
5.781603161789779233e-02,1.216350571175254039e-02,1.234738534626468565e-04,1.731293624897671545e-04,3.265945375525993545e-05,9.918039261352574251e-07,9.949612039607656929e-05,8.539232759740238501e-03,1.094042486218236746e-04,1.934908012757000258e-04
3.327008815071221676e-03,1.845679647697705825e-03,2.127578018704839088e-04,1.231211210132040308e-04,3.758302569218408017e-05,1.187956296202946303e-06,1.260551485601911926e-04,8.810461373100784976e-03,1.117577911989657400e-04,3.491119759156653224e-04
3.882681517715065589e-02,1.908261569949315159e-02,2.969305830226662149e-04,7.700399551542499955e-05,4.188684283260809312e-05,1.353977406502999788e-06,1.496753195715762796e-04,8.762553755793062865e-03,1.113543070697560749e-04,4.133455239250144507e-04
3.843479839626759431e-02,3.510581633951431052e-02,3.737927023450460153e-04,3.583551875635336949e-05,4.546437135234858103e-05,1.485947231239404918e-06,1.697952603093381952e-04,5.476847771234092180e-03,1.082181081083257308e-04,4.960156075587405546e-04
7.865489349238256184e-04,3.572726316465661689e-02,4.413225937574605305e-04,5.210735845184331569e-07,4.822895975364742562e-05,1.580800801153028798e-06,1.859349138433793449e-04,3.348705216207494397e-04,1.024404937575638626e-04,6.144451638681614749e-04
5.040354289674563865e-02,2.383014224992787561e-02,4.977251172373722311e-04,2.820595386646417317e-05,5.011566972099123325e-05,1.636399045071054145e-06,1.977069575934211915e-04,4.264157106371586209e-03,9.417715882579457385e-05,7.138027702757595520e-04
9.243749722303278016e-02,7.849136083556725388e-03,5.414748411209384295e-04,4.979968421741993361e-05,5.108272461439156408e-05,1.651576563190542387e-06,2.048260710786485757e-04,4.231338373138774506e-03,8.364403329375498790e-05,7.827634207012110776e-04
1.362177794417758214e-01,8.021474241577834785e-03,5.713530851080228729e-04,6.391256577546984357e-05,5.111243893996049079e-05,1.626165277661711590e-06,2.071158320038694845e-04,2.674020848678895432e-03,7.111166449511387188e-05,8.453166959125295700e-04
1.905406581121072696e-01,2.266226411136331928e-02,5.864778382660001954e-04,7.040127081796399380e-05,5.021160819980245558e-05,1.560993502995032369e-06,2.045130743148286761e-04,2.838122687470361668e-03,5.689828725619439987e-05,9.042714727665211380e-04
2.299825490673503836e-01,3.271305912490990453e-02,5.863258060237267746e-04,6.932755365017286280e-05,4.841145503649374281e-05,1.457860583952965326e-06,1.970696007491950662e-04,5.564527127191945012e-03,4.136175904347787809e-05,9.448274936821462414e-04
2.171957736247929205e-01,3.449155557490427015e-02,5.707460244563522132e-04,6.095408093455271972e-05,4.576667157657188223e-05,1.319487847021705951e-06,1.849512039508597932e-04,8.696617830461043919e-03,2.489056411778500677e-05,9.660233982566350172e-04
1.584369509091941297e-01,2.870169886190863939e-02,5.399646883760999194e-04,4.573536794981748733e-05,4.235340004727302407e-05,1.149447188646184524e-06,1.684340129785024895e-04,8.703704373599265715e-03,7.894112493431346283e-06,9.787792740903464902e-04
1.013159941629399319e-01,1.899050046732890865e-02,4.945810450844771809e-04,2.430407367565745624e-05,3.826740718445807834e-05,9.520691651101908502e-07,1.478982445675639131e-04,4.678742456619196938e-03,9.207424359351459473e-06,9.806333888325990001e-04
7.154282064579847722e-02,8.846296639046624666e-03,4.355544107488107755e-04,2.546980005118640224e-06,3.362290170119120976e-05,7.323329421533035652e-07,1.238194993418339422e-04,2.392159314626171943e-04,2.599348901668070214e-05,9.575404870958722061e-04
5.084596951355661171e-02,2.305417116907122581e-03,3.641825767894451486e-04,3.388659686967492144e-05,2.854936148482795208e-05,4.957408952888732627e-07,9.675780089597307149e-05,3.242381893179497286e-03,4.205346888532331449e-05,9.182005809224040235e-04
2.466911104761199125e-02,2.843040039644845370e-03,2.820720810806055193e-04,6.867024377916279543e-05,2.318552804343499584e-05,2.481810140124758574e-07,6.734462893074770256e-05,4.486168918834173257e-03,5.699672878138799470e-05,8.916306016480761128e-04
1.126845621420773796e-02,9.932616374262117839e-03,1.911010133606770654e-04,1.057677014738242640e-04,1.767642941921719022e-05,4.219453852102328672e-09,3.626824516563705828e-05,3.595032919496411045e-03,7.046210046364348467e-05,8.629133274954759250e-04
3.433551979789987302e-02,2.160295989289747615e-02,9.337520288093704578e-05,1.439926326733762939e-04,1.217561891936756028e-05,2.552454840674358290e-07,4.257651454946409598e-06,1.623621360762427749e-03,8.212659889760912384e-05,7.764466811133622975e-04
9.551673827090047253e-02,3.883366242213919656e-02,8.821202990011778387e-06,1.821333282545883729e-04,6.840406716533267364e-06,4.987471433079133129e-07,2.793444757456454549e-05,1.098765462898254261e-02,9.171315522037363078e-05,6.688092382482541598e-04
1.700109441807313715e-01,5.940401025888154829e-02,1.130796223210070022e-04,2.189838674960789999e-04,1.815370882982571407e-06,7.287900860770487084e-07,5.954928075387318172e-05,2.088264944008027396e-02,9.899718162271936074e-05,6.651633351170514871e-04
2.084186624352465100e-01,6.988950376824593080e-02,2.169241262752404390e-04,2.533749224897847594e-04,2.769576422798581332e-06,9.398000026027699190e-07,8.983983375771109722e-05,2.802774217037784857e-02,1.038118130181198270e-04,6.971272835929761104e-04
1.662088673631935687e-01,5.613863268215027458e-02,3.178703910980846810e-04,2.842034498648190782e-04,6.775530231262644423e-06,1.126697506114013602e-06,1.180884424045896045e-04,3.074822660890078399e-02,1.060517036762524852e-04,5.026473699341588814e-04
5.738153266860056279e-02,2.251487936742938012e-02,4.134851239803668827e-04,3.104605445325235970e-04,1.006089284338917106e-05,1.285020200177676582e-06,1.436237428294003437e-04,2.817697767285739022e-02,1.056752931247002467e-04,2.300173396527826011e-04
4.436912660504242767e-02,1.045865856765475915e-02,5.014445541886637962e-04,3.312567793683441003e-04,1.254238511603059926e-05,1.411028997688172306e-06,1.658365793505136513e-04,2.155886539235857963e-02,1.027054936645376747e-04,4.632879302094023962e-04
7.866882849509893028e-02,2.792526952268069990e-02,5.795905960786324699e-04,3.458444202950752095e-04,1.419252537881314444e-05,1.501796164139559924e-06,1.841944940872096686e-04,1.371261451832942423e-02,9.722879085920025624e-05,8.878395464961191591e-04
5.607291202301468991e-02,3.060169778505895943e-02,6.459833389664739606e-04,3.536359864271171652e-04,1.491740317017599900e-05,1.555273018782934065e-06,1.982544544761421883e-04,5.531935975250257265e-03,8.939278737817507115e-05,6.563222882986641661e-05
3.291946963566354245e-02,2.483568172221024134e-02,6.989485992468765299e-04,3.542187177299332143e-04,1.456561172212779853e-05,1.570335736569329234e-06,2.076735150676545585e-04,3.118322214717466657e-03,7.940225864920995638e-05,2.669753087254604553e-03
4.379298966538022753e-02,1.370617558100921396e-02,7.371193809106291574e-04,3.473646156973320565e-04,1.319468843344784319e-05,1.546808238665933471e-06,2.122171574423108208e-04,9.458513999585353715e-03,6.751382496483490441e-05,4.352633211567144729e-03
7.462620343824655222e-02,2.951302686063769429e-04,7.594702293278925501e-04,3.330358332664663779e-04,1.106248562907056867e-05,1.485461726272019631e-06,2.117651056914987280e-04,1.035555380248185178e-02,5.402937812196799552e-05,3.235269801314797754e-03
9.777050734646748620e-02,8.338477144367528737e-03,7.653436266791088143e-04,3.113853058167465070e-04,8.059658828560488727e-06,1.387990987439085055e-06,2.063144734228414604e-04,7.791531223276988022e-03,3.928843054054770593e-05,1.528067979705353442e-03
1.051664782123495345e-01,8.288258162577399196e-03,7.544677619717952153e-04,2.827526327683234082e-04,3.713216333606643024e-06,1.256968175475649931e-06,1.959801603318312303e-04,5.673344485264805205e-03,2.365958039358645760e-05,2.030261628854196799e-03
9.508791597179844235e-02,7.261837354188084397e-03,7.269652099262954121e-04,2.476553361073130424e-04,1.603261248019157766e-06,1.095775306372532662e-06,1.809924805879045326e-04,2.518430322443972018e-03,7.531306980734077413e-06,3.324724109647402524e-03
5.904935471845255274e-02,1.561241069316313124e-02,6.833522664798762775e-04,2.067757352537018874e-04,6.649234696638671609e-06,9.085172381672185162e-07,1.616920701234910080e-04,5.786409378456250883e-03,8.697674092482847111e-06,2.445126618811510437e-03
4.306431126755983635e-03,2.858602591860931463e-02,6.245289092509530206e-04,1.609437842955429871e-04,1.190651728383088635e-05,6.999173648082925754e-07,1.385221838753475918e-04,1.614686621777419728e-02,2.462825675557491270e-05,8.728059591616296406e-05
3.879849161440585698e-02,3.027460453410195720e-02,5.517595738273765394e-04,1.111163151548951394e-04,1.969716447800501206e-05,4.751986695979829296e-07,1.120185556104324559e-04,1.891909666004869608e-02,3.987074847225599854e-05,9.880346813113235951e-04
5.417778401979666397e-02,1.789522125771923072e-02,4.666451559291367513e-04,5.835321637843958183e-05,2.866488850397240070e-05,2.399531288590748366e-07,8.279705072507393532e-05,1.089950991025239596e-02,5.405439183213603388e-05,7.152238806787889749e-04
6.114805393318836768e-02,6.942482405093926973e-03,3.710868601311146254e-04,3.791149902934877860e-06,3.338858181300665339e-05,2.726962644039558891e-12,5.153939497132105975e-05,6.367267007001558860e-04,6.683637136164931249e-05,9.216656820702817709e-04
7.766250686307803186e-02,6.369390348526931221e-03,2.672427128694722744e-04,5.138453438163129280e-05,3.616808875240751947e-05,2.387444669857885178e-07,1.897730818901413564e-05,3.160161278985594048e-03,7.791008703761639008e-05,1.267727950315119742e-03
8.157178346041660255e-02,4.359637872045725102e-03,1.574777361418929910e-04,1.059689854925145649e-04,4.816800501808061346e-05,4.704396068987837712e-07,1.412458929738246150e-05,2.034348014011328615e-03,8.701249513787868192e-05,1.610704251575239068e-04
3.324139213533500170e-02,1.203206415718724963e-02,4.430893430206695664e-05,1.587674153403951670e-04,6.428876641876625237e-05,6.894361920489719661e-07,4.698669985366396757e-05,2.045446199012613056e-03,9.393034101084092027e-05,2.764381877256103914e-03
6.687562206518574137e-02,3.566048358828808468e-02,6.965362418920479097e-05,2.086243099473199258e-04,6.007941875561340837e-05,8.904275058070217731e-07,7.883278262811638682e-05,3.701943730073206824e-03,9.850513647631263861e-05,3.524009060735400038e-03
1.642067794340979769e-01,4.844765550470597065e-02,1.817682484855627587e-04,2.544515703734688268e-04,4.533497998979177314e-05,1.068575029641120479e-06,1.089082687547936288e-04,3.399101324650631323e-03,1.006367661710242517e-04,1.444959408893686055e-03
2.052238034122047250e-01,4.536295309715307478e-02,2.894241415622174460e-04,2.952548957701659990e-04,7.210472309398582435e-05,1.219624729423671229e-06,1.364981267483008265e-04,1.267274920791734618e-03,1.002856414293636772e-04,1.142028711628781737e-03
1.928397344108903066e-01,3.902027541481858930e-02,3.901035085835535690e-04,3.301577676591036328e-04,1.204400513249508190e-04,1.340008424137469153e-06,1.609438561622774744e-04,1.825676412626968002e-03,9.747335638741753592e-05,2.102440491535306072e-03
1.660577389803550574e-01,3.999188522452943456e-02,4.814417768339044820e-04,3.584224567284296039e-04,7.818605621256295170e-05,1.426927826929961478e-06,1.816592065106649358e-04,7.387076900699614951e-03,9.228183802024777908e-05,1.752717894551117199e-03
1.396733428764772578e-01,4.252675210709606218e-02,5.612844835682822067e-04,3.794675495266234015e-04,1.554753790652627245e-05,1.478419285481979402e-06,1.981442469098965327e-04,1.479402151727711098e-02,8.485101885441113326e-05,1.397249211302540282e-03
1.011467719947715255e-01,3.695901158534037334e-02,6.277394596446800529e-04,3.928815804834029173e-04,8.203946269431605328e-05,1.493397731833606516e-06,2.099974492635434294e-04,1.906492266461338667e-02,7.537509723047891976e-05,1.685030944848266371e-03
5.787538352824454779e-02,2.634994546644603766e-02,6.792230413542631792e-04,3.984324524681410757e-04,3.027444311322055929e-04,1.471678869062519429e-06,2.169254932396880804e-04,1.771390967620026929e-02,6.409748434101916140e-05,2.305178491799193558e-03
3.849732782146383925e-02,1.810987436372697018e-02,7.144991781747237316e-04,3.960724341578366605e-04,8.339235580306980438e-05,1.413979160685894812e-06,2.187505537538511819e-04,1.228707783985987304e-02,5.130456900382266501e-05,1.867692092042579077e-03
4.546088489917356201e-02,9.044101723687596531e-03,7.327104671946158086e-04,3.859386322099578911e-04,6.990717463629935466e-04,1.321893735048938212e-06,2.154148899658239443e-04,8.383333045195812128e-03,3.731845948236461592e-05,1.062469827336340409e-03
5.568285706333689355e-02,4.292264492946647539e-03,7.334003319744451582e-04,3.683489479009895303e-04,1.174805609187782153e-03,1.197852857835658549e-06,2.069826175843993967e-04,1.204800834542409452e-02,2.248888595692750302e-05,5.446534017422879383e-03
6.992909139967391774e-02,1.027609674823161227e-02,7.165257703121536651e-04,3.437936387462712140e-04,7.054520488220947716e-04,1.045058147959775008e-06,1.936386120956360497e-04,2.264111155601546480e-02,7.184466905086655819e-06,7.656737160690090839e-03
1.076100628421693406e-01,2.280251598700119495e-03,6.824603169604123113e-04,3.129227129419581655e-04,7.079501418582192596e-05,8.674002027627339418e-07,1.756845578560519143e-04,3.156007591670948603e-02,8.216442789138754914e-06,5.519924656044672417e-03
1.541704989307499107e-01,2.256094911137416711e-02,6.319870986115552064e-04,2.765294856477859510e-04,2.842524505514983741e-04,6.693597457913811698e-07,1.535322252478827168e-04,3.137071812423715411e-02,2.333509504323521037e-05,1.180586081318012832e-03
1.714764630506236676e-01,3.281123574636354151e-02,5.662820939715773562e-04,2.355307187065120453e-04,5.812623173625790121e-05,4.558948037018846340e-07,1.276941236994880179e-04,2.410906284363299040e-02,3.780165263376753692e-05,1.640208548820312317e-03
1.551398483169864062e-01,3.433641477168673101e-02,4.868879459017924692e-04,1.909438471431829185e-04,4.426960687149037669e-05,2.323167486752573795e-07,9.877174078175507692e-05,1.746825476729758561e-02,5.126422580146368390e-05,1.925999422096118328e-03
1.288188100028518912e-01,3.781192121589109501e-02,3.956788998279663181e-04,1.438618647530933890e-04,4.539110715122854307e-05,4.158301371426167431e-09,6.744163532033962472e-05,1.456620631762827085e-02,6.339742086283313926e-05,1.334517499944624453e-03
9.734745074378743646e-02,4.040243526982117278e-02,2.948176574455608893e-04,9.542649564390527639e-05,8.441312504445008845e-05,2.229632290889250058e-07,3.443970413603159996e-05,1.142861246139306036e-02,7.391019342440075239e-05,1.177934718556770130e-03
5.505120209837555123e-02,3.304154920038757798e-02,1.867051319915269023e-04,4.680031747968680587e-05,3.377041480256402523e-05,4.434840914018371039e-07,5.439863993205135644e-07,4.274632804284240334e-03,8.255281695790259123e-05,1.270409988147648897e-03
1.977926825524222235e-02,1.928864684064237819e-02,7.392426620054105401e-05,8.614754910107254066e-07,5.678209878600158156e-06,6.520302309611271569e-07,3.344359441630456037e-05,5.094748989641523750e-03,8.912280020994860165e-05,1.156878419719208030e-03
1.152600006549215142e-02,9.155643286373206166e-03,4.082077778625400763e-05,4.643897621717235088e-05,2.012054080069948032e-05,8.435480940164553365e-07,6.671612425977429379e-05,1.248298802756757364e-02,9.346961360604323676e-05,9.257311643773339597e-04
1.392938103742975657e-02,2.351681482030355732e-03,1.547686295318778866e-04,8.887445376089808116e-05,2.505778278658407840e-05,1.013426917338165440e-06,9.848078437831888059e-05,1.635238939768996619e-02,9.549811479031389109e-05,7.878881007612520328e-04
3.496288764541954225e-03,8.279211428412060897e-03,2.651664110262832693e-04,1.271975740758407743e-04,1.067853821636334839e-05,1.157609548375516654e-06,1.279776793838486421e-04,1.773195601147933842e-02,9.517059596527684205e-05,7.077972364845538629e-04
3.999639906950755441e-02,2.258210600816842883e-02,3.693355668290930352e-04,1.605483436759671829e-04,1.391769877402099939e-06,1.272689136950288473e-06,1.544979616922100734e-04,1.746727268895768154e-02,9.250740994843130807e-05,5.902844534049410353e-04
7.444793811809356787e-02,3.434648985738415761e-02,4.647362516265950930e-04,1.881972262421922177e-04,2.230502821294797149e-06,1.355989399263560652e-06,1.774008211864537457e-04,1.609283393739962403e-02,8.758616699414152184e-05,4.544358269695557089e-04
1.033658943089528631e-01,4.210855348281005578e-02,5.490287288583556302e-04,2.095619544305730487e-04,1.940739645087154220e-06,1.405626569271197784e-06,1.961289338550339413e-04,1.506404878717149468e-02,8.053952957272158099e-05,3.483412017838090130e-04
1.310862705795006466e-01,4.669450864313890587e-02,6.201302968168308661e-04,2.242206427159218972e-04,1.887364480000634248e-06,1.420551610871738584e-06,2.102219977491039235e-04,1.477733715612703468e-02,7.155166659069736037e-05,2.666161290283321369e-04
1.389226467402489840e-01,4.179864754085575729e-02,6.762663571833388071e-04,2.319208999176407206e-04,3.960515989688263298e-06,1.400571755390168059e-06,2.193280281214208529e-04,1.218642153520533081e-02,6.085346113911675498e-05,1.892399376616583960e-04
1.054273976528601886e-01,2.076265085925336693e-02,7.160143731962651838e-04,2.325847397830362159e-04,3.064818177214030027e-06,1.346350940334618093e-06,2.232121350705341067e-04,4.649233105901646838e-03,4.871659597860873464e-05,1.205872534767205457e-04
4.880785873009012288e-02,8.459297576491933354e-03,7.383396275941176996e-04,2.263091921623616026e-04,1.675688817494649972e-06,1.259389244710101509e-06,2.217625652436103765e-04,4.380844494395773510e-03,3.544666788382395582e-05,7.167055451607765102e-05
1.368361678918006072e-02,2.776761149805103204e-02,7.426218804290842966e-04,2.133626233185174957e-04,4.353905740159189261e-07,1.141981930521990538e-06,2.149938528097717141e-04,8.283979418521582316e-03,2.137550503167527064e-05,4.161090255381804943e-05
1.958717550528465273e-02,2.851670369757777421e-02,7.286722394323592259e-04,1.941768791599157988e-04,1.733143498285430625e-06,9.971591969109453537e-07,2.030469925287606433e-04,5.739018920212024880e-03,6.852880281156916246e-06,2.570376125946220009e-05
4.778661477296302501e-02,1.725929310536476746e-02,6.967397858830896547e-04,1.693354670870081001e-04,5.041140336641976961e-06,8.286082205478319603e-07,1.861866177318871770e-04,1.707597168125871666e-03,7.762172977943214070e-06,2.418512232954837327e-05
7.492534372918525920e-02,3.156069117875056132e-03,6.475077414810471001e-04,1.395580882165086095e-04,8.858487344447348396e-06,6.405794821811688692e-07,1.647952367640975822e-04,6.078119960912207759e-05,2.211022704881626146e-05,3.856731563473873533e-05
9.798492239376119239e-02,1.115202915683988563e-02,5.820792108260019419e-04,1.056819196636019255e-04,1.292793465085209190e-05,4.377797543251889725e-07,1.393646512421895184e-04,8.081980274032166209e-04,3.584028951851087947e-05,6.750907282457272742e-05
1.206193626854414336e-01,2.513023690100016361e-02,5.019527838615913664e-04,6.864012420508987776e-05,1.737239482948966517e-05,2.252544400692857279e-07,1.104847467123380207e-04,2.020658320992787735e-03,4.861837955266550253e-05,1.085139219941589131e-04
1.299094256871585473e-01,3.477772973645464061e-02,4.089885270681769668e-04,2.943813016251096604e-05,2.213085368948425655e-05,8.262200467213813841e-09,7.882990933994572314e-05,1.404108281941587964e-03,6.013564158355395661e-05,1.599306374003983536e-04
1.075340904373101591e-01,3.683891274631827251e-02,3.053651253691762909e-04,1.087172381175147292e-05,2.695274990851133820e-05,2.078550177974225844e-07,4.514337962625177128e-05,3.551446030472847973e-03,7.011579953587761098e-05,2.202399205069886703e-04
6.424096526398202778e-02,3.504982273155508171e-02,1.935291530139249456e-04,5.121654739215983761e-05,3.166693441374970907e-05,4.178033456770502231e-07,1.021990443519233267e-05,1.053261358551812847e-02,7.832177195942835804e-05,2.871767179142227424e-04
3.655665250448119491e-02,3.568476216318058197e-02,7.613764591333385223e-05,9.052960776202560213e-05,3.619256626823696738e-05,6.164665192017223119e-07,2.511290939368663225e-05,1.426267110918677875e-02,8.456128998420360695e-05,3.581298178288666394e-04
3.911101793330112181e-02,3.790177832784642764e-02,4.400468478496762982e-05,1.277767312781322780e-04,4.041824420683576150e-05,7.990304055495367274e-07,6.001410390997976717e-05,1.278874881786766157e-02,8.869138533002232021e-05,4.306407216926464907e-04
4.768232565049210919e-02,3.528394222742663872e-02,1.640121220268675613e-04,1.619817506395155855e-04,4.420020632981346112e-05,9.610995006797620285e-07,9.364928295016427260e-05,8.964870524850423322e-03,9.062164404770733526e-05,5.023103220028784155e-04
4.180436998235714796e-02,2.668674237875573452e-02,2.809869177939467951e-04,1.922503774742710897e-04,4.742340682838863442e-05,1.098802583432370633e-06,1.252104588522710957e-04,5.889025364819023937e-03,9.031615252750975422e-05,5.706543866918835665e-04
3.338690723035139807e-02,1.810414150867293084e-02,3.920889318403475779e-04,2.177919222364786201e-04,5.000721709409019285e-05,1.208884990892203896e-06,1.539353620714098642e-04,4.313694118103955297e-03,8.779409481215997451e-05,6.332360281248387412e-04
3.772634497973245682e-02,1.361913454216458208e-02,4.946042666959159445e-04,2.379383392596099724e-04,5.188051749726635051e-05,1.288785320433265140e-06,1.791257532259823222e-04,4.276714852443616599e-03,8.312899358991038777e-05,6.878236259383227165e-04
4.877564556773465038e-02,1.250655857643707784e-02,5.860112461325973736e-04,2.521601432958567052e-04,5.298177731978162108e-05,1.336694756544027538e-06,2.001642985077215148e-04,5.243910921431517956e-03,7.644662059404171129e-05,7.324152885210230860e-04
6.146123220482235111e-02,1.518164981217042311e-02,6.640421391015130731e-04,2.600788231352768034e-04,5.327313414301761298e-05,1.351597655402508121e-06,2.165296013007229989e-04,5.001433220261953215e-03,6.792163468036281973e-05,7.652436146739043099e-04
8.326646469959299302e-02,2.173210844991213184e-02,7.267391233270959405e-04,2.614754659414499733e-04,5.274222568030977818e-05,1.333292486352327445e-06,2.278090245756936804e-04,2.020179225286773596e-03,5.777303679813991088e-05,7.848346308891557916e-04
1.014689453737784020e-01,2.348096262440061907e-02,7.725031107964862569e-04,2.562954005532766619e-04,5.139655592365127056e-05,1.282392715346716565e-06,2.337089892200964949e-04,1.798304522702620038e-03,4.625855966102405031e-05,7.900668087491527925e-04
7.882631577479730367e-02,9.559777309675844201e-03,8.001342219908825788e-04,2.446487668276402109e-04,4.926277207420732537e-05,1.200307709068402020e-06,2.340624917818953676e-04,3.396254031687760949e-03,3.366813547300052413e-05,7.801934186665306862e-04
1.091687439486710778e-02,1.387807264200547307e-02,8.088628922035476232e-04,2.268070186857395457e-04,4.638877184171132328e-05,1.089204227663983059e-06,2.288336498041733153e-04,2.448211658832168992e-03,2.031660695857687735e-05,7.548518855416772727e-04
5.304950073832151447e-02,2.654136395820615862e-02,7.983708095856528178e-04,2.031954683973431102e-04,4.284273366961074194e-05,9.519495468871383610e-07,2.181191525113590273e-04,7.926056876427861825e-04,6.535864667721781567e-06,7.140767304353773425e-04
7.687517125611720292e-02,2.255345785211465906e-02,7.688011174041760624e-04,1.743820763429211596e-04,3.870998438547402500e-05,7.920376954214730531e-07,2.021465674524119082e-04,8.453592335521392795e-04,7.333393338976946767e-06,6.583046371534731749e-04
8.230365963935565299e-02,1.894581362922586470e-02,7.207575731180276835e-04,1.410627816750278322e-04,3.409075496209876456e-05,6.135006994864872610e-07,1.812695281029398392e-04,3.067087796817161323e-03,2.095007506948862413e-05,5.883634981614951865e-04
9.878917151767328819e-02,2.767428254414990713e-02,6.552926347450976560e-04,1.040437527468694278e-04,2.909855612114117405e-05,4.208070847564528629e-07,1.559599016212843622e-04,5.130365765488113447e-03,3.398107390050892067e-05,5.054508152961364369e-04
1.122955541807886259e-01,3.731789361617129930e-02,5.738846993117351298e-04,6.422100987866474742e-05,2.385735458439983858e-05,2.187501866165153756e-07,1.267971081823725103e-04,4.538070472321513449e-03,4.610940798132355837e-05,4.111057895894317492e-04
9.527786250724989969e-02,3.290312899069607055e-02,4.784049491708244396e-04,2.255793523192849894e-05,1.849762038529619417e-05,1.232905675544381274e-08,9.445483185339512741e-05,1.189067260494010509e-04,5.704192109003261351e-05,3.071734259460378756e-04
5.299654706683221833e-02,1.802457090783418300e-02,3.710745382888328784e-04,1.993876620935252424e-05,1.315320350601391794e-05,1.933750784359992920e-07,5.968542618054720108e-05,7.343803859487402566e-03,6.651635809928068169e-05,1.957597088521795302e-04
1.044089405276410129e-02,5.804856971585068207e-03,2.544131539828731561e-04,6.224405543484255721e-05,7.959441959266773696e-06,3.933237579833089025e-07,2.330237399668028602e-05,1.426319032556554699e-02,7.430764454431966904e-05,7.918001731498475703e-05
2.458725749609248085e-02,3.516258417430117135e-04,1.311801538454189086e-04,1.033398786493988658e-04,3.049575924830702052e-06,5.826445562747913495e-07,1.383879093968761438e-05,1.939725088755158908e-02,8.023322022425925478e-05,4.009710100526134389e-05
5.847519533191787577e-02,5.506359597632961081e-03,4.309519167489091814e-06,1.422401927315267763e-04,1.451332940792503968e-06,7.567496704224760697e-07,5.086065419087497147e-05,2.371308936175047649e-02,8.415730078434704216e-05,1.595099186382388360e-04
8.220825167581391479e-02,1.003619402936711986e-02,1.231598764381758770e-04,1.780150831433059699e-04,5.428970470109433962e-06,9.114469424289776096e-07,8.688470821508246199e-05,2.850790981844737379e-02,8.599396821451359715e-05,2.764662246498541176e-04
7.220988249658362446e-02,9.014881061509901969e-03,2.481567526620051230e-04,2.098133860118926621e-04,8.776664682743714164e-06,1.043040633338948619e-06,1.210522655676544345e-04,3.205837202429583088e-02,8.570902047888801032e-05,3.884069686189298501e-04
2.678274241794583593e-02,2.751810586325385312e-03,3.676508624351359665e-04,2.368832659063297666e-04,1.139891958565743016e-05,1.148419531071976097e-06,1.525450004791223542e-04,3.032678019267934927e-02,8.332054133145440236e-05,4.928690989595215129e-04
1.963129184106121236e-02,9.799229142747601078e-04,4.787262206990063355e-04,2.585902539027206282e-04,1.322632744817517440e-05,1.225130296078088736e-06,1.806046278088930146e-04,2.251555061090484977e-02,7.889818300887818236e-05,5.875461585698533084e-04
3.336816605562429455e-02,3.339829117780922056e-03,5.786525272199170584e-04,2.744323154931315833e-04,1.421559170793391522e-05,1.271434321140020371e-06,2.045512463349443051e-04,1.354944431004182631e-02,7.256118614164788403e-05,6.703452426494310723e-04
1.720173472626740363e-02,1.299904231004798266e-02,6.649517846880374176e-04,2.840515930912468042e-04,1.432367316208544235e-05,1.286346794198052600e-06,2.237999026533177087e-04,8.940141813189512662e-03,6.447519211164699305e-05,7.394388708134655300e-04
7.245086163982911859e-03,2.269733289300707516e-02,7.354580865471343999e-04,2.872425514204351364e-04,1.351168043785570469e-05,1.269657095680877693e-06,2.378749719939289814e-04,9.409406515773216170e-03,5.484793245348765841e-05,7.933104517832346081e-04
3.414081250227080089e-02,2.992852007423241895e-02,7.883717951562918894e-04,2.839563438423219413e-04,1.180331611056883464e-05,1.221930123497047622e-06,2.464220021206445818e-04,1.183628228633950771e-02,4.392390703501894466e-05,8.307922395601131851e-04
6.297559663912857819e-02,3.068861937405531481e-02,8.223076844291167748e-04,2.743013114586995583e-04,9.279691357918702258e-06,1.144488608172513062e-06,2.492167250428453358e-04,1.269542804096370110e-02,3.197818700450100025e-05,8.510948613405631578e-04
6.865074142282566461e-02,1.739578952967599929e-02,8.363301100756442754e-04,2.585396222725380895e-04,5.954402386791752276e-06,1.039376946072128422e-06,2.461710071771634843e-04,1.001264740733806211e-02,1.930949927745299679e-05,8.538276716210844129e-04
2.284428609181702458e-02,1.012379024265341355e-02,8.299721882277080525e-04,2.370801524717566831e-04,1.779802229282605159e-06,9.093075288308615138e-07,2.373355803358232917e-04,4.769334240156819851e-03,6.232766162749762787e-06,8.390094103214609886e-04
5.597498749246165861e-02,3.721275562014331184e-02,8.032506356310122704e-04,2.104678036779235437e-04,3.089117647939582259e-06,7.575909710934147355e-07,2.228994718111423825e-04,3.327121730493747247e-04,6.928713797426044243e-06,8.070688935282962530e-04
1.126368488802290263e-01,4.785184812173565866e-02,7.566806841620764106e-04,1.793695365425917922e-04,8.305752522054357168e-06,5.880520261665345841e-07,2.031861300889325486e-04,1.151293964861961876e-03,1.985124985933435049e-05,7.588357089570485796e-04
1.185953912465252669e-01,4.136425920126229200e-02,6.912647629775228774e-04,1.445574802783027154e-04,1.390157064482120759e-05,4.049333209142335632e-07,1.786463214984165360e-04,7.692772908414048476e-04,3.221871103038747685e-05,6.955211258225752835e-04
9.406054002912823953e-02,2.821264325211079310e-02,6.084441490097965578e-04,1.068895476722656784e-04,2.028446309579431107e-05,2.127893290281640468e-07,1.498479505229111304e-04,9.311689249118910126e-04,4.373025080878919992e-05,6.186896681578754479e-04
6.943346277557731205e-02,1.537841526311701720e-02,5.100696643593962028e-04,6.728804417819297457e-05,2.703010263355829583e-05,1.637322890550751305e-08,1.174630307181455125e-04,2.977380263048306185e-03,5.410761617583228361e-05,5.302220326174428245e-04
5.389299967573225880e-02,3.616995959928593664e-03,3.984169950906217344e-04,2.671680642230468236e-05,3.286277702275299591e-05,1.794805464922437063e-07,8.225210241827988242e-05,6.069720433568886325e-03,6.310186350231460550e-05,4.322702444214541117e-04
4.102119634580396468e-02,6.346213079094370664e-03,2.761294328373619386e-04,1.384256119075640918e-05,3.824553191666641095e-05,3.699751688635971826e-07,4.504645593767275032e-05,7.464394070394579986e-03,7.049931952325995952e-05,3.272061345744936090e-04
2.411522477733123171e-02,1.275157774787487146e-02,1.460330688195924157e-04,5.341476387680078961e-05,4.549848481245365498e-05,5.504687638504193233e-07,6.728573284903900529e-06,5.463698880561810439e-03,7.612664492190023544e-05,2.175643861602192587e-04
4.292596884446231616e-03,1.537652377964934466e-02,1.107675181915032485e-05,9.105461530923280461e-05,5.328024686388471964e-05,7.165873828754485922e-07,3.178875377088426625e-05,2.417952630470328844e-03,7.985488084820806525e-05,1.059815326732790349e-04
9.425219478684535024e-03,1.394629010875228156e-02,1.254750869718284484e-04,1.258699752340500884e-04,5.620103748040704918e-05,8.643308515339616566e-07,6.958413725892779198e-05,2.321786570394441911e-03,8.160238430182715943e-05,4.867607746591014412e-06
1.227306232294101719e-02,6.872102641401964251e-03,2.601275457960872247e-04,1.570432673665578694e-04,5.660764201824522332e-05,9.901689367053548648e-07,1.057496236726476854e-04,5.253918424530996945e-03,8.133658609044357418e-05,1.123345138922885714e-04
1.348176101700252968e-02,4.061378384751630766e-03,3.898005701100033566e-04,1.838510568283316577e-04,6.572601304874876827e-05,1.091125524435556908e-06,1.394125169566867131e-04,7.137533728502387480e-03,7.907453433879069822e-05,2.138609836144229729e-04
1.903337805198246011e-02,1.276719876709975394e-02,5.119027394225914669e-04,2.056812167300291444e-04,7.853080705323033832e-05,1.164848805815104422e-06,1.697564709496114947e-04,5.436649954415995016e-03,7.488221654410447147e-05,3.070410325285814757e-04
1.051225090201229721e-02,1.786045101989989364e-02,6.231954542863096325e-04,2.220472751430129031e-04,7.065628730616461332e-05,1.209665820788322483e-06,1.960413426753482909e-04,2.219853852869816367e-03,6.887268320967865126e-05,3.896791550054879176e-04
3.334115734824503324e-02,2.580985388445436457e-02,7.198420500090136915e-04,2.325996050578012524e-04,5.199155070645878533e-05,1.224620101200820777e-06,2.176213249750096935e-04,9.405440255742737905e-04,6.120302540143997445e-05,4.598435199629303323e-04
9.704185186815542097e-02,3.927679690027366388e-02,8.000612686722142737e-04,2.371331991970515075e-04,7.468646001491493678e-05,1.209491574646910989e-06,2.339609160905938077e-04,2.805905358358059404e-03,5.207028644700126529e-05,5.159127957338599784e-04
1.382276604149273169e-01,5.002619118561738715e-02,8.643027879373462894e-04,2.355918567470434823e-04,1.188970114716190617e-04,1.164798329376971829e-06,2.446483324410252081e-04,7.088222985593931047e-03,4.170641375536723134e-05,5.566154520775098632e-04
1.356064046975274384e-01,4.914408029354985080e-02,9.097756270360849839e-04,2.280686980712292385e-04,7.257429005617704789e-05,1.091780286829431105e-06,2.494060283491219090e-04,1.248921636667977772e-02,3.037237975677066677e-05,5.810605695881998446e-04
1.036659358362805733e-01,3.711096375875237718e-02,9.300959102137109670e-04,2.148030140667608683e-04,2.506721961842780258e-05,9.923652712944241356e-07,2.480980550973560755e-04,1.711104615903090431e-02,1.835162069489552016e-05,5.887593929203793980e-04
6.469045526697982107e-02,1.967433899498095828e-02,9.270989702257285405e-04,1.961735467866764361e-04,6.887360350702636559e-05,8.691183949657482021e-07,2.407340688919683996e-04,1.928173429198409145e-02,5.942957980530285120e-06,5.796370893552155353e-04
2.838189650550960660e-02,1.254802679314535787e-03,9.120029844934980905e-04,1.726883850705337520e-04,2.862887248489727758e-04,7.251760807642935054e-07,2.274698737329376448e-04,1.941292917281578143e-02,6.546821336286258217e-06,5.540344128174516788e-04
3.971410134704485284e-03,1.394977586880485031e-02,8.802806808877940582e-04,1.449717410799518044e-04,6.408904693946314247e-05,5.641664150429543849e-07,2.086044608092438009e-04,1.892904475339811377e-02,1.881054096873930147e-05,5.126992197188412438e-04
3.313607872090167106e-02,2.191860663886564115e-02,8.085485887045428758e-04,1.137479488310168962e-04,7.207053042414757410e-04,3.901178487262534382e-07,1.845735952688125369e-04,1.712124450743101114e-02,3.054818177180710557e-05,4.567680309502995892e-04
5.981207620115562562e-02,2.382008556028782434e-02,7.081431204760873848e-04,7.982309224237759315e-05,1.198189617446941344e-03,2.073585408209748750e-07,1.559400985339074884e-04,1.260645156670458546e-02,4.147421291216142196e-05,3.877380779078123019e-04
7.879676201961473281e-02,2.438413198172481242e-02,6.331212443483433695e-04,4.406472629042158649e-05,7.299584734707015082e-04,2.040885606820916912e-08,1.233810427404690043e-04,8.450601304929533306e-03,5.132452889765076498e-05,3.074305036616589585e-04
7.880723416496422662e-02,2.304449783557572379e-02,5.659595506550895534e-04,7.380199258105602707e-06,4.582703757828536614e-05,1.661303162583911071e-07,8.767211805408134568e-05,1.071211842589273391e-02,5.986282414959895218e-05,2.179456075550742175e-04
5.799168835603351474e-02,1.505283834915703035e-02,3.972320112584013505e-04,2.930588424761140299e-05,2.595003959387453510e-04,3.476906662598737241e-07,4.966952668167288543e-05,1.973588941367946173e-02,6.688625149460504483e-05,1.216112173168153795e-04
3.401932294825751879e-02,2.879537032652579147e-03,1.690215949061971330e-04,6.507450156516221334e-05,3.426754421109933716e-05,5.198482126756013787e-07,1.028988549972363164e-05,2.776431693201232218e-02,7.223022934227671464e-05,2.092544237442435439e-05
2.602387427262688180e-02,3.775811286908288371e-03,1.273988585586653807e-04,9.903478911785627858e-05,6.657415889033237242e-05,6.784309670751521857e-07,2.951137954959287508e-05,2.803075060980754138e-02,7.577228393040026069e-05,8.150479872277120188e-05
3.354752307319071314e-02,9.099562909900013683e-04,2.076442662757367770e-04,1.303458053698592354e-04,2.526853266219114536e-05,8.196198961067442796e-07,6.876276926387887801e-05,2.203868767075021357e-02,7.743483731172398838e-05,1.830279784678950266e-04
4.796255536059055441e-02,6.507373346828371902e-03,1.500674715530856535e-04,1.582369494413820080e-04,6.705198909543156770e-05,9.400407420108942040e-07,1.065000685267049134e-04,1.503557825945713716e-02,7.718687811618380043e-05,2.810133209077564647e-04
7.058848128495379126e-02,1.353480045535807204e-02,1.065648306646555356e-03,1.820265410223490541e-04,1.968751466412592565e-05,1.036844497560140260e-06,1.417894885002962517e-04,8.535683751408919967e-03,7.504447989082982807e-05,3.729157245231425207e-04
9.657729523765620772e-02,1.818130835302618140e-02,1.665834396919449283e-03,2.011381149741612792e-04,4.685084382577338222e-06,1.107774620337407160e-06,1.737499657549049269e-04,1.166739680606677107e-03,7.107016030755677536e-05,4.563386577744467073e-04
9.845895527260144220e-02,1.760424206027944374e-02,1.308652602264577611e-03,2.151140424782048194e-04,1.383186057381094987e-05,1.151219405482777089e-06,2.015746749974908899e-04,6.276326858710797388e-03,6.537110303256678018e-05,5.290934847559401527e-04
5.716524913968775573e-02,1.040244130886395189e-02,6.297737180934633028e-04,2.236261582855774788e-04,2.310352100610549216e-05,1.166248307312702280e-06,2.245514035662175790e-04,1.092627120372448649e-02,5.809629187115259341e-05,5.892537633333481137e-04
4.154408786428231623e-03,1.464471723688149079e-03,4.975424471487792811e-04,2.264831488343806447e-04,1.321675893430029916e-05,1.152631399273492391e-06,2.420800234724479569e-04,1.163725194701271601e-02,4.943263325719038235e-05,6.352031788421298904e-04
4.541658424953379930e-02,1.741781762253785237e-03,7.860739858506681161e-04,2.236345368424552628e-04,8.474720883092706896e-06,1.110841578621164273e-06,2.536862321197959694e-04,9.927877008369469930e-03,3.960016760603334127e-05,6.656759300079544486e-04
5.407823116326426066e-02,2.757572307465254446e-03,9.279725127273679396e-04,2.151711824397984610e-04,1.380309539097576294e-05,1.042039546722224363e-06,2.590339107584551282e-04,8.124725229973777177e-03,2.884649190229570209e-05,6.797885665183302575e-04
4.246582560025086855e-02,1.028621892012790244e-02,8.549907844769928308e-04,2.013223068829912493e-04,1.784161612331943786e-05,9.480420175139637325e-07,2.579367066234147885e-04,8.059531639831580066e-03,1.744053462715766128e-05,6.770624852082062720e-04
2.018454156466852403e-02,1.535881663997786320e-02,8.144838304579311156e-04,1.824491302742477705e-04,1.807779350388518817e-05,8.312740151414871768e-07,2.503628142917870610e-04,1.047065543657573795e-02,5.665839299506067850e-06,6.574365190932040344e-04
8.377361937972765266e-03,1.619780128951819193e-02,8.429538936227764893e-04,1.590352973963506805e-04,1.970836341200015744e-05,6.947065071657724872e-07,2.364307091139320816e-04,1.450014388920511932e-02,6.186475842505853381e-06,6.212692949717822741e-04
3.470522777829523897e-02,1.451526673646700259e-02,8.173430622856252227e-04,1.316743437549847909e-04,2.385906100432872118e-05,5.417809726887988848e-07,2.164080923776035242e-04,1.817717989250043978e-02,1.782490741394219446e-05,5.693312851450485924e-04
5.439901129433721144e-02,1.354327977686091422e-02,7.236299821575784040e-04,1.010545253011974092e-04,2.797680214351817092e-05,3.763228167861636990e-07,1.907188822297869589e-04,1.995732539842741404e-02,2.896472835049909001e-05,5.027867308790976613e-04
7.354593777792360620e-02,1.519936877872392691e-02,6.396916969309069311e-04,6.794139837020872030e-05,3.135399111255872574e-05,2.024458063396398263e-07,1.599321806764907494e-04,2.006073779107698726e-02,3.933494552857690237e-05,4.231658634029748529e-04
9.154699340183451717e-02,1.635291052009960749e-02,5.674237289011542290e-04,3.315858961312702949e-05,3.501622796103285424e-05,2.444991150692569258e-08,1.247224720930841511e-04,2.019730287759277307e-02,4.868488372044755164e-05,3.323280864234839905e-04
9.287356941545267530e-02,1.095778815323137506e-02,4.326969539226363493e-04,2.432762141034220573e-06,3.913832963597792768e-05,1.532849131989394928e-07,8.585697585872425813e-05,2.118997529055165543e-02,5.679023613152328718e-05,2.324170065067924812e-04
7.495550780579761374e-02,4.974274160532922342e-04,2.531522748324589061e-04,3.795538005195315661e-05,4.306965059749657534e-05,3.264063872956998824e-07,4.423534403564589098e-05,2.126808432377363944e-02,6.345843570234455241e-05,1.258083987627845509e-04
6.388982476091346896e-02,3.405214603113763949e-03,1.552563154686009412e-04,7.253751005203103370e-05,4.654871540402353983e-05,4.906963589048056140e-07,8.639570016348612413e-07,1.851600042092981652e-02,6.853321880206918475e-05,1.505237011801305140e-05
7.241478608530284300e-02,4.524281379440614134e-03,1.056268011847261417e-04,1.053343345603510533e-04,4.971054963858686528e-05,6.421734547035411405e-07,4.329081151558824252e-05,1.398492960409893418e-02,7.189827344619661618e-05,9.718887324459252706e-05
6.242182152057412087e-02,1.038515755389816594e-02,1.403311280588056609e-04,1.355486142931981882e-04,5.252222299822789149e-05,7.771894303866480246e-07,8.731891708546755048e-05,9.280311073454509257e-03,7.347988721936960584e-05,2.082061375493340428e-04
8.446489572970422577e-03,2.209748686340298925e-03,5.120322785273701601e-04,1.624500550364135689e-04,5.477647164965556174e-05,8.925168932646096050e-07,1.301256063123702430e-04,2.925240954294868780e-03,7.324853509501021273e-05,3.153096422090268967e-04
1.152311266105890408e-01,2.677080032649981067e-02,4.402187057857243849e-04,1.853929301880510589e-04,5.635953025020959233e-05,9.854262913050520297e-07,1.704649897419210696e-04,6.323992120481305990e-03,7.121937369272935911e-05,4.158950852379056026e-04
1.861076956062123477e-01,4.007108007370512731e-02,2.023367098485079178e-04,2.038315351700083189e-04,5.726056035451461765e-05,1.053750336057469727e-06,2.075314406514565423e-04,1.456214694960596828e-02,6.745163554775548400e-05,5.075077539808709338e-04
1.878550898825319393e-01,3.172819964702901230e-02,5.480811077136695398e-04,2.173331052729690811e-04,5.744901130938753395e-05,1.095934343553990807e-06,2.409782996322884453e-04,1.637070200481250196e-02,6.204694401653312516e-05,5.879031066340996339e-04
1.498961420157045588e-01,1.357677331178513275e-02,3.843067288399071042e-05,2.255878927247671772e-04,5.687078738193666519e-05,1.111071329482312749e-06,2.697277364490674066e-04,1.208047546668140730e-02,5.514659584469968099e-05,6.551023334221141000e-04
1.103114924012099790e-01,3.988015376276598991e-04,9.155722223145711797e-04,2.284161701350408244e-04,5.550708024961357019e-05,1.098921073884731919e-06,2.919677822224901417e-04,6.917717089799147595e-03,4.692788353278834040e-05,7.074415263213834539e-04
7.780743104390649978e-02,5.617053867045096634e-03,1.210997334263443862e-03,2.257720041788463755e-04,5.337767621250602790e-05,1.059912766942291061e-06,3.077559664173629616e-04,3.890799169943888296e-03,3.759955284128552411e-05,7.436132400165940126e-04
4.756840119472698775e-02,9.467424020861581885e-03,1.046085258552102455e-03,2.177437235268101119e-04,5.051356443677949018e-05,9.951312512684598693e-07,3.191480803116738163e-04,1.653482944812302352e-03,2.739651152007370081e-05,7.626994106482892820e-04
2.209290712511442420e-02,1.278118586590330785e-02,9.826328584924474800e-04,2.045510866230797220e-04,4.695449145134526797e-05,9.062872776379483897e-07,3.246867355916619922e-04,9.289943815164379516e-04,1.657392313120863945e-05,7.641948084228868425e-04
3.619071566149271741e-03,1.412357961810728132e-02,1.087792895832830845e-03,1.865392359432391733e-04,4.276053331501282218e-05,7.956725803971880615e-07,3.190181152844287190e-04,2.492383609698919748e-03,5.400834237087231290e-06,7.480204302360840204e-04
1.701647173037113339e-02,1.461238488789271157e-02,1.118361757182645801e-03,1.641696038452235859e-04,3.801152897656870328e-05,6.661009464757237789e-07,3.046769593885128961e-04,2.615862334123789015e-03,5.846506087730756082e-06,7.145264835236261360e-04
4.521976686365720283e-02,1.614871446407513400e-02,1.035489480971689240e-03,1.380080091428623136e-04,3.279922075008512452e-05,5.208367890500423849e-07,2.932255566116453234e-04,3.460323862778856997e-03,1.689146873651855787e-05,6.644848666372966646e-04
6.178647867491464385e-02,1.523112815994082277e-02,9.520704230819865017e-04,1.087102512893576434e-04,2.722447127635276335e-05,3.635130354005391187e-07,2.801160972564702514e-04,5.525356626645576072e-03,2.746384073586146429e-05,5.990713079542945088e-04
4.025600555598177893e-02,6.346960864640428281e-03,8.892576148334174280e-04,7.700556892522775524e-05,2.139751413330577892e-05,1.980403912320150901e-07,2.415909813657480198e-04,5.345339299962281743e-03,3.730642831589200899e-05,5.198375793888039597e-04
1.221953786992537386e-02,7.037260308229733446e-03,7.968255475647626580e-04,4.367838009275358774e-05,1.543550706202591609e-05,2.851024473959094078e-08,1.882642742294344607e-04,5.691552733777599992e-04,4.618130571843919515e-05,4.286744437809220944e-04
5.541011399372823554e-02,1.297627035712011802e-02,6.673771875501280197e-04,9.548761453863254255e-06,9.458368733846648309e-06,1.409063816685612096e-07,1.731109714641336657e-04,5.658081505593020276e-03,5.387555811917404058e-05,3.277662238088299815e-04
6.261004070115624986e-02,5.833057267041904213e-03,5.279905653922435400e-04,2.454784755781995529e-05,3.585695157806642540e-06,3.060613390966466337e-07,1.771931792795617051e-04,8.502140907587312640e-03,6.020638025689310438e-05,2.195380869935874887e-04
4.389535118868501118e-02,6.418140771839869058e-03,3.865656806968249793e-04,5.778121320999879071e-05,2.065565185457372794e-06,4.629308028901909445e-07,8.942786731510570365e-05,7.149535302593218976e-03,6.502540891046323761e-05,1.065973219382713663e-04
2.043232693192498575e-02,1.325672249645903911e-02,2.354195577378719766e-04,8.934664204525742193e-05,7.383885370344462696e-06,6.077131880814097170e-07,4.996753071426022206e-05,4.268934862967521497e-03,6.822218681784244414e-05,8.329969306186491365e-06
8.376834698570938612e-05,1.379358954218393336e-02,7.633208069572118299e-05,1.184845834086599502e-04,1.226614396304835678e-05,7.369211498898542176e-07,2.924304230527784951e-06,2.093791876817327306e-03,6.972667749900820524e-05,1.224652226537667216e-04
1.735434284089871007e-02,1.336004235834107289e-02,8.190033161638181401e-05,1.444990223520384873e-04,1.662015073880196778e-05,8.474654460006553407e-07,1.810003965234221785e-04,1.091856643632940554e-03,6.951077417587887071e-05,2.330451893160436925e-04
2.851511250294002514e-02,1.325057120990750723e-02,2.353614968256230531e-04,1.667742175291260726e-04,2.036672500756893503e-05,9.367286473742376980e-07,7.785853128952258833e-05,6.181745907379857441e-04,6.758877098481211624e-05,3.373894828515091064e-04
3.551302048327261568e-02,1.143333857590086468e-02,3.821292571602243624e-04,1.847893816583684381e-04,2.344155535730954555e-05,1.002626942618391276e-06,8.957209338043798730e-04,9.743561040343070006e-04,6.401679033028555548e-05,4.329662418248842967e-04
5.163342912382069827e-02,1.072506928470748008e-02,5.167313006407630270e-04,1.981309547527813127e-04,2.579676528708265860e-05,1.043658580917696830e-06,1.401851340344545263e-03,5.580138816871772593e-03,5.889118589845247044e-05,5.174542965430137600e-04
8.253823680966380916e-02,1.479739193025012521e-02,6.358719385633525636e-04,2.065021812558320759e-04,2.740201611079541959e-05,1.058937832620623530e-06,9.571152192137009299e-04,1.269335036380993958e-02,5.234596590585556449e-05,5.888003104298734306e-04
1.007494840682315040e-01,1.493260074331836766e-02,7.414908236476339598e-04,2.097297699389737125e-04,2.824513403065272103e-05,1.048213706488524701e-06,1.990641295548008780e-04,1.776783885893544815e-02,4.454930498946653970e-05,6.452694862997252791e-04
6.560753196916548069e-02,4.067857395608557441e-03,8.290339879791841027e-04,2.077674882116882309e-04,2.833230901872801135e-05,1.011873039380208242e-06,3.111317546699080943e-06,1.517762440969393223e-02,3.569923517049825338e-05,6.854885822389906840e-04
1.997585595897177074e-02,3.922643792521864764e-02,8.851717205627166168e-04,2.006966185543634007e-04,2.768785703187935757e-05,9.509279584783409557e-07,2.270531357765057166e-04,3.730662935712369607e-03,2.601862601455335724e-05,7.084801673125905872e-04
1.011407369630863834e-01,6.648265265164288174e-02,9.129815596850574064e-04,1.887232822229728448e-04,2.635352424158468262e-05,8.669880986178994631e-07,3.260879738607861452e-04,1.146635570945486217e-02,1.574958099322723684e-05,7.136872594005586089e-04
1.317833600949627204e-01,6.877106563061589906e-02,9.356418289149324302e-04,1.721727122832559815e-04,2.438735427341397899e-05,7.622183285025244000e-07,2.256899903148397630e-04,2.276747043885751082e-02,5.147390727289268502e-06,7.009877210170454686e-04
1.154126083906356487e-01,5.228234549186570879e-02,9.428767875911366666e-04,1.514806325247659152e-04,2.186216168797447680e-05,6.392830905640573747e-07,1.687503809899123164e-04,2.537414984124245626e-02,5.525806060088787749e-06,6.706980383017438919e-04
8.009577930041700267e-02,3.164217107444239341e-02,8.827160061793816286e-04,1.271819690648008714e-04,1.886365022307805989e-05,5.012787814468552733e-07,1.946613059614700795e-04,2.033795962782152314e-02,1.600749666073225300e-05,6.235663674398000348e-04
4.478977356380853952e-02,1.403402768676737834e-02,7.757393252881965599e-04,9.989718577532739538e-05,1.548821743451192864e-05,3.516558858373349119e-07,1.917485797348818396e-04,1.330759905067427189e-02,2.604124385413508636e-05,5.607549952454236224e-04
1.788670263798930460e-02,8.544094234622736945e-04,7.353635962442638683e-04,7.031659150369608962e-05,1.184050163095994048e-05,1.941328187954700915e-07,1.407303998829344531e-04,9.219310301159156298e-03,3.538295245980227266e-05,4.838126201238403213e-04
2.757032052233990109e-03,7.082375519681154141e-03,7.243527835437557497e-04,3.918301505331020230e-05,8.030735860470052565e-06,3.260362515961690845e-08,9.446689951240817590e-05,7.788090274693645551e-03,4.380680001327873435e-05,3.946371097518394894e-04
6.132481017434732867e-03,1.018933448740461621e-02,5.023623313570321032e-04,7.273281910742220366e-06,4.171975174228070374e-06,1.289581755009179029e-07,6.369219990321026321e-05,5.521276658750709672e-03,5.111068765843746625e-05,2.954296264489510832e-04
1.959902368709295906e-02,1.073018892155869555e-02,1.405665741903311687e-04,2.462104613068787258e-05,3.772649956280803753e-07,2.865972266819696065e-07,2.505831878492625491e-05,1.442670696229582513e-03,5.712107988437758658e-05,1.886412245739250743e-04
4.058919788674875823e-02,1.080340319078376514e-02,2.054357076651694251e-04,5.571319160470757754e-05,3.243178947865569522e-06,4.364730589921800024e-07,2.529804422919339807e-05,2.023176895161260015e-03,6.169711743217432508e-05,7.691321110603820902e-05
6.207640769109023376e-02,1.105160758629854939e-02,8.235765779938199237e-04,8.524046151403745302e-05,6.584708602313485521e-06,5.749535379179110919e-07,7.499502807329616583e-05,3.682654503127959916e-03,6.473390615268330298e-05,3.698728377417205158e-05
7.938564668959974258e-02,1.121554210758576170e-02,1.129178501896620180e-03,1.124828541556906740e-04,9.550831908071974314e-06,6.987027643704269340e-07,1.205569478919019355e-04,5.525085348315160461e-03,6.616490534392353981e-05,1.502349586855076732e-04
9.611296815572514807e-02,1.118797650378004077e-02,4.882860228198590601e-04,1.367805193004594064e-04,1.205558816486783532e-05,8.047613037949214980e-07,1.660359607116561212e-04,8.922584890313989964e-03,6.596336161370579504e-05,2.600155656872723034e-04
1.136498486009880210e-01,1.140111588927050085e-02,4.569197218340490430e-04,1.575496489251149428e-04,1.402565236002819541e-05,8.906168175951165722e-07,2.112666101186021445e-04,1.190157317705459183e-02,6.414275803784512408e-05,3.635950152903396097e-04
1.222124838741620173e-01,1.200426561792299410e-02,8.332717120859490286e-04,1.742964164483323071e-04,1.540211717911413520e-05,9.542634147676307746e-07,2.528505189956399687e-04,1.210011149858924648e-02,6.075627272749070944e-05,4.583866685599082523e-04
1.124336878155984681e-01,1.213587446596738582e-02,7.596218027881901282e-04,1.866286323444318787e-04,1.614190975083518506e-05,9.942483257468367959e-07,2.897004025836913670e-04,1.035806568323140858e-02,5.589526527969972282e-05,5.420151634692929729e-04
9.318388175580079313e-02,1.145943519668566127e-02,7.941446078506595547e-04,1.942648418287762119e-04,1.621880947400733774e-05,1.009704817388796645e-06,3.217385022201296480e-04,9.375927795771125256e-03,4.968683336496516900e-05,6.123752036563201787e-04
8.182313023959578158e-02,1.177009689618064257e-02,1.002487194538461118e-03,1.970406545638308420e-04,1.562404323657316048e-05,1.000370609863511539e-06,3.473103445585885634e-04,9.951405143288393276e-03,4.229050432296377148e-05,6.676838573962910880e-04
7.362378306939072747e-02,1.355928879523069300e-02,1.141931284192898707e-03,1.949121654138183510e-04,1.436644488121400527e-05,9.665914144955720535e-07,3.658142279881813983e-04,1.006606846233674794e-02,3.389414754388169843e-05,7.065250701032389172e-04
4.247483637472727197e-02,1.124625372614598481e-02,1.169426700285275400e-03,1.879563974568214163e-04,1.247217666672318365e-05,9.093095774469819681e-07,3.790449571674999753e-04,7.397119756126920367e-03,2.470921210277020596e-05,7.278852812861608687e-04
1.792454442301288572e-02,1.643323527323305383e-03,1.188815300552449866e-03,1.763687719571571221e-04,9.984021371554436592e-06,8.300381785859616117e-07,3.856898703090828168e-04,2.195992506296231845e-03,1.496541014100703985e-05,7.311792521062492750e-04
7.575618923374240199e-02,2.063942808057753556e-02,1.221778143140986013e-03,1.604576829959646067e-04,6.960264298790950860e-06,7.308212890272761478e-07,3.803810612472127077e-04,2.302192490699182890e-03,4.904979472375892591e-06,7.162654473057938594e-04
9.705701476873659916e-02,3.131967481172384660e-02,1.229334515182420925e-03,1.406363251640346411e-04,3.473194540230920390e-06,6.141814260518284067e-07,3.654737041829196056e-04,2.648700402076552534e-03,5.223331471460496188e-06,6.834505695494188550e-04
8.186836416953070794e-02,2.568470018586866549e-02,1.195460469513620226e-03,1.174119894133256745e-04,3.927357978623753694e-07,4.830555523068108950e-07,3.524523928714541252e-04,1.209337219821021627e-03,1.517040716944982247e-05,6.334831089522765689e-04
5.474967403932376464e-02,1.091744798977035795e-02,1.115605049385693867e-03,9.137310322528447467e-05,4.543047351781952745e-06,3.407212399453546169e-07,3.368022451277045710e-04,5.272069417550814124e-03,2.469288545099302743e-05,5.675360393149999272e-04
3.444287350011640547e-02,1.062931013610680323e-03,1.008458562688605833e-03,6.317434521467047738e-05,8.875610034852496273e-06,1.907148531585690877e-07,2.947857021781795242e-04,5.194185476156858335e-03,3.355910464351548675e-05,4.871790587746058611e-04
2.083818889758387929e-02,6.432486046114747717e-03,9.281591497401931335e-04,3.352020985879219993e-05,1.328320037976111325e-05,3.674378888830808184e-08,2.370191041714802139e-04,1.149132295584460962e-03,4.155473226518474980e-05,3.943410296931316723e-04
3.749629684884009297e-03,8.779410316300275546e-03,8.499933593847411014e-04,3.147434148386893654e-06,1.765617546891759586e-05,1.174050489461591883e-07,2.165196140291930291e-04,2.055772756085473291e-03,4.848793868024776655e-05,2.912635143261660137e-04
2.063091923385191456e-02,1.097121834766927664e-02,6.458958251176445198e-04,2.719327623964018332e-05,2.188519656438105211e-05,2.679582846886877024e-07,2.144334349992262133e-04,1.129092870978764531e-03,5.419399102430470772e-05,1.804465231867233418e-04
4.336014946355683936e-02,1.215644385575170155e-02,3.696587984016505958e-04,5.675576872580501120e-05,2.586393453878699309e-05,4.112483325454888120e-07,1.197747717750881553e-04,9.404040594128539130e-04,5.853915759714981091e-05,6.458778659829806333e-05
5.535250428362707698e-02,1.113908435265629701e-02,3.176693242491147244e-04,8.481675731669773802e-05,2.949168995228997159e-05,5.438026313103399552e-07,2.713252584239872486e-05,1.080175405783883550e-03,6.142383043019427984e-05,5.348297809179337642e-05
6.129968442752456448e-02,9.602979801895228373e-03,4.053905358141722667e-04,1.106934790433760854e-04,3.267586306168252701e-05,6.624276838230979625e-07,1.775457301738718138e-05,7.273220923859903021e-03,6.278479342021125943e-05,1.708732048369253234e-04
7.059743215886876699e-02,1.038960414812337835e-02,3.703240472671360335e-05,1.337602630728898273e-04,3.533421295389266293e-05,7.642858702322668339e-07,1.874761943261980151e-04,1.264847723245984996e-02,6.259658478636478084e-05,2.846983364511720483e-04
7.720986820256660332e-02,1.198391414695021244e-02,1.088900361236180793e-03,1.534636111667134065e-04,3.739685032664600217e-05,8.469631906025880130e-07,7.993577706230560063e-05,1.386210930893537127e-02,6.087192511966892740e-05,3.921526686741155852e-04
6.488813311859764621e-02,7.765714509362261521e-03,1.633840356303093268e-03,1.693354268162943887e-04,3.880791541408354806e-05,9.085263230888937246e-07,9.063949933618513626e-04,1.245049600009745516e-02,5.766120539425464623e-05,4.905784438963900007e-04
3.606033812988156118e-02,4.803931800015029917e-03,1.097773516489196268e-03,1.810040777483748399e-04,3.952690087293659981e-05,9.475676529347090233e-07,1.421008462265984035e-03,1.117864949565462555e-02,5.305105242765755641e-05,5.775314961142059746e-04
1.552464081077323081e-02,1.754445967148765204e-02,6.780461241792849845e-04,1.882030313525730040e-04,3.952958812704816815e-05,9.632372281848677908e-07,9.844843639211240185e-04,1.018321684535673614e-02,4.716201184488734861e-05,6.508418287897664014e-04
1.340399154349746283e-02,2.088195953670721888e-02,1.363935880465345094e-03,1.907768635544485210e-04,3.880857473897890772e-05,9.552609227203635126e-07,2.342224592999747569e-04,8.198797351783028778e-03,4.014541006688777703e-05,7.086676272477369963e-04
6.257172535848261677e-03,1.620439004040277395e-02,2.159589810878456782e-03,1.886845072095718397e-04,3.737338125500311601e-05,9.239444279743668464e-07,3.927218528889691625e-05,5.288613125318845747e-03,3.217947668667519060e-05,7.495413642040953204e-04
2.527471817724742317e-02,1.133624554841885720e-02,1.860995637148232882e-03,1.819996745940793178e-04,3.525013790475278540e-05,8.701630430641521893e-07,2.759698373847927324e-04,2.127359825290082041e-03,2.346482633707141200e-05,7.724068472578021153e-04
6.248472746035237807e-02,8.219874182520757466e-03,1.036197004990149989e-03,1.709084583170460961e-04,3.248086070397792539e-05,7.953375805201156939e-07,3.807314711318657632e-04,1.398903151805686897e-03,1.421941436777180191e-05,7.766462761087734087e-04
7.715496764758834891e-02,3.513109802224201935e-03,7.964357667973865056e-04,1.557041842601167661e-04,2.912233360742445443e-05,7.013970428173383386e-07,2.851565855891358896e-04,4.623920288403230230e-03,4.673092976042621984e-06,7.620966196139833610e-04
7.239056306775790151e-02,2.510889030398089517e-03,1.057118873331901274e-03,1.367796572610664404e-04,2.524462577111393025e-05,5.907290452983579586e-07,2.320645227423456997e-04,5.598548537080074924e-03,4.938096413045446499e-06,7.290548826863356207e-04
6.750204250964639274e-02,6.112125267874931808e-03,1.142983695429550077e-03,1.146170035633153910e-04,2.092928862038194356e-05,4.661192560718543297e-07,2.608017329899845848e-04,4.251748357440066767e-03,1.437775295245903364e-05,6.782721041621067289e-04
6.200417963166740543e-02,6.994648273086313990e-03,9.666609761788856007e-04,8.977537201789179339e-05,1.626727970835007084e-05,3.306813859896829721e-07,2.596629950869361043e-04,3.172027973501764884e-03,2.341492453938937875e-05,6.109362025042862007e-04
4.615826128887910718e-02,7.688104305403066843e-03,8.245087486356597042e-04,6.287680725210100657e-05,1.135665261928452028e-05,1.877794855803762445e-07,2.093526233327551737e-04,3.295314299074456749e-03,3.182975179907309208e-05,5.286440598319161032e-04
3.497052662583189503e-02,7.032367350115618226e-03,7.676358050817394659e-04,3.459065128711631188e-05,6.300069277321450993e-06,4.094448556842746414e-08,1.627612434239911242e-04,1.798598848617022133e-03,3.941881012087837457e-05,4.333634995639180421e-04
5.663005139313527503e-02,1.677276367627196594e-03,6.622733151501296323e-04,5.616864373636148636e-06,1.202226220550738214e-06,1.062129508456620147e-07,1.306941846701700988e-04,3.515738392572902160e-03,4.600002011736801046e-05,3.273860624318113881e-04
1.063400779992247774e-01,5.662389237270742427e-03,4.867765509487934940e-04,2.333131967466211859e-05,3.832735359506048612e-06,2.500911154166416427e-07,8.985608784889283468e-05,1.008649314343333658e-02,5.141700815448781956e-05,2.132717135984480306e-04
1.421378046138548068e-01,7.218605426705815981e-03,3.082552437668243349e-04,5.154497418696387908e-05,8.703832620397349674e-06,3.871853060292106003e-07,3.642094708766794133e-05,1.300520294235005432e-02,5.554281272642193270e-05,9.378681447753942145e-05
1.335897562354676216e-01,9.975739468798695136e-04,1.431007332514495304e-04,7.833686335632179462e-05,1.331580498551291342e-05,5.141730915358214953e-07,1.708547080611413633e-05,9.988655739573013004e-03,5.828284906018541559e-05,2.816313841225762230e-05
9.184811244609901448e-02,6.383708685910402351e-03,3.396729726203452215e-05,1.030582030445411702e-04,1.758144413933535564e-05,6.279947185027549920e-07,6.694719457239260252e-05,2.738986106909391174e-03,5.957706301170456688e-05,1.496043728258975004e-04
4.819483014610963928e-02,9.063143875293189558e-03,2.246283210272913299e-04,1.251143902568697432e-04,2.142360184828907889e-05,7.259267167092786437e-07,1.171484171464495956e-04,4.793754635138348930e-03,5.940122558745182464e-05,2.675675709548104705e-04
2.233641262993263030e-02,8.023115888475781596e-03,4.105489205915341020e-04,1.439793203294263669e-04,2.477710552764290537e-05,8.056469357350200036e-07,1.676225815740729189e-04,8.833850778657515931e-03,5.776734078739995186e-05,3.791606922751971503e-04
1.281086657713374245e-02,7.152680728261314770e-03,5.841480882957705888e-04,1.592079475429666110e-04,2.759060731820670592e-05,8.652894628363343868e-07,2.146735663496677343e-04,8.456364283818173025e-03,5.472316138577285299e-05,4.816401037557691976e-04
5.589385821009366928e-03,8.246436501917420170e-03,7.474535071227973422e-04,1.704467898122336684e-04,2.982772692130296127e-05,9.034881270251657005e-07,2.565279832550378743e-04,6.258650278534118663e-03,5.035082920447993184e-05,5.724782685945338382e-04
7.313364315442162991e-03,9.924900482023072887e-03,8.978404242756301548e-04,1.774421301540577106e-04,3.146729004387702704e-05,9.194075794235418892e-07,2.932491739732552734e-04,4.947556342617702094e-03,4.476467785129775706e-05,6.494263241021980271e-04
1.675013018569308093e-02,8.377283013910195170e-03,1.028546104750024167e-03,1.800457254939684371e-04,3.250392315933587782e-05,9.127612484588179510e-07,3.241771754166481497e-04,3.920255596938190812e-03,3.810825626748832437e-05,7.105699999260955708e-04
1.202133934758821410e-02,8.021656077979618911e-04,1.135497866020274442e-03,1.782178955791386993e-04,3.294938870930539055e-05,8.838157926357489605e-07,3.479750463988203206e-04,1.269675558666558167e-03,3.055065026269117019e-05,7.543774866770105178e-04
1.615676539711083035e-03,9.825447088139541846e-03,1.217286465080681364e-03,1.720279297744258516e-04,3.283193658265372880e-05,8.333820054732017149e-07,3.638610342208735220e-04,1.916749391455116512e-03,2.228219605407584435e-05,7.797380584000359813e-04
2.963604219303430341e-03,1.641564250630190777e-02,1.272082842736486181e-03,1.616518157168489542e-04,3.219276974434941618e-05,7.627924585812648052e-07,3.716295191840258516e-04,2.561486204609283047e-03,1.350969426871577203e-05,7.859904755819806721e-04
1.678838844321719342e-02,1.564380394494934920e-02,1.297708709980930882e-03,1.473673595599399007e-04,3.108543883581205397e-05,6.738664916828886706e-07,3.710959095547901516e-04,4.470364712183478640e-04,4.451244570748808831e-06,7.729404431292927636e-04
2.819390120429492858e-02,1.047348571620223233e-02,1.293156303176595540e-03,1.295468312403152370e-04,2.958029529808780939e-05,5.688634648024589953e-07,3.620951025299359253e-04,1.645259012368165781e-03,4.669170234999636450e-06,7.408666639842464551e-04
3.151022843773249732e-02,4.242976334896876589e-03,1.258624371991337110e-03,1.086473282906870799e-04,2.776172078780683849e-05,4.504254704408737364e-07,3.447494664361101021e-04,2.699713443417889498e-03,1.362721629133916349e-05,6.905153073052085677e-04
3.945845440607617660e-02,2.699397564968498281e-03,1.194830699693564396e-03,8.519910674924976155e-05,2.571337214161584865e-05,3.215109555412240846e-07,3.194736919282225316e-04,4.701292637465425209e-03,2.220372048549222461e-05,6.230829936378197648e-04
6.130099027444890075e-02,9.096213149280475696e-03,1.102987533919432906e-03,5.979217634985909931e-05,2.351768000724638934e-05,1.853209184098567067e-07,2.868429906253095276e-04,8.541603531602959612e-03,3.019002668242504517e-05,5.401886813182865503e-04
8.015088023265817818e-02,1.101129008215613082e-02,9.851023038526503586e-04,3.306149825944933223e-05,2.128060609695912007e-05,4.521951940573817136e-08,2.475757201299344035e-04,1.176720141615716052e-02,3.739306565057313894e-05,4.438351115689906541e-04
6.793939704351625863e-02,7.383505715710366249e-03,8.439411709638157660e-04,5.671156189040784862e-06,1.912608170285211816e-05,9.534892789853508054e-08,2.025744631965136313e-04,1.151551559604448681e-02,4.364001565116689503e-05,3.363607276517135806e-04
2.428174921639146208e-02,3.135521809223100476e-03,6.828028316046920497e-04,2.170210501283163145e-05,1.713535796303251459e-05,2.329445391558249664e-07,1.529077436866511930e-04,7.997270734759656663e-03,4.878244135919307742e-05,2.203832196714843386e-04
2.011530015497563911e-02,2.083711231141737504e-03,5.054367315213010572e-04,4.838556569390275720e-05,1.534950550731244666e-05,3.642159405014447268e-07,9.975798465228390339e-05,4.168446540465669745e-03,5.269981218401816460e-05,9.873605532289017421e-05
4.357485283572015700e-02,6.272294822976767119e-04,3.160513761233219683e-04,7.372703166827453689e-05,1.389124211083371563e-05,4.859817958291160972e-07,4.439200349497015989e-05,2.582025671444590411e-03,5.530231681760035939e-05,2.560046715409649231e-05
5.255932446118393581e-02,5.301454865606622553e-03,1.192148543635879475e-04,9.711074414340239893e-05,1.295523639158542814e-05,5.953077993280934060e-07,1.185683993278713685e-05,3.019091924792864472e-03,5.653290855860932876e-05,1.495719686989780556e-04
5.595472447480466516e-02,1.117088612009479315e-02,8.034522777500169061e-05,1.179723116305181043e-04,1.254055269671509929e-05,6.895772726248046044e-07,6.762046860156258900e-05,3.158246312368377228e-03,5.636853519617386382e-05,2.701247685288754715e-04
4.741910225798275091e-02,9.621694041157301605e-03,2.778536589895581237e-04,1.358123022061044269e-04,1.245784332047699304e-05,7.665536708729988121e-07,1.215350252331983105e-04,1.588845366520196326e-03,5.482052750702025643e-05,3.842808642778307001e-04
2.265922769353955271e-02,1.780173301187595175e-03,4.684655428734553853e-04,1.502081692794574855e-04,1.289515111648489495e-05,8.244335077937487457e-07,1.722734035879165812e-04,1.495403432470536996e-04,5.193414122117563062e-05,4.892112744712779834e-04
5.067216300815741495e-03,4.865811594930794133e-03,6.473902603711280531e-04,1.608242266551713877e-04,1.441242378057692657e-05,8.618884507625623610e-07,2.185753869342526646e-04,4.934177900179061377e-04,4.778726813049590991e-05,5.823059392954880445e-04
1.789757418428593663e-02,6.927659813471266984e-03,8.102792610886615536e-04,1.674194380715582809e-04,1.672915055450714303e-05,8.780956075170615820e-07,2.592813005421112579e-04,3.193397864625744428e-03,4.248835233959691478e-05,6.612384546140349754e-04
1.440347307541000113e-02,6.954063530015522701e-03,9.533272520094698398e-04,1.698528412982498281e-04,1.870167230110826714e-05,8.727553191705462206e-07,2.933617018282596916e-04,4.742229904946126430e-03,3.617356699367343481e-05,7.240240357008989212e-04
9.995209386077001656e-03,7.284843600783750053e-03,1.072802760766541647e-03,1.680864859113563071e-04,2.091014721930565967e-05,8.460960826969502642e-07,3.199375643665103492e-04,3.538252092688932895e-03,2.900332469245911048e-05,7.690692683544072096e-04
1.788395746979750192e-02,7.597920483500299887e-03,1.165142561182739471e-03,1.621858255610978024e-04,2.577412321874062148e-05,7.988665422914578520e-07,3.383030182832107505e-04,1.779747910448064305e-03,2.115821078280306312e-05,7.952124020988622383e-04
3.503958440425846560e-02,7.449378484954823250e-03,1.228242192092138902e-03,1.523175683755726394e-04,3.203158803623170616e-05,7.323148052476233958e-07,3.479561659324896051e-04,1.675996173394899693e-03,1.283444243132763040e-05,8.017531683525252724e-04
4.806897242218943073e-02,7.320908202483679232e-03,1.261540735867479812e-03,1.387450515562573786e-04,3.435010733948346061e-05,6.481556465025921180e-07,3.486111486614825654e-04,1.553939456590850473e-03,4.238967488550414079e-06,7.884713602456108012e-04
4.947887786194436754e-02,7.336384251838592996e-03,1.263478798158016196e-03,1.218212666852056144e-04,3.511052643661881952e-05,5.485264592862706351e-07,3.401795570454211530e-04,1.640749376753400986e-03,4.415674592600197463e-06,7.556336840691069362e-04
4.527021606977913587e-02,7.248329388738032619e-03,1.231411098837900502e-03,1.019797193058035671e-04,4.554913674062639073e-05,4.359330802754179135e-07,3.227766556003253172e-04,7.051325837967012400e-03,1.291660231551278290e-05,7.039886784869888239e-04
4.617075724498134054e-02,7.443435190947270130e-03,1.167137675810434039e-03,7.972335857516995878e-05,6.062701168154448574e-05,3.131868597872485167e-07,2.967774232149273175e-04,1.038821451035000509e-02,2.105582266011543163e-05,6.347497896775646485e-04
5.387444554730980856e-02,8.138970994005749818e-03,1.077283970491482810e-03,5.561185895890612520e-05,5.594077378668346008e-05,1.833345550709490883e-07,2.628042225649893332e-04,9.744212080955232461e-03,2.863531419329570196e-05,5.495669813452181167e-04
6.085593868944071810e-02,8.194105578831779521e-03,9.614897860999065734e-04,3.024757494543943979e-05,4.131901639417464152e-05,4.958279276301185276e-08,2.215900006665666531e-04,7.668544897907124749e-03,3.547183868972319994e-05,4.504875409310842255e-04
6.491610646784456984e-02,7.260725798555258369e-03,8.112221949188315158e-04,4.260520676940044948e-06,6.883112643672314383e-05,8.478102885418744308e-08,1.739682207585263531e-04,6.711743518005340060e-03,4.140136449998631121e-05,3.399070104027024320e-04
7.450993066988478852e-02,7.978977727307530118e-03,6.348440512950078145e-04,2.170725149057111926e-05,1.185344714402960088e-04,2.164694488504716246e-07,1.211163692415705438e-04,6.262865794990614410e-03,4.628299504934594080e-05,2.205114151247574350e-04
8.915776614842477188e-02,1.111195786408605141e-02,4.606249232853122720e-04,4.701748667109872557e-05,7.826313588140919862e-05,3.422752846303652121e-07,6.452098590515817095e-05,5.509650770250381323e-03,5.000230856248474696e-05,9.521218142845367717e-05
8.388448169341010396e-02,9.478664682421714116e-03,2.830533209703609281e-04,7.105138730322236543e-05,1.290029602620560174e-05,4.591496437795419517e-07,5.380993321849977698e-06,6.352852452080310665e-03,5.247403006175281652e-05,3.292468280436556410e-05
3.512479892216100602e-02,4.910440884922244280e-03,5.472613016151283848e-05,9.322471345314308161e-05,8.780768436656510802e-05,5.642757116197609053e-07,5.542003851020589655e-05,1.046339430260023566e-02,5.364397349962641870e-05,1.607534245531671961e-04
4.006416609790316996e-02,2.686426004703463405e-02,1.995109840789197715e-04,1.130019555868296607e-04,3.121382196793160780e-04,6.551365312611976885e-07,1.161363237623906229e-04,1.552453792854902731e-02,5.349021013771717491e-05,2.851255751215275554e-04
9.492729924935588981e-02,4.063103689671199170e-02,3.624737083006103130e-04,1.299092365307136818e-04,9.684910138681316401e-05,7.295751479164406505e-07,1.741727081460413436e-04,1.727530140867813979e-02,5.202343851888252194e-05,4.029672891476866487e-04
1.035703326915275307e-01,3.767809860148469553e-02,4.682325931051752282e-04,1.435456323420190470e-04,6.811995053342727530e-04,7.858456832607388396e-07,2.287069988185912194e-04,1.404318690284687629e-02,4.928655111823060299e-05,5.113550961017653386e-04
7.920021324316484090e-02,2.335261252491533171e-02,7.546623228927658213e-04,1.535926422604352133e-04,1.152238888702995182e-03,8.226541337683241396e-07,2.808398538362210316e-04,7.554947469560896467e-03,4.535341251561119942e-05,6.075882001300654577e-04
4.552087035780797569e-02,7.117433462443666092e-03,1.148869673559856390e-03,1.598215847801383619e-04,6.779752116773584076e-04,8.391879434955011866e-07,3.281063900342427427e-04,7.432050360784996004e-04,4.032688322118209017e-05,6.892555428500365695e-04
1.263551545243491933e-02,5.267241974537267488e-03,1.083340312330757305e-03,1.620987489805915285e-04,1.032884547603296719e-04,8.351336803212754109e-07,3.641173478698337524e-04,4.286140309691644640e-03,3.433614163550502576e-05,7.542959664813610752e-04
1.886191923883806520e-02,1.187005913951442657e-02,4.311398801140557788e-04,1.603881862792380436e-04,3.217212174651160289e-04,8.106824382914005694e-07,3.903692654244400248e-04,7.482225661551621110e-03,2.753337359055528665e-05,8.010499786511870741e-04
4.690056854289116617e-02,1.386739062256372133e-02,5.878887626759810785e-05,1.547520863226610943e-04,1.004691223703058133e-04,7.665228902022492454e-07,4.174088268623041839e-04,1.029749154138706255e-02,2.008991408856528098e-05,8.283018214484934652e-04
6.617897648095358298e-02,1.374396814985930082e-02,6.019643574594491647e-04,1.453487403636934800e-04,2.868865491221849829e-06,7.038222165102417983e-07,4.397201216430075680e-04,1.319027747100766194e-02,1.219193886852226280e-05,8.353107810110992418e-04
7.517894290245830113e-02,1.265310768315686639e-02,1.420503441684620996e-03,1.324281547100953206e-04,9.708847325135165694e-05,6.241954316870936851e-07,4.326487847763463334e-04,1.494074183566625018e-02,4.035813977052919819e-06,8.218309344845160921e-04
8.288604667249144242e-02,1.206456178325766501e-02,1.643518828121699965e-03,1.163254342228540387e-04,1.401047171984693405e-04,5.296639100892147395e-07,4.060056220697380331e-04,1.539579736926022582e-02,4.176780644815808834e-06,7.881188122938412180e-04
9.685888459479626011e-02,1.462411760931763005e-02,1.393810719816885885e-03,9.745210998887084998e-05,9.296284940979042443e-05,4.226041734770002341e-07,4.120758634643729469e-04,1.623142173211929509e-02,1.224383260319710053e-05,7.349287484929947246e-04
9.867173918520867615e-02,1.714307781322318286e-02,1.235097536783057778e-03,7.628563488076569546e-05,6.834589416134846272e-05,3.056882352556392910e-07,4.313626583075280316e-04,1.694304090733414481e-02,1.996796061779387808e-05,6.634959933158417460e-04
5.454909454248280110e-02,8.590775479723668923e-03,1.236915200610732343e-03,5.335731455154090575e-05,8.589194379477693112e-05,1.818169967540936913e-07,3.523689749199046106e-04,1.354583179456559511e-02,2.716123839123943347e-05,5.755079625831100668e-04
3.217246599152644160e-02,1.498312374848123456e-02,1.158564363205303021e-03,2.923897844719926638e-05,9.238049931214607942e-05,5.404835367497754549e-08,2.150538093390792511e-04,4.754726011093214806e-03,3.364976102724189850e-05,4.730642909454859475e-04
1.068749128419444194e-01,3.931422767064672585e-02,9.637555872757488148e-04,4.528724781879374725e-06,7.857206266261335830e-05,7.447820756732569771e-08,2.632385346149749054e-04,3.847904747718601526e-03,3.927784318241100113e-05,3.586266328713873133e-04
1.250076598113756821e-01,4.672524367469783196e-02,7.681058649872656713e-04,2.016390557355528766e-05,7.131582069791135407e-05,2.006186663250386604e-07,4.298898156431272882e-04,6.016325600415558736e-03,4.391174776120714782e-05,2.349594099757267864e-04
1.006111520264420800e-01,3.679073954136388713e-02,5.955881670602941776e-04,4.423295915970453451e-05,7.443174559834130652e-05,3.213012878338537583e-07,1.531224934160456267e-04,2.593419292198278180e-03,4.744285602317988910e-05,1.050629294138852679e-04
7.420444904933294616e-02,2.257815119926826278e-02,3.986713601625399474e-04,6.709093372570390241e-05,7.140941760829361523e-05,4.336013321721649317e-07,6.887386633524316239e-04,7.141940541412865329e-04,4.979020415761895442e-05,2.789951000750742933e-05
6.126202922922961702e-02,1.217755094598406591e-02,1.724614113963237195e-04,8.818311153868850180e-05,6.232084696414378407e-05,5.348118373503517818e-07,1.224414782738675799e-03,9.434200781142529574e-04,5.090232733337601617e-05,1.606787544456593020e-04
5.190446578641570025e-02,3.774570875549129820e-03,5.348246917374862620e-05,1.070010129150050446e-04,6.381872892073704750e-05,6.225087659238971642e-07,8.140898608370644371e-04,1.869762441989245840e-04,5.075836954986572236e-05,2.900192948018501704e-04
3.743331201429973137e-02,4.726891373977850849e-03,2.688644229427123800e-04,1.230946441098163978e-04,7.222017422976173139e-05,6.946089499065628959e-07,9.451218475631391856e-05,5.425032124755507779e-05,4.936843586661254302e-05,4.127391858469973713e-04
1.682177783933944126e-02,1.081324624482296777e-02,4.795684843585267432e-04,1.360832450107982486e-04,6.080456484356590459e-05,7.494194516822903498e-07,6.603225795812500156e-05,2.343100442911118242e-03,4.677318232000376075e-05,5.258084240879860871e-04
9.685546195692782898e-03,1.249882922529635398e-02,6.826657780206172752e-04,1.456642804624195305e-04,3.892833858570160093e-05,7.856771744424929208e-07,2.079362600654623117e-04,6.483855914219650678e-03,4.304265758454676387e-05,6.264238550317319156e-04
3.662484906572219950e-02,1.172508797614513210e-02,8.679499980911887114e-04,1.516204635203202862e-04,5.991447256285465430e-05,8.025777989896179046e-07,3.519047928261977024e-04,1.000708768650861516e-02,3.827442874131113025e-05,7.120787592076398926e-04
5.033407083308884949e-02,1.086399166179412117e-02,1.029834768478842932e-03,1.538246483765122528e-04,1.042104092862052896e-04,7.997933884818049384e-07,2.964935945947448550e-04,8.849128500439434192e-03,3.259104093105559638e-05,7.806253906855423631e-04
4.542415477226812576e-02,1.031961008598083519e-02,1.166511870311648337e-03,1.522424838653105544e-04,5.919964578313519196e-05,7.774782822888068544e-07,2.835162754968762757e-04,8.752564046490981207e-04,2.613687677070264921e-05,8.303289089799933487e-04
3.898266055626289917e-02,1.056739391567304391e-02,1.274537618315890524e-03,1.469327740317342512e-04,3.611717098001691499e-05,7.362631876975523017e-07,3.513117421550037778e-04,1.017114510355297645e-02,1.907449581071034292e-05,8.599113512087832884e-04
4.853676616582593140e-02,1.171378514407678088e-02,1.350249025828517907e-03,1.380455488411502589e-04,6.130735619598293412e-05,6.772376666935725986e-07,3.871901329445544379e-04,1.717070056646545495e-02,1.158054666272563490e-05,8.685845312539658847e-04
5.739689744996821774e-02,1.008595843472297193e-02,1.392445961324372938e-03,1.258179043357295296e-04,2.833070589231842604e-04,6.019214974063847658e-07,3.709182081097932076e-04,1.686411868847979140e-02,3.841354438990668852e-06,8.560710206895345278e-04
2.826527433953999330e-02,1.092588866720817752e-03,1.399836442877085271e-03,1.105677260207412480e-04,6.652474986731364440e-05,5.122256591809270357e-07,3.545193143727217821e-04,1.259357464439003586e-02,3.951706416381181114e-06,8.226126559132718478e-04
4.228771119444848375e-02,1.234584174829837094e-02,1.369744600737115648e-03,9.268546066288187515e-05,7.122279534422153256e-04,4.104039401122278099e-07,3.480233874759425380e-04,9.903418608025840383e-03,1.160693912820289091e-05,7.689663202198705272e-04
1.100123603826603097e-01,1.968424748053013498e-02,1.303641868097699542e-03,7.262414875729959762e-05,1.183183304863001358e-03,2.989963902497439038e-07,3.274709947841869984e-04,1.126287902159024690e-02,1.893703479480777374e-05,6.963870610637455574e-04
1.340111106855450818e-01,1.425594849355981721e-02,1.208096693693934843e-03,5.088797153601122970e-05,7.081206505499615736e-04,1.807660371818913992e-07,2.885001567740156639e-04,1.478441873523530549e-02,2.576365019029766291e-05,6.065989138659888188e-04
1.167322389617456435e-01,1.167455021674707353e-03,1.082972677944673461e-03,2.801960155427167027e-05,7.456649377919337299e-05,5.863043876909907059e-08,2.432424974286936535e-04,1.669904853032344247e-02,3.192174141466834220e-05,5.017541067870342738e-04
8.405381047146022466e-02,9.075797409800134830e-03,9.199736525273719077e-04,4.586673773046107502e-06,2.949949043085474528e-04,6.441023328788336803e-08,1.951720063425048033e-04,1.484065768127778087e-02,3.726354822309867768e-05,3.843816084516835053e-04
5.105055584525790974e-02,1.196518892497353513e-02,7.276999995266176689e-04,1.883228599186129846e-05,7.617785935412152648e-05,1.853468082999721558e-07,1.402213177628621637e-04,9.786931056606705884e-03,4.166213299556626267e-05,2.573262455671630083e-04
1.978215274762875481e-02,1.102289287052729376e-02,5.347769210895143843e-04,4.166212680904866943e-05,1.877795158710127832e-05,3.012346256109913347e-07,7.853541157686730659e-05,3.276163897549757512e-03,4.501438974907157818e-05,1.236798531384433470e-04
8.510486837498082435e-03,1.070582956926469098e-02,3.361627748474292588e-04,6.334518115840188923e-05,7.823514755877693661e-05,4.092651442025936301e-07,1.404927436710845683e-05,2.972299581303046358e-03,4.724345205401556000e-05,1.329387932841862176e-05
3.274772408047549321e-02,1.152617561985734909e-02,8.496960468587971610e-05,8.335487053555527836e-05,1.243102429997532750e-04,5.068339136729461296e-07,5.106948445662326367e-05,7.143376668759155584e-03,4.830044385254125692e-05,1.502390416816040057e-04
5.399572909291503603e-02,1.205331352947906602e-02,1.934119334741701086e-04,1.012084765761493233e-04,8.022261471337733315e-05,5.916032639394979835e-07,1.163435448738712221e-04,8.285938157292890155e-03,4.816553360937020183e-05,2.837896767262616197e-04
7.051688132495713413e-02,1.204404633407347991e-02,3.812091860860705186e-04,1.164787683643903749e-04,5.800077482188314070e-05,6.615582072155983237e-07,1.804383836372007248e-04,8.017717144687111844e-03,4.684826954443371187e-05,4.106524841208157128e-04
7.875598952180669354e-02,1.223944483956963293e-02,5.118737978931075247e-04,1.288042062948763591e-04,7.745803365671406944e-05,7.150542181480978760e-07,2.412244781372447559e-04,9.453924748117686558e-03,4.438719147139369252e-05,5.276880250491369252e-04
8.304903821544945552e-02,1.279611445320680968e-02,8.226589115685712609e-04,1.378974792747547011e-04,8.640691664678179344e-05,7.508557621101717959e-07,2.970283192024522471e-04,1.323190469390159857e-02,4.084873255798929822e-05,6.319884278316904250e-04
9.126191796320184957e-02,1.315093719010469210e-02,1.240063670172306554e-03,1.435521742555902875e-04,7.491485829200538783e-05,7.681646723988071177e-07,3.466747254634736314e-04,1.571040775738572967e-02,3.632544169593036881e-05,7.209496735124820309e-04
9.366570319498986052e-02,1.299966143686403543e-02,1.195989303804833020e-03,1.456474240041769801e-04,6.729791798769324226e-05,7.666377287428514466e-07,3.889551075842610176e-04,1.271489948305786107e-02,3.093357369528296718e-05,7.923366667646635940e-04
6.395736702461722600e-02,1.204660888194892220e-02,5.629541094256576127e-04,1.441504294819397113e-04,6.852649274355803366e-05,7.463930558535330447e-07,4.226507335531366912e-04,4.727396346147546419e-03,2.481010979941531585e-05,8.443394682655819576e-04
4.496922570889010096e-03,8.153720386696528682e-03,2.069849951938601638e-04,1.391168059457220261e-04,6.731622833077192340e-05,7.080052351826762851e-07,4.468263794521181039e-04,3.325773303688754016e-03,1.810928468276005082e-05,8.756192759691975875e-04
7.976054922820670356e-02,1.827151461503051001e-03,7.633326304910648770e-04,1.306887556012862987e-04,6.125986440989306093e-05,6.524892988651297361e-07,4.608610951163505235e-04,7.483887462534869611e-03,1.099870781766266195e-05,8.853429894102047074e-04
1.240149017762570832e-01,1.691479171246288229e-02,1.591484476669194565e-03,1.190911230102695073e-04,5.568572298422416457e-05,5.812740452801684545e-07,4.643418688473484020e-04,8.101822010777784758e-03,3.655176600599134348e-06,8.732054673825375649e-04
1.311304254279841985e-01,3.031722073503675952e-02,1.820287955288906433e-03,1.046254411626027414e-04,5.187411930481170827e-05,4.961653742018927148e-07,4.570706325841007289e-04,7.559794744308288503e-03,3.739714309786827627e-06,8.394388883727704970e-04
1.195975586221959264e-01,3.552707377795662896e-02,1.572370299818862680e-03,8.766212491801781271e-05,4.744579104986400395e-05,3.993005798696120048e-07,4.391281653114411320e-04,6.860664410550334873e-03,1.100405853076102643e-05,7.848089377394973929e-04
1.028358540448480601e-01,3.125196243757577541e-02,1.411376938968075378e-03,6.863101320900849979e-05,4.188188036483403941e-05,2.930947567149708559e-07,4.108765419682649318e-04,5.527187209625927973e-03,1.796010769650094563e-05,7.105978681480160271e-04
8.127700932058025407e-02,1.972680918823130347e-02,1.406872305611067903e-03,4.801050090719410999e-05,3.640688171498167634e-05,1.801806597645675378e-07,3.729249362213107725e-04,3.341642000400915115e-03,2.443861569536002370e-05,6.185748023086393285e-04
5.565950298743068542e-02,5.087965472719505750e-03,1.318280846221198165e-03,2.631553464196749253e-05,3.139972010225085443e-05,6.334351546125412296e-08,3.261145499404801058e-04,1.055853207268829096e-03,3.028295135291498037e-05,5.109539617105447219e-04
3.108103667862521791e-02,6.751140638167302081e-03,1.109530761360776356e-03,4.084773336407300127e-06,2.641405584032006408e-05,5.454760478384247552e-08,2.715120118080493962e-04,4.950987899151784288e-04,3.535287975229592470e-05,3.903418040400131669e-04
6.024168618957662785e-03,1.231212725881484886e-02,8.965585117428683404e-04,1.813276682365023404e-05,2.138789127419824396e-05,1.706101592607481722e-07,2.103854973149285222e-04,1.871943799230821109e-03,3.952792104423756510e-05,2.596743279265336865e-04
2.509339150048769604e-02,1.379349373080528129e-02,7.037491377084586098e-04,3.979125227207189718e-05,1.664599519747275767e-05,2.820185345938169039e-07,1.441689534128183048e-04,4.449411242280783448e-03,4.271020645381089112e-05,1.221460497152340242e-04
5.000249805965796546e-02,1.353729352207877490e-02,4.840389177328990097e-04,6.036142326199647653e-05,1.233080835745214988e-05,3.860727510689871697e-07,7.442745084165805741e-05,7.175193172863215778e-03,4.482676396081867228e-05,1.886763302934842346e-05
4.159248682323880841e-02,9.640925594228313966e-03,2.330484158946147222e-04,7.934350823595093987e-05,8.391808555532821490e-06,4.802638062125352599e-07,2.822375997964792903e-06,6.393891442547316138e-03,4.583118049268519208e-05,1.598928079118162437e-04
1.401813840296687284e-03,3.015595763058126922e-03,1.905499470121131591e-05,9.627934663975978792e-05,4.849555775506221084e-06,5.623340774688084365e-07,6.892843075974120555e-05,1.392852930548875347e-03,4.570460306125020364e-05,2.974421375662785480e-04
4.188793252196151840e-02,1.133692276549693682e-03,2.612933858994796960e-04,1.107634265338404840e-04,1.801896381449406839e-06,6.303313322216351386e-07,1.390937082735637861e-04,3.116797365896487731e-03,4.445605770875690418e-05,4.281005923391013770e-04
5.103149229790134717e-02,5.603781707336822314e-03,4.989371629380355382e-04,1.224525715387317598e-04,7.012539510367814477e-07,6.826550556337816643e-07,2.059712403797930532e-04,3.100222831369878456e-03,4.212208199544464855e-05,5.486097217328270723e-04
4.092274055696382140e-02,4.963197696585572999e-03,7.285202156522342133e-04,1.310740462086705559e-04,2.663614230573605158e-06,7.180939997312421612e-07,2.679291137759150969e-04,2.034213364250600812e-04,3.876568364494743438e-05,6.559483887176408142e-04
3.446861090577156561e-02,8.771692988888831269e-03,9.391200968899933096e-04,1.364318889757676822e-04,4.084829758192315442e-06,7.358540759944962749e-07,3.234460190895740712e-04,2.065209208188219410e-03,3.447465444935291445e-05,7.474079702629422102e-04
3.136864066676186419e-02,2.540593333013676028e-02,1.124281303726363266e-03,1.384113263355821329e-04,4.957517359987908443e-06,7.355759529893143717e-07,3.711494273404054465e-04,3.127936752301979390e-03,2.935928422043412238e-05,8.206601560101082268e-04
2.101463205610690915e-02,2.969836980659526851e-02,1.281768857214550181e-03,1.369811698356474395e-04,5.294231184552586190e-06,7.173419743543651311e-07,4.098500962575046401e-04,3.773468845628690210e-03,2.354953407615054396e-05,8.738156519251362789e-04
4.647417867634486000e-03,2.041471293644299759e-02,1.408162956405336350e-03,1.321941474879668283e-04,5.128717771292291486e-06,6.816722745125554974e-07,4.385721128730812987e-04,3.901325103305195753e-03,1.719174132197582637e-05,9.054723129146050823e-04
1.158770980245484375e-02,7.236978080203901494e-03,1.499049453691990354e-03,1.241851722138184191e-04,4.502422342705288996e-06,6.295102333636781768e-07,4.565779899976743364e-04,4.346847056628687020e-03,1.044493931435780687e-05,9.147514825865310636e-04
2.885137229354698546e-02,2.632672759674847731e-03,1.551694200499995025e-03,1.131676005872106564e-04,3.462453418300390172e-06,5.621976705082279310e-07,4.633881411002531881e-04,7.168107617642675670e-03,3.476884714947834887e-06,9.013216034866167571e-04
4.904137853701898142e-02,7.747853266621919713e-03,1.565142860632506069e-03,9.942758422944327455e-05,2.066226729345937242e-06,4.814404279488517757e-07,4.587940917214629430e-04,1.162532503314597787e-02,3.540108751434325755e-06,8.654084703549133487e-04
6.711324267045286340e-02,9.087276947933741952e-03,1.539046243915012180e-03,8.331666252397039083e-05,3.805011253374763000e-07,3.892652217122737305e-07,4.428650801986052125e-04,1.326935287892659111e-02,1.043342668737782144e-05,8.077918247262720619e-04
7.755685881625752620e-02,8.606132400767938645e-03,1.473550432573090315e-03,6.524278774489325158e-05,1.523055724259943593e-06,2.879688518635373493e-07,4.159479094571161772e-04,9.515179577054536444e-03,1.703439554020900139e-05,7.297883236035114865e-04
8.144169614693817782e-02,8.256115992437997736e-03,1.369866435103729270e-03,4.566001120214657787e-05,3.569935617057042837e-06,1.800610419511978596e-07,3.786600092750479706e-04,3.311152353405261151e-03,2.318240513863551269e-05,6.332212497866565289e-04
8.247642612665678774e-02,8.567791732266336058e-03,1.230515805583881021e-03,2.505709070601903806e-05,5.683360192695483605e-06,6.820232872349598729e-08,3.318758111405376346e-04,7.936901465727598960e-04,2.872881160806582874e-05,5.203776585246283094e-04
8.077199548624834635e-02,8.957635881069792028e-03,1.059004052477554528e-03,3.945304794669175904e-06,7.786031711819584863e-06,4.486146251909853893e-08,2.767067336799974961e-04,1.757582692068744915e-03,3.354052594470333744e-05,3.939539664067349652e-04
7.417211940908786938e-02,9.045661695168991795e-03,8.591717363797332771e-04,1.715422283264550924e-05,9.802623549182530249e-06,1.563665449563210557e-07,2.144752466234815878e-04,1.742182283216309451e-03,3.750320174494189545e-05,2.569912761276477988e-04
6.330301870957753818e-02,9.078364325173005067e-03,6.352285060640938934e-04,3.772337478177122800e-05,1.166168377639882472e-05,2.635986506858288440e-07,1.466836148568776972e-04,3.015285721235390348e-03,4.052394588488546375e-05,1.128019877871428453e-04
5.163599404236472734e-02,9.471960828842501331e-03,3.928569548631544953e-04,5.725975074669797130e-05,1.329707630037431839e-05,3.639590189255989813e-07,7.497805261177385076e-05,6.247546875867770327e-03,4.253348806113604202e-05,3.511053270323842123e-05
4.147718277440100992e-02,1.011106502930852157e-02,1.390485381078660062e-04,7.528892612913994542e-05,1.464951964434772374e-05,4.550272897633616347e-07,1.109141412590712285e-06,1.003698966665645363e-02,4.348775873122263084e-05,1.831372802815760703e-04
3.468932474613744404e-02,1.026259880992886828e-02,1.206271243421420063e-04,9.137595974085591902e-05,1.566811388822252185e-05,5.346197835103605506e-07,7.311053528756364676e-05,1.156067600257751175e-02,4.336883978755361326e-05,3.276518545602685067e-04
3.710595699975915984e-02,9.940121738449743741e-03,3.822599472708106474e-04,1.051358718333632634e-04,1.631154010082745527e-05,6.008417646691043779e-07,1.458505171359613533e-04,9.091336684243779900e-03,4.218526789303183092e-05,4.650994633770870403e-04
5.249643190654199737e-02,1.065274701164608401e-02,6.382311083448706816e-04,1.162428404410847168e-04,1.654893482157275274e-05,6.521324420969351067e-07,2.153072801204128990e-04,3.863860759639162548e-03,3.997168641224999746e-05,5.920845017971549263e-04
6.760691120987645519e-02,1.244905616551951824e-02,8.769927395173733858e-04,1.244378968163863456e-04,1.636055086299739437e-05,6.873016392776386428e-07,2.797486420574767573e-04,1.428490171365757880e-03,3.678785789417779445e-05,7.054545490064027292e-04
5.682819392488447363e-02,1.082621111024086903e-02,1.095005776331397628e-03,1.295349387414891618e-04,1.573817715879681563e-05,7.055572761324581568e-07,3.375566674367658270e-04,4.948913013662804491e-03,3.271706470682081918e-05,8.023787053566517431e-04
1.282979543039397367e-02,6.818659946868854075e-04,1.298022828601733038e-03,1.314249227622185450e-04,1.468524753922197705e-05,7.065230313462791784e-07,3.872680099389410745e-04,5.504448259361558599e-03,2.786394030916022448e-05,8.804183229892249916e-04
3.964220500030677524e-02,1.610198974908721645e-02,1.476094059951898541e-03,1.300781418418721206e-04,1.321664280099551703e-05,6.902457961253502619e-07,4.276106880369796382e-04,2.131949300275412778e-03,2.235178740911453112e-05,9.375883629538918178e-04
7.024949530543705967e-02,3.087581785793751948e-02,1.600604990560497171e-03,1.255445424470853538e-04,1.135822167297084100e-05,6.571927806842264352e-07,4.575363705721376237e-04,3.851827047841454698e-03,1.631945156608519124e-05,9.724078353307550899e-04
7.079717535847462884e-02,3.621835129399299941e-02,1.677980263223988319e-03,1.179520834736856849e-04,9.146091921574034443e-06,6.082383874480413309e-07,4.762473539802239398e-04,8.197100921527871939e-03,9.917829358080804532e-06,9.839380412329002974e-04
5.233917993390228146e-02,3.078506368502860469e-02,1.757777915578063099e-03,1.075031875058292538e-04,6.625627683070061778e-06,5.446412137897053783e-07,4.832175386152483547e-04,7.837727521739884864e-03,3.306098796169202313e-06,9.718076304228342576e-04
3.010258772721899345e-02,1.803083141655957219e-02,1.818503303277303621e-03,9.446938149673344783e-05,3.850259607023008716e-06,4.680117860569052485e-07,4.782068550498196936e-04,4.472471329725979591e-03,3.352233966806509232e-06,9.362238084994065545e-04
