2.522902327660801747e-02,6.095073942567872174e-03,7.929434635429670865e-04,1.251114969460111193e-02,2.451666805269093509e-03,6.346161735706894180e-03,5.954457582806417515e-02,1.166121502049461550e-01,8.508218666432502617e-03,4.223369106795760164e-02
2.805204813337461647e-02,3.477810512756048140e-03,2.485602504524494182e-03,3.373490109765368491e-03,2.585451376142484676e-03,4.508139376573355381e-03,6.341959575101502322e-02,1.147629177837497239e-01,6.878520318136722642e-03,5.552513927377861203e-02
2.873500946224383235e-02,5.022357900874355446e-04,3.108471359789852229e-03,1.850844170176363162e-03,3.897776609625409980e-03,1.430790416257998916e-03,4.796920575849450419e-02,9.043963070681819427e-02,4.426179947511942742e-03,7.503250457004859153e-02
3.275601646978910236e-02,1.197257416755340489e-03,2.494394285708109553e-03,4.790614719782461395e-03,4.748110304552754374e-03,5.391059037245973795e-03,2.192896490845871668e-02,4.801334219263336811e-02,2.932721203696550191e-03,8.472229167806476224e-02
4.135622528930022607e-02,5.416457155349831479e-03,2.370706608413782231e-03,8.064014331289733051e-03,3.286203531764050889e-03,6.649317706647006609e-03,1.185658679837873954e-03,3.794839698110140380e-03,4.084312330039270751e-03,7.335683754008787139e-02
4.481917267500665908e-02,8.379317484123164142e-03,4.609512407373056800e-03,1.215520434043616642e-02,5.523594714824409677e-04,7.906282779984783946e-03,1.383443746751166110e-02,2.495543440649672026e-02,6.371687977067673307e-03,4.966552619204975261e-02
3.485012151448325241e-02,7.537717281548181672e-03,8.665178943886906945e-03,1.553160363014050374e-02,1.252335945473360664e-03,1.190770390608728198e-02,2.195067450620098379e-02,3.765152483071921435e-02,5.850843976898241657e-03,3.162605257621172589e-02
1.801328080264399598e-02,6.061439806305571852e-03,1.084983607069180643e-02,1.611649135065306229e-02,1.754892448154861395e-03,1.905159307654134826e-02,3.663910167327725370e-02,4.693535157977343081e-02,1.421019483341436681e-03,2.585713627529504649e-02
5.250313422287441502e-03,6.794924733847572916e-03,8.078348916349618533e-03,1.376772082779428863e-02,1.960690302825262438e-03,2.592857363824666722e-02,5.627643334351593168e-02,5.658388332657046660e-02,3.625709666045803543e-03,2.584836890448998642e-02
4.452979342582581365e-03,7.085720423881264503e-03,1.876674572325196400e-03,1.113239975521747131e-02,2.035633409520208343e-03,2.714367891948036085e-02,6.592394120981591443e-02,5.363906257782183329e-02,6.221117132023456370e-03,2.432035956983132768e-02
1.708973159630956112e-02,3.268976200357590588e-03,3.464402668033392165e-03,9.830203305903386854e-03,9.795672746703489465e-04,2.043117352582048130e-02,5.901939292502637879e-02,2.832409646170194403e-02,6.532628728831294321e-03,1.815731354845641354e-02
2.896321862191621882e-02,3.727122052248320501e-03,5.707076270961363752e-03,8.250550166299389782e-03,1.609089085050921780e-03,9.416211989857066825e-03,4.813681806190590190e-02,7.174863186391911528e-03,5.912677624845168525e-03,5.265556135625155433e-03
3.151642353517453837e-02,1.065373792424124944e-02,5.623996543280039909e-03,6.135659862178388484e-03,4.158467805116011946e-03,3.748845697949390664e-04,4.503851240351391949e-02,2.899243185734968337e-02,4.881412679263701614e-03,1.427909376734042522e-02
2.419421477647078211e-02,1.616054861916519855e-02,4.928335675771746555e-03,6.652859606403067200e-03,4.497797510596725917e-03,7.357333633175790200e-03,4.076996496811162440e-02,2.560349114765171977e-02,4.068191435037845673e-03,3.421671046376191516e-02
1.409633249933632017e-02,1.989494980875114449e-02,5.698018089019921649e-03,9.853911632332613274e-03,2.644922064066286202e-03,1.321761675674323205e-02,1.882264720894983798e-02,4.378990713049756532e-03,5.062118966919758670e-03,4.531814287088243437e-02
6.960048717255360937e-03,2.044098446558761592e-02,9.829901320765990422e-03,9.742732796675698109e-03,5.762989775201605644e-04,1.725348124873692102e-02,1.902926550010558548e-02,2.099305715518405557e-02,8.439021329409752623e-03,4.373369336588692896e-02
2.163270028704222282e-03,1.671761525495343501e-02,1.604869793566416486e-02,3.000132111849353970e-03,8.847334624178451864e-04,1.526949243002765841e-02,5.334220845467470967e-02,4.241468539715174957e-02,1.150947649362084844e-02,3.386140549681018047e-02
4.265732287866161841e-03,9.902846656211515552e-03,1.931872700456954695e-02,4.492860671557399529e-03,2.684303685238512063e-03,5.419892558436329236e-03,6.939933308414367175e-02,5.725267076630154162e-02,1.042270453915241160e-02,2.411099495754199726e-02
1.143318762717470891e-02,3.084295052041537664e-03,1.651903140850213142e-02,5.547049569026294910e-03,5.015543582982726241e-03,7.476932081489344288e-03,6.905485030139264790e-02,6.180785796433216350e-02,5.054423081972116323e-03,2.112315212441465487e-02
1.167922221886992865e-02,1.438211655410762124e-04,1.099614797571765723e-02,1.942300568479288052e-03,6.665632081351206481e-03,1.569295732053011677e-02,6.242730387549116217e-02,5.309185787808159973e-02,2.765680571629454778e-04,2.445966645640191769e-02
1.837214512391091136e-03,3.897768404423384778e-03,7.938161942190016113e-03,7.746282998705017724e-04,6.932562584663692212e-03,1.547129672901491684e-02,5.409083482524310038e-02,3.843261021928291027e-02,1.591573783301640553e-03,2.564600054160356274e-02
8.801080089873122153e-03,1.322138766991494060e-02,6.978425571095443411e-03,3.777893045197371936e-03,6.300668090048942849e-03,8.518458212960291348e-03,3.978620623161703562e-02,3.088781108606086095e-02,6.446045769349260587e-04,1.808109342700670377e-02
9.593603696404185213e-03,2.325535704224650918e-02,3.987975275399749386e-03,6.652993145448248338e-03,5.544280375913041535e-03,1.214861749543898108e-03,1.644093274191735232e-02,3.061333557925581886e-02,2.438981758987629912e-03,7.647485678286996755e-03
2.179475112475655688e-03,2.967075300607935687e-02,9.701595625829396042e-04,7.077372164490121353e-03,5.296060717763233401e-03,9.755216391816508639e-03,1.005637387037615002e-02,2.530280603660933769e-02,7.026008592062179484e-04,4.620396694110859639e-03
5.330424427482653715e-03,3.077612530392985490e-02,3.584615094158347115e-03,7.528054862188134425e-03,5.779336665257621061e-03,1.425382027020499244e-02,3.070231848456538015e-02,1.313995751512653243e-02,3.354078542325061515e-03,7.105246481788831878e-03
1.198597708642930824e-02,2.578451836927015892e-02,3.625849464814879727e-03,1.038333972805507294e-02,6.485250284517618362e-03,1.424116681524498738e-02,4.030567474496250802e-02,9.459353558081211658e-03,5.786290450060381681e-03,5.193744242510085068e-03
2.229082602422193665e-02,1.477567827573123861e-02,6.401681761165229148e-03,1.422080199009262760e-02,6.783941171892344905e-03,1.086226344783608813e-02,3.605427933002839508e-02,2.569670504728133534e-02,4.787136472379611117e-03,7.719847201589284495e-05
3.441734249949159746e-02,5.455036206075299099e-04,1.335588543769715766e-02,1.584952005028810937e-02,6.672539782800267216e-03,5.425964634261706658e-03,1.928263161668214432e-02,5.331629233494228348e-02,2.372444424156275669e-03,3.970688902748915547e-03
3.990694153565242652e-02,1.276001653784252302e-02,1.787344639436521179e-02,1.364543300694463432e-02,6.501459224661697463e-03,1.296361676310720315e-04,1.243694955030045114e-03,7.256036505785073976e-02,8.491642654227936782e-04,2.229434722406781547e-02
3.585198152267748267e-02,2.290687890726145898e-02,1.472647545428160468e-02,7.361594908334959282e-03,6.543781968025873252e-03,2.157681229731857504e-03,3.951127163818633596e-03,7.141226506423509202e-02,2.115066483689153915e-04,4.332972568911091366e-02
2.950204024094222124e-02,2.939356117974833288e-02,8.191522580190263580e-03,3.226346310161786173e-03,6.897344432454145975e-03,9.115504665552949526e-04,5.032172465447846618e-03,5.364704583776435526e-02,2.086798930973178708e-03,5.246511683614279997e-02
2.669545738100631907e-02,3.107640792892785164e-02,6.008467123973626478e-03,1.649896890795816279e-02,7.076993033084405180e-03,1.588473324430021228e-03,1.677044121621659029e-02,3.145238782341287093e-02,3.850892339204028438e-03,4.637985077124044675e-02
2.227024594161691393e-02,2.668681869872725765e-02,9.643504750002229384e-03,2.713932081228038334e-02,5.963054056768510650e-03,4.089817963996243005e-03,2.290502376492764558e-02,1.653887932889285678e-02,3.597719080655917365e-03,3.066804436514711935e-02
9.367902638562920423e-03,1.783138899184142159e-02,1.468416852452430338e-02,2.973149507449684634e-02,2.903949557998684872e-03,8.457755188716293421e-03,2.570314828994623227e-02,1.786684812782327048e-02,1.793801383133724649e-03,1.140563406113940387e-02
7.400482574617516657e-03,9.542999345046921517e-03,1.730186411699132301e-02,2.424150178667875549e-02,1.515044526720365787e-03,1.695297641966774307e-02,3.126612020558523081e-02,3.394727157519421279e-02,9.727499417944186766e-04,4.222115260027965548e-03
1.780997480280017975e-02,6.784187283219609774e-03,1.718884173738035800e-02,1.541099115044204659e-02,6.143142865238333111e-03,2.827844444562464116e-02,4.342260906728715592e-02,4.433124352624689957e-02,2.439160926690619752e-03,6.651593062304133989e-03
1.942093379792037000e-02,1.095247062292467252e-02,1.657324729040781514e-02,7.159758866919710071e-03,9.808168926296973941e-03,3.734705240381015756e-02,6.118084236860165531e-02,2.854494925505598329e-02,4.960488842184326494e-03,5.375723358019407309e-03
1.529593590648217413e-02,2.011684709388063610e-02,1.784719099660050240e-02,3.764995716513197879e-04,1.116768871841210264e-02,3.995831447341847281e-02,7.475291869526258515e-02,2.553959118197709609e-03,6.193843424409086092e-03,1.658936871910498059e-02
5.886712814521469911e-03,3.076361897571941104e-02,2.055855513568669371e-02,4.365086277786832392e-03,9.629387323292368239e-03,3.673998950328988267e-02,7.085480425696841222e-02,1.581469758990643529e-02,4.538149314954128752e-03,1.006401392203103672e-02
7.225474142887057180e-03,3.782999713777822348e-02,2.091250538292305922e-02,5.624943031065122133e-03,6.549224800422584307e-03,3.129497265473552697e-02,5.009657453159969964e-02,4.110314737350590636e-03,4.428529517986987563e-04,1.013079167449446906e-02
1.755432905617588038e-02,3.633408788170403025e-02,1.598201183896164057e-02,3.127024807816301648e-03,4.000233160216026818e-03,2.633863542601405650e-02,3.170218423299186322e-02,4.403360177333538739e-02,3.692445300215846469e-03,2.362397634430939489e-02
2.053910246104201365e-02,2.662469645675752047e-02,7.980245241204322534e-03,1.502152280228042248e-03,2.725335266026461881e-03,2.213398476193540951e-02,3.377468506301389145e-02,8.195661401814963165e-02,5.397064962794888981e-03,2.220357064421959320e-02
1.707693684403037773e-02,1.495255664062821246e-02,2.355908165570781785e-03,5.684402628422917728e-03,2.468158111586771317e-03,1.659209065587833459e-02,5.329203075512662507e-02,9.646829556424750540e-02,4.083354149194735536e-03,1.921128407887865916e-02
8.988807467618969288e-03,5.395669453299099284e-03,7.809659152035974784e-04,6.200830057430325309e-03,3.122748334059104874e-03,8.126496217479272852e-03,6.911213271340173325e-02,7.339409021027784585e-02,1.781432005314349549e-03,2.665339914973298072e-02
1.893926078223481281e-03,4.524266408318967057e-03,2.290922458536363317e-03,1.076277331223649035e-03,4.586971961620211861e-03,2.565933351465848021e-04,6.446605262231157318e-02,2.509031288179347507e-02,2.107670676792775758e-03,3.799648481926266169e-02
1.244245146884462652e-02,1.694354343888834769e-02,1.307177766699486009e-02,6.770536488952683639e-03,6.876518516732967913e-03,3.301332689491586793e-03,4.564911116206279290e-02,1.404385230165939441e-02,6.976042421780933103e-03,4.030399046444375216e-02
2.148999482690328380e-02,2.795923986087512497e-02,2.890117561961715389e-02,1.049012973653442801e-02,1.049595132621515894e-02,8.677562813655440542e-04,3.234509985135690380e-02,2.637408923666782062e-02,1.393109517541454845e-02,3.079758925927902902e-02
3.037634386029092193e-02,3.245840054163826732e-02,3.959981105067800211e-02,5.615311792205831751e-03,1.484073915150263545e-02,1.413507248121608807e-03,2.891038044299999027e-02,2.617773286953716319e-02,1.831124033166426843e-02,1.472866087109660042e-02
3.747885508351094658e-02,2.974619622172006844e-02,3.894172937729192818e-02,6.475777910058540948e-03,1.690133628324484022e-02,9.468484690977820202e-04,1.958157920469497798e-02,2.965297795630990330e-02,1.815606727101410842e-02,2.735690222462581166e-03
3.642335628984542939e-02,2.232147654817102575e-02,3.061164936130319689e-02,2.076396977270208305e-02,1.418285160428525878e-02,7.518658419109904879e-03,4.047555339974569753e-03,3.474286466845766252e-02,1.544065004732136231e-02,1.567756350139876131e-02
2.203842463650229969e-02,1.339593794117674257e-02,2.229335576199632449e-02,3.131498700050454331e-02,8.253096968252351257e-03,1.509117912145653898e-02,2.904982190305802070e-02,3.613188545205108654e-02,1.265444584054436702e-02,1.745120097041084548e-02
2.034604616208396995e-03,5.759794644500534910e-03,1.745141472489061471e-02,3.332896424577347361e-02,2.829118299930356416e-03,2.066813348908515258e-02,4.138080010335674908e-02,3.515420465926528959e-02,1.009762867463375423e-02,1.021562525045864242e-02
2.264534963458851233e-02,3.946608365915904560e-05,1.403391302175251848e-02,2.706982472759955974e-02,5.546314590318435515e-04,2.354754716983943272e-02,4.387882413461025727e-02,2.955612855021775773e-02,6.999674120379684519e-03,7.263252530884805290e-03
2.847028563392637809e-02,4.966027517946090993e-03,9.541702781423419891e-03,1.919534020070409047e-02,2.518920394161755331e-03,2.488286430455080231e-02,4.660813310952750116e-02,1.559350165041241583e-02,3.610899871688975655e-03,1.491649981234376143e-02
2.275134168970192883e-02,1.067499508073806169e-02,4.897879448414362881e-03,1.491304021887752095e-02,3.309248862682342539e-03,2.364509087170877169e-02,5.150714111199376083e-02,3.121925374636398513e-03,8.537194221317568124e-04,1.820997361263254621e-02
1.780087668638680870e-02,1.878424526829920727e-02,2.100974261016220167e-03,9.520731175135979663e-03,2.985373732187999399e-03,1.578676731159295646e-02,5.663856506768202154e-02,9.039659680530642491e-03,1.584303360222336348e-03,2.138323353853310068e-04
1.613138313347356814e-02,2.716252758167527620e-02,1.116760146394324242e-03,4.807039842910339547e-03,2.400541457565662402e-03,3.489473597202349953e-04,6.878556499595082918e-02,3.593362819727575347e-02,5.317346845144124527e-03,2.619718047394535218e-02
6.916443347396925012e-03,2.507527741746123223e-02,1.693944245619774915e-03,2.391923869170954620e-02,1.966060097294930736e-03,1.689090346926601371e-02,9.585158120814489535e-02,7.208861829509918828e-02,1.082684465934692641e-02,2.674758834842500335e-02
1.590314383972592227e-02,4.371514806881183351e-03,5.008071407529718529e-03,3.330741260807561221e-02,1.200893731293868963e-03,2.826953254570793370e-02,1.261474045731861837e-01,1.066883248612023882e-01,1.604918634041176129e-02,6.480125459291358192e-03
4.233330657684045845e-02,2.462380814004641247e-02,1.140187823320879153e-02,2.761870463549371060e-02,3.314865606570120042e-04,3.061169139557241847e-02,1.367289799879351508e-01,1.341015326027236165e-01,1.853379002471628595e-02,3.813733978379233586e-02
5.940745007563442287e-02,4.306141318087706310e-02,1.926479311385896620e-02,1.903992685537073820e-02,1.555049205802330769e-04,2.707752027028266506e-02,1.285945394455840218e-01,1.532750445627835134e-01,1.843893606332647900e-02,3.738131787852091298e-02
6.727708785751929099e-02,4.671174587006539369e-02,2.633306438927496274e-02,2.064803887159391907e-02,3.644759666972968736e-04,2.398305395620737440e-02,1.276520296324692716e-01,1.687154369364112783e-01,1.806941528290286272e-02,1.995253986037889837e-02
7.319012652587464363e-02,4.435990320547156252e-02,2.997873704787197557e-02,2.900869136906382775e-02,2.212666718951086342e-04,2.356374808894715067e-02,1.415571989141508336e-01,1.820948039704341492e-01,1.875529955476143429e-02,1.824136870527866272e-02
7.603326068230184531e-02,3.938478495996151907e-02,2.776551138480998215e-02,3.115839433815238702e-02,1.590148177257298407e-04,2.087987246230807101e-02,1.454356407553394348e-01,1.867747279814114536e-01,1.989690713571308847e-02,3.197677459138702910e-02
6.977955384391483495e-02,2.869612593707625281e-02,1.958418662915848568e-02,2.358792909531760851e-02,8.971545299340767058e-04,1.234673891261874913e-02,1.230090781370779679e-01,1.791043998761639999e-01,2.104675078931929344e-02,3.926338746733906704e-02
5.900432227376280203e-02,1.556850982605587075e-02,8.148917686814914282e-03,1.491120131959465002e-02,2.058101196041569377e-03,3.631715456398031984e-03,9.172334778211638229e-02,1.618347853195505337e-01,2.266126058312035313e-02,3.710074001197737059e-02
5.616990930082198935e-02,9.675494637728128747e-03,2.906462178511310616e-03,1.230281332661503635e-02,2.600854329976720527e-03,1.805212508662850605e-03,7.183839037308291375e-02,1.329426517572582234e-01,2.392619366357246966e-02,3.773993973074145358e-02
6.287361850007500141e-02,1.376775614607594379e-02,1.055531265522937495e-02,1.437302815554626807e-02,1.645306673378870918e-03,4.347068123371307900e-03,5.843314495463473868e-02,9.203677592981675259e-02,2.175398526494723081e-02,3.897207678953243382e-02
6.622595526380270492e-02,1.852101290174424861e-02,1.311363985338707440e-02,1.686184912334602604e-02,7.713194790137261649e-04,4.535461666029558941e-03,4.026240192182174715e-02,5.528160358694238913e-02,1.391089661078156320e-02,2.952619058266991656e-02
5.505833988290840392e-02,1.328114047376739021e-02,1.160783751563565329e-02,1.787916234683738920e-02,2.816390135891433302e-03,2.439007136792438035e-03,2.155842635257088774e-02,3.971845075306339179e-02,2.746579478364153705e-03,1.469383217967463323e-02
3.100026117162838282e-02,1.398613974391601199e-03,9.999523447561628128e-03,1.695653612228943674e-02,2.073732622503779432e-03,1.342150585948978210e-03,9.740184060549831463e-03,3.915378534851686465e-02,6.402078908833388170e-03,9.444808845368121708e-03
4.445994654387669040e-03,1.391508327793292664e-02,1.096702502472573885e-02,1.425554866947820534e-02,1.420419418794648505e-03,1.059315680211554743e-03,2.454795778369312648e-03,3.554676234017881825e-02,1.122039533267981705e-02,1.326979282641934169e-02
1.477416198920592817e-02,1.466578193680873402e-02,1.138157267310885117e-02,1.164991712488558373e-02,5.000188930764970334e-03,8.027017810586083504e-03,2.625574253708464270e-03,2.197051647588307843e-02,1.437157229579462056e-02,1.408951415938168930e-02
2.496656560163179606e-02,8.927370512047099610e-03,6.476897591511715166e-03,1.119441956407943826e-02,6.866067541844191914e-03,1.544423429106135497e-02,4.658365548216990282e-03,9.318523923978107998e-04,1.810347741173939928e-02,8.013808267104176319e-03
3.267318554467996128e-02,1.198218362726815277e-02,1.391691781340551309e-03,1.172070986675656339e-02,7.678874569280546777e-03,1.727143681588421201e-02,1.093262701104947415e-02,3.355847952449343696e-02,2.007669014470929436e-02,3.028845529887191045e-03
4.347450935307040076e-02,2.741572382547646791e-02,4.560125539792272455e-03,9.493485611195522436e-03,7.962021462333003161e-03,1.469605744191483654e-02,3.006348442771324125e-02,6.833088332096236284e-02,1.729669448131372286e-02,1.865988277788031835e-02
5.538738128733364935e-02,3.819277749658085697e-02,1.089500378503664799e-03,3.316015308745865961e-03,6.520332974984371227e-03,1.291996163053275859e-02,5.107832151740828580e-02,8.777788152908939934e-02,1.147347687983822466e-02,2.857174394922158342e-02
6.152434757606532051e-02,2.812341969628561270e-02,3.305121737824137131e-03,3.564184586588698377e-03,2.920544698954295661e-03,1.376474236060406219e-02,5.139591562075636333e-02,8.244833959511266297e-02,6.999660075481327348e-03,1.329564630308184559e-02
5.473089406509364097e-02,4.820420250605510042e-03,4.970080375169294053e-03,8.597845278268699543e-03,8.257280724100726950e-04,1.546909050868850756e-02,2.967976499488446038e-02,6.271162271600144722e-02,5.303055770483310061e-03,2.675612633387168537e-02
3.395372134435150485e-02,9.432514743550959868e-03,6.567355160169710375e-03,1.387093593541712140e-02,2.628306654074409610e-03,1.516750151719235135e-02,1.016035981064309680e-02,5.001870061205766771e-02,4.401695726124174417e-03,6.082836869195754059e-02
1.029194254201570152e-02,5.001303419978906165e-03,1.058509786035972434e-02,2.117064942202261449e-02,2.269674710065353908e-03,1.132443080287492791e-02,1.002132633295287067e-02,5.773772231095823659e-02,2.912609882037160355e-03,6.084482210438260652e-02
2.500890630747553984e-03,7.190867236583998144e-03,1.517443965401593306e-02,2.648105311071519488e-02,2.179227638255452990e-04,7.267545336791227106e-03,2.233366506118138195e-02,7.747161409900243934e-02,1.463411957297188317e-03,3.281003578811712840e-02
4.167638299196354743e-03,1.436185963251762274e-02,1.841685408399983473e-02,2.532918142380554197e-02,3.027911451361386952e-03,8.726905667125367180e-03,3.565289532715339160e-02,9.042429002550049499e-02,5.813638096701867963e-04,5.084749789246823665e-03
1.989744491145892507e-03,1.819868730884881963e-02,2.180791411497151611e-02,2.095540995078895574e-02,5.941639540031552758e-03,1.567392255752996302e-02,5.006332320846430817e-02,9.496821106338816654e-02,1.098042963272789253e-05,6.228535997233947651e-03
4.971119510582875864e-03,2.601395389165390287e-02,2.653814940700216160e-02,2.009565059422907876e-02,6.562122974308942647e-03,2.212666876353548695e-02,6.620147558457083192e-02,1.038030294154644456e-01,8.249335541589766525e-05,8.424116447972352512e-03
1.921869208070307172e-02,3.384140527747447197e-02,2.965985868309788803e-02,2.269609924271350637e-02,4.480298553453027945e-03,2.394043948148671594e-02,7.541911852025028062e-02,1.110989897644613783e-01,1.475483531039402645e-03,1.169965930375229182e-02
3.131507929317436240e-02,3.111264071906760798e-02,2.769491229412509442e-02,2.294769421053484415e-02,1.103190154732725534e-03,2.077895294502664705e-02,7.100050182159622914e-02,9.364754491231781774e-02,2.884786688864519541e-03,1.436711725035594647e-02
2.976476846471722351e-02,1.850857828023658516e-02,2.165622238608253675e-02,1.861779233239279838e-02,1.818181568059008997e-03,1.322372632834268452e-02,5.910427088709130361e-02,5.176358153440437787e-02,2.176681399031066191e-03,1.451744674105256289e-02
1.881129897776807891e-02,8.163497387926356430e-03,1.479507420123836285e-02,1.286054118033331042e-02,3.153825196530124497e-03,4.512899521621748303e-03,5.124250296596744719e-02,1.905812189862841205e-02,3.156756954106021656e-04,1.873728981625052623e-02
1.436196038141637939e-02,6.607460742901283789e-03,8.301928349707861712e-03,8.783357918697685951e-03,2.288196281551828880e-03,1.430242721217192059e-03,5.260717657202483577e-02,2.490687312181828761e-02,2.090918002305449871e-03,2.764229041831573960e-02
2.371974516965771537e-02,7.410532029150876214e-03,3.157116472596130808e-03,7.559805840843419368e-03,8.375268973135598311e-04,7.204275581480309651e-03,6.123245672560433117e-02,6.727855129737990436e-02,2.325054818451485848e-03,2.894953572097250932e-02
3.753407698108589263e-02,2.223234175593499957e-03,2.392479145419215171e-03,9.367599506653072686e-03,5.073080309116799642e-03,1.637425924134711802e-02,7.167153842959883558e-02,1.210503054884390778e-01,3.358350322411416972e-03,1.797301432823159364e-02
4.432659131038872019e-02,7.626627658354969037e-03,6.380393277857130362e-03,1.181752556470133143e-02,8.177083126926205578e-03,2.100054681584261757e-02,7.760538899418317760e-02,1.581126414504686883e-01,7.350626548094152390e-03,1.018455453491796427e-02
4.541000237737936179e-02,1.432831136037330741e-02,9.187997287988518280e-03,1.053250371444503820e-02,8.472325832479138744e-03,1.927250466133485773e-02,7.676853433845595709e-02,1.636808754836523161e-01,1.212893429984923319e-02,1.995955020315783729e-02
4.812943620169825298e-02,1.454616029125014101e-02,5.705809669459963214e-03,4.759054517487775263e-03,6.335044552952547210e-03,1.512887786356234901e-02,7.323242755764999834e-02,1.445363431847408453e-01,1.231437112786557854e-02,3.897171220417254556e-02
5.198098600679710440e-02,1.110281886820494932e-02,2.491365714822947088e-04,1.101035852122803950e-03,3.701285287511270339e-03,1.242443554785025751e-02,7.135386097046640674e-02,1.241990279392743562e-01,5.893221516818944114e-03,4.848285186438105326e-02
5.269315376862796635e-02,4.633717993725520144e-03,1.068895717494572481e-03,4.195709878839273647e-03,2.005780035858063023e-03,1.223833114834950095e-02,7.153631008450507534e-02,1.271416628497798185e-01,2.399824879963155782e-03,4.488751228588724884e-02
5.275738492781052724e-02,8.388381151095651925e-03,7.108851560992109769e-03,7.485058309619553249e-03,6.934833148822159513e-04,1.343278310192249150e-02,7.402528602140673319e-02,1.551627204166012852e-01,6.688632200150310299e-03,4.131168057182599274e-02
5.423360059905771302e-02,2.569701532973994035e-02,8.171584750373784775e-03,1.487559276361416320e-02,1.758965922252798573e-03,1.333082438713664719e-02,7.913917785469525012e-02,1.727021945537191017e-01,6.778965599010203062e-03,4.667020178687813353e-02
4.762873559278105878e-02,3.396133260075009930e-02,9.395129462061608270e-04,2.588935903755360673e-02,5.494246719786837277e-03,9.279138436045103813e-03,8.281358342211256329e-02,1.377627746098128436e-01,6.241477648286895136e-03,5.402927045202590012e-02
2.331632342101200989e-02,2.111909655614320480e-02,1.429445049242194024e-02,3.679104842266375797e-02,9.159676065313404267e-03,1.265569731290617497e-03,8.174730701727883631e-02,6.163419668470097867e-02,6.048151374259908529e-03,5.417474219306456923e-02
9.253674462399611583e-03,6.766656983752020182e-03,2.393654521053728557e-02,4.295269864486050276e-02,1.183052899518093233e-02,7.001876339602378096e-03,8.142664325392572067e-02,1.075626966604970383e-02,4.335179301362099107e-03,5.266074328966809798e-02
2.830763770246214409e-02,2.735703279636849186e-02,2.739210361219228743e-02,3.992358202060228289e-02,1.321823123431177180e-02,9.925548706926657153e-03,8.740449645239979637e-02,3.046234834148360549e-02,1.010792579028681930e-03,6.299126085005224418e-02
2.731046886607471635e-02,2.423003705800592586e-02,2.511009845198250781e-02,2.782318233819651779e-02,1.260250281263035170e-02,4.536705350350918667e-03,9.193735364612395933e-02,8.793410360533536474e-02,1.535391444080484724e-03,8.520368035163859710e-02
2.421727974030966554e-02,3.991431129802984479e-03,1.786382845561061694e-02,1.468173798439023625e-02,9.746631387636310595e-03,5.374493857255143760e-03,8.147283890759794700e-02,1.073517012657288772e-01,1.571189766161210175e-03,1.020282019635912890e-01
3.656005713015525460e-02,1.307345809564108320e-02,8.751072871550382576e-03,9.138987799567371839e-03,6.125566897084631229e-03,1.221250914043749657e-02,5.432975721550256654e-02,5.192777021086307510e-02,9.420951063260910507e-04,9.910521097453527106e-02
5.669188944629224153e-02,1.567771068435066043e-02,2.967437791608815677e-03,1.009910081386952013e-02,3.435831854957637974e-03,1.369957960792837770e-02,2.159259051260589007e-02,4.378434276326102076e-02,4.986032761780861099e-03,8.211925464629969695e-02
6.480716785863945006e-02,7.665078865975932104e-03,3.104200041499101132e-03,9.696006030015871802e-03,1.880112035312937009e-03,1.509428698710307305e-02,5.758925249529258175e-03,1.264233802999593093e-01,8.083310248379885904e-03,6.829483398851239617e-02
5.953698792553065167e-02,4.023664284432983823e-03,5.508532219554490919e-03,4.943623454302250621e-03,1.069862928130342096e-03,1.974299759634351448e-02,2.462453793327109425e-02,1.879071951169554167e-01,7.511518446354523669e-03,6.310144494967384610e-02
5.649412365150753568e-02,1.628734778738583425e-02,3.242961472796082167e-03,4.551295670871987860e-04,1.184130894481618367e-03,2.279365426290934013e-02,3.976134273298773114e-02,2.526631313119441780e-01,3.622055571597337063e-03,5.392345953234103234e-02
5.952441519945052967e-02,2.749566190086984510e-02,4.532961616968556387e-03,4.381134330715036156e-03,2.163833441294164394e-03,1.875948839757766301e-02,5.793606061913995214e-02,3.167644760784081859e-01,3.286835703291993106e-04,3.077163240123622842e-02
5.574274560915757487e-02,3.915701645087785177e-02,8.095560482820129272e-03,9.276895378939400971e-03,2.842692864801498170e-03,1.085396680130919743e-02,7.472346010034718045e-02,3.383369887589219860e-01,2.296664257322967098e-03,2.291063756779103226e-03
4.088520716896325291e-02,5.744962690451538290e-02,1.312923614712134621e-03,1.673765215942585316e-02,1.804012830225945520e-03,7.131087525680765773e-03,7.170952981654503400e-02,2.935079235009321330e-01,2.872736607907718821e-03,1.938565669697992280e-02
2.835164265915848802e-02,8.403993269191772919e-02,1.768243330771248137e-02,2.434883641326090684e-02,1.073494591368544335e-03,9.474278501975999869e-03,4.249679292271071190e-02,2.150302237143195405e-01,2.953912038214224697e-03,3.814655181320224936e-02
2.829144131921838487e-02,1.078927834065775415e-01,2.734239952984532374e-02,2.910037858469128463e-02,4.227053114756523441e-03,1.168528557585105099e-02,1.469737356014974225e-02,1.590075919004217964e-01,2.886284624895690994e-03,6.217425519792785238e-02
3.509679890982365935e-02,1.133585632004142085e-01,2.670587797254482879e-02,3.104801193070567955e-02,5.896645252023852146e-03,8.223626896701793920e-03,2.181011040741582391e-02,1.441954578089249261e-01,3.273912248612706726e-03,8.074462297680182199e-02
4.024888707249368175e-02,9.579746030248141586e-02,2.217850020210886466e-02,3.255296242699522169e-02,6.115917988768576792e-03,4.795124475247622290e-05,5.788296801611665654e-02,1.428611492046307219e-01,4.201256770482347629e-03,7.170160756287398407e-02
4.319934631762700761e-02,6.553263921138041681e-02,1.694021667472736872e-02,3.557038681157013993e-02,6.684982954658884834e-03,1.029589822774507404e-02,8.662996707558764942e-02,1.261685093630889321e-01,4.551089112247786936e-03,3.450260938807639399e-02
4.422107886049313902e-02,3.641501442138748296e-02,9.503667131795668493e-03,3.997303761070799405e-02,8.831183006526787185e-03,2.238869129356806445e-02,8.898784082938396289e-02,9.311900818681895231e-02,3.541765047606112299e-03,1.205582039633616015e-03
3.663586283183509207e-02,1.270897027506701950e-02,1.489027495185626200e-03,4.314880426506268601e-02,1.155276188772610263e-02,3.479171224716687272e-02,7.413424412755872939e-02,5.268100883872254420e-02,1.759069557139007495e-03,1.593402500966197835e-03
1.327497453157354748e-02,1.143441838760338169e-02,4.053196802190231138e-03,4.200071962831999905e-02,1.322003319764069283e-02,4.119886878253396084e-02,5.386348878248908845e-02,3.300166550662286813e-03,1.835834292273663443e-04,2.517355284267082383e-02
2.174190181982900774e-02,4.088171589178082183e-02,9.491704387849242419e-03,3.670654126123836652e-02,1.429453078836051376e-02,3.751164182530978414e-02,3.420286406715686983e-02,5.844656399543807224e-02,5.193921343688597111e-04,3.710348386046420643e-02
5.265016925284816962e-02,7.135542863886637499e-02,1.832888962932006233e-02,3.039834592044265982e-02,1.623224832625473624e-02,2.763137161953951176e-02,2.246647124444407437e-02,1.209786153774177891e-01,7.976239016706148711e-05,2.642802465358260258e-02
6.630878493283222375e-02,9.337716087868819237e-02,2.594413474632078359e-02,2.382749719608501238e-02,1.755498424102204871e-02,1.761320482310099050e-02,2.188649654870322703e-02,1.607737109420233901e-01,1.595131750092484719e-03,1.396954758858935663e-02
6.442624620540246538e-02,1.011076700615927970e-01,2.373363893646338041e-02,1.408709113306911079e-02,1.463464601841353227e-02,1.005506305350146318e-02,2.864070308309034710e-02,1.643897707303523803e-01,2.448675106243521343e-03,1.502214248499265069e-02
5.757954020755891994e-02,9.548198557599242575e-02,1.173700737552415239e-02,8.137064800858373817e-04,7.465877713977449315e-03,7.480714004732923542e-03,4.156995323019400945e-02,1.429952445807952666e-01,1.588718494592276454e-03,1.942373148998141272e-02
5.218508962029016346e-02,8.202363344841388793e-02,5.803703329041946368e-04,1.023608375877014046e-02,5.288538112692152448e-04,1.313075535432660715e-02,6.172132112491186123e-02,1.209641508673885701e-01,4.784861895364138796e-04,1.192291718490117412e-02
5.017359420407080384e-02,6.900802040382741920e-02,5.238412397591644086e-03,1.315586800458308156e-02,3.222292018758951722e-03,2.395555489358951531e-02,8.128805323090612656e-02,1.147521108832807168e-01,1.286159273317841927e-03,5.009862429432618280e-03
5.347475999751824527e-02,6.549594248867308954e-02,1.573708744639213406e-03,9.418415932662085877e-03,4.845885195471514272e-03,2.984463385447779990e-02,8.473094626599174395e-02,1.254804591465593644e-01,2.992750264428316233e-03,1.519277039240794075e-02
5.963301196729401538e-02,7.455067590615330198e-02,6.731341704249906716e-03,6.573406648594933357e-03,5.298431228411361153e-03,2.527586930710550711e-02,6.280446212313738064e-02,1.436034769609770556e-01,2.510410425221180995e-03,6.458958123192266171e-03
6.097942934390220004e-02,8.562175910469935203e-02,1.514501851411327940e-02,1.056403400660691112e-02,3.723935974255940945e-03,1.686830523386848718e-02,2.422077769993505672e-02,1.575540391724397637e-01,1.189088979886164976e-04,2.180707815884269651e-02
5.494400359132761702e-02,8.090942228715743145e-02,1.981932668036712891e-02,2.171017927913071813e-02,9.227282703233435088e-04,1.342890022371489786e-02,8.025022117290697699e-03,1.627265637092343564e-01,2.083328327831600150e-03,5.936662821799378043e-02
4.719142553764053144e-02,5.602197547393744648e-02,1.900352648587708138e-02,3.667957042178456029e-02,4.138735128585248942e-04,1.322727751202658862e-02,1.864879557733433585e-02,1.594612728874643948e-01,3.228989241647613195e-03,8.446196030131133958e-02
4.194221882816426272e-02,2.741218212092107198e-02,1.381909684074496963e-02,5.061381106887901521e-02,4.301446104064971486e-03,9.531031890250351440e-03,1.687237101591811464e-02,1.439642053321394388e-01,5.584014814300152472e-03,7.746744481910565472e-02
3.831240863337011249e-02,1.282242075261108560e-02,7.883994236910406295e-03,5.756957113430017509e-02,1.015920393446922455e-02,4.015879166049044283e-03,2.301546214262636253e-02,1.148276601765025745e-01,7.996358534101541057e-03,4.987960139191499609e-02
3.753634732711835093e-02,1.366834657603574477e-02,5.582592531815876863e-03,5.329261939526690889e-02,1.349673540002217266e-02,3.373501082238872066e-03,4.306823089513685254e-02,8.444782458310638729e-02,7.359328351387724523e-03,3.987299555423330644e-02
4.444720542533173169e-02,2.251506272645287937e-02,9.072600686589053082e-03,3.956581953949211278e-02,1.267437078961542764e-02,6.098144504908253882e-03,6.487167158755489937e-02,6.549195505722364696e-02,4.550264021322726615e-03,6.031473890442737990e-02
5.815892556284019133e-02,3.554424999076722519e-02,1.694540702329931994e-02,2.286395957877023974e-02,9.921579750753646565e-03,4.350983622425952033e-03,7.293373129226950191e-02,5.142958047044553921e-02,3.401204252414202506e-03,7.569967639274641225e-02
6.857669669243270094e-02,4.978261301471040290e-02,2.587386977219474637e-02,7.313429627567162930e-03,7.439252331896009304e-03,2.796334432236486332e-03,6.025460909834844114e-02,2.779023905784929263e-02,4.588564276970447282e-03,5.365697529497534535e-02
6.897444732720908744e-02,5.760993807423024637e-02,3.190434300242836474e-02,6.805404215675141949e-03,4.963568345874105198e-03,7.055290299960262010e-03,3.292309972057219647e-02,2.452089102702365887e-03,5.644049322183189790e-03,1.340090324213614147e-02
6.717179065454197129e-02,5.094502073643843859e-02,3.067298160110966398e-02,1.621501073462578574e-02,2.299997402745078412e-03,1.653441548235194940e-03,7.659423012897776002e-03,2.058555923582197980e-02,6.030484141865549708e-03,5.711629895138633541e-03
7.349546301440368357e-02,2.669557542631443778e-02,1.980029006765084837e-02,1.400130591906825761e-02,1.000220091690987934e-03,1.006483758139213244e-02,3.023071422813736718e-03,2.047942254458416655e-02,7.558958351457803135e-03,2.571040523337291168e-03
7.948355348235178197e-02,1.272185404506218781e-02,2.096957972353081720e-03,6.808616907325033656e-04,1.408304679213377361e-03,1.719206528680387869e-02,5.440280195377139409e-03,2.158324306032177037e-02,1.033523483712442230e-02,7.122349399704810957e-03
6.350282019614798823e-02,5.962586494803218118e-02,1.570074509462561843e-02,1.160347781333523343e-02,1.233891973366832429e-03,1.225299540799517327e-02,1.575109722671505508e-02,4.421264899381879138e-02,1.203586649618113708e-02,2.621494112722640157e-02
2.080705480324559348e-02,1.023642795496173818e-01,2.810566428935308905e-02,1.209924150843857439e-02,8.098638538829017446e-04,4.644357531328599715e-04,3.528248012274307066e-02,8.383267408218200711e-02,1.103395017530429609e-02,3.303088709272210960e-02
2.757579482360894216e-02,1.308280148224391093e-01,3.377504188229576987e-02,2.551223625654020378e-03,3.062091139046061415e-03,9.628631240579046610e-03,4.483081491211447778e-02,1.227595724113580700e-01,7.669814759202483491e-03,1.168474108396222802e-02
6.265411434044766692e-02,1.424807591154317599e-01,3.419774147958543759e-02,8.805633095189634163e-03,4.189911045031609674e-03,9.267534461032992180e-03,2.874905530864729428e-02,1.546395737981454133e-01,2.946725197040186983e-03,1.838838474788530991e-02
9.033271145990798279e-02,1.430424708305916559e-01,3.225049820094803149e-02,1.716070217756303362e-02,4.805954324645644003e-03,1.825792494609428628e-03,1.330096166431779829e-03,1.859150152124361965e-01,1.700053327746424599e-03,3.189009728975218672e-02
1.274927910686564358e-01,1.402496190564586076e-01,3.156334242796528938e-02,2.114391166882003195e-02,4.187372396965059751e-03,1.066668555391761530e-02,1.338741602304256446e-03,2.243635256699274272e-01,4.004233977193722913e-03,3.020980303083294072e-02
1.744907934045304976e-01,1.348114262748892345e-01,3.312382243426575945e-02,2.015156618406524491e-02,6.072872470089578584e-04,3.002960278711735639e-02,5.105835164560963702e-02,2.692935854539795226e-01,2.935742666212251030e-03,3.197169227152338311e-02
2.107213719258884677e-01,1.192851300536570680e-01,3.239569826866501440e-02,1.619631557694868607e-02,9.843501061651400291e-03,5.318965139640136758e-02,1.241806834498269674e-01,3.017599330217475839e-01,9.247159857586567753e-04,4.488589556719888018e-02
2.144363488377891702e-01,9.029742090967909918e-02,2.476245738573374863e-02,1.321839569990855036e-02,1.855987835506255068e-02,6.834639915878111538e-02,1.686193753201207790e-01,2.897879813628849721e-01,1.137287921214516408e-03,6.134984102519881743e-02
1.824747221050649071e-01,5.920635092248981157e-02,1.317504468329507711e-02,1.148965588756732138e-02,2.139433171626148322e-02,6.592743917591721570e-02,1.584551711303324728e-01,2.192520523845877811e-01,2.679152216768642715e-03,7.225927280411074960e-02
1.326716725060877178e-01,4.267584131981440321e-02,4.561157045324464379e-03,7.345852287996676791e-03,1.743289850691236847e-02,4.812889484342963708e-02,1.089822169768810967e-01,1.170432885483629198e-01,1.976692135737772530e-03,7.055724579077947423e-02
8.848084412348011796e-02,4.297188488525120059e-02,4.517516257553054471e-04,4.953696295309793817e-05,9.028946210080227019e-03,2.371061181941037585e-02,4.883267026899440477e-02,3.072358269045812398e-02,1.312393477008304840e-03,5.109677465124930207e-02
5.919458709553671039e-02,4.596461566672758320e-02,2.464633605452604646e-03,6.169296241719446870e-03,2.755485574160134918e-04,4.148723182138782566e-04,2.406855092404741256e-03,1.433050311046701712e-02,3.925506834481661336e-03,2.188768755103670180e-02
3.607341795375824944e-02,3.894945730973337766e-02,4.820535743056434015e-03,8.118443624575867948e-03,5.345088187179865800e-03,1.850199645240390919e-02,3.337037564333269340e-02,2.982061866584428608e-02,3.999743811475524845e-03,4.753669086203393679e-03
9.157043359205549113e-03,2.157966589039864158e-02,3.945566855892141192e-03,7.163306113019711138e-03,2.222455021978779824e-03,2.457632715123564404e-02,4.025329079095039952e-02,3.959368824975795925e-02,2.082116702565867204e-03,1.084678885342321882e-02
1.757433482779184250e-02,3.466184843044367581e-04,7.223889639752165137e-04,6.101772410858579895e-03,6.401326096212358978e-03,1.874041949596295942e-02,3.499099856759280841e-02,5.145729676705743799e-02,1.728258123232910516e-03,2.629329037955488793e-02
3.268931821222108292e-02,2.138109953293507864e-02,6.327592278980276319e-03,5.810116744489210450e-03,1.298495935225443647e-02,1.028345156044959199e-02,3.976717295070210378e-02,5.711423401139621020e-02,7.288512914349329352e-03,3.389493997916642742e-02
3.463919209023426371e-02,3.688193261016147612e-02,9.326417739201566318e-03,4.815561145829569227e-03,1.363925639858075585e-02,8.131816364544481451e-03,5.872169032588249460e-02,4.803674872268928753e-02,1.218906486208437383e-02,3.568101467954837985e-02
3.599135187614053988e-02,4.706901041747446612e-02,6.624496982010123942e-03,7.315198845098951509e-04,1.070338136653806518e-02,1.101993403196293436e-02,6.547096421845105541e-02,2.439380632812497562e-02,1.378201560963478872e-02,3.927371531537027921e-02
4.793609053001517822e-02,5.895204385214176251e-02,2.523258321236178728e-03,5.973463931216707948e-03,7.353531141765707636e-03,1.200130189400288802e-02,3.863843645979678221e-02,2.805861625303452886e-03,1.287685382683657551e-02,3.597195726733488225e-02
6.272922112009114703e-02,7.440316848807884687e-02,1.234179816558051042e-02,9.546244965400704427e-03,4.465678094981695954e-03,9.880800816868959974e-03,3.127875438743231862e-03,1.720981923722753049e-02,1.246091450767184729e-02,1.418820238334602551e-02
6.052754880918298497e-02,8.110335932585206742e-02,1.353991872641290700e-02,4.859132463832332299e-03,2.140207390934270940e-03,1.029044601826654796e-02,2.883906992283826604e-02,1.205058906823729820e-02,1.264481919635879019e-02,1.403450009431043456e-02
3.711804375545427886e-02,6.705798038551158413e-02,4.888847752018012950e-03,3.895369104710931420e-03,9.994298124420372860e-06,1.588641168689621311e-02,4.103509822751803121e-02,3.942826388893129474e-03,9.927986489595103797e-03,2.486894075023441883e-02
1.088739459684262903e-02,3.844138170450404901e-02,4.386315246051685976e-03,7.086857159301413432e-03,3.260205008101433547e-03,2.182292137370914903e-02,5.979363481427400762e-02,1.503534634579707999e-02,3.032095536804428008e-03,1.868405220904891320e-02
3.324828163151184127e-03,1.196108640340595199e-02,7.664935926040492009e-03,3.561472322494748776e-03,7.927389634619729994e-03,2.380676997465547631e-02,7.883639365344993766e-02,6.914403536038983555e-03,3.662664542651918997e-03,2.112915451016099400e-02
1.047297958277555556e-02,4.081581870875864403e-03,8.190578761767248681e-03,2.716450234158732796e-03,1.204587260834091497e-02,2.522264595732207765e-02,7.552973513308393338e-02,2.369193477307849488e-02,5.505544691837318573e-03,4.649028226998098284e-02
2.136899085028579753e-02,1.256534988231225967e-02,9.396779141815336453e-03,1.005968726206462986e-02,1.407490650216545840e-02,3.089573168119116170e-02,5.138141530604103946e-02,6.244202696501261612e-02,3.594615836697775957e-03,7.882614385005692892e-02
3.779731308111212301e-02,1.803869956235381461e-02,7.792615118401866568e-03,1.903263041783691614e-02,1.473104106263639981e-02,3.758939741471371138e-02,2.912524460741096333e-02,8.873466726168276197e-02,1.797576363360989466e-03,9.422825325070725844e-02
5.288385280205058075e-02,2.133040859672907449e-02,6.569189966698975877e-04,2.151606196305741805e-02,1.546048983749639949e-02,3.784276676860641453e-02,1.813011584843220170e-02,8.842004341700529513e-02,4.697180174938265281e-04,8.884406046186978101e-02
5.752500527249502366e-02,2.089830475935082824e-02,7.504334971762212023e-03,1.920560734567958172e-02,1.687165507073079551e-02,3.180441960474586494e-02,7.751589106523522343e-03,5.304320611977650368e-02,2.660093619508920818e-03,7.979619706938449741e-02
4.786496777575312972e-02,1.589650759838315969e-02,1.108934182803921614e-02,1.883417162646246548e-02,1.861073625802460441e-02,2.746341960117589659e-02,1.039232978961211230e-02,1.327785936439885954e-02,7.222684777996283764e-03,8.571405183329512678e-02
2.898831920126836853e-02,6.901166486393999974e-03,1.077820397495727472e-02,2.116627684046059818e-02,1.925686451172037295e-02,2.831454925404587944e-02,3.072835464271992181e-02,8.194770478892351995e-02,9.760778589472263872e-03,1.077653817214168364e-01
1.000251450083747967e-02,5.846914408632417764e-03,1.208903134804553518e-02,2.092848737247620869e-02,1.707330110904618434e-02,2.830927104444298098e-02,4.266000734946334000e-02,1.159322932328923500e-01,7.803090526300932028e-03,1.248204954965771440e-01
3.738937987587551571e-03,2.281625781025850910e-02,1.905140298857478653e-02,1.536171840615867604e-02,1.208206348886092102e-02,2.141143591324979126e-02,4.263716958447361788e-02,1.060899097372107053e-01,2.175761311190436281e-03,1.112773217126838132e-01
1.427325716524934993e-02,4.295506601677976516e-02,2.946970309529263823e-02,7.977326356166790366e-03,6.429758575092889804e-03,9.503973882592137157e-03,3.800664913886409729e-02,8.283781954412140769e-02,3.840398645745895199e-03,6.520768345792402054e-02
2.724514870107085096e-02,6.189286635854661378e-02,3.570273345252825831e-02,4.185856009827371507e-03,2.146378782532201365e-03,2.255676948458623134e-03,4.187774078227946006e-02,8.458699584534040694e-02,6.913063333308988589e-03,1.232614789180065326e-02
4.171367749843989114e-02,7.298414263392687118e-02,3.145197980224627432e-02,5.572944051751737259e-03,3.728521945065683095e-04,1.221401177216258419e-02,6.191880024638786451e-02,1.151757897981361134e-01,6.636499928190580516e-03,2.018261544729172546e-02
4.684045946687453305e-02,7.165396824993863767e-02,1.788286626058860351e-02,8.703045329572476480e-03,1.758340724386072990e-03,2.070138141205694546e-02,9.106783540224096252e-02,1.418069534659954500e-01,5.720099409894586345e-03,2.405433947405176409e-02
3.502728327309753698e-02,6.014987520686058964e-02,2.359998451524516431e-03,9.190712509675010716e-03,2.652422253748616069e-03,2.576142073992996814e-02,1.111614107830360410e-01,1.372794274639528023e-01,5.869248852308498604e-03,7.146007543475765486e-03
1.484264884091226165e-02,4.718077618264753664e-02,7.714994047849811111e-03,6.315213000479547034e-03,3.191033678854201389e-03,2.409210303852155413e-02,1.102581161612991856e-01,1.079032408738036380e-01,5.542272784701036785e-03,1.461936699330033951e-02
2.950218305900629591e-03,4.202630089161970423e-02,9.159148630677484831e-03,2.619014805178198659e-03,3.028119958881324292e-03,1.488531586701774892e-02,9.568974485562119214e-02,7.483551601793254904e-02,3.359481315116521084e-03,2.444851103445275578e-02
4.635381043140673375e-03,4.826341703699273816e-02,3.021591867351926079e-03,1.119628276628980255e-04,2.105119943712496951e-03,1.258026436991474019e-03,8.456121058522868272e-02,5.023778696306116509e-02,6.013376041610359437e-04,1.729485496120930846e-02
1.067070457693493173e-02,6.079015470855222286e-02,6.805606524761590587e-03,1.329324480793248314e-03,1.319419145027244181e-03,1.166397145090966245e-02,8.303339353550855118e-02,4.160019540758795598e-02,1.362132857930067756e-03,4.186757827930054528e-03
1.522180939356798830e-02,6.911102313007259912e-02,1.472331476836449826e-02,3.159587748483393480e-03,1.580525563156309505e-03,2.087084562740999794e-02,8.407882354069286246e-02,5.794016776904332977e-02,2.803686275568748488e-03,1.502031319179949857e-03
2.636357914106382191e-02,6.659627932399637962e-02,1.666465007935194476e-02,7.433549029974177887e-03,1.940158234825244089e-03,2.832133777476055977e-02,8.303364767796138357e-02,9.550334371784846565e-02,3.561146554344336336e-03,4.021882871595808609e-03
4.977086524150076824e-02,5.498956724696980186e-02,1.356507338841870212e-02,1.522051128221548789e-02,9.312832568318272705e-05,3.757924701157863007e-02,8.086401830604392216e-02,1.275342679468370044e-01,2.816757822140907464e-03,1.598875850351966568e-02
7.204161338168724171e-02,3.779780369664028500e-02,8.422735669043713430e-03,2.412496027220348629e-02,4.309574921203181488e-03,4.672588746322522274e-02,7.355006091788435230e-02,1.249709219766027835e-01,1.995327060353216646e-03,2.247348519638642933e-02
7.677343865253830058e-02,1.562888920394099601e-02,7.150437574502351880e-04,2.886789041406682271e-02,8.479380579525850822e-03,4.758894094423434667e-02,5.514918520054154505e-02,9.170327921704021779e-02,4.113588425839505638e-03,9.769721653132539679e-03
7.090261296409736125e-02,7.860616340490834270e-03,1.066484556552161657e-02,2.630280633283551064e-02,9.779197481113865650e-03,3.490813319851488600e-02,3.170838547668323321e-02,6.852931773860121423e-02,9.127135232854410862e-03,1.920476019852355998e-02
7.546634562870897789e-02,2.353230894896555375e-02,2.087671609770204439e-02,1.922862230183485649e-02,8.507163926635662177e-03,1.495061101321603150e-02,1.826146062848709936e-02,8.861737617956320923e-02,1.336406462022724645e-02,3.938833653258112799e-02
9.311051249835425314e-02,2.596246767024246865e-02,2.356598143840330298e-02,1.333911385745513954e-02,6.345640935942112489e-03,9.491026517754682940e-05,2.304081392771242104e-02,1.347347883029887394e-01,1.447190681313754654e-02,3.026183240169631056e-02
1.041293769489494703e-01,1.959029294753811962e-02,1.994947725715760789e-02,1.114676337623496209e-02,3.815510762679659700e-03,5.992782410353185776e-03,4.407470412399364101e-02,1.588849514152016196e-01,1.380539990448149436e-02,3.865900304605299556e-04
9.400857152449607068e-02,1.297548147692557940e-02,1.569710903227787904e-02,1.143288850522878979e-02,8.076278947433692366e-04,1.063764324727638558e-02,7.479694955785984312e-02,1.387913511891223917e-01,1.301238178452343748e-02,2.853126965831504283e-02
6.753923399852108933e-02,1.105779684599933130e-02,1.237600367340285952e-02,1.340215937785311368e-02,1.483454491289630224e-03,1.752815118992729487e-02,1.012345267864031700e-01,9.014359486340239869e-02,1.119622752172726166e-02,3.906837326971700219e-02
3.630242305382443135e-02,1.296697085439215552e-02,9.207324291497344729e-03,1.748934890448542931e-02,1.328835878780070413e-03,1.963544810428463627e-02,1.011453072202543602e-01,3.032163140808726010e-02,7.159842166274677649e-03,3.229803927026710791e-02
9.053611739849400097e-03,1.423477414160335963e-02,8.090236980258977070e-03,2.250380938496145816e-02,4.949389506642659468e-04,1.105366762354029198e-02,6.216158223706390318e-02,3.414545512936793120e-02,2.371813689281976074e-03,1.595342786472130764e-02
6.071261357705896693e-03,1.238036925592709767e-02,1.047515637606462845e-02,2.555243993401482699e-02,2.987002445301482423e-04,2.428863945765062909e-03,1.152286923010996823e-03,8.679386579689653269e-02,3.894633707563014140e-04,1.030876871075969833e-03
7.768464913130762942e-03,1.114658296932780936e-02,1.373820751967521486e-02,2.509965564024872753e-02,4.535946270311947207e-03,8.919059388537884173e-03,6.046823352962353570e-02,1.072453166067285357e-01,3.390427039272160071e-04,1.083371551074758035e-02
1.093525065314697627e-02,1.607506257326173429e-02,1.453900868247801244e-02,2.199825824505613134e-02,1.203236392056226609e-02,3.044044793927145470e-03,9.974880973595838529e-02,1.016422442911058960e-01,8.562747021672920513e-04,9.843155845156209907e-03
3.252135552857193801e-02,2.664398957657349715e-02,1.302098196907545968e-02,1.763619082203082486e-02,1.726495002461743422e-02,8.330789159083414747e-03,1.189859288811851989e-01,9.789770465582403602e-02,1.261949247541437492e-03,1.423013493395636079e-03
6.721703896955248669e-02,3.774122181713897989e-02,1.241648977642138309e-02,1.291961570945317390e-02,1.721554500814817187e-02,1.311152730323327485e-02,1.219225787089650292e-01,1.108272122650044572e-01,1.765886169464623255e-04,8.356336340747753597e-03
9.250151286755833868e-02,4.698966776039684851e-02,1.519764405405192934e-02,9.194501237115248332e-03,1.334885050127450172e-02,6.677284605202617532e-03,1.107592630674133077e-01,1.329292047908098851e-01,2.239661966185375191e-03,2.059056091095626956e-02
9.515533902744928441e-02,5.376972402893132746e-02,1.929233948466689899e-02,8.331098518928187202e-03,9.746878507216725704e-03,6.161464617604939589e-03,8.611950710866587977e-02,1.523558006325901326e-01,5.709531419836332694e-03,4.349614275690707327e-02
7.821990858272338809e-02,5.370659891012422027e-02,1.926275668108681435e-02,1.069338692973659244e-02,9.201848906290192517e-03,2.122802662570904067e-02,4.889408200587734565e-02,1.590408304383928439e-01,9.591182698403472387e-03,7.563170643211106214e-02
4.860158257228876233e-02,4.288542595665141566e-02,1.236128937631416659e-02,1.366630870758138092e-02,1.084665031823861189e-02,3.755030638742229421e-02,8.263465804008721799e-03,1.418482623421566391e-01,1.226829575742043044e-02,9.546986235442869728e-02
1.558378900152617916e-02,2.589142803132044035e-02,1.628902968065480857e-03,1.330943651129536803e-02,1.140683188288368032e-02,4.842095852461653083e-02,1.699521344912135329e-02,1.033135744652136923e-01,1.199160391613742979e-02,8.134794191953413633e-02
2.490486759846712115e-03,1.230482843621309719e-02,7.431847534044961137e-03,7.538148632351495543e-03,8.975157665808320903e-03,4.351985327313957763e-02,1.544405697723039671e-02,7.280030167634507499e-02,9.173848829915159236e-03,3.968946528869402024e-02
1.034907002070970146e-02,7.131627087211567587e-03,1.088494629467166852e-02,2.529302963218790085e-03,5.085471490347669848e-03,2.537106980557579314e-02,2.942333033168256437e-03,8.099232164653147326e-02,6.960538352591623054e-03,1.917926910020402269e-03
4.482693390418337337e-02,9.973347227626451136e-03,7.893397392930896067e-03,1.368331287171578592e-02,2.562886830122840590e-03,9.483876339362989558e-03,1.943821429225152039e-02,1.191944591296270756e-01,8.167487630865798154e-03,2.877230532239976463e-02
6.904616878170957706e-02,2.015523552589503636e-02,1.469086617955760871e-03,2.286952613904801035e-02,2.318797488744007117e-03,1.877309923439960098e-03,2.930057418103237943e-02,1.445531843366772429e-01,1.212548334303763242e-02,4.990487191139261064e-02
6.171991844641557673e-02,3.619342618283192398e-02,3.116497224666164769e-03,2.895186973686526485e-02,3.193261843979455089e-03,7.695545995631941291e-03,4.120733803242612042e-02,1.298146703852229022e-01,1.567612608764629156e-02,7.449919844700834959e-02
3.313372207202661124e-02,5.163153049854644905e-02,2.727455228885217794e-03,3.180550307141344346e-02,3.800859513496747475e-03,2.346164602063787949e-02,5.814320176672116425e-02,8.812431084610668208e-02,1.671132670691560448e-02,9.390283487418148167e-02
7.986950193189913325e-03,5.761938442021997259e-02,1.918082462647555022e-03,3.025249670397039611e-02,3.360503265960273697e-03,3.262950444087642232e-02,7.292994682526318662e-02,4.592383986302727567e-02,1.544044446747951105e-02,9.415090422212854526e-02
1.374139489446099451e-03,5.105285720393298171e-02,8.426230802763137046e-03,2.404970383602973716e-02,1.704517487538986190e-03,2.666716812783172935e-02,8.143441800076656190e-02,1.672059148177153579e-02,1.261920023422397584e-02,7.810434893846369964e-02
3.719879196090059709e-04,3.762290350407418438e-02,1.404723945947090706e-02,1.738689043540984219e-02,5.147831198707211991e-04,1.800341402476782898e-02,8.470555080277403226e-02,6.797573731931554758e-03,8.616112304576328124e-03,6.449711191917734121e-02
2.305864843817603382e-03,2.603589718202824546e-02,1.643681752523725240e-02,1.524189579009801315e-02,2.463594630033626338e-03,2.313026011666425782e-02,7.704037047701749186e-02,1.783191922599951587e-02,4.729838869182234964e-03,6.262513511468086047e-02
2.917911112950466283e-03,1.934998949227148893e-02,1.613777133287247478e-02,1.612273674311652527e-02,4.486368370525341438e-03,3.877251109918212341e-02,4.923376865758098686e-02,3.502599131201586391e-02,2.876667431041204318e-03,5.882380822157773359e-02
1.292704137703346717e-02,1.225283060336748026e-02,1.658161020197303562e-02,1.363816757821766264e-02,7.584113719110702374e-03,4.671422460164853518e-02,8.675223205889356914e-03,3.867024281329266289e-02,2.512146656986901337e-03,3.826054801823586954e-02
1.755844374404644595e-02,1.759910779369948733e-03,2.002540571183314064e-02,5.410330635025772938e-03,1.094303091516177565e-02,3.855664280424356272e-02,2.034023743549814162e-02,3.301062745113975128e-02,4.840654241706225571e-04,8.884942492213773052e-03
1.162627362230292047e-02,2.117697029905374340e-02,2.605117085358111054e-02,4.050386646305992669e-03,1.158309169609480702e-02,2.594477043252560455e-02,2.459486290374929274e-02,3.889772762104869858e-02,3.944880283729734587e-03,1.130070792101402037e-02
1.495825295799992245e-03,3.664633058284610945e-02,3.333731852695629577e-02,9.095100517622533437e-03,7.761913306748725004e-03,2.498152555646266856e-02,1.688912683318777308e-02,5.648985679644918934e-02,6.539750365923915724e-03,1.808268577524663884e-02
6.589972387085706734e-03,3.948560816316736000e-02,3.803867711672864749e-02,7.875695823415195668e-03,1.697724790209250746e-03,3.697261993635753835e-02,1.514335678516798116e-02,6.025368601519055789e-02,3.618703875691132478e-03,1.389544108482544671e-02
1.521773170105524334e-02,2.873576201750460343e-02,3.278296037262723450e-02,2.276712459551070121e-03,2.366094001719466593e-03,4.856321298608089893e-02,2.027515143619926588e-02,3.247486768095527582e-02,1.989572199768066887e-03,8.000664899023957055e-03
2.519493622886194439e-02,1.184332772035131230e-02,1.470940573465222626e-02,4.181823596974196949e-03,2.301055294175821490e-03,4.775354053131025678e-02,2.556929937444522155e-02,1.798527002341834824e-02,4.643705799407531198e-03,4.829897111411392274e-02
2.850112489282245753e-02,5.144716742990908080e-04,7.556048989405704172e-03,9.228083884772503298e-03,3.339575643187695712e-04,3.520826604367330998e-02,3.416951464955671897e-02,6.886103084017318465e-02,4.092481658055411621e-03,8.378427679062529221e-02
2.080129732374931886e-02,2.100522764093033269e-03,2.178929209124817398e-02,1.364104451085625287e-02,2.237442337796313567e-03,2.050530557710803989e-02,4.980511793577593188e-02,1.002524705437418256e-01,4.695828453087001059e-03,9.052514783144667565e-02
9.780220160605639090e-03,5.503099707105099311e-03,2.415156213904506508e-02,1.843147211142666733e-02,1.583114982419222844e-03,1.160348144554970706e-02,5.893103283323164465e-02,1.014362892494652113e-01,7.139956502367616510e-03,7.368133730221115840e-02
3.447209744958159953e-03,1.678511666051789308e-02,1.835338101903462651e-02,2.103754565598452489e-02,9.158085645214985551e-05,8.715137351949928807e-03,4.370133187821037546e-02,7.932409637474625852e-02,7.349059539898902295e-03,5.248549483907315877e-02
1.117783334270654357e-03,2.736752788535254388e-02,8.374138918729980702e-03,1.752426505205573540e-02,6.615885759811917328e-04,5.365250495595840635e-03,1.159499096908591861e-02,6.041273446361894450e-02,4.165455175868202145e-03,3.264526955090126664e-02
1.092418341746597202e-02,3.455148410996361497e-02,2.210224875515890038e-03,7.961683113694445132e-03,5.060225447614881585e-03,4.124774672465379710e-03,8.325733677586686504e-03,6.874626593775479133e-02,1.624780102422732986e-03,1.572240744692583736e-02
2.383085173531676246e-02,3.631121307506224305e-02,9.238344576543509878e-03,3.429152500320739247e-03,9.889909295033671652e-03,1.583633558657959392e-02,2.783182705001132056e-03,9.742260101049160514e-02,2.273934341905178673e-03,1.418528358449389591e-02
2.891009839944237714e-02,3.315450747632893436e-02,1.244041687702171668e-02,1.345585433263675988e-02,1.089073693855130073e-02,1.833106214296925662e-02,1.021336658190566578e-02,1.154654866484153830e-01,3.811100086808915949e-03,3.152466482814255538e-02
2.076335605622193353e-02,2.989109830096288792e-02,1.589369558777931762e-02,2.226629784395854975e-02,8.052761854209902759e-03,6.813425178321955850e-03,1.157367852404063771e-02,1.082756198387231500e-01,3.666977026744904118e-03,4.548668438030299688e-02
7.116659523364829779e-03,3.181393036954163062e-02,1.921697742340976525e-02,2.906987574390376347e-02,5.432631475651997222e-03,1.018502220676164964e-02,9.656732295130310284e-03,9.344091391719394624e-02,2.298101283227121320e-03,3.311070975723266752e-02
2.269303142045233507e-03,3.727689223163953292e-02,1.543191886651928274e-02,2.909729027119163300e-02,5.299294574439297745e-03,2.278343633441984317e-02,2.017975179879073072e-02,8.574897987816178235e-02,6.534434738565970523e-04,2.323836426511029750e-04
7.256777497716810320e-03,3.642093467614194308e-02,2.666768871123029530e-03,1.929057669706274805e-02,4.996841790050680389e-03,3.152672673935306286e-02,2.867210294364190212e-02,7.052547104453170401e-02,1.939996823866682813e-03,2.872742690795932960e-02
1.093990635055567748e-02,2.177624608889256602e-02,1.041020826154695315e-02,5.016295979394449697e-03,1.298236163914653907e-03,4.019524478208692797e-02,3.831829444602262262e-03,3.516152533122738483e-02,5.594705959698204750e-03,3.354950380208726601e-02
9.933760783400788497e-03,3.978199093773545541e-04,1.566736034025957222e-02,4.043049326776835574e-03,4.335754921963594702e-03,4.394794955495760769e-02,5.020664080899849002e-02,3.733006067391980536e-03,8.024152054118873986e-03,1.945199978698466253e-02
7.468502479509726540e-04,1.530573044686978253e-02,1.392468272963699738e-02,3.722754722490644128e-03,7.572275188834670830e-03,3.473411400824987644e-02,9.053675758607322710e-02,6.604131529038934252e-03,7.394149202033333673e-03,8.962811768865201756e-03
1.148857709983320402e-02,1.572720657299844782e-02,9.337127595359293736e-03,3.061530546288013764e-03,6.733691552642697212e-03,1.412696552749938272e-02,9.286595529074441469e-02,3.453794203205586694e-02,5.826453245224829693e-03,1.775421622780060799e-02
1.996708797071415631e-02,6.445792805288503950e-03,3.028164417921374446e-03,1.274394026683036210e-02,3.604045425511574925e-03,7.978925382229929558e-03,7.738838896208487250e-02,5.680035733783622698e-02,6.934749707144717383e-03,3.728314267695324175e-02
2.508976437630347847e-02,4.846464816227295802e-03,5.203601867991521947e-03,2.381581916085626083e-02,1.689684343153562748e-04,2.378856021064069265e-02,7.021036990562173896e-02,6.418003981697889548e-02,1.046373786729834152e-02,4.827768508933730218e-02
2.936286589716761292e-02,1.297071249925125548e-02,1.364711204071671763e-02,3.339051902147763262e-02,2.713125514081969961e-03,3.135453515307671385e-02,7.225032749285793809e-02,6.303862760504427842e-02,1.310529191876001753e-02,4.622078484317138081e-02
3.103941734047815232e-02,1.417351089954389624e-02,1.877953778185804251e-02,3.601597870112371175e-02,4.784260817054658554e-03,3.327496497612274229e-02,7.169265845535084669e-02,5.116484607711874188e-02,1.390306127700575121e-02,4.369984901035791486e-02
2.810025227225976252e-02,7.113382212038251232e-03,1.716462434240628721e-02,2.761930272915811418e-02,6.361010222485010725e-03,3.493679982274977558e-02,6.172358148304660924e-02,2.643988751523807315e-02,1.439396301443438345e-02,5.044873123566945977e-02
2.126391679297922124e-02,5.971724113212696465e-03,7.723058159179486959e-03,9.051351288140730908e-03,7.452919603374389204e-03,3.833594202390910866e-02,4.531539223083570073e-02,4.433320892207407923e-03,1.419487173689251355e-02,5.987113805216044693e-02
1.049537104296069216e-02,2.199557611404224372e-02,6.631508785413074356e-03,1.362414086057292528e-02,6.804078215234704921e-03,3.728913548856373217e-02,3.579385570817793932e-02,4.042755901097910831e-02,1.113260480910303885e-02,5.663124209276482190e-02
4.219332053460352581e-03,3.862916498439578072e-02,1.994376921784925608e-02,3.149364415801633038e-02,3.871341197347673291e-03,2.521751966186876887e-02,4.332502634458752777e-02,8.291589200899059098e-02,5.357567867104703722e-03,3.488985220796864128e-02
1.741422870125138023e-02,5.297385493969478804e-02,2.710284734872232468e-02,3.805508358146846015e-02,6.454935031878004763e-04,6.196946634552861696e-03,5.612305853455559074e-02,1.146118947820389117e-01,1.298975143635686851e-04,7.823905845395103670e-03
1.969459162166560182e-02,6.168298550362739247e-02,2.706152935195943465e-02,3.354523319984105412e-02,1.039405208191938055e-03,8.558829615930836285e-03,5.206374400937475305e-02,1.102405989810453513e-01,2.477043978223868615e-03,3.154284113565309321e-03
6.540450752027851186e-03,6.194679728386982831e-02,2.195294886177297927e-02,2.271795861070080233e-02,2.102427705150673124e-03,1.379995991856704241e-02,2.737798995315494227e-02,6.848926617977495190e-02,8.093087417555214907e-04,9.455589159047841225e-03
1.676767095859600307e-02,5.249237923923147364e-02,1.479879346550072756e-02,1.004325543860763725e-02,3.520386523696711345e-03,1.384074568922205421e-02,4.490250257657276908e-03,1.483331040249136201e-02,3.596984693625996168e-03,2.975447829774624867e-02
3.859082515936452379e-02,3.720270690246899048e-02,9.461834654894399690e-03,4.196892251055166917e-04,3.761953890238267390e-03,1.401076200219016771e-02,3.305457184257502151e-02,2.219118780726789947e-02,8.234488827210449322e-03,3.426208802103801465e-02
4.769684362294045882e-02,2.537387243180624571e-02,9.805333961725075723e-03,4.127212055560058185e-03,1.853871551132200415e-03,1.411920572255450854e-02,5.261555708705978329e-02,3.142995438742886977e-02,1.155748835442123312e-02,1.664365450810337960e-02
3.888549948033435261e-02,2.195965524214012199e-02,1.569874520847671165e-02,4.092551231108891834e-04,1.278811793458462160e-04,1.113345443792804201e-02,5.854947119518637971e-02,2.696734312413029411e-02,1.386476051184810064e-02,9.025910911002816422e-03
1.614525161827905231e-02,2.028060607124959613e-02,2.174480851386104141e-02,9.516572564298397124e-03,8.661293807227808715e-04,3.921607293893797884e-03,5.566043584532692073e-02,3.316565430410284981e-02,1.540391837830264003e-02,3.034626303273415746e-02
9.918930380814290973e-03,1.149824409058032224e-02,2.285769022731977407e-02,1.842280860392589772e-02,2.937119864877964573e-03,6.394843298518710500e-03,5.694110981280381401e-02,5.037873241733713953e-02,1.516985602137668927e-02,4.973870680116205395e-02
3.053409115754705458e-02,1.823509593101092612e-03,1.983832027427859246e-02,2.455093940647667949e-02,4.651382775316318004e-03,1.753127674092073637e-02,6.758009914158936982e-02,4.739943636577710617e-02,1.244659814436386777e-02,7.041172984411236957e-02
4.290008948522428672e-02,9.703989512478274765e-03,1.699538040998940444e-02,2.627962114488659878e-02,7.315549981388117656e-03,2.536220290830852597e-02,8.021302025538783187e-02,4.949728527684169391e-03,8.199487613584270293e-03,8.483640307718430529e-02
4.441390118373737123e-02,1.027412670679950929e-02,1.584526726850383344e-02,2.303050475969904004e-02,1.276264544670960288e-02,2.543528178446940319e-02,8.586816656509838053e-02,4.595689235277732737e-02,4.239704453048696170e-03,8.515047726257746197e-02
2.930672018460280664e-02,1.325903460243921944e-02,1.430259300940083834e-02,1.711633205361097476e-02,1.878585174229619598e-02,1.899503298700322418e-02,8.292548160172569238e-02,5.335158520950156885e-02,1.693051268565665037e-03,7.200914985562263670e-02
2.712377795661800092e-03,2.760620466969114853e-02,1.080669528707594619e-02,1.168962955108151895e-02,2.000338795430913960e-02,1.486374790595714965e-02,7.601289860999736747e-02,8.814930752814430920e-03,5.320577240794952065e-04,4.919365322898171938e-02
3.794970611854464604e-02,4.991999066196701335e-02,6.228822508780866574e-03,7.253359508497142852e-03,1.401318488078304864e-02,2.001833684526882137e-02,6.621230252965716601e-02,4.143947524951528683e-02,3.797534991632550358e-05,2.034840647513525697e-02
5.611440691766033523e-02,6.559900297845132344e-02,2.510484663042809352e-03,2.944700474754793820e-03,5.254808355639659784e-03,2.980352555956545385e-02,4.477428621380143831e-02,5.275914491190976385e-02,8.521505505418099265e-04,8.109327872037032370e-03
4.899185826829895868e-02,6.259296227303855209e-02,5.936871093679906529e-04,6.350110895779899865e-04,6.345690154612869567e-04,3.315189891092025498e-02,7.109071297552550968e-03,2.610636351807514577e-02,3.465055989719667637e-03,2.864304127738125441e-02
2.864460235037713520e-02,4.556969994164235260e-02,1.305846141665642805e-03,2.752841779381830570e-03,1.454184984834820758e-03,2.744715780417730788e-02,2.963810258236232106e-02,8.388062723504771667e-03,8.501169414204038516e-03,3.867676007958816692e-02
1.279961832334850988e-02,3.111116187530392832e-02,6.122433127832295138e-03,4.470236025792496438e-03,2.684852418358443966e-03,2.278487000770058196e-02,4.190263101626129361e-02,2.720475665081418040e-02,1.444442273259815765e-02,4.266610008081962030e-02
5.716135978084750137e-03,2.658569041878795780e-02,1.295265202650399544e-02,6.514573130472986646e-03,6.310807692564024017e-04,2.816458267094394327e-02,3.288767921665259469e-02,2.609045200078154852e-02,1.781208569756851517e-02,4.627580755033953996e-02
6.343209592066742248e-04,2.304285512761205384e-02,1.661050368003100589e-02,7.535731861614281164e-03,2.882975823226626485e-03,3.667327315366308849e-02,2.973204641524984995e-02,1.661556045969518267e-02,1.640391221721676854e-02,4.922482047863799975e-02
3.867044067881465243e-03,1.241104620699899977e-02,1.457169010564724788e-02,6.800750803377574039e-03,5.115159157345247273e-03,3.201755253179478650e-02,4.431438466794036107e-02,1.208239265627705263e-02,1.194777933735084383e-02,4.795931548763679442e-02
1.360065675754084345e-03,1.450521500645203868e-04,1.082712261366393022e-02,6.055468802633394258e-03,6.549409575887076701e-03,1.104533537740317629e-02,5.609408536354406477e-02,6.489671689059065690e-03,8.142883246861160051e-03,4.393703332801451172e-02
9.661617727720655385e-03,4.951408813771154653e-03,1.009218203763226004e-02,6.622442600577832343e-03,8.525366969334740447e-03,1.021824919257388435e-02,4.280037850194142596e-02,1.703278180182526275e-02,6.568100240331536249e-03,4.160760164042923842e-02
1.991559771843870452e-02,2.838349133645809690e-03,1.215682396564032007e-02,7.395242614520204476e-03,1.033551272532099580e-02,1.808952459039789296e-02,1.547339953974965349e-02,4.520302208675770067e-02,6.274541272909950514e-03,3.904706219708018594e-02
1.953239420823043790e-02,2.391120464221296871e-03,1.528803204502620673e-02,7.837015611068491941e-03,1.028969178567427749e-02,1.794680012995911525e-02,8.590732860259398668e-03,3.360455834167839356e-02,6.469257406281694878e-03,3.030261697449517302e-02
1.091473281589093111e-02,9.917895181839452706e-03,2.048579219229425610e-02,1.024501647311362382e-02,7.695142031244535039e-03,2.155676581288562543e-02,3.635427833964068045e-02,3.051364343675215182e-02,6.960713925628045015e-03,1.871291027932433029e-02
7.217869356673273402e-03,1.892784916753019811e-02,2.763971574888699628e-02,1.620410133936690811e-02,3.692201484476581239e-03,2.832565931466998060e-02,7.154960476093395749e-02,9.763410021789474535e-02,6.676574162499742185e-03,1.804813579618841715e-02
1.697575735440704295e-02,2.622127863740645465e-02,3.216365729489767400e-02,2.227500568271826784e-02,1.132442555769888008e-03,2.981266560101509047e-02,7.509331890495465900e-02,1.137770764004854412e-01,4.304058542511999229e-03,3.466237892141628418e-02
3.414856523784747661e-02,3.108881907261471650e-02,3.053938922119106905e-02,2.212630417897743992e-02,2.152590103570718207e-03,2.469829881531300161e-02,3.942446794271185079e-02,7.822792170283832114e-02,1.230396572823180086e-04,5.690566569142653519e-02
4.563426172524270158e-02,3.462650717548384355e-02,2.474380672957235058e-02,1.330556579778268897e-02,5.095018651505491686e-03,1.834677697665614005e-02,6.496102775585281888e-03,2.539830564935400409e-02,3.999502058619206109e-03,7.054935345050077078e-02
4.338525384179975353e-02,3.283101501240690695e-02,1.774475416871918246e-02,3.426555466777012407e-04,5.938341858088782080e-03,1.358897763253759730e-02,3.137643917087223899e-02,1.635579503558800066e-02,6.055658347339720575e-03,7.468689610060284811e-02
2.552508752109156759e-02,1.938076000587530059e-02,1.004561201777409360e-02,9.656429230246663109e-03,3.032213062387285624e-03,1.097386886602783919e-02,3.052665636192620005e-02,3.237180971916502059e-02,5.447258504223707887e-03,7.100262136662705004e-02
6.519827726202593460e-03,3.188821880230808051e-03,2.538421001005646861e-03,1.356115349671446757e-02,1.922878255542101412e-03,1.254532966762265077e-02,2.098391053094008155e-02,2.121020693579560995e-02,3.689137273550173717e-03,5.227984284194778924e-02
4.343218299803620203e-02,2.262530646246149052e-02,2.959816393653096327e-03,1.336616761849318026e-02,6.826341418359478663e-03,1.790668680090245699e-02,1.862479359262986592e-02,8.243386894704086976e-04,2.825388641947018404e-03,1.825690792381534644e-02
6.783045169227341908e-02,2.904875463478198694e-02,6.635396146095548855e-03,1.223926591990862414e-02,1.026741583042416021e-02,2.095178645066754497e-02,2.634049760141719126e-02,8.010672812996905839e-03,2.674095587248795196e-03,1.413142432058456244e-02
7.136401126730536337e-02,2.392062491353394091e-02,9.902618443194566300e-03,1.175126527660370034e-02,1.109495438296152943e-02,1.614648284928645733e-02,3.919656251320449702e-02,9.782153582290509242e-03,8.718028883703917613e-04,3.292000178995060922e-02
6.778579545120454186e-02,1.702662922302179346e-02,1.276145651368483513e-02,1.175859727968656121e-02,9.687936029801801074e-03,5.564741284306897254e-03,5.228005742440093584e-02,2.639419005027921275e-02,3.563054121231430671e-03,4.494039533296826511e-02
7.611498879464241585e-02,1.706570833237105317e-02,1.459514571856017004e-02,1.027960198999796834e-02,7.891810762844841953e-03,3.628073780526675299e-03,6.254849443518109564e-02,6.311148725524383385e-02,7.916248870585335454e-03,5.673623326982939197e-02
9.450444925656469042e-02,2.531516481258183279e-02,1.556302504515690369e-02,5.383663049333635604e-03,5.999846782927903584e-03,7.134285000081958504e-03,6.962232491167033577e-02,1.022220487159973823e-01,8.345040800968062458e-03,6.289350918221633946e-02
1.040871417117915365e-01,3.760164297683517287e-02,1.586270123768112814e-02,1.024172797528727146e-04,2.460538956869558376e-03,6.871277768758388832e-03,7.711471873043156122e-02,1.270213090977346804e-01,4.310483031166136882e-03,5.929151339314171071e-02
9.473731344733382631e-02,5.018001541511471486e-02,1.582994184536322402e-02,3.564675373583102609e-04,2.506425134983912995e-03,7.488200234231018673e-03,8.745783760994207956e-02,1.336916309269917114e-01,6.135357169438814462e-04,4.949204438137198153e-02
7.304280364393779534e-02,6.066469717830204333e-02,1.649763233093961765e-02,7.346950463197984837e-03,6.348696885860339971e-03,1.162133978272752999e-02,9.479311952522866125e-02,1.238121474847734410e-01,2.429553202205838539e-03,3.895581406095771637e-02
4.863854946161424303e-02,6.546723154381871301e-02,1.736601048269890632e-02,1.186436493912615929e-02,7.992031425861346322e-03,1.831669094179119717e-02,9.093365015421146780e-02,1.020983105224965576e-01,7.125337300154694102e-04,3.618079319750717310e-02
2.621197390817567308e-02,6.192219930561197738e-02,1.550455941003055747e-02,6.774055278448015693e-03,8.955345664519451590e-03,2.424229445572121180e-02,7.807984666934068840e-02,7.928818600616734102e-02,1.629770732277176833e-03,4.934903990928835027e-02
8.233052713191905958e-03,5.229123311360207166e-02,1.046024988737716960e-02,2.702765776486619562e-03,1.003505211673778354e-02,2.618911646662382825e-02,6.554951118035200197e-02,6.405041446451145704e-02,2.519353916411059234e-03,6.955550106529093113e-02
3.803760333006285521e-03,4.126612438184140697e-02,6.988299105067531831e-03,6.362435024710984613e-03,1.000799171893698193e-02,2.389916100047598246e-02,5.548121001935427121e-02,5.238708427612907836e-02,2.979764916097844916e-03,7.169711175138120118e-02
8.067225075780927457e-03,3.102735094837090479e-02,8.730239190813532391e-03,3.353084037815374629e-03,8.483027540621745910e-03,2.093454088370486424e-02,4.576120635614933790e-02,3.312930741492954578e-02,4.280139012071901283e-03,4.411655031119133402e-02
1.187540850373074858e-03,2.218233270839260751e-02,1.289248084297674006e-02,2.265657226253043124e-03,7.310262081944294763e-03,2.185432881353659151e-02,4.545259094443333814e-02,1.267345352329230478e-03,5.071010133201113261e-03,4.109032299081634768e-03
1.401347579211965205e-02,1.606624364230140392e-02,1.488024841821478962e-02,8.771823762330641094e-03,7.979705129487873680e-03,2.816295858633625221e-02,6.522237953178700032e-02,4.077383409870678765e-02,3.523764799220444142e-03,2.623447618246249613e-02
2.346135936391265456e-02,1.158994402859520392e-02,1.377723077168709932e-02,1.969130664897520908e-02,9.539680161901150507e-03,3.740989605624762959e-02,8.711418796530345787e-02,8.827847074337996647e-02,8.560458399386362697e-04,4.750038935185651318e-02
1.566164924142621553e-02,3.265662349163218209e-03,1.026540605328202412e-02,2.930082747795086442e-02,1.022215006506040427e-02,4.608924040129992045e-02,7.128035298937336617e-02,1.315097908778151692e-01,4.597282989914439760e-04,7.349212674118250910e-02
4.593634491191069674e-03,1.272897583316996012e-02,3.846980790252146551e-03,3.618889760134746253e-02,9.873312497642719107e-03,5.192176079031254193e-02,8.745753865560318072e-03,1.569625654470427900e-01,3.727523999534853270e-03,1.000538115937632672e-01
2.560400645318042928e-02,3.314136430037567527e-02,5.214944347737994652e-03,4.204575388491021970e-02,9.668571210331058929e-03,5.200883535512686173e-02,5.692784970657135263e-02,1.628009903053833640e-01,8.302450138742849955e-03,1.002819630166109366e-01
4.413060809932135842e-02,5.235064919229084901e-02,1.492700580439359874e-02,4.705663154448917057e-02,9.987322431113811183e-03,4.122093253248662603e-02,7.985816899214361053e-02,1.632976483737771101e-01,1.094454272943135367e-02,5.837275607873252531e-02
6.285563995294118911e-02,6.963246174230493246e-02,2.431185614573412937e-02,4.982198087425523253e-02,9.581896403001922968e-03,1.727549852532232061e-02,6.304086590283738967e-02,1.663540248723582304e-01,1.099840665865724730e-02,4.429947582792640587e-03
7.944255179636701414e-02,8.677277532625997380e-02,3.389915327006465945e-02,5.052833140604642836e-02,7.020189108984004576e-03,1.217381311561017976e-02,4.058439688610209622e-02,1.583878090841119857e-01,1.026185342550540308e-02,5.081583645430876039e-02
8.674875864191662622e-02,9.927290200662132469e-02,4.133594582592155925e-02,5.024998775359994924e-02,2.469447073288843358e-03,3.208668402864229413e-02,2.736660620737751612e-02,1.264285005764454739e-01,1.035261824227613238e-02,6.540190461646631925e-02
8.120100252581588518e-02,9.551524542009437457e-02,3.963428263197246726e-02,4.755758782352081937e-02,2.088131392698032527e-03,3.278882831902435457e-02,1.073349019457912543e-02,8.460205403973429517e-02,1.095115487504074413e-02,5.991410433990045081e-02
6.475211787373633121e-02,6.879605087243793882e-02,2.478833177606214536e-02,3.985562572260598763e-02,4.223366313954085918e-03,1.960396244551593226e-02,1.508386103086355873e-02,5.992597655236886478e-02,1.012169124374415891e-02,4.988036819799572530e-02
4.048195839663243367e-02,2.836396314087753431e-02,3.809983789524044092e-03,2.695055660255154389e-02,3.383869875752486007e-03,7.734481365883874929e-03,3.252332454941842671e-02,5.938524905643345619e-02,6.298982636011536684e-03,3.858494360840534348e-02
1.234610820937949785e-02,6.357167855610463929e-03,1.134826349531647960e-02,9.651145532490003343e-03,2.421511084257452900e-03,6.427328620129767363e-03,2.520480808565809389e-02,6.992885726079343944e-02,6.434043519406408909e-04,2.072230443309012321e-02
1.254470766144224689e-02,2.233904822879561117e-02,1.667541443280525643e-02,1.177532045018291583e-02,4.996328561176262978e-03,1.056886204318233970e-02,3.480988578814423438e-04,8.046501215708308508e-02,2.923310678299632752e-03,5.078495739219667827e-03
2.787080721456440188e-02,2.064604435614282238e-02,1.596974003115284729e-02,3.386887517121257851e-02,1.057670688361416270e-02,1.057994149577632867e-02,2.273478046402343036e-02,8.222731070927073727e-02,1.398841147479052902e-03,2.997215277753605134e-02
3.342670190017264786e-02,1.111361830237478192e-02,1.198793150670973869e-02,4.925881041977615837e-02,1.484785792582311512e-02,5.854585902563566244e-03,3.409095277871215801e-02,6.122779849555636672e-02,3.350762190183355794e-03,4.316843072295727807e-02
3.238027240877619506e-02,4.620827546922086707e-03,6.647432231780806347e-03,5.318780177660069330e-02,1.553241622665076094e-02,2.043905527177188996e-03,3.679420076363718040e-02,1.557426508821300841e-02,5.916337171860834403e-03,4.413127264388568005e-02
2.601877362939587074e-02,7.177809146627727593e-03,4.631401788159668007e-03,4.750549676769330598e-02,1.387355991211464482e-02,6.482562885315977519e-04,3.745347992145382082e-02,3.031217209298861515e-02,3.478653090080023255e-03,3.986920213845427524e-02
1.525002022907963328e-02,1.600062362145356770e-02,7.657639688626705944e-03,3.786718989791279522e-02,1.070044827273233974e-02,9.138137582442255186e-04,3.536764334477152799e-02,4.905591810335732661e-02,1.097557130714559709e-03,3.061300147800356114e-02
4.211209943905375348e-03,2.265952062999345568e-02,1.036757478876250242e-02,3.015061474981960143e-02,5.923218473927417335e-03,7.172725391993481532e-03,2.196496127031504278e-02,4.073670532662666127e-02,3.496740289839123106e-03,8.386014077939200895e-03
1.946756908633563363e-03,2.222601808368299819e-02,8.583574776329636058e-03,2.821319876566508525e-02,1.483557007090050483e-03,2.318955197241404434e-02,5.742331341345940053e-04,2.893549469377775657e-02,3.156890349549875893e-03,2.569895148603680221e-02
1.378225694973936322e-03,1.758194474704459845e-02,6.019906379364088969e-03,3.239161090692092154e-02,3.116232341951419250e-04,4.240735700673337050e-02,3.127255732753193851e-04,3.231139932116937341e-02,2.574159103463795600e-03,5.400568511747384781e-02
4.831610172570987086e-03,1.475097673669724906e-02,7.876419622973232851e-03,4.061212494347910679e-02,2.687069756476827623e-03,5.397063010353189694e-02,4.655044023149046417e-02,4.738758884043259290e-02,3.631594329538192882e-03,6.141914448036021185e-02
1.483675412300575723e-02,1.649969058488733736e-02,1.273889679595669074e-02,5.014566400270916574e-02,6.293426134256729400e-03,5.586860173361089116e-02,1.213614011074950622e-01,6.042652211247287464e-02,6.615971602568620873e-03,5.189485206369304215e-02
2.478553764260057329e-02,2.028105206612893299e-02,1.498503253230462108e-02,5.697597590987896893e-02,8.690625769362702452e-03,5.354504317963241361e-02,1.799354073458404868e-01,6.930739047325351621e-02,1.097447410477082712e-02,3.743967445312871428e-02
2.845258752980382722e-02,2.098267912154875778e-02,1.240241504727914411e-02,5.666110011814617237e-02,8.401206369074792901e-03,4.899703012357301685e-02,2.003896985586496038e-01,8.028251040732428678e-02,1.508590527895247238e-02,2.241708204528639753e-02
2.254233464565184863e-02,1.702129958817221594e-02,8.350555120287652192e-03,4.866347061691376347e-02,5.587084164742133104e-03,4.039728939505732308e-02,1.917755969532135563e-01,8.820306441722773616e-02,1.666862383339945061e-02,7.357726506681798277e-03
1.042275960852719584e-02,1.436980598207291196e-02,7.327850678874823880e-03,3.724165331159724757e-02,2.570918351972621349e-03,2.989646547600985360e-02,1.646095088866813827e-01,8.226025283214796757e-02,1.497444520941055603e-02,3.914258150388423389e-03
2.913081091499049313e-03,2.111596362985935366e-02,1.010801059492751064e-02,2.623478942663331342e-02,1.869156583251971749e-03,2.280600122554351378e-02,1.230807028970973965e-01,6.721754133967808298e-02,1.190899756137833720e-02,9.692254477281121716e-03
1.687099798936127215e-02,3.619216125004874607e-02,1.315560566396406852e-02,1.567779925567753391e-02,3.458335649021126654e-03,2.014528624984414373e-02,7.883924258098069793e-02,5.636633878022730137e-02,1.043011071587481367e-02,1.419311669463476679e-02
3.214955777929517228e-02,4.723242344806467818e-02,1.234047705972686135e-02,4.655327585752379663e-03,5.222654678263757844e-03,1.848674334994095114e-02,4.592845648438525358e-02,5.155236253532775870e-02,1.215251648148130484e-02,2.141568409889388694e-02
4.410744000505554402e-02,4.241578431268507726e-02,6.943400091474384236e-03,5.589810160071043837e-03,5.421374714946452372e-03,1.532408321908440910e-02,2.456517204035318230e-02,4.899770925120032483e-02,1.616533489288632386e-02,3.140184679443044219e-02
4.510838372552115894e-02,2.252363311599116930e-02,5.607988488798276976e-04,1.339576305868257419e-02,3.826645546854390376e-03,1.038442581717109042e-02,7.543758553063077341e-03,5.177965380804697842e-02,1.992934071273930879e-02,4.156291210459847618e-02
3.424008488096747654e-02,2.474860026142027404e-04,7.987933495079181656e-03,1.975056120992086522e-02,1.557149116928894378e-03,4.885667761174619650e-03,3.999479403013343412e-03,6.097274113720429350e-02,2.160713235705792601e-02,4.657501636505615578e-02
1.990973406444420876e-02,1.480082652360319162e-02,1.493950447652942458e-02,2.666236477699765808e-02,3.400154908125716186e-04,2.266241193155712780e-03,7.241111805303256099e-03,6.730753368511138701e-02,2.106018124183419923e-02,4.160053180514185905e-02
1.042067431011253244e-02,2.161021781243302464e-02,2.124200853907315042e-02,3.219372290301839024e-02,8.762133893797914661e-04,5.817986581927033288e-03,1.114611783582789006e-02,6.307265890265675856e-02,1.875580598872903307e-02,2.847003250424377449e-02
5.657546800809707885e-03,2.859069490366746361e-02,2.588015665515151428e-02,3.091089072514150576e-02,1.754077877488031609e-03,1.334319610143793432e-02,2.678533143908520819e-02,5.251372404298684793e-02,1.541179021814590225e-02,1.259667684344994466e-02
1.112085182644825115e-03,3.660216279890440155e-02,2.739731241120162142e-02,2.145907626546048053e-02,1.004599382233365085e-03,1.741627700447658661e-02,4.923668433711631681e-02,4.375398117675474013e-02,1.243184542432596018e-02,5.425089346043984392e-03
3.486433458017304358e-03,3.596528264717705620e-02,2.463480805927305978e-02,9.577163962925627771e-03,1.103657535628762773e-03,1.323949257396124859e-02,6.148985182189087295e-02,3.957141467607082352e-02,1.038586941861431058e-02,2.773256116510739583e-02
4.685960647750801213e-03,2.186030825088226479e-02,1.852597861183912648e-02,1.160051745019687270e-03,2.117707022726484679e-03,3.649965413331253579e-03,5.619093659494234227e-02,4.138696296512368866e-02,7.785416751315393444e-03,4.966914186252387869e-02
2.566594004448426170e-03,5.567515516865543732e-03,1.359383763857362204e-02,2.775860259744024252e-03,9.453527455839517805e-04,5.996369204067938420e-03,4.590984068860353567e-02,5.300922674345545649e-02,3.808446166140119077e-03,5.971923007387984483e-02
1.151291975660328603e-03,2.228531050348146400e-03,1.467252917247697727e-02,2.636490796350759221e-03,2.392565964037427721e-04,1.416693249238616843e-02,4.527981911641129620e-02,7.306512538336749907e-02,6.530564136976665674e-04,5.297594999768222290e-02
1.080030990803862619e-03,1.255335915977185725e-02,2.060572486472836071e-02,1.883772560491895004e-03,9.095154188004537978e-04,2.081619836141511415e-02,4.674142324755948402e-02,8.927435851271256495e-02,3.929987964021528640e-04,4.013429546896298689e-02
2.188573963922421997e-03,2.498450805427334179e-02,2.435252416586698027e-02,8.407186682480707884e-03,3.482062835329246923e-03,2.395956126175522588e-02,3.054285278308726051e-02,8.721852230685123164e-02,1.337769885418300031e-03,3.415458661403578816e-02
1.048639559808748310e-02,3.156940775696553958e-02,2.141656717447242009e-02,1.202235050578649884e-02,4.905284699114091478e-03,2.381197271848436992e-02,5.307854273924475855e-04,6.385681672543321030e-02,3.793251673978438685e-04,3.110181427352928449e-02
1.764841805176129222e-02,3.260876272368627010e-02,1.494174738836880414e-02,1.127215850409545202e-02,4.591744555780876216e-03,2.491206743507982241e-02,1.560750185696289233e-02,2.943363993641141818e-02,2.629168877915184430e-03,1.699040877125916268e-02
1.614369898905131107e-02,2.961198729389376630e-02,1.069117973066768985e-02,1.020940160810383454e-02,3.959796021033487254e-03,2.884808857322820885e-02,8.886348838179746606e-03,3.155119976105265692e-03,5.415221760679421806e-03,8.952060266127236099e-03
7.823094232844749613e-03,2.392360402108269571e-02,1.085234150433633631e-02,1.257820207474354308e-02,3.870413257022867898e-03,3.034290334880768158e-02,1.137850251173994076e-03,2.908334827055674213e-02,6.775612115772444884e-03,3.205598221360435318e-02
3.944087882325195311e-03,1.970783167180768791e-02,1.412723147615536391e-02,1.700734094603730678e-02,3.932500207987917051e-03,2.521977693559174921e-02,5.512792081419933161e-03,5.200397224880543706e-02,7.032898677679365849e-03,4.159343613976377446e-02
1.224374830376948053e-02,1.949094590553549639e-02,1.791487230209569750e-02,1.994908470790303021e-02,3.765954063286666448e-03,1.691615097583296784e-02,7.535501646514153849e-03,7.565048170558241747e-02,6.309672407323604210e-03,3.938462671848051710e-02
2.621805794926024280e-02,1.917185873401291984e-02,1.933099479572614882e-02,2.032781061095563502e-02,3.537640548058497772e-03,1.097138981757958369e-02,5.384140551642253511e-03,9.731919142104498988e-02,5.086812970756975257e-03,2.958760128534203976e-02
3.086804511641863188e-02,1.270390091468004239e-02,1.639575505212233567e-02,1.870045991711852262e-02,3.424206004360333226e-03,8.030278091303928029e-03,2.613355826072871063e-02,1.098929433816295542e-01,5.591693365402200695e-03,1.250415743677311259e-02
1.898001083240126799e-02,1.730379440316748329e-03,8.540630065382848884e-03,1.480136542427181422e-02,3.348421695055298769e-03,6.229484240642106478e-03,4.560546290901786037e-02,1.082352330245766742e-01,9.627841010476695729e-03,8.260817836319326452e-03
1.205094798958708090e-03,2.128361330743880342e-02,3.239815119525631636e-03,8.968290143651084373e-03,3.225010438434681732e-03,5.958261369621105710e-03,6.027873529330921021e-02,9.364371394514163505e-02,1.544401903090226666e-02,2.310113101239624420e-02
1.498884489061095074e-02,3.958576605418082789e-02,1.517231874620152653e-02,3.760541653783246348e-03,3.087283726445229620e-03,8.012476111846612847e-03,5.929650907545478550e-02,7.360392048463620940e-02,1.987498498682787468e-02,2.687591977512019184e-02
1.510532288677242894e-02,4.985753595533488902e-02,2.222919681380581061e-02,1.767509208965937443e-03,2.973757541925337988e-03,1.046355892710344217e-02,3.114619921531167762e-02,5.624044431970674079e-02,2.277135740260110078e-02,2.472798803737907142e-02
5.552719032343627140e-03,5.021427369960829168e-02,2.310021787345322222e-02,3.157467072208006674e-03,2.867547480311436262e-03,1.128271336025866989e-02,1.221879561002950365e-02,4.500290948835460048e-02,2.537054882515620696e-02,2.234328247689502250e-02
4.777852376007429153e-03,4.326736487502785833e-02,2.068786770982909695e-02,6.176883946286974326e-03,2.748771933812791095e-03,1.175064783357254380e-02,4.005649815083099641e-02,4.034183458859320198e-02,2.589647130534695335e-02,1.607550191496498471e-02
8.990461675658803151e-03,3.141959730200014761e-02,1.701086439406001086e-02,8.948935387868110769e-03,2.623570035425599935e-03,1.423494227754567958e-02,3.586460838167506576e-02,4.316339143983980581e-02,2.204227923457979799e-02,2.183656250953829731e-03
5.540697639793092447e-03,1.773582419046039124e-02,1.202371881045668361e-02,1.083421770565656805e-02,2.499950922726985880e-03,1.816708581236198619e-02,9.458780355485940997e-03,5.271363032125166159e-02,1.595144874683556216e-02,3.112464863795021824e-02
1.878059444018309815e-03,8.725437021932536466e-03,7.903957794926615502e-03,1.244245867795156120e-02,2.374055258471359682e-03,2.014283228569969594e-02,2.293837554502611842e-02,6.461017354207981844e-02,1.136171491905699389e-02,5.518436442423078209e-02
9.503375702110692172e-03,9.361007956448230694e-03,8.842131835621380720e-03,1.389250831308882529e-02,2.241359120216311791e-03,1.681360788835939424e-02,5.248792038849849073e-02,7.403164720715522951e-02,8.423769885331893956e-03,5.989817789600015291e-02
1.815324039487355157e-02,1.597091532917244150e-02,1.407795977985583889e-02,1.388597572927913713e-02,2.103047297669112265e-03,7.263346604706061652e-03,7.167970598948575356e-02,7.773452910485943723e-02,5.965376992651197016e-03,5.000015149024553129e-02
2.889252351963648643e-02,1.924131430382752458e-02,1.627266842420941120e-02,1.162467988306052462e-02,1.960793105196734741e-03,5.349720885452162629e-03,7.365471119463500027e-02,7.328307611713952285e-02,4.759448720193825040e-03,4.094466209163857839e-02
3.703276349631580422e-02,1.499428115100121493e-02,1.119139679519060709e-02,8.324605293907520395e-03,1.814193783662608733e-03,1.435165811240679545e-02,6.317515054447690737e-02,6.142770009871405951e-02,4.420307063439045739e-03,3.533007019415786154e-02
3.638779223042347410e-02,7.902092922541743836e-03,4.925205938307463185e-03,5.345563287274210720e-03,1.663346916433590481e-03,1.477615810191014109e-02,5.543702698778401466e-02,4.806902568416792504e-02,2.294294774679986500e-03,2.399227495997753590e-02
2.763824817363687639e-02,3.377151160980924448e-03,6.298324448135792474e-03,2.085271947616057324e-03,1.509068675426093005e-03,9.016450865914705029e-03,5.857620908986203856e-02,3.822596654160054230e-02,1.211440240823495954e-03,6.942036664759792738e-03
1.880242775823426707e-02,1.516420405660761153e-03,1.531312542123653558e-02,2.642561425193438486e-03,1.351302592108102538e-03,4.439534888309341204e-03,6.551169613903047584e-02,2.904425321824709999e-02,2.319650461401767845e-03,6.169993222593278363e-03
1.793452403225897704e-02,1.584261216457370043e-03,2.420593069965462987e-02,8.002675148923254697e-03,1.191115727791766058e-03,4.411824514074950965e-03,6.558311692179095986e-02,1.330944943431390179e-02,1.095726264479349871e-03,1.306262113140697900e-02
2.505557532236779572e-02,4.733822957544666331e-03,2.757852987766060832e-02,1.174894883870714751e-02,1.032288408161365946e-03,5.160585394680372237e-03,5.605870917269770159e-02,1.040338197560799170e-02,1.801080439172472302e-03,1.805625505278535617e-02
3.142272967846213710e-02,8.445670605825836286e-03,2.680472992210555100e-02,1.319890552835997072e-02,8.758118814640145121e-04,2.660629103200153143e-03,3.916091337093691171e-02,3.337540159520063776e-02,4.655546120470794788e-03,2.073807205189846098e-02
2.928087143354380847e-02,6.832209401971617996e-03,2.518687241677872168e-02,1.356258739517854361e-02,7.170987883089797229e-04,2.122863194480275207e-03,1.625145121276811225e-02,4.332421136357066105e-02,4.986333700253733382e-03,2.142234948360104141e-02
2.049932296064227791e-02,2.123318275546916137e-04,2.278250745117344281e-02,1.315292511513191202e-02,5.581456632122497839e-04,6.917974176115705698e-03,8.240205562612717277e-03,3.579397301209005094e-02,1.623666663076226259e-03,2.647084070434636144e-02
1.158076547845857986e-02,4.038966055337539843e-03,1.782550004174715541e-02,1.063693494122205582e-02,4.133234264747536238e-04,1.164028426715186040e-02,2.286810079082207681e-02,1.827806906113808860e-02,1.165040375781200861e-03,3.475120736390396176e-02
4.079462111037716193e-03,2.964224371502605267e-03,1.069184426071073842e-02,5.567172646303030631e-03,2.831702587271280069e-04,1.524231622115611133e-02,1.889077149892151239e-02,2.675240831974007652e-03,8.233939676115879227e-04,3.452422375199754728e-02
3.751497857792807610e-03,2.634896187495784810e-03,2.943758828703608652e-03,5.526521425789094472e-04,1.414055014263852143e-04,1.437008811942135610e-02,3.641040728739668338e-03,4.412306097590367598e-03,6.623116105124570580e-04,2.372203172238925017e-02
9.613950805397309188e-03,9.136487524360236215e-03,5.760521819575952461e-03,6.066532397136174988e-03,9.415520145869738953e-06,8.473447589406067626e-03,3.714654321107748423e-03,3.824390340876792933e-03,1.487919969909406569e-03,1.559010987088641637e-02
9.243116729265313941e-03,2.142918757065108773e-02,1.578341868298981446e-02,1.026182652219408305e-02,1.089010000244211725e-04,1.745529833670719268e-03,7.095888742739085361e-03,3.244069445392228340e-04,2.640020777200653528e-03,1.705538416597134760e-02
4.780749836474613469e-03,3.497810585292556590e-02,2.482423245087477665e-02,1.293506856739872618e-02,1.572211600754494011e-04,2.489719700884996788e-03,2.519565824446403854e-02,4.065324995935868865e-03,5.288795505695974460e-03,1.802314096723682188e-02
4.701010362365618672e-03,4.649826255645873874e-02,3.053342136834866216e-02,1.418003841076430870e-02,2.804737998853450761e-04,5.085011414068956598e-03,3.090147010638794739e-02,3.374168314630304755e-03,8.652747155514306857e-03,9.023907026673112786e-03
1.352628218170428068e-02,5.255040601689425078e-02,3.202334028367957025e-02,1.391284896639653421e-02,4.771075646018091507e-04,7.391790425377867124e-03,1.798189794232663008e-02,3.487761072618227216e-03,1.083756398500369811e-02,2.837779609854355293e-03
2.470262797970013829e-02,4.853555916973138762e-02,2.691865392778175492e-02,1.135348535151733604e-02,4.625018797170588926e-04,8.700261278176708163e-03,1.381123465210378626e-03,8.019363009758532362e-03,1.059871751799753778e-02,4.559423220860091448e-03
2.685447934629489608e-02,3.262649957370891002e-02,1.315340557757118008e-02,6.162169329280439180e-03,2.490192800888379283e-04,8.520068533671803362e-03,1.312663557718156057e-02,7.005870679128569332e-03,8.290158321038897452e-03,2.435217946109524429e-03
1.668828573104381291e-02,8.672269142850559318e-03,5.151450661205236523e-03,1.193165354758121905e-03,7.499936410561211780e-04,7.980749876997325978e-03,1.501445872589051572e-02,4.686884499004668331e-02,5.250498698322686279e-03,3.480551384214532716e-03
2.060627962684660926e-03,1.524599265328833997e-02,2.034917435112573031e-02,1.153231397446715517e-02,2.896335529558570487e-03,8.533670985306850143e-03,9.330113762113083700e-03,9.140759368257894701e-02,2.628839636256010987e-03,8.896860788437876977e-03
8.520879296761610378e-03,2.976773178591739927e-02,2.930277710598477858e-02,2.575664245508294328e-02,5.882299916513192284e-03,1.126618372519842814e-02,8.293647322165278307e-03,1.140552285364884316e-01,1.471896292760028774e-03,2.585631671839251286e-02
1.472237424312908272e-02,2.963410165887963785e-02,3.283604190644241749e-02,3.968014196571371943e-02,7.322590208575086371e-03,1.627524204409492442e-02,3.977341026684672043e-02,1.086782775714060512e-01,2.553662561116034659e-03,3.415965948725420420e-02
2.056589938084051397e-02,2.004331929929834000e-02,3.054032171015829203e-02,4.570658858432979921e-02,5.866642346701646596e-03,2.112693372237204117e-02,7.103629877107506263e-02,8.903977455177262967e-02,4.457321195662979942e-03,2.860473398714246523e-02
2.642819369690779102e-02,1.278486476319499153e-02,2.262986487490428050e-02,4.225365923604251783e-02,2.872208915650925967e-03,2.211746492818276663e-02,8.327670020262611938e-02,7.092146342789877600e-02,4.048010759520664567e-03,1.219897483042566531e-02
2.815474367035069453e-02,1.188364163140333447e-02,1.335211684799593630e-02,3.547043188524357654e-02,7.262502963719060824e-04,1.841644166645227051e-02,7.306948691394969664e-02,6.213463440691028433e-02,8.874789391601458407e-04,8.123851366078259362e-03
2.223354235328672129e-02,9.318810012552629363e-03,6.892342376789261336e-03,2.966647013494843124e-02,2.230919932013111480e-04,1.273489124648210548e-02,4.882277838416829163e-02,6.095222038515148155e-02,1.702908923327989960e-03,2.363931640039956816e-02
1.023224436066154895e-02,1.170368217019138526e-03,2.741258824788129177e-03,2.292399667587648529e-02,4.285693021002944967e-04,7.462568833862425442e-03,1.637933170279973899e-02,5.845431632853447662e-02,1.792493351784102103e-03,2.688612694383229682e-02
2.085738798355298278e-03,1.394823906962727039e-02,1.199470909991681190e-03,1.398141607930222623e-02,4.598797834519931195e-04,2.679873356867874812e-03,1.805248997199955172e-02,4.707594420711840727e-02,1.550259933073848666e-03,1.701736281981469992e-02
1.072822221123985106e-02,1.960322903702276659e-02,3.777222617112679752e-03,6.027456565966805152e-03,3.196770152617225318e-04,2.126799458848395441e-03,4.154910611987081004e-02,2.739997697940081689e-02,2.922394382752475581e-03,1.293518782524603287e-03
1.752936056828512806e-02,1.600339321752061034e-02,2.163677108381739048e-03,1.145343953853775101e-03,2.316728745532015458e-04,7.172438907435520553e-03,4.757645591779078448e-02,4.270730336266095190e-03,4.107956281015907006e-03,1.247292569308966481e-02
2.649388117433542494e-02,7.817211731040820885e-03,3.036319601491605218e-03,2.719895144855021592e-03,1.662454015401245333e-04,1.313753308721655848e-02,4.790018462542831867e-02,1.932732335536400947e-02,2.736025258807979390e-03,2.456772530927058343e-02
3.774117995642715245e-02,1.010255041745988878e-03,6.975030278958924655e-03,7.125325025907647616e-03,1.297272946950742242e-04,2.020369723926176628e-02,5.717823253988666560e-02,4.083298570994196852e-02,1.639276381251155920e-04,3.816871046394473832e-02
4.746933614379249267e-02,4.806093642468571288e-04,5.407769531139160202e-03,1.050171875340191741e-02,1.949796863784540374e-04,2.637127912555171580e-02,7.235783597132276757e-02,5.541673393975295181e-02,1.966686785959135056e-03,4.566578903608405765e-02
5.281855650840773519e-02,3.119488226782094094e-03,1.323185200563142859e-03,1.154686092558058173e-02,1.404135774696042924e-04,2.934552121633512978e-02,7.963994820529220198e-02,6.042342490120258813e-02,2.314254177948882156e-03,3.351166967637718430e-02
5.475105105591136084e-02,8.743786146298539175e-03,1.000742919943786551e-02,1.138655310438222747e-02,2.062691768797262791e-04,2.987961452037913787e-02,7.343484044775558384e-02,6.091672280984960358e-02,2.729537181083801362e-03,5.739706600085724836e-03
5.580360995651878486e-02,1.528305279535404140e-02,1.801314530459676572e-02,1.150895212313262847e-02,2.405518376672696225e-04,2.997284093178819234e-02,5.427593154518053908e-02,6.448245870995919504e-02,3.651862570841416314e-03,1.511484412117757373e-02
5.549374584321861703e-02,2.345386634460248573e-02,2.352454057833697557e-02,1.213333578161856878e-02,7.235371328348133612e-04,2.767550104213356219e-02,1.846166081737373940e-02,6.912237697374198908e-02,3.999893387650959101e-03,2.038183588398675972e-02
4.938816660105153911e-02,3.064458291901673778e-02,2.531817585920228750e-02,1.283212885111580451e-02,1.952700789587511398e-03,1.790084675160796834e-02,3.038998818579858457e-02,6.367823955078011355e-02,3.216886296406079766e-03,2.832702871942174155e-02
3.413944770219364683e-02,3.207116883058078183e-02,2.460980851721649570e-02,1.311731029537908065e-02,1.939696437786665078e-03,1.521249763189734842e-04,6.838615094004169004e-02,4.373782607105974884e-02,2.307387874947459689e-03,5.188544266814247574e-02
1.248374033791093719e-02,2.777657348597222658e-02,2.438308732253275171e-02,1.287264723121273741e-02,6.784701835740663493e-04,1.799661134913665278e-02,7.292781484901129929e-02,1.875318492388670932e-02,2.590551285630308866e-03,7.459139163009070872e-02
8.387353885030156969e-03,2.210918057504153086e-02,2.483643131125371634e-02,1.310926244174604599e-02,3.234679961171337361e-04,2.778420581117811705e-02,5.213758631719637993e-02,2.657944858158540948e-04,3.857573342702438901e-03,7.485421332060741839e-02
2.306737154619407579e-02,1.575770461950690496e-02,2.247463780419925450e-02,1.455888860682454100e-02,3.169942695813027234e-04,2.735579392466926454e-02,3.263757566085190298e-02,1.098771296260475476e-02,4.264156105959617665e-03,5.615712384761416959e-02
3.192088593410851577e-02,4.726499071054009356e-03,1.572704232580058453e-02,1.463306606708386290e-02,1.121662780321022474e-05,2.113367416130893309e-02,2.350243494398404978e-02,1.574845091538197572e-02,2.455592041434312076e-03,3.714556655092603188e-02
3.896616513475020110e-02,1.200221129693336379e-02,8.140409444061344479e-03,9.094942846988229510e-03,2.768668438073089801e-05,1.426219213794649096e-02,1.310256042132892755e-02,1.751676301143849021e-02,5.876023542928075511e-04,2.555774445606970660e-02
4.592076145752975458e-02,2.981537458327092327e-02,3.605173225260429378e-03,1.381530826510021185e-03,9.397957685790310901e-05,9.616819952995112053e-03,1.345056826502792928e-03,2.101549828350366550e-02,2.518410852637295843e-03,1.578401271648319920e-02
5.038456029365744049e-02,4.474499085806627613e-02,1.602087893474383974e-03,1.006242886206402780e-02,7.221665330845482083e-05,7.086681914556077627e-03,4.304935226231884973e-03,2.898349723946240172e-02,2.032634504629173694e-03,2.771153398968454785e-03
5.139190760225004206e-02,5.673970484406938575e-02,2.886756438531356932e-04,1.168778477418933731e-02,1.897365408234276819e-05,4.179836376959261690e-03,1.286413722160254652e-02,3.716183104941610249e-02,3.220919930459882575e-04,1.266085911935048436e-02
5.195454528123204241e-02,6.459397899989353931e-02,1.855955340376292100e-03,7.608453677709240554e-03,4.615831089445216460e-05,8.830575412646401220e-04,3.626273526752906567e-02,3.869750385598966919e-02,3.072631389775058730e-03,2.753106177063112739e-02
5.231746640712618690e-02,6.324620868861077772e-02,9.153508686486565814e-04,2.109337287799534395e-03,4.036883039736323452e-05,7.016013225475221590e-03,4.798037378567363703e-02,3.190168977730954009e-02,4.917349747758125063e-03,3.889215871716260320e-02
4.686465895751465438e-02,5.002937614476649780e-02,2.753556593267350496e-03,2.362985285504533815e-03,6.257865929935158651e-05,1.225581186500289931e-02,4.557208151469254592e-02,2.017664215601339475e-02,5.495283442801735495e-03,4.482012341263161281e-02
3.298100217456904903e-02,3.009727422782546014e-02,6.495681451779112062e-03,5.075532258846594119e-03,9.720624233262371199e-05,1.621141783888244495e-02,3.540134192546948166e-02,7.358096029633501116e-03,5.294763132012898950e-03,4.699761483653920602e-02
1.760700877184014426e-02,1.227567795011955121e-02,8.296764510292696862e-03,6.050307829779428756e-03,1.137847426306159038e-04,1.965123911720798727e-02,2.218653427329359343e-02,2.225253293975375680e-03,4.363882523038739407e-03,5.036635866602962724e-02
9.875681129875732434e-03,1.075328820248681655e-03,9.470436594041403353e-03,6.663014354889876256e-03,1.176208179308137929e-04,2.320419517673240339e-02,1.333140200352305946e-02,1.765780699189197422e-03,1.842062045382719063e-03,5.777657578714495701e-02
1.043838336783720067e-02,6.176494736021292779e-03,1.228937843970175255e-02,8.381249074832711546e-03,1.215848284554670901e-04,2.636101848610150622e-02,1.759615651682762405e-02,1.105859722163068243e-02,2.274547501186852463e-03,6.647711217956424334e-02
1.149212892626250149e-02,1.547569296380717219e-02,1.662900555117669335e-02,1.046321522345293291e-02,1.220991176997799602e-04,2.599387559195519629e-02,3.054113182725632508e-02,2.454758108897666519e-02,6.034952317270558461e-03,7.109825894430889248e-02
5.330059559283541193e-03,2.857840571983552916e-02,2.078236660819780118e-02,1.112097645163630938e-02,1.120832580398380227e-04,1.736430423123073649e-02,3.499098458238786985e-02,2.110071004842853717e-02,7.591921659928289705e-03,6.855874038979331564e-02
9.474841790060601482e-03,3.817818945998945057e-02,2.288223877593232106e-02,1.031277167993075762e-02,9.235107536291380982e-05,1.019631105850320706e-04,2.210535647450555252e-02,3.208822970501417141e-03,7.447292604169888051e-03,5.920031530642015649e-02
2.839220966438313343e-02,3.374843874188425408e-02,1.981769499093693349e-02,9.414927201683100794e-03,6.571629827640866432e-05,1.818355070441944263e-02,3.848285469498519823e-05,3.658003191723050579e-02,7.455811284183226119e-03,4.379550745707224552e-02
4.444490634501399584e-02,1.488390897103725186e-02,9.396184874659301717e-03,9.111250840394890388e-03,3.166568764700992012e-05,2.846901519660275520e-02,1.836298919368841570e-02,6.688541157039851193e-02,8.404786618189946309e-03,2.087046906212621303e-02
5.217231316940228875e-02,5.234441522810000420e-03,4.279361917546282632e-03,9.021418780564295289e-03,1.095394799872575911e-05,2.927736581067169955e-02,2.218201921729423542e-02,8.738236663311314822e-02,9.629588093319301628e-03,9.701758991634636814e-03
5.031503226032244674e-02,1.399784880239013894e-02,1.300023605106838745e-02,8.617928725847309734e-03,6.155664497059490825e-05,2.556230524918682440e-02,1.987423146049466238e-03,8.997229012815184668e-02,1.045858702214092113e-02,3.986858223366497589e-02
4.045821150889067352e-02,1.293681986579658071e-02,1.394262230273206685e-02,7.909129624250573962e-03,1.190300065587480825e-04,2.131050298780818794e-02,3.838511005104863760e-02,6.736843742727897932e-02,1.094126704054252698e-02,5.633636274902877744e-02
2.360436100072049737e-02,1.212482864389952640e-02,1.210193432982136635e-02,7.627274026676556656e-03,1.825675892456417434e-04,1.741094054776817085e-02,7.513575106214909205e-02,2.537865280852287866e-02,1.100912679017168432e-02,5.338659135978596204e-02
1.280265862722575285e-03,1.528147578094746911e-02,1.264962511861861261e-02,8.212630370187583989e-03,2.511814540762718692e-04,1.412238612305449434e-02,8.657244751977553887e-02,1.557075408556569777e-02,9.698128331624974313e-03,3.784080283140149603e-02
2.001275615852028678e-02,1.643229215217789294e-02,1.515470445147626584e-02,8.215696535338068776e-03,3.240060355902790973e-04,1.112334537339205835e-02,7.417975993033917859e-02,3.570657429126176258e-02,5.940386314028287505e-03,2.030550736335641829e-02
3.059591732800010302e-02,8.876721420263208526e-03,1.553170562744356567e-02,5.071883738197655901e-03,4.004830462641725949e-04,6.645397585317050840e-03,5.041553746702589350e-02,3.068472497845391167e-02,2.384302517076535596e-05,6.080018391731568592e-03
2.657820693458583239e-02,6.486929083529498208e-03,1.141190549426842130e-02,2.182931669063140762e-03,4.788286727147333553e-04,2.735613318830367510e-04,2.044956486988003252e-02,1.131243487416206187e-02,6.578934449074529123e-03,5.881367868343199620e-03
1.416415362032995631e-02,2.003820488085390414e-02,5.746553679724864666e-03,1.240325603261839722e-02,5.561101084160502937e-04,8.007312203608682802e-03,1.143695144123975903e-02,7.665828486084101320e-03,1.190662522338307820e-02,1.864328598751332361e-02
2.700845592409083923e-03,2.097903290412751406e-02,4.378685170677993656e-03,2.374602409605774955e-02,6.320732888452504838e-04,1.445561821193139945e-02,3.205264408594027392e-02,1.704615145956054137e-02,1.488618845879509725e-02,3.098026161388303668e-02
4.496988294973626628e-03,9.958290117883641934e-03,8.703045024597382689e-03,3.373318842964384556e-02,7.089853495763062457e-04,1.877804238192206862e-02,3.002876899325245680e-02,1.510365375580488209e-02,1.547542826385878319e-02,3.389809938231710257e-02
9.915021841601177194e-03,1.170613939029857596e-03,1.314862984648135225e-02,3.931900818207594017e-02,7.833402672535072931e-04,1.997999319014216735e-02,9.936666754383345970e-03,4.727155599642737620e-03,1.477572536855388183e-02,1.704507169703827624e-02
1.464400663646667905e-02,5.634041366424961776e-03,1.220009624343655272e-02,3.869010598170847387e-02,8.461672817523631851e-04,1.657690901672492084e-02,1.172659760724995351e-02,9.846483676795797849e-03,1.403090292951064862e-02,1.702378334602275625e-02
1.664064859849851211e-02,1.657138193796769618e-02,7.262674362064928599e-03,3.238535856894858567e-02,9.009528991091405497e-04,8.805198863970801343e-03,2.097671769117232313e-02,2.368727657340655157e-02,1.315577818091836701e-02,4.748432435953830327e-02
1.657967587323694314e-02,1.960697089184882183e-02,3.833754083147505789e-03,2.279898927836609968e-02,9.635023288935877983e-04,7.907483614444659088e-04,1.392182622034549531e-02,2.998021342774420325e-02,1.092336521938309588e-02,5.199596318193326627e-02
1.901160793588265244e-02,1.308303747264682494e-02,4.014102933585846945e-03,1.316533570497384863e-02,1.023696928287938859e-03,9.044167761369594633e-03,5.125350294846355535e-03,2.259798003389228149e-02,6.490778687833902681e-03,3.094664228697139793e-02
2.450770150130359565e-02,7.379279465810580085e-03,5.191766490048026900e-03,5.607027002580538752e-03,1.044885161631400276e-03,1.339448435339125193e-02,2.814546029525690288e-02,3.053478023867645802e-03,1.243343718364650261e-04,7.357060960824760368e-03
2.622184638581028654e-02,6.680078748495668975e-03,5.235157872713992917e-03,3.167495093439110822e-04,1.045631015050195239e-03,1.299369096710370833e-02,4.832149947329080625e-02,1.782979541238557605e-02,6.782717404578713152e-03,1.733789886377131101e-03
1.817594783394074417e-02,4.203489899078393689e-03,5.328015309250195078e-03,5.675631352528414872e-03,1.103194321544027131e-03,9.549488825565234304e-03,6.408720303909809513e-02,2.751081176284610880e-02,1.173153400453560286e-02,3.372217543616908703e-03
2.944477131972308113e-03,3.950727253410275634e-03,6.894668579493223003e-03,9.516676346544000048e-03,1.178925677607687780e-03,5.713570690566958932e-03,7.567031976649080116e-02,2.023188409017398839e-02,1.245141626241572270e-02,8.569792976397365425e-03
1.092685253030363859e-02,1.185384712600125179e-02,8.346337836928435089e-03,1.034685948011070805e-02,1.106020810119790788e-03,3.381088795788861432e-03,7.783319135271155043e-02,1.899440301086659146e-03,9.306177507050868852e-03,8.769774937097969680e-03
1.565915690266769106e-02,1.281907571267113313e-02,6.604672920667666904e-03,9.115456265098988847e-03,9.647213694535425018e-04,4.491167115990526114e-03,6.504104309862138167e-02,1.160435154251249212e-02,5.388594142139878015e-03,7.348029849617125631e-03
9.470412047427384170e-03,7.038495443793843336e-03,1.092601724430543667e-03,8.136586647532913913e-03,1.127687982836522718e-03,9.969267019094570081e-03,4.473340076473001498e-02,1.065442588094850374e-02,3.180646893843362688e-03,2.752469465558681286e-02
7.232486927820837731e-04,1.775619473791627224e-03,5.210717453769832599e-03,8.131513053508565569e-03,1.414612435176079621e-03,1.665707958541980463e-02,3.250838677889728023e-02,7.540273846776210029e-03,2.094579267718182317e-03,3.338152484905761858e-02
4.898977775504857919e-03,1.203213619822397079e-02,9.169376468119438961e-03,8.527953638330934560e-03,7.096420995842459261e-04,2.028344073897362515e-02,3.041978276075413268e-02,2.042279579414037552e-02,4.337455919678608269e-04,3.149257527295278025e-02
1.627259823906270289e-03,2.385128711408601374e-02,1.081446240334240673e-02,9.276651657872251808e-03,1.530891814296872922e-03,2.165031395668810463e-02,2.363651230678777415e-02,4.285184152048547579e-02,1.595038007236405280e-03,3.817764829938743304e-02
1.609817241709693642e-03,3.387437094851510760e-02,1.159842879017021836e-02,1.038421418012677212e-02,3.769217013818822008e-03,2.360255929309788836e-02,3.934174194168763884e-03,5.025800617324056169e-02,2.555407006028357925e-03,4.591376122664149462e-02
1.854320953701825859e-03,3.402462918323286012e-02,1.028564294406225134e-02,1.102584604802064536e-02,3.807019284775906443e-03,2.324244732767004676e-02,1.774651532560013109e-02,3.558461953817254608e-02,2.151746788162985351e-03,3.397477114611148485e-02
4.315370682449311268e-03,2.033278440756201150e-02,3.959794609132351317e-03,1.077167589325162683e-02,1.638610908319236429e-03,1.524642762809845856e-02,2.866823154459655770e-02,1.635534156770645370e-02,9.696397887776430323e-04,3.342882425975142457e-03
9.846685026634471524e-03,1.133604165498110737e-03,6.754972182036876605e-03,1.044423750898779840e-02,5.373361652975649355e-04,2.341086621997291815e-03,2.973954716963880113e-02,6.478292803364796640e-03,9.387531816348367985e-04,2.428018183043617259e-02
1.201362946933882958e-02,1.075638386823889354e-02,1.718893031186553497e-02,1.025919530110861941e-02,1.173844753509259821e-03,5.315916959029776123e-03,2.684732359164795565e-02,9.552050799608122634e-04,3.238487309997940041e-03,3.769425771853582297e-02
1.037889763490048266e-02,1.301605001688147141e-02,2.374047514272576917e-02,8.291685374145239124e-03,8.270541516129941047e-04,2.292170985529346124e-03,2.015739090419004648e-02,9.286651059347022022e-03,4.262552611759905068e-03,4.651094196456247165e-02
1.188069955480035474e-02,1.318248148066018463e-02,2.621116764987884568e-02,2.887087472946306670e-03,6.365480630406148473e-04,5.930737394096659981e-03,8.458704480033264056e-03,2.268923337064112505e-02,2.917380326170385639e-03,6.035665960704918870e-02
1.547303273129526334e-02,1.432610649514083102e-02,2.508855633023101758e-02,3.940178713783278053e-03,7.610445786054199782e-04,1.006448257886284094e-02,5.572321044028526356e-03,3.159337697032604808e-02,8.316401447852536915e-04,7.380144224172170697e-02
1.184921265725585350e-02,1.115640385674156361e-02,1.971784268621819269e-02,7.937230212066059137e-03,7.839551417184120958e-04,6.406563124790467557e-03,1.914944296712979208e-02,3.280213521324651382e-02,4.909576983681354385e-04,7.789621285532190298e-02
2.075166047675554726e-03,1.871628968948933856e-03,1.017721319283232569e-02,7.271347229724000293e-03,6.758624553486556469e-04,2.109719980595752952e-03,3.281159090171096443e-02,3.004426575629976642e-02,1.670119600128348999e-03,7.568768928570593357e-02
7.930758165119672701e-04,5.541943932847227978e-03,4.327967415427889193e-04,3.566896421813043651e-03,7.018305063515211176e-04,1.100308645248803362e-02,4.669586140136171987e-02,2.927251261562098528e-02,1.904442786136537492e-03,7.566702470249764279e-02
6.933218577288687880e-03,3.071716259584585974e-03,7.312030950945679585e-03,9.036124849757238946e-04,7.965024097776840463e-04,1.787560173644728648e-02,5.527102765147422908e-02,3.238079464458818585e-02,4.758713797949413711e-04,7.391524160740302329e-02
1.283365407783558336e-02,7.465333033524812478e-03,8.778944644908314582e-03,4.701098417982470593e-03,6.709573702095760145e-04,2.235896510031908438e-02,5.018525651382019226e-02,3.561002313455551016e-02,5.818851797843741045e-04,5.476956184640253966e-02
7.589185876834265813e-03,1.792832146172911034e-02,8.568703357355409583e-03,6.893209941959514697e-03,5.273657028533721997e-04,2.510035747323473634e-02,3.209909309757515844e-02,3.603236700647330371e-02,1.943944129051833206e-04,1.287320106513528857e-02
2.803763336932684359e-03,2.312450600649684426e-02,1.077853021973722639e-02,7.360861613294638825e-03,8.832146822704345975e-04,2.660231489453077081e-02,1.523450790272432714e-02,3.692880553519897052e-02,3.396635392651902591e-04,3.499031477246706406e-02
7.858594106882145491e-03,2.380264002607407336e-02,1.359140782129760437e-02,6.886286962622093291e-03,1.237470389876318359e-03,2.544384893280860621e-02,1.172992506602137629e-02,4.174749195398583246e-02,2.733493822218907143e-03,6.839979705318566250e-02
4.636733805539148927e-03,2.273889633628341927e-02,1.170324432081716604e-02,6.008896759808778944e-03,6.173629084032998906e-05,1.918740713627490810e-02,1.507413407068882404e-02,4.521888674310857448e-02,5.548813037222046288e-03,8.597887575725844667e-02
3.711655253143567208e-03,2.070201395862554875e-02,4.436053817184593129e-03,4.391417979801461209e-03,3.480192773636159049e-03,9.112349432575862773e-03,9.242217585950084080e-03,3.628471221004425651e-02,5.809509154631045842e-03,9.817612696554363361e-02
1.237040958008428330e-02,1.693475422482328477e-02,2.865024217448929825e-03,1.654734754789741278e-03,6.652797410429824899e-03,1.455553684238785478e-03,8.496174689293339855e-03,9.847947095837219361e-03,3.955164272487004043e-03,1.047255896154480614e-01
1.567969402992186803e-02,1.217739837336160105e-02,5.858197981680377496e-03,1.456338376878004662e-03,6.606229881056011922e-03,9.896507140276617712e-04,2.402841533207800834e-02,2.654178779253565240e-02,3.393318666942928604e-03,9.573625587429467065e-02
1.075667102094620027e-02,8.467094259324691591e-03,4.999042155203286403e-03,2.913661158392978970e-03,3.346898056153537609e-03,5.338727530661044329e-03,2.549739492010531794e-02,5.668873248862823372e-02,5.208625926272841995e-03,7.270942434435243018e-02
1.195718696404545704e-03,5.141709304746587723e-03,1.069273446767261132e-03,1.100202181342550562e-03,1.501284433142378817e-04,8.292181309019966765e-03,1.730761560868344234e-02,6.583133919668814060e-02,5.985600195682919296e-03,5.101386163919126304e-02
7.666525080159076848e-03,1.457546038305663431e-03,7.158622197779553921e-03,2.894516403424226506e-03,1.531259891330473497e-03,7.895855366693479635e-03,1.117090664452652198e-02,5.157803634697072370e-02,2.904123694767038379e-03,3.827822329427853915e-02
1.348453760904680908e-02,1.161011669223156045e-02,1.697275605193505899e-02,6.063973386166207798e-03,1.258451483336354504e-03,8.789745827280145279e-03,1.058020331123092281e-02,3.041687375194818826e-02,1.480359642901862057e-03,2.516456461568778238e-02
1.295196028042505491e-02,1.908777296115904756e-02,1.937843394545021164e-02,7.359871937735765375e-03,9.564937304557985954e-04,1.434727612543330519e-02,1.204129085435930169e-02,2.753861127978809303e-02,3.042376802623379933e-03,4.757712240455761951e-03
2.792635503297594482e-03,1.814965761344369127e-02,8.906787608945278961e-03,8.118907099925848705e-03,1.128484542680786287e-03,1.798688237950656424e-02,1.410983241959951583e-02,4.978551071224582292e-02,2.405619148941004395e-03,1.127008861015463097e-02
1.063716217092302782e-02,1.024566858944335294e-02,8.222968460435844604e-03,7.005926972781505516e-03,1.307668900443245685e-03,8.997573913529573197e-03,1.450692162951700004e-02,7.539872559905817784e-02,3.075127258678836146e-03,8.274501822116215460e-03
1.561179639663686468e-02,2.244918072687397594e-04,2.111585293066244734e-02,8.940347829356036502e-04,1.284098875688808802e-03,1.117393977618023372e-02,7.344989540999344833e-03,8.200165727241771896e-02,5.156232144611208601e-03,7.278251630284342417e-03
1.224312497667377764e-02,9.503512370249468655e-03,2.558214469932492893e-02,1.590405410930524274e-02,1.235538497810141851e-03,2.698194052792435987e-02,4.604929972212835204e-03,7.382988344579004270e-02,5.440873903207325488e-03,1.510414175146073887e-02
1.134358049341252506e-02,1.683809788303066227e-02,2.420056783654790655e-02,2.940669190129787530e-02,1.238845147768694119e-03,2.697685019682042121e-02,6.110514247490363322e-03,6.862290846785408516e-02,2.873430749884242977e-03,9.088826998167383320e-03
