1.454437594569289206e-02,2.281503186185476761e-02,3.685058861171665399e-03,7.552326457702198889e-03,1.828926967914305162e-03,1.400188775297200915e-03,2.293560600687366557e-02,4.769721088578902229e-02,3.288782928847269575e-03,6.977350173940941036e-02
1.396779832135790558e-02,2.754707539588735141e-02,2.213438652823070205e-03,7.473679241820630793e-03,1.734648973839454265e-03,1.366357772035592475e-03,5.416115462991802007e-03,5.193876652872389532e-02,2.052615395908341869e-02,7.475293302542972140e-02
1.259869713991626158e-02,4.395528338611828789e-02,4.930130651417181280e-04,7.347361736157919515e-03,1.631606616545097166e-03,1.330942384531290379e-03,5.690789463091123525e-03,6.488926089423970034e-02,3.524968643735662543e-02,7.470063190078062021e-02
1.015689601857875692e-02,6.896375535562984660e-02,1.049661647405925437e-03,7.174180987529767649e-03,1.522209927007283281e-03,1.295858100752485557e-03,3.553755534984328560e-03,8.043406490085673599e-02,2.970953725514733842e-02,6.995753644338313648e-02
7.782083998174610211e-03,9.462010557406062838e-02,2.437187679513935518e-03,6.954015558929453958e-03,1.408859745829497056e-03,1.262918967656315563e-03,1.743397914230806339e-03,8.603311796052795501e-02,1.051117241673096836e-02,6.509309175808231096e-02
5.556598993417066756e-03,1.213424185768088026e-01,4.554960106405608541e-03,6.687528296117089058e-03,1.293880434729300808e-03,1.233782310243749201e-03,2.732120908200964295e-03,7.250387787808673656e-02,1.473968654469839587e-02,6.151395677957339353e-02
2.232776960669943453e-03,1.444798754153935605e-01,7.628398817783981802e-03,6.378386538614290967e-03,1.179453888472809875e-03,1.209896219852510781e-03,1.563389482569639555e-02,5.002735047111252220e-02,4.153075709793549453e-02,5.621435007683513868e-02
7.093430687307077315e-04,1.421387724000688357e-01,9.727185836570556923e-03,6.029472264067929979e-03,1.067555732729108054e-03,1.192453504161399913e-03,2.549949606756782977e-02,4.665096182258789137e-02,5.677215639348019011e-02,4.803824616138680642e-02
1.287226602474036410e-03,1.043721714451203014e-01,9.423507162424045805e-03,5.637834360877647631e-03,9.598955079533567827e-04,1.182352074703233412e-03,2.675351687589797717e-02,7.703206714512536579e-02,4.746729565219993258e-02,4.009094004874889927e-02
8.911689394199463418e-03,6.144506212773395704e-02,9.334681287303655747e-03,5.202431498214435401e-03,8.578648138337992453e-04,1.180159877287649496e-03,2.157833353529599318e-02,1.183498099923237373e-01,2.361409094136018849e-02,3.469465676706022517e-02
1.565772070394160290e-02,5.367239031134816984e-02,1.303516473735813995e-02,4.734889069622233264e-03,7.624965654223403357e-04,1.186087545090359950e-03,1.053842646434095288e-02,1.339136161438439776e-01,1.138682637893849783e-02,3.026184916309348355e-02
1.496268815466943701e-02,8.557332763040287338e-02,1.930134658009830320e-02,4.243018803040034086e-03,6.744309628853777192e-04,1.199974858998335923e-03,6.728895371339618271e-03,1.137265694490391804e-01,2.257078695087271977e-02,2.445235832022460420e-02
6.900538966935127784e-03,1.338887799674347290e-01,2.432509524648371335e-02,3.707196678109721429e-03,5.938841172253357019e-04,1.221286891811382150e-03,2.413643578493074315e-02,7.400520084856784808e-02,4.786920781796205615e-02,1.684809715482787559e-02
4.451665549183757981e-03,1.833118581010339532e-01,2.803528764422581407e-02,3.114735228715125818e-03,5.206319063851024128e-04,1.249108970085863928e-03,3.283233081625426542e-02,2.943103491745707040e-02,7.587030732993908788e-02,7.691699031411366322e-03
1.541481462549826667e-02,2.302380453595863907e-01,3.235700859497005200e-02,2.511039064995437050e-03,4.540209551684678321e-04,1.282150016167995675e-03,3.105282519074450270e-02,1.068042381173929176e-02,1.015623566077801104e-01,3.121691856812228594e-03
2.306656427610950105e-02,2.689884427642300624e-01,3.548119002694664209e-02,1.927365346129331254e-03,3.929817814029033037e-04,1.318777886850330296e-03,2.397426628707630472e-02,3.280893100416892860e-02,1.228355317964229948e-01,1.510805995312676508e-02
2.649788218263298550e-02,2.987295357806193374e-01,3.494090587944342907e-02,1.269537684769939155e-03,3.360186528368456658e-04,1.357066585426138427e-03,1.594789329278017628e-02,3.324504704171062086e-02,1.433630053700151452e-01,2.628491981515216833e-02
2.793197202937363829e-02,3.289463074539970555e-01,3.386491200633851006e-02,4.692130762624564821e-04,2.812287787133143833e-04,1.394803437542822084e-03,7.313388006412105749e-03,2.890488061077940013e-02,1.679407180855247150e-01,3.313657785081132456e-02
2.805377582045890175e-02,3.566072147863850184e-01,3.586087825405141066e-02,2.743084331586068190e-04,2.264057822258803401e-04,1.429496098265273024e-03,2.775615551376806999e-03,2.819770810491983165e-02,1.821324351802750263e-01,3.282477417377600154e-02
2.330169106175864965e-02,3.564432947701157151e-01,3.653236179557865781e-02,8.105719224770788298e-04,1.691147578898118565e-04,1.458488841742400146e-03,1.315978316775447132e-02,9.237910598688333502e-03,1.588562867436995041e-01,2.748450924724190475e-02
1.328972402971651673e-02,3.158213173725191725e-01,2.966048681253667663e-02,1.568186582810344315e-03,1.066160438044635393e-04,1.479102852630874258e-03,1.952633670849940328e-02,4.205685626719467274e-02,1.049845270656737106e-01,2.467578601727667825e-02
4.914002842680995076e-03,2.513999705690649344e-01,1.840417853011819607e-02,2.906047642056546528e-03,3.587190364648401185e-05,1.488561043491599652e-03,1.567407410349838659e-02,9.226142168445666814e-02,6.793233518627399270e-02,3.089847658692380580e-02
1.602683522589585467e-03,1.606481037715258298e-01,1.009484861263854755e-02,3.859711574829276237e-03,4.609929009727741097e-05,1.483869306080283371e-03,5.910915683528883760e-04,9.616810927882600557e-02,6.285527748879131404e-02,4.530645603828743762e-02
3.810626453414906866e-03,1.787143324235684894e-03,4.027808807424390278e-03,3.070966772001291947e-03,1.420191422870840351e-04,1.462165783427514781e-03,1.958767337725632329e-02,5.715533698937511065e-02,3.361803231130905401e-02,6.065010408851599644e-02
1.587816530881288463e-02,2.424234745340325403e-01,5.457220550765092860e-03,1.383818315379103459e-03,2.548786443156949221e-04,1.421179817636208150e-03,2.393463780908793720e-02,1.411117985405961443e-02,6.518594626183778218e-02,6.969692904356479535e-02
2.428743647949362788e-02,4.596695725440859692e-01,1.738552035406772112e-02,1.518885134335713977e-03,3.881583979739459999e-04,1.358693971956279143e-03,8.642009576774202159e-03,2.028862063671146854e-02,1.849784890885292910e-01,7.166742249811040855e-02
1.658612700743714030e-02,5.319371238289717363e-01,2.361870642929354142e-02,4.472956327940461399e-03,5.444728074121430589e-04,1.271740826608956567e-03,9.154891499614171285e-03,6.556607971192902895e-02,2.377079009705299062e-01,7.298778542182113305e-02
2.410833699476468313e-03,4.579688740667015034e-01,1.851190858280842011e-02,8.192545307865648635e-03,7.248372180003722970e-04,1.157912306492620219e-03,1.038287900299089163e-02,1.177512414057163836e-01,2.037136548530167068e-01,7.951154442549063228e-02
1.550858656756958637e-02,3.416990795951343474e-01,6.718934485449926108e-03,1.029873265091879597e-02,9.313264641311328395e-04,1.017276538934759568e-03,2.134692212608434864e-03,1.344588296947009931e-01,1.331474701291661400e-01,8.898876557242781093e-02
1.547616357374148773e-02,2.530939544021046927e-01,1.786081853075825818e-03,1.038752372936015481e-02,1.168506241212999806e-03,8.497808781237025082e-04,9.449179805503221674e-03,9.776171592203396210e-02,6.483201253634902905e-02,9.609702982769041668e-02
1.271946177622219724e-02,1.725730648057353378e-01,1.343887353817222081e-02,9.505768392191265084e-03,1.437609428996479031e-03,6.512179150767055408e-04,5.041576375491208959e-04,5.581297318582421896e-02,4.277848913327268743e-03,1.030490946938888153e-01
1.913745240186163349e-02,6.865493662068687664e-02,3.472338495624018029e-02,8.896105977530023579e-03,1.733168241411327986e-03,4.187689242146284117e-04,1.785037955275948357e-02,6.817938190251533748e-02,7.686159696013072917e-02,1.173243404497348874e-01
3.295754364739272163e-02,4.148308936777801714e-02,4.745477010540045254e-02,9.467364265400143516e-03,2.055232906960381082e-03,1.598386565249935054e-04,3.057215784460554781e-02,1.333723398926230097e-01,1.288137909039449025e-01,1.394974403106110927e-01
4.499447848013092555e-02,1.312131857702719950e-01,4.185913505732785644e-02,1.135389009203814636e-02,2.416784059775408961e-03,1.195072107084017013e-04,2.734621770274964919e-02,2.034824260081009029e-01,1.419483930795323312e-01,1.618955304052852873e-01
5.240550376465002991e-02,2.061846349356339370e-01,2.519116624047948449e-02,1.338403179054243122e-02,2.817766978261237835e-03,4.336965545968336972e-04,9.077297809011009022e-03,2.525027858773301603e-01,1.375145916404642843e-01,1.795628638491211793e-01
5.792962195497484285e-02,2.713274316954583654e-01,1.064141452220337437e-02,1.364843738602098885e-02,3.228555170188477166e-03,7.934732313264403680e-04,1.272284858032533827e-02,2.970790549111458900e-01,1.506143200150000805e-01,1.938910740676935696e-01
6.171600186421066780e-02,3.018433384357359639e-01,3.448875552075447541e-03,1.166795004138375738e-02,3.644980935080104848e-03,1.164405576842231400e-03,2.543694953273311840e-02,3.559728868686146686e-01,1.820274338318478569e-01,2.048923227546690373e-01
6.296938303580867924e-02,2.864239105666085972e-01,6.862454579279891886e-04,9.708618912581984395e-03,4.125138450423787226e-03,1.517515195076778829e-03,2.767502266967001440e-02,4.159535313098374210e-01,2.027210175808458470e-01,2.093226832680244454e-01
6.463728894871846598e-02,2.625282331262224211e-01,8.039223684499984326e-03,1.049109638485388150e-02,4.672899384322162959e-03,1.919324683898317131e-03,2.880820704880550365e-02,4.479035598290102005e-01,1.995537552489795308e-01,2.082473962367588916e-01
6.857674325834677009e-02,2.711696618707064577e-01,2.153401580293334838e-02,1.378096171126409232e-02,5.156256762908229332e-03,2.426210754893656524e-03,3.510501928386576542e-02,4.466821894496483814e-01,1.866391320559389611e-01,2.084502036644149681e-01
7.074552089926372522e-02,3.058430010946727173e-01,4.051637231867243061e-02,1.725199315361015950e-02,5.553970776011776626e-03,2.889226619974495300e-03,4.149590219617420306e-02,4.368765161128317365e-01,1.763138511204582759e-01,2.149126360093254751e-01
6.759157762103698563e-02,3.336453908273305791e-01,6.024776249261086514e-02,2.049072701097863144e-02,6.139335799080576986e-03,3.174512275130555485e-03,3.857191230576319241e-02,4.344084084777684596e-01,1.710684071041224941e-01,2.265382791710239818e-01
6.238900354712838270e-02,3.319819520988939732e-01,7.226600544048339403e-02,2.503710803824989520e-02,6.964954655227143139e-03,3.591469429934237428e-03,2.362970937953948886e-02,4.232325981169512419e-01,1.777817689961144199e-01,2.369342995243810257e-01
5.956069264573924521e-02,2.771772451241217849e-01,7.105460197130918087e-02,3.002930672843878018e-02,7.404856591669936594e-03,4.446600097969169441e-03,3.193100995707190241e-03,3.849099992301577289e-01,1.909609846246383136e-01,2.367362062003302570e-01
5.777781203831457157e-02,1.401748316284418261e-01,6.089984464756292848e-02,3.168597629866538173e-02,7.034539467645383598e-03,5.016152550723474920e-03,1.161882029185621300e-02,3.338727179596779893e-01,1.662552716390542917e-01,2.214405360423876701e-01
5.445811952775776038e-02,6.328334512735303563e-02,5.261698352583725480e-02,2.887392229579214403e-02,6.565742437355978969e-03,4.055844462542188000e-03,1.048869435373053251e-02,3.050848895971188246e-01,5.858010329016309636e-02,1.984528558312991797e-01
5.200067226509390989e-02,2.483133255820181295e-01,5.359067774160796577e-02,2.562066539197812090e-02,6.628199870692175893e-03,1.850805074131796259e-03,7.711621774454275116e-03,3.176322179411437130e-01,1.067471944214052892e-01,1.782229802925168749e-01
5.317935164310669954e-02,3.319850394971994856e-01,6.184107068534767243e-02,2.526182082831157638e-02,6.327372437690481459e-03,5.614950913552189254e-04,2.769608086779885847e-02,3.631527064472266919e-01,2.461180877066015960e-01,1.585656552567044353e-01
5.432675213737403475e-02,3.180820061117843878e-01,6.838523004301608199e-02,2.539810327215993521e-02,4.879595388282538526e-03,1.775452879175454940e-03,3.080182574044032506e-02,4.145124106589220814e-01,3.095550791777277322e-01,1.251800108918852683e-01
4.901159075838064372e-02,2.839613890033009791e-01,6.598847404465865707e-02,2.295497709377817414e-02,3.856429284455349226e-03,4.631227449696714675e-03,1.962193348815731431e-02,4.310221149083482417e-01,3.200731663007951866e-01,6.698941130478064387e-02
3.675052478302806569e-02,2.909784920772282568e-01,5.674156792070262495e-02,2.096696982824096042e-02,5.418148324333376363e-03,7.033054995118115035e-03,1.191498507389180013e-02,3.793329385049152846e-01,3.180685680221647105e-01,8.160668262895251837e-03
2.434654278481825779e-02,3.247516369298272254e-01,4.820620412474674321e-02,2.357027960306488576e-02,8.447370961731665712e-03,8.033662413711726777e-03,8.006707406708359759e-03,2.751558632439385366e-01,3.073814205208921790e-01,6.807027584011536570e-02
1.768602013053334129e-02,3.268384755633751415e-01,4.111323939839935104e-02,2.646317039688833930e-02,8.479902750294258246e-03,8.280627504648271561e-03,9.365210547154358828e-03,1.753496554510160788e-01,2.678651449030186038e-01,7.949167022959161000e-02
1.399528973631146075e-02,2.797553592580081516e-01,2.819293848489414292e-02,2.115951264271066432e-02,2.624618087458611537e-03,8.547645267000480301e-03,3.966585232383890158e-02,9.931959483533968347e-02,1.978908806306852175e-01,5.141610630336350407e-02
7.908135865412471016e-03,2.297839278830472454e-01,1.066632962137278873e-02,8.440327674972325500e-03,6.057272271921888482e-03,8.892680303545714635e-03,5.904534666150853400e-02,1.123461277063197983e-02,1.276536171993501168e-01,3.475041320787508603e-02
5.194901984552369352e-03,2.025098579876484228e-01,5.350069579175794829e-03,1.677832745431541341e-03,1.100695388057340920e-02,9.299164333881372591e-03,5.483917493526452303e-02,7.869970869527384560e-02,8.820625171578616586e-02,5.678462156296067154e-02
1.738137178738272115e-02,1.573745889578808677e-01,2.088505807243046936e-02,4.613013430564957829e-03,9.615703629541925285e-03,9.890825512776649925e-03,3.913185488759239605e-02,8.847107385768093746e-02,7.886935277945880673e-02,8.229517841033415215e-02
3.797289299606230323e-02,8.667825940732190593e-02,3.475503710716750655e-02,7.397055453179152661e-03,6.037745705893977563e-03,9.939487627131399217e-03,2.543873589965041718e-02,1.362805000348731380e-02,7.922559258825090378e-02,7.247702856362342461e-02
4.053003330071804078e-02,7.171659386614590015e-02,1.528042023713899189e-02,1.755208079737456683e-02,5.529677734107655077e-03,7.844594814985526854e-03,1.352502045376914944e-02,1.095171670168738551e-02,7.868907009934847374e-02,5.329517041883458789e-02
9.556244350231592188e-03,1.454438548369927087e-01,3.407165094255816540e-02,3.174568212852210691e-02,8.225648980060472348e-03,3.231334277426991305e-03,1.331104124386531728e-03,1.044507119784315596e-01,6.964647898464852716e-02,7.316478004533871760e-02
3.980781257409538726e-02,1.983565088385907393e-01,7.301193384609167003e-02,3.910696728826031088e-02,9.963180517686328133e-03,1.713861113396256478e-03,1.881995346589152365e-02,2.714415727379683174e-01,3.041616332078878743e-02,1.135657421871799078e-01
8.047598875732980828e-02,1.299288289827041643e-01,7.224969735028760609e-02,3.400678485349976909e-02,7.948768831485810912e-03,4.404450093097935469e-03,3.486108884055696966e-02,3.697780029578648930e-01,4.492195948802418792e-02,1.138223955714390834e-01
1.011784384726051589e-01,4.678538191863878398e-04,4.720063904150732792e-02,2.289477381727173660e-02,4.174796844961564841e-03,4.764287843023058341e-03,4.695406122463664095e-02,4.139783707565429238e-01,1.089638210726763534e-01,7.943050699882571453e-02
1.087130924937940446e-01,6.776593248884714427e-02,3.498337327966883487e-02,1.684744863372483401e-02,2.857119050931769197e-03,4.307327883998023771e-03,5.824845184964036471e-02,4.773631451449270591e-01,9.975452156981043372e-02,7.952438240982741269e-02
1.105691775341907934e-01,6.689414591597922510e-02,4.825532355319703953e-02,1.829392603457376254e-02,4.817985574352211947e-03,2.993079888889208819e-03,7.343548287774284700e-02,5.421614242586482169e-01,2.497933674893313555e-02,1.276354552061673420e-01
1.053747168315995741e-01,9.596694032673747099e-02,6.540821256878111278e-02,1.915647129944940755e-02,5.912868398003498158e-03,5.247915400308178447e-04,8.730531747394830455e-02,5.251667698214386171e-01,3.287627743653962625e-02,1.593040117289838686e-01
9.058290891010567503e-02,2.086610359838064477e-01,6.361071653729316600e-02,1.328675106208822287e-02,2.334241364778888439e-03,5.390852236930693611e-03,8.542488057401215196e-02,4.049545811456367050e-01,1.437234575447784470e-02,1.476673460602118682e-01
7.120066224094216689e-02,3.279802108765768609e-01,4.660250308981805228e-02,5.504739115248000192e-03,3.950737434759735330e-03,7.900965601398362778e-03,6.396351494115595782e-02,2.437290952513169462e-01,4.521481913406646264e-02,1.449330550083285651e-01
5.492935150273042105e-02,3.334320405269310394e-01,3.495205623342081264e-02,4.573750809206093317e-03,7.481329478544873970e-03,5.780842596061737740e-03,4.055970858398922491e-02,1.018802011101354460e-01,6.747755128003023184e-02,1.828529593840653722e-01
4.283471890400267212e-02,2.159333877898099718e-01,3.899054374223748232e-02,1.123252637721967526e-02,6.390750202131317489e-03,1.530320043423069555e-03,3.582859000101151770e-02,6.649084442835566378e-03,3.119342493455832394e-02,2.216729424442428209e-01
3.145447927356687795e-02,1.006910836017992639e-01,4.971423131817954977e-02,1.792812862540238417e-02,4.444570724967334546e-03,3.343240272492108015e-04,4.972962719516459129e-02,7.904988007239668879e-02,1.154944942669984716e-02,2.216026404990603105e-01
2.044376498928929947e-02,1.024812658644202873e-01,5.244765041200406819e-02,1.809113905768815547e-02,5.659424541538375479e-03,1.514221575620510081e-03,6.413445425646668863e-02,1.034224377736214645e-01,7.862441743637161792e-03,1.873219245353380247e-01
1.141626701344371393e-02,2.031709070722479138e-01,4.004639705640747338e-02,1.129470350535735287e-02,9.351973169561348873e-03,4.756212434067897191e-03,6.595930399420743551e-02,8.805591507631965742e-02,4.210126659535318172e-02,1.325812108854340365e-01
3.841824406882861365e-03,2.930687270658165477e-01,1.288151449884107624e-02,8.587106685479304995e-04,1.177070074834919711e-02,7.508574574108309134e-03,6.143128322121198942e-02,6.666030053535929034e-02,9.892357253336621359e-02,7.038899054750240303e-02
2.230994396792649118e-03,2.918791823448290135e-01,2.133878278161905478e-02,9.148447315918219191e-03,1.125538966823956023e-02,1.025633826558465002e-02,6.334537843571336202e-02,5.581132961777182655e-02,1.183668082792828508e-01,3.392272689186258405e-02
5.328817976346288121e-03,2.053615160126569528e-01,4.385554689622274405e-02,1.480116496495439450e-02,1.020883950072304022e-02,1.332859553616848845e-02,6.661175219394123437e-02,3.398235336819151187e-02,7.728351407188469024e-02,4.910759656608024160e-02
8.487015642314721039e-03,9.608168210387281472e-02,3.659228514878983679e-02,1.405364381409687780e-02,1.171922640286745393e-02,1.479615735496757865e-02,4.985575411277949620e-02,2.291512688544088128e-02,3.037148681116173810e-03,9.858544885184290785e-02
1.815068325180496656e-02,2.761505610005633715e-02,3.948278396766187123e-03,8.411794499326682648e-03,1.494411307364643463e-02,1.221949867760742207e-02,6.368092503442549478e-03,1.045301918245609141e-01,6.491307820876401902e-02,1.464546262641724661e-01
3.119408700530974105e-02,1.860770786357932027e-02,3.210005020733806835e-02,7.490930871545233363e-04,1.491379347782327558e-02,5.319987708460238371e-03,4.403289351677308616e-02,1.860653563020449874e-01,7.148984935766582172e-02,1.749109978504242435e-01
3.021090626944568369e-02,2.198717777591296593e-02,5.905146564380781699e-02,7.796239114675035040e-03,7.661260207107915485e-03,4.077143222185259860e-03,8.165699074877849628e-02,2.681259212526503344e-01,4.808514052985236181e-02,1.852199050218628074e-01
1.482575950339074661e-03,3.899541913976774243e-02,7.714518441337658849e-02,1.630636738200925279e-02,4.779584149981499358e-03,1.371500081591418493e-02,1.059924083813450907e-01,3.605209585665125060e-01,4.913254769305658298e-02,1.912336375326454119e-01
4.629935864604756840e-02,1.881606118071500189e-01,8.200575425779677019e-02,2.221374102799211422e-02,1.578798080115250205e-02,2.138252664127899758e-02,1.221838412564591470e-01,4.485714007611482645e-01,9.927503173153022498e-02,2.104338171683935443e-01
9.164708500191315332e-02,3.677854921791498533e-01,7.092908686375702654e-02,2.526448649927094670e-02,2.100089128652996712e-02,2.484415780743698052e-02,1.301103331046162825e-01,5.262579446000131833e-01,1.822786875277689900e-01,2.449763300800645860e-01
1.238989221954155118e-01,5.119360810506821124e-01,6.136669952759654656e-02,3.040025559767934107e-02,2.214365253174493259e-02,2.340530384695015467e-02,1.332915089404642928e-01,6.329998894961391676e-01,2.668140149454937826e-01,2.791848984267081835e-01
1.448901437500769163e-01,6.077018693576847763e-01,7.333206963610573725e-02,4.126051966281663042e-02,2.324468248108111160e-02,1.955035577867983432e-02,1.394861698823753604e-01,7.911331399490120209e-01,3.235978990437882175e-01,2.906414950466405522e-01
1.537568137951156322e-01,6.607598565002504865e-01,9.561845382723932474e-02,5.293601393544432321e-02,2.537727127896723806e-02,1.721280652416720333e-02,1.467223907236285263e-01,9.281306982750916479e-01,3.339789140300494785e-01,2.584997293411691599e-01
1.471992073503263498e-01,6.553311487755429932e-01,9.923542726647445467e-02,5.682417574357044587e-02,2.678897496869256031e-02,1.793799611765379415e-02,1.436641496961243436e-01,9.376616987395811620e-01,3.001884604336627071e-01,1.878018202831349959e-01
1.309907433955160017e-01,5.796216093856437768e-01,8.212947847654224198e-02,5.139992658673330633e-02,2.610415038914088576e-02,1.968669192222067404e-02,1.266552236632086936e-01,8.221600907890583843e-01,2.409021297222184443e-01,1.243816404196379372e-01
1.141871391978325073e-01,4.541004023514541577e-01,6.894653141577793132e-02,4.249620500659309630e-02,2.342604896575499474e-02,1.932406315087247667e-02,1.031979066027597369e-01,6.984527282000579929e-01,1.717140160737514187e-01,1.052363712300069115e-01
9.467693271864192905e-02,3.174524131816571781e-01,6.788497644965139910e-02,3.387298033636104017e-02,1.938850635603954833e-02,1.564133541274744660e-02,7.757671294976425935e-02,6.373056580413448691e-01,9.687119400504543010e-02,1.063106507925520999e-01
6.541717089419071818e-02,1.989880715551878843e-01,5.966263181500688212e-02,2.399061456090412908e-02,1.451508342508070482e-02,1.037321879802938392e-02,4.749824567888938365e-02,5.734980030843840337e-01,2.048083965394970063e-02,8.888665550107492652e-02
3.110076034316078264e-02,1.043947984718893440e-01,3.113418023527602524e-02,1.260568779432894027e-02,9.456784772396311170e-03,6.789745433421740146e-03,1.938039690168196286e-02,4.137727904895359687e-01,4.166329110281602466e-02,7.056938179577838810e-02
5.625059630531770855e-03,2.935238955524140797e-02,5.224986115085552239e-03,4.479472874680482525e-03,5.561445842412244059e-03,7.050169991524475599e-03,1.250984121864152920e-02,1.694599299416573723e-01,6.901229024352451002e-02,8.659665205815243738e-02
2.843383762467477718e-03,1.081077886013010261e-02,2.770517652073304499e-02,4.100131836554247663e-03,4.638893296264006219e-03,1.057407819823422655e-02,3.621148792991260579e-02,5.486859390956657506e-02,5.933637729644158920e-02,1.127910844559050635e-01
3.950164882703943725e-03,1.151398738196469929e-02,2.584145623764105837e-02,9.961562365514023756e-03,7.065191348346797767e-03,1.481812836538292516e-02,7.184121688189148980e-02,1.630193455802959324e-01,3.765828632825990452e-02,9.630108306252294081e-02
1.779834984862865843e-02,8.457484948316287832e-02,5.825525026394208668e-03,1.603098174692502501e-02,1.006257239614664206e-02,1.758215738683342050e-02,9.042410757031195401e-02,1.459370696233944775e-01,3.289487118585023018e-02,3.197873289611793957e-02
2.509023524572856836e-02,1.364450963910902592e-01,1.401757168978216665e-02,1.710874512660798610e-02,9.271653288690907477e-03,1.829505550490096930e-02,8.117731534769941082e-02,9.199483336675420841e-02,5.229395419770540426e-02,5.054873527423313362e-02
1.266483814119999732e-02,9.006744725797298512e-02,1.542823294295897311e-02,1.154250652893394798e-02,2.918276756420079381e-03,1.691678489174442551e-02,5.223196974877585691e-02,1.113713223447012901e-01,8.522707883516277005e-02,1.352705227669580013e-01
1.928092099719516325e-02,5.435821338364302951e-02,4.379990231061938952e-03,9.782052627286747567e-04,6.047942495622917435e-03,1.297539494098681224e-02,1.536582496520131139e-02,2.217465865812470183e-01,1.192158724681117443e-01,2.009837924475442739e-01
5.309108606070595676e-02,1.947713443599542738e-01,3.025116475069678651e-02,1.022843507523734687e-02,1.255330818510165883e-02,7.011657263379104249e-03,1.661636187483234509e-02,3.282432559826691243e-01,1.427361286975764032e-01,2.022210562796860345e-01
6.844726412158427808e-02,2.135809591573853972e-01,4.578729911151473153e-02,1.739173562432453149e-02,1.416895200243857567e-02,1.125526108261636809e-03,3.063036055831298496e-02,3.416171568874776798e-01,1.461644708111001778e-01,1.281496191013676011e-01
6.139833760482973912e-02,1.102486711280557807e-01,5.010673647178412460e-02,2.003589732754051597e-02,1.291885316987594415e-02,3.693153319368697521e-03,2.670409955618968309e-02,2.812721374864706747e-01,1.337727198017471253e-01,4.229986445969965980e-02
4.445307592243852302e-02,8.499439099461637837e-03,5.399362361788980630e-02,2.212191992360608428e-02,1.213444958535884154e-02,8.258333295868487342e-03,2.044866428655713053e-02,2.248296009698587949e-01,1.258037003593962255e-01,1.356094391427307456e-02
2.953920376056223124e-02,7.179336587371794136e-03,6.250188760652074238e-02,2.542545170734672802e-02,1.226679235666403717e-02,1.176745020424433547e-02,2.170455901417171762e-02,1.988915522140703718e-01,1.370631146577283022e-01,3.861444957642395925e-02
1.907839316117054471e-02,8.277062808378435332e-02,6.808221928734453643e-02,2.561146624519108558e-02,1.081687290966788437e-02,1.166209555373612199e-02,2.293025478681674431e-02,1.760202997751075249e-01,1.602462766121727500e-01,6.781764431535484972e-02
1.291017373925333438e-02,1.652173008298656598e-01,6.154571757374085322e-02,1.839748108983458794e-02,6.174625019231957598e-03,8.550868439086648648e-03,1.712057004511651631e-02,1.472057906084013879e-01,1.770129660672689065e-01,7.689039726711537071e-02
1.318394330979838144e-02,2.338380038145852491e-01,4.463704286633743412e-02,7.405895021941818167e-03,3.872449501079591261e-04,6.733449563131013900e-03,1.302512099666731753e-02,1.358558146529426358e-01,1.767914381794203627e-01,8.189054496686515305e-02
2.011191050784660872e-02,2.957790974547735985e-01,2.879198554702356791e-02,1.443859805736148402e-03,2.492808605997297918e-03,8.230660030531940577e-03,2.246357429287263244e-02,1.537534268034431717e-01,1.595639140487307428e-01,1.033237552215283683e-01
2.953786564801077000e-02,3.341481320442125091e-01,2.364263119307873778e-02,4.367282167301160881e-03,5.357715931206193409e-04,1.045339377185660994e-02,4.237252316829313165e-02,1.852998587172594025e-01,1.301450587658389280e-01,1.404444862859412502e-01
3.597496167190017413e-02,3.280977735194477996e-01,2.918544910555453953e-02,1.149346854357939651e-02,4.117492096539004595e-03,1.079832727503670514e-02,5.800888437832014966e-02,2.065518259246173494e-01,9.777826438265024844e-02,1.744396275437716248e-01
3.590315994664102645e-02,2.854843886490202043e-01,3.728991777077505371e-02,1.629765789256770736e-02,7.628869864992299070e-03,9.848520429812906984e-03,5.911276641894681882e-02,1.986739908721521508e-01,7.365784222751881050e-02,1.841813452648470018e-01
3.027701997383450833e-02,2.215993518769095449e-01,3.862982182736180575e-02,1.720218113659119363e-02,8.313452062943588530e-03,9.200147017208859870e-03,4.786542197434603962e-02,1.572677982280009934e-01,5.928246957355624153e-02,1.634767308579083978e-01
2.474752176212002136e-02,1.422437931030975100e-01,3.090528213836269203e-02,1.696825005947139031e-02,7.457559711886865318e-03,9.028512111754944530e-03,3.380691013657770305e-02,1.038680131328979794e-01,4.529361213101364136e-02,1.295152906651373115e-01
2.398618832359359493e-02,6.958805961872084611e-02,2.193699764924465778e-02,1.818584175845653142e-02,6.799084974162909571e-03,8.739122650497799932e-03,2.517294395204145580e-02,7.603187205260811266e-02,3.135807903744466246e-02,1.089255927449318401e-01
2.641117647085691050e-02,3.824906011203170475e-02,2.087270589082944328e-02,2.092348307287738088e-02,6.604897454056057708e-03,8.252141222607351986e-03,2.491354544233136820e-02,9.553093947028394595e-02,3.223549044489856796e-02,1.125488671036788818e-01
2.871472806334858172e-02,4.370504270320828277e-02,2.635264160579377235e-02,2.365772395168713738e-02,6.350624914924764448e-03,7.838212929705951765e-03,3.089390397074417288e-02,1.520847347068634559e-01,4.970584381082068792e-02,1.297909451265469583e-01
3.246764423486986351e-02,4.035017492392956734e-02,2.895033086381759713e-02,2.510288255005364844e-02,5.921343019843888604e-03,7.536249797221008899e-03,3.663795076447578375e-02,2.167161420462415111e-01,5.802087957822802539e-02,1.457636124443276171e-01
4.010707423426682072e-02,8.532866994759961965e-03,2.441711217802846820e-02,2.498570292100785531e-02,5.547481979221445189e-03,7.218758071853353595e-03,3.520847127877783922e-02,2.624910748810885819e-01,3.794191245424340803e-02,1.545929387225382090e-01
4.863945765600535126e-02,1.832374273128582060e-02,1.798553663852272416e-02,2.374897067844388907e-02,5.282002761881310696e-03,6.864098278431600593e-03,2.747968479672183509e-02,2.796362627979918081e-01,7.913940296732350013e-03,1.574038997050672961e-01
5.457849082889246889e-02,5.908180476833058137e-03,1.644512786673161739e-02,2.204243969339493223e-02,5.015484975687684900e-03,6.529438243682915248e-03,2.394707030848419738e-02,2.818294182968526518e-01,2.573058399057154971e-04,1.570195168278328002e-01
6.048593775344765500e-02,3.909326880538744470e-02,2.170818529054322973e-02,2.035374689777934634e-02,4.718875198261650999e-03,6.223090820621924278e-03,3.388139369474820611e-02,2.925314169391058927e-01,2.113302502934667065e-02,1.567734944585011392e-01
6.894214587031616270e-02,9.029393191404254393e-02,3.123875315967367464e-02,1.882032114625273658e-02,4.439704374262693799e-03,5.915710449561713616e-03,5.445237362541575921e-02,3.197956695960098017e-01,5.294125288123489870e-02,1.588086175804204747e-01
7.474895196605652048e-02,1.338156849309515839e-01,4.052843391442967347e-02,1.735191393636038859e-02,4.188608912516850191e-03,5.600300816692960551e-03,7.185115122468502258e-02,3.498309159734400153e-01,8.252199726756850873e-02,1.598534912019293763e-01
7.134498286590046368e-02,1.674051965821084231e-01,4.579620980407811404e-02,1.589107925160963830e-02,3.939917200423609378e-03,5.287801485671261847e-03,7.186221261254695236e-02,3.632876770221244445e-01,1.077679414834608468e-01,1.514130814089586219e-01
6.147509889040910641e-02,1.901988946233682809e-01,4.638781754763452586e-02,1.447279084351695867e-02,3.684890035276193552e-03,4.979030290088208403e-03,5.214552657306311539e-02,3.508679655120309770e-01,1.248466014246838035e-01,1.290674482937161083e-01
5.426605378568695459e-02,2.036968721840472507e-01,4.410282286415033448e-02,1.312227912278579253e-02,3.431995983939488230e-03,4.666497856763925783e-03,2.660169310088589603e-02,3.187132937409967726e-01,1.254895633433124325e-01,1.005998133015519880e-01
5.401528799933384695e-02,2.076950763257919552e-01,4.029568414385611974e-02,1.182187310733439321e-02,3.182095513262706878e-03,4.347650275063465707e-03,1.362913412664368967e-02,2.832309801187138931e-01,1.050562482575885248e-01,7.938691036788660116e-02
5.666539258819928981e-02,1.929204943176392739e-01,3.464811224782789884e-02,1.055744275898825441e-02,2.928545194975674774e-03,4.024252964619238516e-03,1.802962450533003927e-02,2.536386662725841346e-01,6.632491628806294615e-02,7.039110149880857537e-02
5.540113793530962449e-02,1.540223977308186609e-01,2.622106372325811938e-02,9.334734872418664134e-03,2.668895096437822259e-03,3.696245815102094240e-03,2.920486087768772721e-02,2.236092224027790287e-01,2.026736091418651978e-02,6.828710992800657298e-02
4.708077225349363570e-02,1.078219903444167793e-01,1.518173691838030359e-02,8.158001190825516641e-03,2.404108050144521200e-03,3.362011963527055704e-03,3.683929208192066734e-02,1.907346737458348318e-01,1.432793320158117813e-02,6.771986786291929461e-02
3.437011928349906209e-02,7.951582321901909389e-02,4.018893573592345440e-03,7.022198605458863929e-03,2.133120475821142538e-03,3.021294738444261357e-03,3.935786826430469343e-02,1.701288534511523343e-01,2.168860282498012021e-02,6.787143685872885912e-02
2.253425515812769106e-02,7.126146896754692595e-02,3.681688015520272368e-03,5.923004228808583134e-03,1.855203259871054076e-03,2.675120241024919222e-03,3.609208398964450226e-02,1.698119526822467751e-01,4.290208285958817605e-03,6.675230524537281718e-02
1.437595202234996997e-02,6.149639898521475773e-02,6.518666181427931923e-03,4.860686202596212722e-03,1.572636183485048855e-03,2.324439754199851636e-03,2.346692583744522734e-02,1.682313212901180577e-01,1.932811600891798376e-02,5.887441383990255073e-02
9.052122145186072485e-03,3.664392303488743508e-02,5.654676200780760914e-03,3.835545994596777000e-03,1.285332244703958626e-03,1.970163261895432460e-03,3.596090051125789069e-03,1.402272142216107742e-01,3.400302186503251917e-02,4.180108172534520439e-02
4.935062320457988747e-03,8.478979279312383321e-03,1.491955733299881424e-03,2.846120804979938336e-03,9.892432448851780011e-04,1.613770785502457398e-03,1.340407603426893232e-02,9.413985211760592109e-02,3.887626241877564781e-02,2.026219507430041325e-02
1.858635448234407031e-03,4.717154352087884334e-03,6.034401620453689295e-03,1.891350886889552659e-03,6.880342984635932696e-04,1.257222369869407351e-03,1.924865996564671666e-02,6.090001342275648544e-02,3.752164724906706383e-02,1.605721809168122322e-03
6.752811364051604023e-04,1.100864917974540141e-03,1.231907347218058960e-02,9.714863030116610391e-04,3.947461105379446470e-04,9.026253028025070253e-04,1.257305925656923735e-02,5.562574008410395981e-02,2.510537441920793547e-02,9.747919308470482519e-03
1.648809041265753179e-03,8.690958999523976103e-03,9.114741087109690110e-03,8.710437106746295524e-05,1.066639820640961737e-04,5.523074728576664707e-04,3.494684345041548790e-03,6.922040067730966806e-02,7.233690609219393768e-03,1.351537422919631831e-02
3.737737884829456757e-03,1.634635340630765515e-02,5.084163950396724911e-03,7.613233763510895633e-04,1.980858362572881061e-04,2.088953874336294068e-04,2.020566497584231486e-02,8.695201705811544945e-02,5.721680523261280654e-02,1.275765805899640136e-02
5.362643196320808839e-03,1.650918845138781704e-02,2.040267852869904336e-02,1.572990362925376405e-03,5.070269440957114867e-04,1.250071057327075330e-04,2.471201687434450983e-02,9.533880654490681228e-02,1.087910859468703417e-01,1.201649068032480290e-02
5.183124472921877765e-03,4.167897205929102164e-03,2.593873804621343870e-02,2.346577687592488019e-03,7.652722964260292313e-04,4.469376810066305432e-04,1.276829371657267620e-02,8.041067530110440620e-02,1.468600576526388202e-01,1.405624343016764408e-02
2.266320897427687338e-03,1.731429204261305047e-02,2.113907948886666749e-02,3.080505148971933622e-03,9.898354747733121347e-04,7.540751582054970896e-04,4.096463054789025587e-03,4.002751712477786716e-02,1.675807582691175579e-01,1.807737510333050357e-02
2.710290545395257350e-03,3.520179809014736816e-02,1.316223774308267896e-02,3.773078581916260860e-03,1.289968700095433943e-03,1.043278281315105022e-03,1.121823418550681010e-02,5.199849096025662559e-03,1.707512815668965067e-01,2.197433764614738216e-02
6.310197997865611350e-03,4.282933626040035663e-02,6.891150568229293012e-03,4.422448085404368304e-03,1.623772984128261411e-03,1.312359531590794309e-03,5.746908166842298882e-03,2.773655765591755487e-02,1.515560991048204853e-01,2.602447665962504680e-02
4.986503927720124449e-03,4.655039940744153809e-02,2.243230555279364727e-03,5.026623116781187180e-03,1.745820639495955029e-03,1.560182523694203906e-03,5.850773471034732137e-03,2.078450259060569960e-02,1.113989935605012582e-01,3.260079986066299201e-02
5.591571402706351814e-04,5.279974742546224287e-02,9.052517590985192149e-04,5.583585112854541968e-03,1.721912858472809688e-03,1.784132408432450526e-03,1.825094082637834098e-02,4.165575386175204148e-03,7.257067060709224138e-02,4.190290423393777663e-02
5.862225661605666507e-03,5.916709830964436700e-02,3.135139894841216645e-04,6.091380417657817591e-03,2.113118595913700097e-03,1.980044828098614668e-03,2.826718327083135862e-02,1.427917561064483837e-03,6.298444019391756521e-02,5.039104161162002993e-02
7.560371295684160074e-03,6.128302773363462908e-02,4.888326865022848619e-03,6.548170373123361060e-03,3.040740828849090166e-03,2.147770881026222697e-03,3.033032524085765846e-02,1.530506893963425388e-02,8.091171587786000208e-02,5.458537137049011140e-02
5.762187885029224597e-03,5.875924255478104374e-02,1.086954416360226203e-02,6.952290440754510005e-03,3.633593800593103596e-03,2.291605771897690675e-03,1.967830916817446194e-02,3.277152902179308880e-02,9.518782567263604777e-02,5.444115563919736667e-02
1.922921201187619694e-03,5.319386078792667089e-02,1.242347179955482356e-02,7.302327091995726958e-03,3.252420675384330283e-03,2.408533595326781823e-03,1.633554227495052262e-04,4.991555927337870679e-02,8.822057455844731222e-02,5.244056286514367504e-02
3.215624047363758141e-03,4.785824310922850294e-02,9.302731826490016898e-03,7.597185626276331365e-03,2.534962611721537119e-03,2.487102868903200408e-03,1.673940568691924605e-02,7.474731640575907332e-02,7.503491177692084291e-02,5.137874928498510629e-02
8.700083832083357893e-03,4.779565628424812390e-02,6.393604626325205022e-03,7.836141974936745511e-03,2.350916789958117353e-03,2.532566090685071415e-03,2.222157963153348348e-02,1.061087342291302249e-01,7.140445401564352035e-02,5.311625324905696471e-02
1.247028054192620555e-02,5.384917315763387835e-02,7.235775484855313730e-03,8.018888652418022442e-03,2.577619858306512413e-03,2.569968182208919125e-03,1.690943771272638771e-02,1.307493102116369377e-01,7.078033047209639217e-02,5.744991118913856526e-02
1.389759812489027059e-02,5.974158349695189718e-02,1.032526444826246600e-02,8.145576164512153758e-03,2.652817015708660957e-03,2.590539475933650339e-03,7.799287328212396730e-03,1.431442541893543363e-01,6.437436177535496573e-02,6.190889089929504929e-02
1.607803432531672641e-02,6.019489373128784904e-02,1.237698697875939426e-02,8.216843374059276325e-03,2.509616135711716708e-03,2.543667381915233703e-03,2.575624625134138347e-03,1.503418579424061763e-01,5.860519929951696350e-02,6.399577837995493179e-02
2.207278619960214433e-02,5.768855517259800086e-02,1.245560338355336180e-02,8.233834723157062649e-03,2.392499763517819036e-03,2.451119227071341198e-03,7.061197103568412486e-03,1.563136609041990144e-01,5.927073355096027646e-02,6.372151226950575897e-02
2.896220708664733190e-02,5.711563743082941069e-02,1.203290053856593753e-02,8.198206304020225210e-03,2.342860355111585531e-03,2.427212809276296356e-03,2.148735792334946493e-02,1.544392757198313204e-01,5.721097404864704250e-02,6.305087367928613462e-02
2.966374703838028926e-02,5.859646835437985757e-02,1.256032102921800578e-02,8.112121167127783750e-03,2.251370567807314989e-03,2.435299582999766229e-03,3.635439352763206178e-02,1.376396823648981527e-01,4.149746574895145368e-02,6.352696739803297132e-02
2.241345562514271417e-02,5.931497911237550852e-02,1.372833813435583861e-02,7.978232738665191545e-03,2.100831894921135513e-03,2.235286134251068119e-03,3.891549315335220832e-02,1.135369642997653555e-01,1.674767114811993515e-02,6.586703947721653241e-02
1.518884343990564365e-02,5.846539493353491296e-02,1.413066010267341466e-02,7.799656374023767984e-03,1.945908160138614925e-03,1.898269395645624290e-03,2.746432527756853190e-02,1.074302574713324326e-01,1.720433900829487772e-04,7.046392027386252921e-02
1.716733623125674471e-02,5.716820841639429218e-02,1.343417940511491132e-02,7.579930213307542117e-03,1.800016703016128587e-03,1.990444143586122226e-03,1.260995958323112877e-02,1.391430454926267102e-01,3.629357329827295406e-03,7.565388867539424300e-02
2.763794531032958204e-02,5.590909150765558527e-02,1.280436890268219982e-02,7.322966375195612623e-03,1.643286604641505362e-03,2.637945958916089809e-03,2.259219182963384705e-03,1.935009426097895335e-01,2.029560408559653861e-02,7.718040472062756563e-02
3.760130417066215314e-02,5.429724337812082829e-02,1.300315339501307600e-02,7.032993360262299563e-03,1.473494468216338853e-03,2.974008385791586384e-03,5.798825403576644832e-03,2.294922529506650266e-01,3.143445643776293652e-02,7.281922890828435024e-02
4.063883741822462564e-02,5.221665887827559721e-02,1.348695360468104079e-02,6.714490926891308539e-03,1.302786889486992963e-03,2.363280257070021675e-03,1.321746499099242869e-02,2.232425606806637264e-01,2.656385466800056244e-02,6.591971683872344112e-02
3.734467942775967358e-02,4.996011818648887076e-02,1.362300093389858489e-02,6.372119074055816040e-03,1.137999328436350380e-03,1.446828874009165652e-03,1.320726160781083777e-02,1.879802998309718365e-01,1.103279976407578640e-02,6.123125936387353169e-02
3.125755268437799272e-02,4.769223013268490685e-02,1.351897709862888604e-02,6.010642823914015206e-03,9.821189176820498482e-04,1.097018906001458270e-03,1.844479910662775654e-04,1.521841111448512252e-01,6.387665627551499317e-03,5.910048144189590513e-02
2.615356954774624917e-02,4.537800935447042217e-02,1.345176583515639984e-02,5.634854505002560507e-03,8.342219400762904743e-04,1.193079911161158344e-03,2.166955874874241031e-02,1.316925086528245303e-01,2.361686452612637294e-02,5.622738189281085985e-02
2.563753461645638942e-02,4.303161792868953617e-02,1.337563384223129821e-02,5.249495329397747649e-03,6.878874448547895974e-04,1.173839517673469935e-03,3.923572674296174623e-02,1.228682061558189625e-01,4.005069383103248420e-02,5.039674875718162805e-02
3.025982118682956495e-02,4.075138037468981761e-02,1.316693073008986387e-02,4.859178111121247208e-03,5.507591997790653102e-04,9.727789159785929854e-04,4.501428271975652096e-02,1.145761300357578533e-01,5.049221427000209761e-02,4.300173621892577902e-02
3.604870736215672056e-02,3.860251860157483395e-02,1.285198090979289623e-02,4.468312922280342700e-03,4.477113029915891717e-04,8.340343055019240961e-04,3.936847248617653117e-02,1.031561179709798715e-01,5.076992902115311235e-02,3.762183517956853296e-02
3.880913710622845014e-02,3.659836905601977081e-02,1.247794033966528882e-02,4.081037385527511857e-03,3.698103935148726361e-04,7.976831782101593974e-04,2.902016747968052049e-02,9.254891063536122009e-02,4.547843621505831546e-02,3.590137748726405370e-02
3.811894809174200954e-02,3.475439903719462764e-02,1.202258205642377925e-02,3.701153190169573660e-03,2.662676714267589082e-04,7.521587425820588360e-04,2.315404357784350137e-02,8.248924586739578291e-02,4.435766586257332972e-02,3.505133854564185247e-02
3.545473832352678822e-02,3.309730294867691686e-02,1.149437264113175282e-02,3.332070271767360696e-03,1.574723237493989522e-04,6.777186733277942420e-04,2.697986275384978150e-02,6.826812273604412895e-02,5.074730559268683661e-02,3.125317508127051225e-02
3.072540953516946990e-02,3.163977099114301250e-02,1.093852186630259009e-02,2.976759900320147256e-03,1.551989078043740995e-04,6.262436033628093280e-04,3.692389974110239087e-02,5.419756420746028175e-02,5.669494528219817114e-02,2.526264480443223340e-02
2.279264716616550418e-02,3.037617886348748658e-02,1.030228937982587134e-02,2.637717697047914974e-03,2.197172488018261710e-04,6.070008005054209656e-04,4.467062947020910418e-02,5.471939160275035574e-02,5.186323208889205560e-02,2.205835012570549203e-02
1.287720925989920689e-02,2.929490379492999397e-02,9.508154018726421020e-03,2.316937357187560595e-03,1.073990069530091247e-04,5.946767878556714730e-04,4.540488750895398801e-02,7.636449084839669332e-02,3.626852331134623048e-02,2.420206518502656529e-02
5.176703849418992989e-03,2.838132757526102418e-02,8.707620526056988886e-03,2.015895596706835172e-03,1.148219020830942350e-04,5.830069425118598533e-04,3.914406293140366977e-02,1.061107563357265582e-01,1.960605146759956258e-02,2.763673577073553350e-02
1.923209453497152534e-03,2.761319709381421239e-02,8.089274773980461783e-03,1.735548567490830755e-03,1.145538089030738492e-04,5.817272658052584280e-04,2.763820908935967977e-02,1.219217206068027859e-01,8.173026142752053136e-03,2.604424152434428597e-02
3.057420555294078010e-04,2.696047928620121450e-02,7.344855004784177355e-03,1.476339707677885383e-03,9.166709133683961785e-04,5.914901488244084888e-04,1.524163255301796450e-02,1.122101668082478299e-01,8.429350712984495179e-04,1.858096210164027207e-02
4.948006337392660270e-03,2.638904182580766034e-02,6.075390954260169972e-03,1.238218719877590612e-03,1.419601808374551261e-03,6.050579736939711451e-04,8.652869176899034148e-03,8.587144035370906925e-02,1.784347491510660660e-03,1.079210838475979685e-02
7.946144298059613920e-03,2.586242924442498647e-02,4.985287521465240484e-03,1.020671105525409713e-03,9.827297729109751336e-04,6.191427195837548216e-04,9.884186989787194580e-03,6.508089249787576969e-02,2.629231870478997146e-03,7.482317166660003988e-03
2.608568769929368869e-03,2.534193512998786368e-02,5.310344867870703083e-03,8.227574342643342604e-04,2.418741785711556874e-04,6.340747343419089917e-04,1.238435213487860433e-02,6.447342868240560354e-02,7.189209591734996296e-03,7.274775357349671373e-03
9.031282497147703064e-03,2.478761132527419753e-02,6.432337246744029499e-03,6.431612995382782454e-04,6.431966261328039836e-05,6.483390354551285800e-04,7.713480830568853266e-03,7.635507158921342463e-02,1.124389179243848007e-04,5.917554928615523235e-03
1.771854077456361254e-02,2.416010653040755879e-02,6.018541864424950538e-03,4.802447113382420042e-04,3.245035472034067930e-04,6.587490578699318599e-04,5.442361517741359928e-03,8.118128082077391561e-02,1.676175070162791436e-02,2.951395300616981715e-03
1.955024400462406289e-02,2.342205042461451003e-02,3.464251135013070824e-03,3.321095087370719203e-04,4.568466380633183911e-04,6.630923411629977005e-04,1.871850576698623481e-02,7.068417997943625408e-02,2.759132434940251080e-02,1.961630677929079858e-03
1.886015156845742904e-02,2.253897310346762023e-02,8.963567108876404829e-04,1.966632422125455092e-04,3.909076047952086139e-04,6.601599345068440931e-04,2.026433967392991808e-02,5.293354025800381391e-02,2.268909492574079992e-02,4.420571434038743190e-03
1.888202072528925163e-02,2.148031813660274125e-02,9.417380415355138673e-05,7.168788190820647634e-05,3.674774341893276720e-04,6.485760653926083124e-04,7.141825495321885153e-03,3.703159373740177313e-02,8.017093243504355010e-03,6.748788631416335372e-03
1.775026581686424410e-02,2.022052127989666659e-02,2.993389976093927853e-04,4.509034496996385324e-05,4.239384835824133767e-04,6.268357963297816957e-04,9.355977141967203314e-03,2.273567539234048335e-02,5.068884373921365288e-03,5.308478972288084401e-03
1.386790067811869386e-02,1.873985762990088705e-02,8.873911694624028387e-04,1.559316955170892294e-04,4.467318450373984704e-04,5.939189129970294610e-04,1.546691539536207936e-02,5.412593372213773957e-03,1.067169234747876796e-02,1.625324461780357915e-03
8.379508793974045286e-03,1.702503618910222033e-02,1.755140109505518237e-03,2.630159084513425958e-04,4.148637470049203928e-04,5.493231276746824571e-04,8.535487127538331914e-03,1.591821923495419233e-02,1.006211853299542741e-02,5.097659227975559482e-04
2.522768525484009924e-03,1.506965591391104184e-02,2.378221047961988355e-03,3.683790631310694956e-04,3.797247543151853044e-04,4.927888633649768133e-04,5.352186403791654723e-03,3.594757546317561142e-02,8.631924887646417327e-03,1.428690836711183666e-03
2.432945343398921437e-03,1.287451586293797239e-02,2.764508264008464986e-03,4.738557958070427367e-04,3.508541501583933137e-04,4.243034339780245843e-04,1.973159307551633143e-02,4.601296291670174676e-02,1.083605347962585987e-02,4.708915450708714423e-03
4.171409388385238087e-03,1.044771393714327354e-02,3.161512893349482500e-03,5.810282227134883114e-04,3.039536385894932779e-04,3.442829098623133213e-04,2.837158884533058298e-02,4.265998813533683487e-02,1.609992724085255317e-02,1.006258937558427748e-02
2.586709879641664166e-03,7.804531722479902262e-03,3.607385915533145235e-03,6.911827417773533377e-04,2.344802313531321183e-04,2.535626492315355392e-04,2.582071687796021198e-02,3.327442201048209230e-02,2.040505088427375241e-02,1.224329157300738623e-02
1.816305398087899713e-03,4.967137860981673050e-03,3.970528577501324617e-03,8.052756796078239460e-04,1.545446481151544567e-04,1.531967839055832156e-04,1.365257468557972906e-02,2.782227143464101327e-02,2.137673062188988685e-02,8.845334525277814136e-03
