1.150752659481314288e-03,8.742381117810675301e-04,1.915767725451588549e-02,2.424214059480274603e-04,1.123171551259654656e-02,1.649172273678810308e-02,2.362426256109218803e-01,7.219419279392734132e-04,1.233904112702075700e-02,1.119477636368620965e-01
1.290151631203596567e-03,5.851922026535486768e-04,2.024292048015064599e-02,6.703795669456443212e-05,2.025962251565244232e-02,4.517240700101456119e-02,2.630543572493354021e-01,1.649873703125824195e-02,1.230984704857630667e-02,2.158071988498238836e-01
1.119622145430647147e-03,3.442000572594223736e-04,2.539845832807669304e-02,4.106842093380322876e-05,2.316560434355027093e-02,6.125095597435591815e-02,2.032035883261286979e-01,1.876528349220510372e-02,1.256799140317075777e-02,2.269908816190784606e-01
3.994135672086984593e-04,1.557258492034244623e-04,2.938541842003352181e-02,1.200077122878283743e-04,1.989144698063896252e-02,6.222950990707195457e-02,9.291671662569547796e-02,1.955119482249385865e-02,1.270891471689222438e-02,1.664368180689510257e-01
5.776613245765446075e-04,2.250703542223736128e-05,2.762189828499635874e-02,1.950476205170935233e-04,1.389853875964747361e-02,5.368108835827811037e-02,1.902773170903887534e-02,2.528029966584370916e-02,1.037523664219646737e-02,9.051968455848000139e-02
1.597842665501512330e-03,5.451630497743054841e-05,2.172788528273916428e-02,1.551124873087584514e-04,7.676641239047204447e-03,4.053647976773343264e-02,1.081411631818244429e-01,2.784973392048750024e-02,4.450005274780306080e-03,2.804134661718527682e-02
2.594565795203372834e-03,7.622431009196236913e-05,1.452745798026579271e-02,8.413677552208262346e-05,2.686329037851671771e-03,2.674177161400975375e-02,1.691835739152980911e-01,1.891254914387690417e-02,2.635527012400080450e-03,1.832336075611678064e-02
2.855031747324692209e-03,4.539126557262721635e-05,4.423247784639576345e-03,3.111114379293175754e-04,2.741938321050233895e-04,1.791336304779707345e-02,2.008523137830186545e-01,5.935557534975621254e-03,6.965014250329032951e-03,3.835356845143338828e-02
1.644359919539943940e-03,3.327335124721180192e-05,7.362346588030585677e-03,3.609338724011034198e-04,4.478773045615617966e-04,1.768873636116927162e-02,1.948369284673018009e-01,5.321091307503806288e-03,6.829219928065661735e-03,1.327680934185922548e-02
2.399712881353154763e-04,1.533331870488418734e-04,1.123252082051184528e-02,7.129710998916694411e-04,1.496457404030271344e-03,2.369393171342971255e-02,1.327121931048679537e-01,2.258415780825774252e-02,4.326561876747198748e-03,5.626425378687937434e-02
1.212139150521902766e-03,3.069086846238952776e-04,3.145059968550283774e-03,1.749637108191986687e-03,1.843202226035825422e-03,3.038762396292987375e-02,1.068712515991573735e-02,4.673423324249795924e-02,3.333183544293964913e-03,1.398466896925981418e-01
1.035553606170227115e-03,4.845655939876220616e-04,2.245025410738937105e-03,2.119932057805733443e-03,1.311765005536380275e-03,3.348388693398433869e-02,1.300094703938728391e-01,6.280359571006977060e-02,5.305648563667797815e-03,1.965824015450974294e-01
7.177421721965269487e-04,6.751606876331161990e-04,1.295412526042814122e-02,5.552724606243850895e-04,5.422279208644711001e-04,3.121877312623936446e-02,2.269981727057863996e-01,6.399644688261839354e-02,7.809247330406835635e-03,1.975898339764330103e-01
7.779891292035969125e-04,8.666486152481408731e-04,4.398704403053080303e-02,6.370809700241758522e-03,3.738381675250589641e-05,2.539244420990972861e-02,2.593595539400112004e-01,5.319689447509745595e-02,7.869857705488234739e-03,1.404193778123976610e-01
9.125693597050757401e-04,1.047110545694105105e-03,6.612561251168866394e-02,1.219601654412688294e-02,2.184946283221583666e-04,2.082544118480457104e-02,2.604110732842409015e-01,3.894112370632001052e-02,5.144108596478191159e-03,6.241830803058069643e-02
8.975227822845320644e-04,1.203825622324976655e-03,6.235644608165074460e-02,1.522291603871538633e-02,4.258529781988104742e-04,2.046036676649580846e-02,2.660345229844295889e-01,3.016056686293237116e-02,9.740854230967967153e-04,3.239002476254868035e-02
8.464040030080600919e-04,1.321889444257713653e-03,3.774699579951904665e-02,1.573826469049015991e-02,1.661541688215854634e-04,2.343453970135481179e-02,2.836195010936028438e-01,3.071085515978018085e-02,3.525647337539462769e-03,9.665818684163351993e-02
8.365320243080994443e-04,1.387052547968601213e-03,7.696491224638190611e-03,1.522498775706331020e-02,1.513286583331208612e-03,2.986531889004123003e-02,3.133771885231846355e-01,3.801749470179506540e-02,7.478034255919792025e-03,2.259601656464020614e-01
8.551490612609375470e-04,1.389667262160069073e-03,1.679997224121617186e-02,1.364024113148409878e-02,4.471919357730354434e-03,4.120355279013153404e-02,3.523264975656897335e-01,4.726532810868380730e-02,1.009437954138030225e-02,3.353524543252072165e-01
9.248292274918347823e-04,1.319660015394431667e-03,3.092644223952525223e-02,1.014458260960547989e-02,6.496152040757368663e-03,5.333482800070785124e-02,3.666216109668362644e-01,5.571818834737941178e-02,1.059680877806971899e-02,3.576262146829302657e-01
9.670571745102211686e-04,1.158888925902677725e-03,3.297692693450893914e-02,5.129236395428924539e-03,5.312891676912019634e-03,5.731690874785734524e-02,3.118877336844896320e-01,6.325981770341311539e-02,7.375676140200400181e-03,2.858879438181547439e-01
8.392019991577172062e-04,8.925638269819129340e-04,2.512917354014521792e-02,3.720618872724801795e-05,1.572104535420650907e-03,4.972665573990143334e-02,1.919661272610382330e-01,6.927155424114433968e-02,4.524984258732355109e-04,1.581139334040018163e-01
7.528751152549993013e-04,5.266907185391496351e-04,1.412548447539712509e-02,4.414833144366224656e-03,1.664149748637354549e-03,3.556298722379434146e-02,5.301027446248430391e-02,6.894361515670861806e-02,9.620246256391552786e-03,2.175688013705492224e-02
1.072538158141507535e-03,6.488594485592224831e-05,7.343939268920960002e-03,7.501322622830057865e-03,2.600298641668738996e-03,2.060148707195142911e-02,6.995643969273254714e-02,5.609542087748371764e-02,1.499529230596207893e-02,9.150599887822767620e-02
1.309205670970301806e-03,5.288314185704440446e-04,8.353324025539534542e-03,8.852625127371728866e-03,2.334571941081014894e-03,7.115465321333368405e-03,1.543974300297669411e-01,3.173845716456667743e-02,1.633285340989926518e-02,1.737920278785314854e-01
3.230278776846456468e-04,1.280953709624660071e-03,1.680839375393790650e-02,9.014287240200610438e-03,2.588981431916321900e-03,3.816190995984281280e-03,1.720610293307096861e-01,4.664484261285404762e-03,1.776774164685760923e-02,2.279269158491649960e-01
1.722311665996992822e-03,2.127326633120626802e-03,3.044074821552859161e-02,9.968507493247543219e-03,3.374539379317530261e-03,1.122316092132217766e-02,1.283349500978520907e-01,1.809442028177778855e-02,1.943458081779752405e-02,2.480074312208399023e-01
2.959148699594524659e-03,3.015583144533729235e-03,4.615589612071723663e-02,1.329054513150831028e-02,3.596213110868617252e-03,1.563297191859925467e-02,8.799047714086616345e-02,3.481582117219525485e-02,1.477242860277618031e-02,2.276122953241576374e-01
2.415098518788354361e-03,4.081022952281099583e-03,6.150951141134911732e-02,1.816357454000939661e-02,3.084159982165983471e-03,1.913376048746140770e-02,1.064599402117902827e-01,4.437742290854840288e-02,3.602828117766307967e-04,1.864706369207946302e-01
1.456531440213372323e-03,5.432450439981974591e-03,7.514621256189009391e-02,2.161216869599391285e-02,2.951686816589138562e-03,2.346335562466259420e-02,1.592595914746616492e-01,4.729072990629167028e-02,1.840569278270177619e-02,1.580966373464126606e-01
1.483338137213311954e-03,6.770727833503476130e-03,8.305027746435002245e-02,2.046761545439913441e-02,3.872404612106434413e-03,2.826410773240568830e-02,1.807229416207706552e-01,4.890246667422983029e-02,2.556422950476981010e-02,1.463092110993919337e-01
1.814251301987358745e-03,7.836058842667097471e-03,7.676702660145538759e-02,1.413551174926810407e-02,5.085893330526334785e-03,3.201127986277765153e-02,1.464833848810001837e-01,5.226017913752201149e-02,1.821352560348671323e-02,1.318861538016456447e-01
1.151548523679183202e-03,9.243049691769228415e-03,5.245036930336810510e-02,6.257596409510319570e-03,5.676884096175447043e-03,3.473294940029382494e-02,7.744340416474521094e-02,5.233670565632247973e-02,8.497866039444416236e-03,1.198325980856803780e-01
2.114961747054397944e-04,1.156796425051605237e-02,2.189053855413650163e-02,1.959729210201272952e-03,5.840323627287080481e-03,3.785648280334569238e-02,8.958009036209493153e-03,4.540143419593951207e-02,9.361250949336690635e-03,1.287780274561588223e-01
1.001514568517162607e-03,1.338605600472081956e-02,5.252997592803449259e-03,2.559123788449830551e-03,6.218523849062963273e-03,4.080132083312441871e-02,1.004472947768692143e-01,3.715490188665412225e-02,1.843905428861382020e-02,1.394362995462367083e-01
8.980495312504129576e-04,1.253312866038452933e-02,8.324179324429073143e-03,5.029964515288179797e-03,6.814582322658076056e-03,4.058751592172327172e-02,1.613251597127710046e-01,3.491977466859905177e-02,2.276045971211882249e-02,1.145736139747923071e-01
6.239324448586877582e-04,1.014542612900265831e-02,1.519687946928748555e-02,7.128261841955650484e-03,7.224653627279055239e-03,3.699523976219623589e-02,1.465898687816233614e-01,4.035658319663004007e-02,1.668177742482409437e-02,6.876935853422114220e-02
6.236476796516505659e-04,1.040470216495473048e-02,1.031356916189177936e-02,1.008161019075454190e-02,7.504065721016267392e-03,3.547585040675658996e-02,4.087970277489168247e-02,5.367833748009415151e-02,8.015263360895882525e-03,5.740456386254842724e-02
6.815534258366774418e-04,1.491247069660418118e-02,1.407707077795482091e-05,1.501091157732837265e-02,8.109647924955960124e-03,4.027985729309340596e-02,1.206711194100620332e-01,7.270401379165314371e-02,6.724036468785072468e-03,8.800980181670640945e-02
6.095254391778469512e-04,2.051047285995737449e-02,7.033839822917181510e-04,1.939383013328722233e-02,8.897884679282940662e-03,4.613731776780150007e-02,2.531997272122988862e-01,8.437955297647770081e-02,1.401250958184227166e-02,9.950096598298643902e-02
5.391033276138855425e-04,2.389704220428373951e-02,1.072713187084093321e-02,1.943714158834403821e-02,9.037276385142879731e-03,4.393468832849084516e-02,2.724247667614762003e-01,7.296929425475055797e-02,2.423229313053959846e-02,5.287613337117769846e-02
5.463319786969228183e-04,2.500886565629367730e-02,1.049206451144660615e-02,1.509699899793320518e-02,8.587629453461266202e-03,3.468197243502233601e-02,1.811885653688878606e-01,4.261645331140017506e-02,3.345724162754366848e-02,8.446278643802922204e-03
4.920988920850289522e-04,2.484983371334423610e-02,7.388963004360102685e-03,1.036832952346687133e-02,8.924543772469217123e-03,2.872516194689045399e-02,6.893150679723281105e-02,1.721772176291200621e-02,4.268783597824414577e-02,2.753373552914287203e-02
3.671721034514861749e-04,2.342176239202460944e-02,2.890917049127628147e-02,7.910393395936285432e-03,1.027636906712924188e-02,2.933384956847299302e-02,3.412853246346854788e-03,1.182533737099854959e-02,5.215000916757792787e-02,2.175769431519307753e-02
4.108891729714724342e-04,2.058216932872776461e-02,4.355628902448144962e-02,5.491732395640503035e-03,1.062896362545536627e-02,2.729844061746725808e-02,5.913934244280592833e-02,1.694820837452271078e-02,5.568594276493370882e-02,5.073551339553885459e-02
5.872712987668336423e-04,1.618125327419926013e-02,5.439050205387051945e-02,4.515220879921156465e-04,9.090664621543642979e-03,1.658013414635828298e-02,1.162167495936541894e-01,1.623829885161482897e-02,4.602588934539637161e-02,1.159527344785686032e-01
3.715466095175211955e-04,9.692162718864638649e-03,5.730409235424699377e-02,9.158923489344430666e-03,8.157703623687185754e-03,6.165247238311929653e-03,1.183886320351275750e-01,8.051065455016871014e-03,2.715682379570528993e-02,1.416604572666666784e-01
3.909324859949929779e-04,1.834996827258718322e-03,3.832261980389609773e-02,1.574225244047126882e-02,1.006723859008783716e-02,8.126901016172553491e-03,1.823673873648751567e-02,2.947989710051469696e-03,1.587612020001427302e-02,6.707140091861597819e-02
9.248047177130297317e-04,5.076858117086182828e-03,3.365915942830125310e-03,1.707839622686205955e-02,1.310154104568476627e-02,1.972806022469364429e-02,1.200542665899879957e-01,6.037593182144128726e-03,2.239361297599903530e-02,6.774995222052246358e-02
5.424509469706820849e-04,9.730584291222950724e-03,1.617356947903752368e-02,1.574756736090044199e-02,1.434401971688351561e-02,2.790619919466368060e-02,1.831958698181817280e-01,8.677824105024422099e-03,3.057903058092356630e-02,1.577223144903970586e-01
3.297340641326483406e-04,1.209240466723242660e-02,3.777430844611953751e-03,1.649346965139653759e-02,1.409626365216717914e-02,2.895922163651934098e-02,1.621526491551762150e-01,3.315865397830793787e-04,1.311135618814545170e-02,1.540056388640749507e-01
7.392873705086895229e-04,1.087279147863647738e-02,1.945738049727294486e-02,1.945650167610877765e-02,1.438705149934654814e-02,3.091142893639800548e-02,1.458590505125059167e-01,1.622347959825543376e-02,2.873918944383950513e-02,1.063466630466288060e-01
3.091301106198584506e-04,4.811730354435259094e-03,2.804588600902793022e-02,2.001402763087248987e-02,1.455681918771574955e-02,3.537778397467110370e-02,1.478329198668449085e-01,3.181693455559023165e-02,6.163683320826751633e-02,7.067442479458195537e-02
4.921810405340121914e-04,2.875513711519426391e-03,2.518638406181226974e-02,1.631605616485705054e-02,1.190118605193465212e-02,3.206965228544602503e-02,7.301830691796196149e-02,4.761860082791517790e-02,6.582183179016798391e-02,4.441362566837045445e-02
8.603233406881895425e-04,5.819317583793995850e-03,2.637144670761150042e-02,1.286314301721295031e-02,6.414607432692691694e-03,1.716532306919692219e-02,8.636968806754857786e-02,6.705517560255534748e-02,5.796016317584253702e-02,3.109033063362297289e-02
4.640354956372292955e-04,1.481422264630693044e-03,3.035877327879252935e-02,1.345671487096454164e-02,1.735998074246902778e-03,3.528384860675835150e-03,1.747708509761196904e-01,7.779548286550039271e-02,5.573674195787391150e-02,8.171324187933327876e-02
3.030919158776203422e-04,7.390919567771888667e-03,2.593630259799092549e-02,1.501365256904776957e-02,4.419465123395955805e-04,3.446893368455665203e-03,8.579162166069138895e-02,6.554336723268974763e-02,5.009345698472717628e-02,2.024675210243058465e-01
8.367628968153263290e-04,1.834533936041670213e-02,1.805898310922213548e-02,1.379661372204630046e-02,2.550004665077573555e-04,1.068582456200790551e-02,8.403225153657865876e-02,4.030850964149495369e-02,3.193165960026311812e-02,2.924144724557177222e-01
6.421547276692509505e-04,3.042747405544065850e-02,2.838990869870111275e-02,1.391880411981999931e-02,3.147202037995124393e-03,9.856962023967272973e-03,1.876709344478502128e-01,2.570278118725727312e-02,1.902597648892670815e-02,2.543025481254144182e-01
4.127401780778841263e-04,4.023830453313503863e-02,6.589441735930211264e-02,2.200646121868832239e-02,9.815742755125891200e-03,1.479225259665074409e-03,2.167893809723601128e-01,2.713163569280548776e-02,3.172590516893838281e-02,1.217046775874708747e-01
1.510760199043308409e-03,4.369786885821520112e-02,1.088655288551110822e-01,3.482711481807396897e-02,1.471203162957110573e-02,1.056774455051790428e-02,2.460674846074234479e-01,3.133913353314050215e-02,5.927310145268997743e-02,2.319891132636421084e-03
1.457265038034314536e-03,4.157898086046322994e-02,1.258290541957739206e-01,4.036145777396279305e-02,1.431641843545809235e-02,8.309687815044529760e-03,2.869849885454172633e-01,3.201023584397221650e-02,7.253106424240728101e-02,6.418572927638858949e-02
3.179426471188524133e-04,3.777460838787793235e-02,1.087085029370326028e-01,3.294900985592717074e-02,1.090919246462809800e-02,7.611355761873508929e-05,2.966425015707596091e-01,3.509329022343477683e-02,6.108295505609290937e-02,1.184098104786464739e-01
7.013636534671009466e-04,3.313506625283794971e-02,7.787570834067052139e-02,2.079042667389053092e-02,7.962143102481800475e-03,5.137874318530907120e-03,2.646144043505798682e-01,4.134533427367627356e-02,4.232527208785251405e-02,1.898965223778436850e-01
9.525567222893969316e-04,2.546862771553761243e-02,5.863766684813907781e-02,1.469591746989308383e-02,4.542619842462517626e-03,7.380345975549886493e-03,2.087272970648113013e-01,4.278760454519053846e-02,3.792669270055996911e-02,2.621519694375125109e-01
6.129722562622619926e-04,1.468034071617908484e-02,5.777154080213607601e-02,1.479908895681572752e-02,1.358600046638200635e-03,9.997866679517977695e-03,1.346813314204236556e-01,3.830856345006916630e-02,4.946627359038292815e-02,3.070764905350674145e-01
1.676966233160334468e-04,4.583687645174384755e-03,6.091740851795946626e-02,1.410833465238736824e-02,5.820290625909525263e-03,5.935566870987705329e-03,4.978657315434332348e-02,3.847749565569837105e-02,5.864123707942705405e-02,3.181350896497912584e-01
1.184481182913290015e-03,6.243453716890398977e-04,4.984030211653794201e-02,1.071685676227844726e-02,1.810429090147718835e-03,1.719075532037995721e-02,2.296460664946509828e-02,4.982050660853258595e-02,5.104795117227376583e-02,3.149265419866473792e-01
1.961705436334022518e-03,6.900191254113575631e-04,2.074049371963587046e-02,8.393100430555387043e-03,1.009263859562354801e-02,5.467320941875321305e-02,5.915990713245763977e-02,6.270388730485911000e-02,3.254350418046995930e-02,3.080609296074624526e-01
2.253280477623842253e-03,6.355089356339417572e-04,1.344822113206393076e-02,7.461919794783815167e-03,2.070380610830401327e-02,8.167531421483451015e-02,3.646782113259290636e-02,6.213667709107405235e-02,1.551559269095729825e-02,2.665022652246418766e-01
2.052546546735596177e-03,1.053255842469445237e-03,3.532461654060417566e-02,3.896337451756787078e-03,2.398202302691148508e-02,8.180979033729546268e-02,5.445399671353519377e-02,4.743832336621785911e-02,4.198647989047702908e-04,1.628217989660054321e-01
1.263867764796793719e-03,3.454949234200296870e-03,3.655864617842505965e-02,2.553815522513840433e-03,2.271468972355250582e-02,6.579089572698519628e-02,1.745380552473106139e-01,3.257137929795318743e-02,1.751642892679439178e-02,4.359067388412302124e-02
1.315456391256842358e-04,1.051319860013924350e-02,2.078055026114749432e-02,6.699730243759442413e-03,2.094599841444710203e-02,5.288148818125615325e-02,2.372229431968218560e-01,2.706241070030564189e-02,3.392423088420463972e-02,3.090914023895425730e-03
6.033316309994273246e-04,1.833001413156942760e-02,3.203710805215161279e-03,5.867833291415312270e-03,1.851586469125620499e-02,4.760475690810316018e-02,1.797573788783571047e-01,2.616803549922435898e-02,3.920669616379586497e-02,4.490387754092101114e-02
6.118472518583053686e-04,2.104585866366566471e-02,2.483631707280345782e-02,4.290297216518483905e-03,1.490156488453263026e-02,4.398821983267865721e-02,2.871946495252940962e-02,2.189929478712367150e-02,3.071519850546676478e-02,1.180047767828097671e-01
3.617894741904069400e-04,1.900040708156932809e-02,3.145322241496011778e-02,7.541401742677312538e-03,1.184265227658579979e-02,4.045054985973858125e-02,1.328049985890378815e-01,1.396959399150193501e-02,1.462932831753883771e-02,1.487727354572991600e-01
3.017646880131998445e-04,1.686218627625452396e-02,1.713891959942649701e-02,1.639912007418140374e-02,1.046043979322654367e-02,3.957927567443372818e-02,2.562064179256579588e-01,4.777512029696865878e-03,6.408961559311596515e-04,1.466600826084666631e-01
3.528825043643311703e-04,1.563350566982716489e-02,6.482907322628472108e-03,2.757346252084861421e-02,9.861056404586491034e-03,3.964650471969878576e-02,3.509830623434361252e-01,8.694960085443393522e-03,1.034210395660630812e-02,1.570965413365583707e-01
3.201906233165793228e-04,1.147556716922636458e-02,1.878661609931278620e-02,3.613073333658325254e-02,9.013976426213278145e-03,3.577867415671556056e-02,4.313651439974994783e-01,2.933645762549567243e-02,1.437810922338472221e-02,1.898310438703658953e-01
2.345312846206943985e-04,3.823180025578960632e-03,1.249586338863744976e-02,3.668442808630524576e-02,7.740580023731986371e-03,2.776677274778257404e-02,4.822922171487298848e-01,4.903101328587367025e-02,1.254612763472797397e-02,2.204947742810680067e-01
1.878318006946507032e-04,5.763834379425005969e-04,1.928682534765608671e-03,2.826124497928469634e-02,6.489684289608978196e-03,2.019277626537419046e-02,4.759841225137995124e-01,5.253661652523295561e-02,4.017715066090747720e-04,2.270001566969337414e-01
1.678549654915615600e-04,8.188326774812638639e-03,5.469979571224065258e-03,1.800019834199433413e-02,6.187718190667807101e-03,1.582470501641487781e-02,4.101164515081585638e-01,3.443813390213170539e-02,2.434096338852951430e-02,1.962941447411519491e-01
1.330723233487378430e-04,1.849434660018223556e-02,2.138472340501219177e-02,1.318058143216589533e-02,7.108561929491705178e-03,1.488035957176019747e-02,3.348414936524552465e-01,7.122542791042841409e-03,5.253201720584901868e-02,1.288320164541057189e-01
9.105191431258916057e-05,1.715381706512263127e-02,2.900514989554563508e-02,1.142013082725503066e-02,7.876168391118962969e-03,1.907179595777503192e-02,3.151518724121909476e-01,1.016262230592306082e-02,7.129976485600630909e-02,5.288042302658694377e-02
6.205029893956920189e-05,5.609195491745088205e-03,1.934627840914392161e-02,6.808270051262790834e-03,7.200815688425879837e-03,2.856717237827035780e-02,3.478891252558966585e-01,8.284179143173624887e-03,8.160445888924526547e-02,1.568137381175265660e-03
4.164126646217245278e-05,5.245336795377732609e-04,1.174172253260649668e-02,2.046010370424852266e-03,5.993303205678141357e-03,3.628195030014239736e-02,3.610529414478120813e-01,5.877138294875933200e-03,9.516589480701952153e-02,4.772771271167171314e-02
2.226300122474596192e-05,8.817416615470660343e-03,2.511882800156924403e-02,4.612850323475980313e-03,5.891694402532980310e-03,3.402551136315067060e-02,3.206107150418501250e-01,1.941144325204489929e-02,1.116360646389679273e-01,1.177154600382493976e-01
1.149495786520249508e-05,1.786122590614044534e-02,4.518996385556516004e-02,1.397610276270942753e-02,6.489101996486732263e-03,2.381585230871556547e-02,2.857873878201290796e-01,2.680948783912351016e-02,1.121602078991734419e-01,1.904582244949677983e-01
1.153565721011012184e-05,1.586867045751696667e-02,4.207407942746884538e-02,2.210929290286291204e-02,6.003666281579845762e-03,1.437904192684139916e-02,3.121556637674240409e-01,3.024362862644100480e-02,8.258295327196500668e-02,1.965412599221799950e-01
8.948070009029973829e-06,8.322874477588493997e-03,1.359275254389945113e-02,2.469191920359943906e-02,4.061063559960195572e-03,6.772609625157703997e-03,3.408515760114660398e-01,3.120617443302701674e-02,3.663467880697248574e-02,1.152382651647367168e-01
6.809717622909488045e-06,4.983038868376097122e-03,1.133635624498150786e-02,2.437903732862405082e-02,1.846707243250004940e-03,6.022305893759597080e-03,2.687750414683702238e-01,3.061291890785787159e-02,6.468659350090466900e-03,1.757526260737442975e-02
3.355182411698722216e-05,1.727683025057239960e-03,1.080667560521844997e-02,2.498859698893218795e-02,8.451849733084665015e-05,2.309461827512517690e-02,1.209240680496696113e-01,3.283320946619767977e-02,6.434349119326415734e-03,2.253474649673006813e-02
7.967192793011969570e-05,1.097986690289409241e-02,7.453143237376136723e-03,2.805086148361287182e-02,8.611593327342221323e-04,3.126461180031665094e-02,3.559377529407246887e-02,3.992235601593992905e-02,1.588759481869963727e-02,1.498733468270510572e-02
8.364411566294489364e-05,2.761673773507386173e-02,2.466034500251963052e-02,3.338403359342669713e-02,3.712882408290942970e-04,2.264853672193485601e-02,5.528433497800929602e-02,4.742796436163593948e-02,9.859204676850970989e-03,7.703780308621567888e-03
6.437146511503837314e-05,3.229591380476120460e-02,3.961332465154280419e-02,3.996806970090297645e-02,4.201846272969351516e-03,5.543457269412520837e-03,7.066677402434370925e-02,5.317714128408009000e-02,3.902290126466274617e-03,1.830385347793467114e-03
1.544307092598111171e-04,2.393619161697755141e-02,6.880122404044783369e-02,4.741559383122108395e-02,7.285749980478479007e-03,8.293564875770216560e-03,1.199175653428407803e-02,6.136583555009567786e-02,9.358687810150558700e-04,3.150160834568919987e-02
3.230497575089623526e-04,2.005529665157133878e-02,1.190975119017814443e-01,5.616505569400364467e-02,5.218951602653740598e-03,1.558862402989782438e-02,5.476530031423253869e-02,7.388575319478803138e-02,2.632068033539076285e-02,8.641108972979344438e-02
2.437206684030314950e-04,3.187425921934384371e-02,1.741497978175995387e-01,6.491224521138137804e-02,2.094677734701857596e-03,1.488881684259043235e-02,7.591765183289582442e-02,8.859881137294671472e-02,4.726792355584519267e-02,1.273331837369723329e-01
2.734640677590834557e-04,5.108080154461386302e-02,2.145699798797320312e-01,7.114902068602868557e-02,1.083132125000742241e-02,8.152562590996697677e-04,1.107710116159771052e-01,1.054664782604706058e-01,5.056326079688801961e-02,1.375636702973934145e-01
9.115237877925884543e-04,6.578388684294196598e-02,2.342551190342211653e-01,7.534181596907642275e-02,1.830205410066917948e-02,2.555816481826026984e-02,2.165273005518614791e-01,1.221913201089318418e-01,5.025510916840247172e-02,1.266269854553842000e-01
1.161050433839076051e-03,7.482090188676029929e-02,2.291152979367808706e-01,7.817107019440759641e-02,2.447393505342991896e-02,4.890478668443589555e-02,3.407576492561289472e-01,1.290641389278547879e-01,5.916300303169449992e-02,1.064066018570535566e-01
8.159114330116485660e-04,8.093830533577722752e-02,1.932424549828697380e-01,7.215282080069175541e-02,2.898819629518598409e-02,5.358753527415284490e-02,3.973927327658612896e-01,1.207526550798095483e-01,6.491651154701827409e-02,8.753317992485844246e-02
9.891632178965396405e-05,8.355039909215650207e-02,1.339658238333853446e-01,4.557555236429179646e-02,2.988512166167160353e-02,4.322464291002577758e-02,3.771178321762506114e-01,1.075138115753964119e-01,4.615988573278957674e-02,8.284067509875309154e-02
5.261253971752179615e-04,8.369395676985592891e-02,6.723833308765127248e-02,1.829464552158980260e-03,2.576056062979210221e-02,3.582238224755100731e-02,3.204191859739244364e-01,1.053205277355918484e-01,3.451545424591654677e-03,9.028436938661670019e-02
7.324505770024405601e-04,8.275496583771783932e-02,2.421717038233718589e-03,5.590947109798588555e-02,1.727431116785177467e-02,3.922734738314559433e-02,2.370515085583601300e-01,1.163721464995508270e-01,3.778548050176741557e-02,9.186988770951175221e-02
5.982411177897113685e-04,7.276462554142723582e-02,7.394433450753959414e-02,1.011156212743373750e-01,6.728902056008060316e-03,4.297292534796062075e-02,1.201458361487973275e-01,1.198524879358620621e-01,5.364503182456696606e-02,8.650532517099601693e-02
4.812701273621792933e-04,4.407615565905033395e-02,1.297256069148224611e-01,1.271605223492695558e-01,2.353055727617789968e-03,3.746376262785030414e-02,6.727537165060155228e-03,8.493363978300776107e-02,4.346716128675920388e-02,9.822841770679074935e-02
6.534716443493694118e-04,5.831331630111622095e-03,1.500965327622516554e-01,1.274876503779235892e-01,6.639430391712514840e-03,2.946337344986154141e-02,4.298071190647975021e-02,3.690259712553325792e-03,2.593431839447956147e-02,1.427706198121430070e-01
9.179510967361381637e-04,1.748966672483422830e-02,1.417964848264679778e-01,1.049913529814555796e-01,6.002664000753988455e-03,3.076569523851595267e-02,2.289122434476255005e-02,9.183327067942102795e-02,1.944946379544895687e-02,2.068231980420184579e-01
6.908713269831739555e-04,1.228412936338883071e-02,1.304696349064215499e-01,7.603761189907014273e-02,3.654017691193716701e-03,3.874605653219189566e-02,8.831339229780799105e-03,1.598553573148825124e-01,2.761079181025500803e-02,2.553361142574989140e-01
9.611996695147119647e-05,1.242757917560097930e-02,1.269291779768580153e-01,5.648537035540351914e-02,2.160675971583751742e-03,3.818333165432653137e-02,8.022005033152534992e-03,1.898521148776122214e-01,4.141029407641774740e-02,2.512689940165906410e-01
5.608584659231847071e-04,3.628256399503523855e-02,1.176768391070807662e-01,4.678823651523804361e-02,1.453011582708261130e-03,2.140398527378606017e-02,1.034960058319701198e-03,1.960895059646612926e-01,5.159712208182831022e-02,1.904205977970470087e-01
8.156483433697184627e-05,4.242817031276791689e-02,9.392351381496481799e-02,3.964848541499823437e-02,7.586643453276851069e-04,1.200591537622639534e-03,2.687520803939395797e-02,1.811706149779408748e-01,5.609473757768565494e-02,1.177513739082386851e-01
6.942934252910922888e-04,2.699059792382330070e-02,7.457357516791987551e-02,3.541658730629593244e-02,2.786534134448892357e-04,1.361479754468681094e-02,8.330406014546683224e-02,1.348979380509866266e-01,5.953385099073096876e-02,8.134871624722529726e-02
8.867754880194368390e-04,1.327869651998445436e-03,8.239548235423392597e-02,3.989007938935502928e-02,1.691270380314346782e-03,1.394933540898874412e-02,1.176749289732353099e-01,7.093760798838566473e-02,7.144497443975945938e-02,7.467232746786582609e-02
6.315029532739763977e-04,1.740121854380963229e-02,1.049629026795832476e-01,5.317453657721848276e-02,2.000383109433991492e-03,1.692153782602454082e-02,1.138769519973865663e-01,3.296720491280171611e-02,1.020942778096370906e-01,5.456601698831724939e-02
5.373681642645187443e-04,2.256248924974320336e-02,1.008768238861820071e-01,6.865199146592855517e-02,1.088939941265965484e-03,3.337883086700171864e-02,1.136072371197452413e-01,4.470791967245209969e-02,1.509127775278510664e-01,1.148384158731372354e-02
6.536560129782622002e-04,2.449913654920096370e-02,4.709606068806091589e-02,7.769532483068251894e-02,6.528257162220276258e-03,5.224885852388371638e-02,1.496691056975939516e-01,7.652346145804737876e-02,1.947719955389332069e-01,1.423671774389387648e-02
6.319397774732402832e-04,3.568300445946324256e-02,3.087687959845826155e-02,7.274376296737899983e-02,9.314312220014825741e-03,5.242860919016889554e-02,1.945683804718894017e-01,8.637717418528917390e-02,1.966306142225314746e-01,9.512396715189518070e-03
4.712241814087724033e-04,5.013352370574084699e-02,8.150052316136364994e-02,5.290480359309733538e-02,6.329791156366990947e-03,2.996111370955086353e-02,2.111220593889618635e-01,7.255390581461503008e-02,1.416127805012007690e-01,6.333572366822606825e-02
5.203451674364067189e-04,4.833319033499945683e-02,7.986362556664616807e-02,2.741368233985246039e-02,1.739708864233083067e-04,1.216184856304295195e-03,2.189559738115463006e-01,5.856367332935700359e-02,6.617202524710012745e-02,9.800291723931309207e-02
7.371532043721595439e-04,2.510921290027242139e-02,4.970365319848646379e-02,7.480364669727925658e-03,6.514519768961513253e-03,2.000734358919673342e-02,2.568332955007817109e-01,4.995624372518801121e-02,3.282489468377968594e-02,8.236384073900714087e-02
5.204167636979463527e-04,6.613221972189492828e-04,2.837543854090322087e-02,4.427361470273959848e-03,1.148483315825696641e-02,3.543160594717720269e-02,3.045316400730915252e-01,3.709616104657825764e-02,6.471357604301325450e-02,3.061671255457824523e-02
2.731772614713057516e-04,9.637037871863280564e-03,2.763832076841691437e-02,1.324605118548932703e-02,1.482627964820709687e-02,5.095711167738527919e-02,3.082220636126746793e-01,1.915485553655585371e-02,1.199079233928147664e-01,1.310798334360359016e-02
7.760486219526214514e-04,5.198267676752812982e-03,4.016585435571148194e-02,2.329721586299193098e-02,1.543515131719625823e-02,6.472467951902606542e-02,2.787238326941018363e-01,7.775958190923016461e-04,1.407063782710236410e-01,1.940480682436876783e-02
3.207735415556717262e-04,7.534476256762609458e-03,6.000563643555512777e-02,3.620547298916176188e-02,1.324829963755651090e-02,7.114883850160595713e-02,2.921404574764714379e-01,2.332404878906247508e-02,1.108101243891648213e-01,5.942357383123262823e-03
5.021410973192343792e-04,2.604932234818922721e-02,7.756462089228476076e-02,5.155168978930414064e-02,1.035425150370882300e-02,6.906663877115443162e-02,3.712009141611906093e-01,4.010176877575964000e-02,5.377043436082435540e-02,4.418459950549197268e-02
7.721177561025751972e-04,3.924129769232997250e-02,7.568883934149439607e-02,6.428091246936434855e-02,8.396349154954118113e-03,6.192006186875828599e-02,4.356848420739338756e-01,3.748195308979056922e-02,3.255660775745071976e-03,7.975066791213987483e-02
4.915879572818333734e-04,1.297308526112207760e-02,4.876122115800893275e-02,6.696571778939597319e-02,7.285415950296498556e-03,5.406884994185331278e-02,4.069490492871984388e-01,1.963036608994494017e-02,4.681850104254874079e-02,8.967588491761870062e-02
3.256382120854812859e-04,5.297390089202710234e-02,1.164464780265633652e-02,5.950419335062225035e-02,7.942921399635339066e-03,4.889937407924942886e-02,3.030296619770660449e-01,5.945132931900278840e-03,7.214811963926001659e-02,5.384423787751438373e-02
6.143904308927098908e-04,1.145509040273974682e-01,1.589206384175947603e-02,5.108517119113802074e-02,1.255642577504730191e-02,4.728448450481186061e-02,1.993576638372230314e-01,7.259262486633915289e-03,8.123818383816633348e-02,7.959649671336437027e-03
9.154136091649353038e-04,1.347342319320262438e-01,2.028232061515243545e-02,4.880521272495563084e-02,1.921421404703015090e-02,4.487228861086438314e-02,1.410621144986197728e-01,1.880753333979810066e-02,8.634435117437481988e-02,5.008162917232460848e-02
5.557034356102466066e-04,1.241856193891739679e-01,2.108284897437060629e-03,4.939271457971548124e-02,2.026331861083354585e-02,3.337041921834587449e-02,1.171374736132619332e-01,2.872366176404177532e-02,1.009388135290742172e-01,7.039352526534399523e-02
1.969375695253166116e-04,1.139664141721618285e-01,3.484256284720711055e-02,4.517134749872060706e-02,1.074676742880320904e-02,1.084959706565242175e-02,9.927501333160473895e-02,2.917301036260114278e-02,1.209378821197013426e-01,1.107629823896534860e-01
2.829098800187873587e-04,1.114648792744340339e-01,4.975086204444879867e-02,3.457398061152266305e-02,3.729317058488742283e-03,1.061888077634126973e-02,8.218237627222457764e-02,2.900900829880442150e-02,1.262545715067390217e-01,1.672291399008550006e-01
2.575607743512680508e-04,1.034047258253761176e-01,4.152528706783653600e-02,2.402957321731344700e-02,1.233624993687016530e-02,1.724706819411666800e-02,6.189927106410469948e-02,4.623896356048134981e-02,1.087104046815510205e-01,1.699954534783462146e-01
9.666096626213986696e-05,8.360382412742639602e-02,3.394397137579265034e-02,2.047085816887249388e-02,1.146032193271803376e-02,1.282993176396879896e-02,1.093400849378457426e-02,7.353307626267086006e-02,8.555072234954511079e-02,8.829029565504376009e-02
8.781819874598222574e-04,5.857970080173869470e-02,4.124092548153847348e-02,2.422452750636581650e-02,7.480264297539201968e-03,1.449388763304935643e-02,1.918098229801228627e-01,7.123592293658918828e-02,7.589007222213053905e-02,5.026761601049390196e-03
1.048363524126451731e-03,3.525270494024786150e-02,5.003923584567995103e-02,3.083311595014057160e-02,7.097088243803237675e-03,2.962025567706096096e-02,4.460558413002307931e-01,1.826887647839537873e-02,7.962279296634412751e-02,1.758918414858357329e-02
1.635452954795826083e-04,1.475490108709888795e-02,4.464693868395778337e-02,3.673466884311246683e-02,9.632359945430176915e-03,4.864792826396729247e-02,6.572476195371508290e-01,5.041556648886089814e-02,9.021337293883630037e-02,4.932007434367433746e-02
1.349346940330500714e-03,4.905863860633486243e-03,2.009471996340416594e-02,3.767221749603218844e-02,1.094070253257785515e-02,6.119229320671841499e-02,7.501163289508737675e-01,8.420843051061174811e-02,1.080439115287363944e-01,1.140553856738230482e-01
1.467213481021171877e-03,2.405216599660199572e-02,2.639605721719060633e-02,2.601140808951853470e-02,1.081632445662209993e-02,6.777460164844223423e-02,7.478384486234372908e-01,7.658849884445445566e-02,1.266874658085399286e-01,1.181616897987922132e-01
1.087349569684212822e-03,3.975206654140855250e-02,8.462477505664185717e-02,6.392909615630659736e-04,1.217668207178047683e-02,7.241166784201288897e-02,6.946373717088947242e-01,5.835634489108020018e-02,1.252025275286429706e-01,7.255449292863264121e-02
1.068007652459825475e-03,5.014679607690805674e-02,1.253260357000960112e-01,2.388955911621543429e-02,1.438187293577702225e-02,7.281070014887729147e-02,5.933610980120130884e-01,4.666812108286549909e-02,9.142232612532168179e-02,1.940060062811697905e-02
1.420194840482308807e-03,5.677021230679785146e-02,1.374722490209179804e-01,3.240286422630636598e-02,1.227456467035533023e-02,6.318945916571318266e-02,4.501045309580257725e-01,2.740827569966540131e-02,4.220292349919038677e-02,7.979563945079030940e-03
1.561264931308843553e-03,5.916799719995550350e-02,1.499007567660979867e-01,3.142517449040890115e-02,3.565331644773155582e-03,4.304320318018770714e-02,3.107684623091613307e-01,1.464317858041949173e-02,7.943045583898800110e-03,3.232905029401681937e-03
1.188388191677643667e-03,5.386895374147158272e-02,1.840954302113860241e-01,4.028138796812703870e-02,6.195678294102815488e-03,2.108879299602534757e-02,2.124507379417453490e-01,6.295705239133569942e-02,2.407824199657671721e-03,4.993120645727010254e-02
9.839686820164684697e-04,4.273765924714163777e-02,2.130683078564765964e-01,6.070833640552272814e-02,9.537865302362592834e-03,1.012201806544883557e-02,1.476299305719636357e-01,7.433303090118831280e-02,1.265549898223385789e-02,1.259219485184615017e-01
1.751992498620842491e-03,3.387051146728047024e-02,1.998104561514842947e-01,7.360433697450724511e-02,6.491566710435858409e-03,1.424365634773424108e-02,9.732856056444200155e-02,2.459010869050115913e-02,1.316092127341281399e-02,2.134941508448160996e-01
2.241558544824378586e-03,3.068659966053612076e-02,1.514819818406796803e-01,6.724439132645737560e-02,3.732981017210773404e-03,2.315591900266662090e-02,5.612765398227985425e-02,5.516458786610164977e-02,7.699690917539952356e-03,2.663698505410566075e-01
2.605562460114409858e-04,2.815085433534689208e-02,1.037336644887685982e-01,5.050456722817229377e-02,4.558175727719299131e-03,2.544039506401966216e-02,1.437110032605661003e-02,1.067907485775178578e-01,3.097049828388893228e-02,2.457997293289730101e-01
5.627443980756651441e-03,2.169023925519627735e-02,6.964039607158944989e-02,3.526326566257708545e-02,5.356561249478064210e-03,2.190368389189499207e-02,4.482364460777243237e-02,1.053589589203837718e-01,3.160832252060157693e-02,1.728310455170099236e-01
9.708154571505941619e-03,1.254517700712899815e-02,3.775626621208335448e-02,2.158111177714988616e-02,3.383058985645668367e-03,1.744453048762847902e-02,1.132650536128998880e-01,6.911483798100159781e-02,2.342821276948599957e-02,1.024370424876365759e-01
9.444789987644556725e-03,1.842419745816226790e-03,1.133582663363746738e-02,5.461808056719177386e-03,1.507278516748861933e-03,8.859184326678188823e-03,1.500384201156415298e-01,2.118285987532999778e-02,4.960989572459961056e-02,5.691700779000775923e-02
6.384791222418780346e-03,1.382089718375104428e-02,6.907210008029889686e-03,9.537727099821566995e-03,2.472357049276364353e-03,8.436896960112447164e-03,1.306194618718916622e-01,2.845021420925424385e-02,1.170809135214913033e-01,1.745450039460291064e-02
3.380543531747107894e-03,3.419114660517277859e-02,1.062292015924769066e-02,1.658390131806458667e-02,4.732919159719245136e-03,2.961744654454744399e-02,8.099057135060931667e-02,6.917924160642648090e-02,1.738053260299344815e-01,3.454917094611974909e-02
1.053792699711698748e-03,4.887863945164115653e-02,1.228906675532036481e-02,1.739147630658174210e-02,6.597076923817453420e-03,4.529784381985103858e-02,3.970974129268115688e-02,8.403083108916305222e-02,1.677615975057504538e-01,9.097740100759076076e-02
7.475346537414069310e-04,5.040804312526613040e-02,5.103794265370864558e-02,2.003447503208707556e-02,8.217626750703267355e-03,5.029154778177651053e-02,1.389698612084099352e-02,6.035329060959491315e-02,1.021616310824879914e-01,1.292192672527960606e-01
1.206473045277178715e-03,4.656415695859961873e-02,4.998391210136426954e-02,2.439962829295378235e-02,7.863153005046568528e-03,4.201658623452463742e-02,1.392360475336973380e-02,4.609063227454411257e-04,2.432642987990253636e-02,1.427480922526571938e-01
2.531908276712387085e-04,4.521750511768216074e-02,5.125701793688444696e-03,2.091619792331287156e-02,2.984062693351534172e-03,1.861401707332706323e-02,6.592568929464043270e-02,7.852730085736797649e-02,1.380789531936460306e-02,1.446004710360542789e-01
4.104246655451137572e-04,3.706913463370915818e-02,5.923891648714756791e-02,6.924466205689787032e-03,3.703552282891889313e-03,1.373170168742153877e-02,1.455043475418357490e-01,1.389554477236763508e-01,1.336149393554668212e-02,1.394200901449966779e-01
2.019478062895816329e-04,1.143626549215095295e-02,6.286670411364723987e-02,7.131060542159139461e-03,5.994048368032030283e-03,3.815711556904610030e-02,2.048324888355639306e-01,1.507640586911293268e-01,8.117626170950077713e-02,1.227902162579378731e-01
8.102448410530125027e-04,2.047761959946979918e-02,2.155923989646028882e-02,1.143820289069628383e-02,3.816759360495455399e-03,4.247388770624885290e-02,1.802701032188017694e-01,1.106657704271884618e-01,1.243558275927175022e-01,1.068191176727016356e-01
2.613598558920286535e-04,3.687054013246961193e-02,3.470870677965896128e-02,5.787851057201112877e-03,4.635524971507641936e-03,3.451287351924502145e-02,9.055413060361086619e-02,4.641658283716594557e-02,9.708506510648000354e-02,9.731779401520906925e-02
5.245136089942735187e-04,3.336499685160995710e-02,7.891835360075565020e-02,6.196785087173716823e-03,1.265336238385151961e-02,3.142618852260010975e-02,2.784734990643217972e-02,7.697234409394475632e-03,2.045561600491727777e-02,5.471289603036134236e-02
3.271812531819959409e-04,2.305982750568207409e-02,8.665711981249431262e-02,1.869604093301149503e-02,2.286950449185585349e-02,3.619032424259911035e-02,2.032102373558709180e-02,3.999898452565421592e-02,4.410768085500598595e-02,5.419994172465106286e-02
5.401524634933507025e-04,1.428852454410951302e-02,5.875064620172076868e-02,1.994437763263018359e-02,2.914296964282543645e-02,3.685912808345865460e-02,6.134830329021123685e-03,6.430156354140313668e-02,6.129478056923105822e-02,1.812059381744669517e-01
1.097363019932452027e-03,5.517195998560526712e-03,3.862376712134972523e-02,2.105139252646270019e-03,3.176729305903040756e-02,2.680310419293150184e-02,9.859980853323643823e-02,9.255985425925403187e-02,5.086453123684174515e-02,2.505573814680903122e-01
8.089907932466961849e-04,8.450427140283154823e-04,6.496776325298657395e-02,2.493440154965546537e-02,3.300713998379582043e-02,1.259071335344203076e-02,2.032661033742444723e-01,1.112279884244015138e-01,5.311136176545501464e-02,2.661181114491111832e-01
3.156223978632941712e-04,3.303531616290685327e-03,1.157840385241980796e-01,4.315968419829681324e-02,3.132472758501239629e-02,2.294421139969552055e-03,2.509230099373031542e-01,9.715265542319295733e-02,7.906833719057110299e-02,2.916016745436620372e-01
1.446970359050823909e-03,1.737412228010874055e-02,1.329406204127898672e-01,4.766318880828975674e-02,2.520585532753647981e-02,3.576079353600667646e-03,2.454512188576518095e-01,5.633356273820572246e-02,1.075469305367308809e-01,3.460221564069645983e-01
1.381776977082104169e-03,2.722954927930559821e-02,9.261188567950966177e-02,4.567714355876322657e-02,1.797143546210411974e-02,9.147715319230080577e-03,2.460354395832947960e-01,2.672570131720802475e-02,1.212454687905813733e-01,3.789465439166069816e-01
1.672350734865815191e-04,2.038093614953744373e-02,2.675847022947761694e-02,3.943272280399649082e-02,1.336465906829705820e-02,1.654529662192159162e-02,2.873869067079009021e-01,3.463017409775219491e-02,1.222762267646197859e-01,3.415690592928191105e-01
8.289093731926120822e-04,2.062436629298766699e-03,1.548600326435046678e-02,2.483490674587647898e-02,9.790377537349639891e-03,2.148291745746200299e-02,3.193769535952370453e-01,7.130625720985658833e-02,1.169447683135172167e-01,2.431663786620812395e-01
8.828133961263780975e-04,9.996471389947619163e-03,7.931923828271146559e-03,3.936463921373605304e-03,3.690990687475690854e-03,1.606291285892314999e-02,2.499416553050177459e-01,1.199878968721263400e-01,1.111259001253222245e-01,1.271242423831336621e-01
6.139280348006378703e-04,6.837160677822173502e-03,4.148217163919969142e-02,1.539148674234855699e-02,4.627715491834818659e-03,2.355622580345407072e-04,7.708200976294195261e-02,1.703265821869820174e-01,1.170762753517439053e-01,1.470857397752494203e-02
6.407746331958268137e-04,3.005519490432521749e-03,9.382426003434006512e-02,2.994324417095127477e-02,1.222203428325326947e-02,1.357492782501452423e-02,7.175692752602487456e-02,1.956377954528004670e-01,1.376196722035798736e-01,9.407766773520720438e-02
8.186012362340997373e-04,8.663556382392689770e-03,9.728757226221142196e-02,3.980607156823946086e-02,1.687400885975520390e-02,1.522962518757482731e-02,8.937433086333328169e-02,1.630059102681017114e-01,1.464140264507895473e-01,1.722174669496787935e-01
8.697076657408467273e-04,1.161207830628149112e-02,3.722543027257030346e-02,4.175796424492184133e-02,1.711872238993473322e-02,1.118389900959586292e-02,3.454703056819624640e-02,8.307345932184261039e-02,1.129466252330540016e-01,1.749201517529074823e-01
8.502905580471810214e-04,1.836070575346042746e-02,3.177954382413937517e-02,3.540378625690206171e-02,1.301516421756158080e-02,1.340446764083053945e-02,5.676961789140122505e-02,7.353653505018859123e-03,4.746438086653052141e-02,1.131370894718638775e-01
8.887608702297453015e-04,2.670879083859355185e-02,4.590216903252927055e-02,2.849286133212084945e-02,7.685956549226857434e-03,1.882891221247561322e-02,1.949669622788482160e-01,3.255008719399946765e-02,5.945423436484236802e-03,6.185506365695035008e-02
9.606245175377191520e-04,2.979642301648924990e-02,1.655603587648642183e-02,2.632706325106123554e-02,4.845241786383772467e-03,1.284339719708739447e-02,3.226990770861591362e-01,4.604558850538369164e-02,2.131436583665893836e-02,7.639809316952740625e-02
1.002449381252790931e-03,2.945829145761833662e-02,2.994460842997445291e-03,2.506028488247631636e-02,5.582051851192198523e-03,9.128740526172050146e-03,3.023757659199889369e-01,4.631276577931335570e-02,1.170945983617136324e-02,1.514375054269225807e-01
1.019064023706473714e-03,3.410643880256553767e-02,1.710569613041580325e-02,2.187031346821665181e-02,9.284633383629625064e-03,3.532932606234255590e-02,1.409045211716409562e-01,2.568753906086206767e-02,1.128335700154439909e-03,2.600583202996135102e-01
1.041244371746868078e-03,4.453248229053681506e-02,1.528842700336078414e-02,2.129631790786484791e-02,1.488746734594712830e-02,5.188463238961599222e-02,3.335713703162386523e-02,2.608967373881711238e-02,1.410351458482921559e-03,3.688926713898597609e-01
1.074696397874116451e-03,5.375245927437279081e-02,2.850477035195015524e-02,2.789329855161609695e-02,1.982722136860842060e-02,5.482208406330426470e-02,1.178836784606123039e-01,9.165461720871541373e-02,1.086106537526803327e-03,4.233897918282190642e-01
1.098703068220558679e-03,6.102502785679729536e-02,9.096083682662241265e-02,4.054715685032704575e-02,2.127124707856531058e-02,4.946446124626701496e-02,1.196375955679990777e-01,1.293233520084490773e-01,4.903926459687788994e-03,3.829935618108930018e-01
1.090230853546426655e-03,7.083322272410935705e-02,1.305472604697832661e-01,5.368887719740039061e-02,1.949443735456092217e-02,4.369918278451145194e-02,9.862156869954341598e-02,1.186113941291834645e-01,8.756969419922032774e-03,2.689052359886294763e-01
1.068831483770432038e-03,7.631695161769048996e-02,1.245559471653305134e-01,5.984189148023726784e-02,1.703451923512455668e-02,4.116594150759581017e-02,8.513980595618611535e-02,8.221025282634404630e-02,3.456799846483142244e-03,1.412706118198535088e-01
1.086637060972446599e-03,6.304474647812022270e-02,8.920784574864873417e-02,5.541551596575627903e-02,1.482012986320727435e-02,3.923133132308465748e-02,7.577630506284878387e-02,4.254254860198456584e-02,3.908786646881547144e-02,4.481751696678969860e-02
1.113374536190118004e-03,3.297147713838990274e-02,6.919719549493430488e-02,4.636866813445215951e-02,1.221492197157410253e-02,3.420617262434132860e-02,6.238973968422222710e-02,8.741002878839670628e-03,8.036359833684687815e-02,3.518144693292507563e-03
1.035535557909519335e-03,5.053918384798223792e-03,8.960989604694430399e-02,4.211210922102243820e-02,9.315262037273669762e-03,2.702548682350636514e-02,3.963461536321868928e-02,7.384378849757748664e-02,1.034657120330917668e-01,3.384262088932350060e-03
9.105060161468523554e-04,9.657759067000911898e-03,1.273570751517545951e-01,4.266873780029033919e-02,6.259719853428217379e-03,2.226908832890825418e-02,1.710780297979758863e-02,1.251870090240596589e-01,1.079615169194047958e-01,2.414756079114788873e-02
9.868983758707819236e-04,1.535611061083231969e-02,1.475559563986203748e-01,3.848834826881847304e-02,2.670287395572899878e-03,2.381715263334287236e-02,2.645283057857417131e-02,1.391614701389641828e-01,1.064196079210722318e-01,3.927539861547903188e-02
1.162302759926077834e-03,1.645709647942934437e-02,1.428621583475042089e-01,2.437113464392821893e-02,1.420726382509310878e-04,3.230404051608210675e-02,8.416772978363173952e-02,1.154806782701170986e-01,8.973974795361720769e-02,2.129237693874073620e-02
8.628037206873875745e-04,1.218170397449383144e-02,1.178943574735424743e-01,6.968565385418804860e-03,3.995349668763084009e-04,4.360830957701092303e-02,1.583813385348593061e-01,6.425358300011659030e-02,3.591209797029768641e-02,3.072777941521852296e-03
4.029706126553696591e-05,3.498534151010389281e-03,7.149895258418177690e-02,4.866817305929287824e-03,3.916278580216134286e-03,4.915315319321759968e-02,1.988085743766694613e-01,9.919114798190638294e-03,3.749660278663369262e-02,2.943960859799601981e-03
4.067474390899124877e-04,6.353496954211138199e-03,1.716799813681686368e-02,1.129539879415740120e-02,6.231484799381780196e-03,4.088576742206926490e-02,1.825314684538897336e-01,1.256275508278624845e-02,6.624175085822558984e-02,2.872428099483155528e-02
4.959667286349783363e-06,1.637605052084874571e-02,1.364822570441074322e-02,1.684820986064679282e-02,4.148056869525774959e-03,1.732761795966081264e-02,1.180988003201917796e-01,2.183784451251793990e-03,1.449886367899813275e-02,3.252846867558664701e-02
5.756131730140749561e-04,2.695755275316947738e-02,7.091759239826368397e-03,1.893844326460605507e-02,9.353162918301260922e-04,1.502435852997043193e-02,2.919958323877004311e-02,2.512826670923406711e-02,6.642408310956363082e-02,6.331130963543790680e-03
7.711525680465115135e-04,3.743541830889648980e-02,1.606374816581071854e-02,1.114775483247911446e-02,5.554855175876317018e-03,4.534514269544047405e-02,5.962433989150265484e-02,4.553356122032730519e-02,9.219230277802903384e-02,2.081852551666461826e-02
8.708216535262548437e-04,4.778258784538751830e-02,2.092647926985941043e-02,1.293822360242535482e-03,8.980759170520505319e-03,6.473889754047632006e-02,1.301047404101194904e-01,7.944950948478432529e-02,4.798447875075248503e-02,3.317237112081890260e-02
6.954928626567405577e-04,5.762390610042291555e-02,1.260267415429953963e-02,7.096185102467747041e-04,1.310119504609963230e-02,7.007535071027420903e-02,1.516227916221840888e-01,1.135712747320348076e-01,1.683692543208400658e-03,3.050427915739904391e-02
3.325254843359767257e-04,5.981149215211967185e-02,6.695354732838812439e-02,2.123696027467721070e-02,1.762898533579318819e-02,6.222185592338398685e-02,8.254202172956309758e-02,1.000731314604792199e-01,5.832395655640654382e-03,1.758612601386586038e-03
1.465198527494327753e-03,4.347873922619800713e-02,9.619197504468135485e-02,4.931872611059078676e-02,1.856789987675197540e-02,4.442400155586956334e-02,5.715234832808149812e-02,2.793992396180583135e-02,9.360318675677690298e-03,4.158989553897680935e-02
1.301023153801732094e-03,1.097902756439425760e-02,8.034816224030100207e-02,6.150798774350240555e-02,1.289547497679405415e-02,2.309038622579679192e-02,1.637945615586421377e-01,4.833008244409862236e-02,1.384168601149967336e-02,3.910088682631678719e-02
2.910630078916422430e-04,1.812955724974152361e-02,5.624926655417858412e-02,5.454406422391240572e-02,2.688812989074999479e-03,4.404473981699802941e-03,1.810675108590455995e-01,7.590196113033532976e-02,8.123752314938458008e-02,3.865027489977258118e-02
4.605593102278003506e-05,3.086532551952735418e-02,7.075272286738262806e-02,4.464158008569055897e-02,6.607974305606005745e-03,9.122385167164829070e-03,1.835351779469530098e-01,6.537995949730641965e-02,1.323778705301569825e-01,1.222603716097850901e-01
4.935775787734401248e-04,3.840366942299146269e-02,1.223618624496814328e-01,4.640345715896902062e-02,1.063075052999947097e-02,1.330332937173784105e-02,2.288021834894083673e-01,5.513301166554714083e-02,1.083193365077180781e-01,1.350508630207436778e-01
3.192893969766986907e-04,5.664993658384288172e-02,1.693340850492767724e-01,5.843932443141022781e-02,8.142561527195489937e-03,1.388636864012515130e-04,2.135016829907956937e-01,4.289741732017385983e-02,2.414767681764436874e-02,1.134670305606856472e-01
4.911530520160505703e-04,7.973215632535435304e-02,1.770843145791241857e-01,6.930459400770393186e-02,5.150544900281318200e-04,3.054193762459654279e-02,1.729340485975717351e-02,4.646437951942106528e-04,4.081137973734684510e-02,1.480983238237974509e-01
8.982177637845284446e-04,8.897118783332465253e-02,1.445457926728170861e-01,7.113986056638735289e-02,8.710229475521597681e-03,5.895764381340305726e-02,2.684871905148074056e-01,6.211129935780395489e-02,3.805891608606784549e-02,2.327192100438639777e-01
7.368589480951537752e-04,8.010103091013942578e-02,1.029460116442034723e-01,6.434767949479258675e-02,1.482675954245669253e-02,6.471977842723683483e-02,4.115425881779818940e-01,1.026918012859997509e-01,1.510919014899253510e-02,2.696009117796120402e-01
6.389048842027655103e-04,6.623187959709073147e-02,9.580510964680095942e-02,5.325991240846292274e-02,1.542608305744578613e-02,4.888308795432776827e-02,3.210051679459459684e-01,1.058503162971920486e-01,5.012710901744941994e-02,2.181559364149584790e-01
7.958965167433789192e-04,5.979079564675451181e-02,1.378987064409749608e-01,4.172817511268239049e-02,1.262955903681986167e-02,2.993632301119569100e-02,1.283680609993726740e-01,8.643635851346047339e-02,1.368393606812903229e-01,1.391930808208393378e-01
9.340744116870234627e-04,6.341817495319197751e-02,1.872622880701461101e-01,3.100726318455751876e-02,1.005251489905070739e-02,1.880799229253945354e-02,1.229346727452375332e-03,5.457855496175931936e-02,1.889480856155539845e-01,8.271121038692644256e-02
9.754421493842759753e-04,7.355860252055847204e-02,1.804039187127789157e-01,1.949655705604800074e-02,8.927688360313273605e-03,1.072518981697620152e-02,1.788341844869309472e-02,2.460473542708995626e-02,1.604712903763552134e-01,3.179046164557838144e-02
1.041852718416111769e-03,8.292450100283457748e-02,1.050287344963692360e-01,6.582310393270146553e-03,8.575262086472674669e-03,6.961368675422394126e-04,4.667872996335691721e-02,2.868456540354043238e-02,1.024482109050868228e-01,2.134533130659482456e-02
1.123765249595512104e-03,8.158206433636579213e-02,1.958327811537085433e-02,2.752848385140259542e-03,8.239450219666122691e-03,7.286343926548088067e-03,1.453597278886534783e-01,7.079964479137566824e-02,7.955998485412019150e-02,4.037831077247411998e-02
1.164670667911604524e-03,6.447614017372316209e-02,1.231832649088577744e-02,1.682103210622835042e-03,7.184870738068030623e-03,9.042394761589954769e-03,2.232019022243378892e-01,1.010511565081293056e-01,8.404122881227645003e-02,1.539388999325968198e-02
1.265056504904501535e-03,3.948978758860280380e-02,8.272674482525443906e-03,8.264203601347743650e-03,5.325783599660074800e-03,6.287319752469268733e-03,2.376737295940882788e-01,8.455262497864157734e-02,7.247099286626129677e-02,1.133864220740028218e-02
1.457196590972978899e-03,2.131952344363478163e-02,3.124742779964414727e-02,1.668185705101228600e-02,4.169693724033592119e-03,1.395441638837200023e-03,2.044032386462802942e-01,5.592061817505802890e-02,4.926304711873850939e-02,9.732794613695947700e-03
1.451756931851951732e-03,1.583036962376139015e-02,2.778481944908876150e-02,1.729365776346527758e-02,4.923461073557277093e-03,4.255360818754995791e-03,1.769182856197054343e-01,5.679323459606524377e-02,5.818482113801682482e-02,1.248245487762475459e-02
9.397932484229683595e-04,1.712727002146500685e-02,1.148270572518813801e-02,1.445387067126550212e-02,6.077371967507509687e-03,6.258595289622526092e-03,1.649357572207137967e-01,6.319083198711633598e-02,1.045603638789071449e-01,4.787219322530191640e-02
8.779615388814838344e-05,1.853964094438747753e-02,1.278499974588676036e-03,1.255670377713627092e-02,5.101803341356407791e-03,4.725339842347022271e-04,1.209193608125281455e-01,3.057029752936252925e-02,1.355682199431466617e-01,9.095166011764208025e-02
1.564093294543771441e-03,1.649132355638240066e-02,1.286895444263961436e-02,7.306964053859022271e-03,2.069436444707606695e-03,9.609514909585087361e-03,2.375717089507589988e-02,2.377719656792529751e-02,1.020574442692248479e-01,1.102428445103958154e-01
3.416363717065596089e-03,6.862740574406943871e-03,2.666861309467127156e-02,5.748713922571742005e-03,3.350239745076377738e-04,1.556869229164790924e-02,7.806200977058808110e-02,4.413678955657708569e-02,1.601911022502822482e-02,7.717880945366926981e-02
5.197984028559061477e-03,9.021573973863879908e-03,3.447042125862918860e-02,2.025350246883608069e-02,4.089706926982695492e-04,1.398763768638132572e-02,1.345028040741473030e-01,2.385653264874708010e-02,5.182663146612255523e-02,1.814498556998792728e-02
6.188497150982140253e-03,1.779149881693017216e-02,2.680487940236598796e-02,2.512407081931868069e-02,2.623076119601504491e-04,9.840737265960774680e-03,1.608206062819202420e-01,1.056030342654629139e-02,3.113488857415332850e-02,8.978948378921880469e-03
6.029351484272984195e-03,7.502430697040149594e-03,1.233135200634900841e-02,1.965266549331735196e-02,1.198584551958958942e-03,1.076730178920434593e-02,2.069847433521371793e-01,3.063665141055761654e-02,7.224241769056728713e-02,1.494260769571347305e-02
5.043780502362374234e-03,1.449352137584265267e-02,1.813520602908687274e-02,1.492023554716210773e-02,5.235699697903787621e-03,1.947944761345656722e-02,2.924253360480826847e-01,6.332915235863555148e-02,1.701643648842002254e-01,6.397045308670946950e-02
3.978578524325620223e-03,2.891369733999854530e-02,5.171752328745127247e-02,1.985293812316016315e-02,9.605701262000221341e-03,3.070538643246924215e-02,3.938616119445691455e-01,8.628472838425907399e-02,1.868261267472141329e-01,1.226677957787797035e-01
3.331047217367214246e-03,2.682049102923892564e-02,7.847631448429820411e-02,3.250624154113401082e-02,1.271988072173770370e-02,3.580080559557934777e-02,4.700237104871663463e-01,9.215833899562039799e-02,1.332675657662674151e-01,1.962435614432470055e-01
2.825962845108208679e-03,1.439506338885819699e-02,7.174744498864235598e-02,4.648745092082576941e-02,1.484707948089781029e-02,3.152064622906763924e-02,4.714117178423611332e-01,6.338627363606179344e-02,6.213036378704626939e-02,2.571914125080968505e-01
1.850660648645424330e-03,1.312548006873577632e-03,5.771310749033149029e-02,5.988126406527808504e-02,1.579050061900260510e-02,2.318825385466937936e-02,3.500743392950204091e-01,1.126471789126813096e-02,4.501096825767265767e-03,2.422248823540031903e-01
3.890704326749542825e-04,1.971105088687679502e-02,6.664339050276994747e-02,7.381121240653865101e-02,1.439838502183606039e-02,1.852535878271047154e-02,1.128466860593831667e-01,9.388296655120267897e-02,6.397956882925837085e-02,1.404843216822580509e-01
8.760355610085622481e-04,3.769345262762943682e-02,7.809893260567095374e-02,8.459111320758359864e-02,1.086937711006574075e-02,1.957875830761815830e-02,1.384042574239427170e-01,1.265542706679031737e-01,9.680644617948612474e-02,3.146156795037653026e-02
1.384673640922191081e-03,4.419511512477589804e-02,6.062303373776261467e-02,8.313809978994458894e-02,6.920910879764067755e-03,2.112188282319655067e-02,2.891672585384479355e-01,1.056974685158992844e-01,8.682422787582462498e-02,1.944507728832320370e-02
1.283116608436500345e-03,3.226302901562509706e-02,2.023646655624072865e-02,6.565366176592757341e-02,3.758241137352590078e-03,1.715194260253585096e-02,3.399136295609195835e-01,7.942935640253356855e-02,5.195399683491623566e-02,4.980483802028665141e-02
1.088068481588322801e-03,1.062171451299416709e-02,3.028314470168977368e-02,4.062512888212235773e-02,2.022311650464300205e-03,9.123772338940129914e-03,3.719123702997603198e-01,7.352738196918756630e-02,2.631858140380580191e-02,1.181896944298053420e-01
1.042206313256603331e-03,5.151553632558938944e-03,9.616006205716626232e-02,1.935777343313111951e-02,2.725852944727396535e-03,5.223599615604685061e-03,3.966671336885709831e-01,6.622180572699788714e-02,2.671555665493390713e-02,1.887746119520954113e-01
1.037480274768969209e-03,8.644134435845482467e-03,1.606538383177716078e-01,3.321499183816177449e-03,5.853719395322596990e-03,9.845607761344667141e-03,3.460350873697791707e-01,3.763029055303551695e-02,4.635523552286734128e-02,1.783354147558284530e-01
9.748875070304362104e-04,3.969615927755151472e-03,1.794387922705595884e-01,1.269469903120733385e-02,9.038350367696908194e-03,1.716670217907484766e-02,2.110025104574030086e-01,3.447212895942211325e-03,6.703196132895546111e-02,8.225180053267536207e-02
9.009379108401890631e-04,3.716403645509009594e-03,1.440504255583148763e-01,2.875646097772721274e-02,9.764012896713691880e-03,1.762152559470279989e-02,8.276563903000667966e-02,1.220689308068756591e-02,7.364505901338321003e-02,1.926549229181501871e-02
8.635991347387873438e-04,1.346051340419974519e-02,9.553436717003158107e-02,3.786315617577953874e-02,8.036372587436035539e-03,8.408172274228213269e-03,3.330728778744114493e-02,1.147761295267502209e-02,6.613932164548382009e-02,6.546100488066503020e-02
8.430214285930338978e-04,2.566617170436920337e-02,5.987009562106777177e-02,3.513976670235392091e-02,5.505287500783427948e-03,4.500861212137169040e-03,3.146930895996418592e-02,1.445666496968150451e-02,5.840850874294095663e-02,6.947590493067931638e-02
8.174538200428143556e-04,3.646198726254865768e-02,2.701458763936626095e-02,2.576614848135477809e-02,3.307076781653214316e-03,1.378724013388036088e-02,8.232037438999573881e-03,2.781136680660221960e-02,6.345900908712757971e-02,6.909414386543984155e-02
7.976367842261453990e-04,3.836589071404680751e-02,3.166558251410120893e-03,2.094983953504957197e-02,2.038433626035977050e-03,1.775113305027150451e-02,5.067515872942290195e-02,3.610040798021083019e-02,8.431520588134074068e-02,7.304693414865991163e-02
7.951821346258683594e-04,3.017947130904174990e-02,1.550188574242303795e-02,2.387636068444066312e-02,2.481627206851463614e-03,1.854587551487203029e-02,1.186225411608116814e-01,2.476482861882965680e-02,1.193439752946387350e-01,7.710858787783907153e-02
8.036625260265416789e-04,2.197923021329868665e-02,1.853811245530864044e-02,2.479104834839902446e-02,4.949986172500442719e-03,1.638889971059546286e-02,1.865834975780104876e-01,3.378529216632419375e-03,1.630844132186273776e-01,8.888471690009487614e-02
8.157074252285684366e-04,2.326578992358805872e-02,3.525140261998579300e-02,1.663665278298376293e-02,8.233299597905814615e-03,1.015007823288350750e-02,2.458308988896061864e-01,3.069212400060215406e-03,1.953436070695195037e-01,9.737899095212662615e-02
8.372775968474012410e-04,2.951439474950016961e-02,6.366040134838371611e-02,9.236385333269817727e-03,9.693109068979646747e-03,3.127758094981501411e-03,2.425103689394452477e-01,1.420317356730071631e-02,1.869476138377660634e-01,5.597279931065304859e-02
8.745861496987367015e-04,2.866606487995343108e-02,8.591808585536922505e-02,1.721074874925970777e-02,7.073160301662515491e-03,2.661661368879062774e-03,1.241194143284487239e-01,3.793956147420601138e-02,1.326661797124415731e-01,5.658591956842355664e-02
9.160234589276106164e-04,1.895303026604605243e-02,9.618528004053709946e-02,3.768373008442566646e-02,1.281495087753134086e-03,1.109252320939076858e-02,6.790627521009037770e-02,5.209918841483953539e-02,6.719341943409379292e-02,1.863772905359335486e-01
9.490392468148816209e-04,1.095534725494557229e-02,9.342308015215508576e-02,5.170986225098111316e-02,3.497328980346444283e-03,2.085148129391485930e-02,2.113143361224167349e-01,6.278906561916958173e-02,3.114622504903274969e-02,2.537617804451572368e-01
9.931803324948471675e-04,1.118381117305894054e-02,7.510471122817130585e-02,4.759924360352014994e-02,4.295111287838520274e-03,2.276742313266651510e-02,2.257001186087524702e-01,7.986377455462857766e-02,2.803340411921652342e-02,2.287337572663637186e-01
1.069892525739113290e-03,1.329655060085311799e-02,5.321572938026110366e-02,3.329829313853043676e-02,2.846657963761540892e-03,1.684563619893520228e-02,1.464819769530052440e-01,9.367119240361564125e-02,3.089489848514929277e-02,1.401568226158864394e-01
1.134058368878963254e-03,9.691946994103769683e-03,4.715630354648824712e-02,2.368632947207447229e-02,2.877798205435639842e-03,1.059776632585981114e-02,6.457072807284437721e-02,9.078456540938149855e-02,2.509728694350105843e-02,4.551172931487673656e-02
1.134403980608781433e-03,3.316825043933795646e-03,5.722830355898723270e-02,2.227746312236851545e-02,5.464986766948978086e-03,8.599303220147158297e-03,2.206120142057941408e-02,8.253864487544476658e-02,2.432589857009120199e-02,1.528849112905454610e-05
1.162652777425445764e-03,1.443750950555506857e-03,7.144564083949765665e-02,1.992728344932732931e-02,8.490811944912931772e-03,8.164024535015888123e-03,1.172990995811530081e-02,8.896761612196293911e-02,4.338359135693937996e-02,1.548683980873785324e-02
1.336225099135330500e-03,3.771733493558740088e-03,9.059678176711738473e-02,9.421287125403321819e-03,9.535781397923177166e-03,5.560382217745413712e-03,7.168782449914509747e-02,9.630448396699968494e-02,7.415525737023072328e-02,4.519876328961430767e-02
1.428306169941415387e-03,4.073714319243277628e-03,1.196904236850468289e-01,4.574975896358380104e-03,8.514611941670070100e-03,2.495623556575961733e-03,1.364657713026057040e-01,6.800947407617816132e-02,9.685162867170948875e-02,3.924546565541035120e-02
9.010047080210342252e-04,5.187103546908846535e-04,1.445133072206755409e-01,1.254119118573339062e-02,7.473770247807544689e-03,2.646671759744700925e-03,1.643699875023341972e-01,6.404108918923917364e-03,1.022718695935566219e-01,8.659127475083875855e-04
4.357665354639944080e-04,2.122744045863319412e-03,1.431832389302213071e-01,1.231937389243904085e-02,7.700517446535392468e-03,4.039144991071589100e-03,1.651921858714433533e-01,3.859764499138478716e-02,9.392447757583360923e-02,4.989316284939663421e-02
1.950801132159388522e-03,3.178262609167853588e-04,1.160082492752783356e-01,9.999652801820146236e-03,7.964108313040797402e-03,1.215468048861966053e-03,1.778162008161200403e-01,3.712232219471866407e-02,7.995355347676734448e-02,1.021310784784395520e-01
2.612823576009958709e-03,6.379580293033340795e-03,8.038195235596942712e-02,1.095484265734677880e-02,6.413317587066562006e-03,5.823790057392516650e-03,1.864300379080939818e-01,1.387172614692302498e-02,7.133979395885563235e-02,1.478345010751747068e-01
1.925498313627256423e-03,1.124035498156057342e-02,4.067370339223117665e-02,1.399915711752783461e-02,3.152580161636742932e-03,1.150419729372172649e-02,1.329038453960522392e-01,5.494365565538138207e-04,7.350624490262080979e-02,1.490454642170051525e-01
4.076700062161331905e-04,1.199408168911508116e-02,7.578873403837818948e-03,1.532492524219197100e-02,2.736870249832004014e-05,1.258070524503618684e-02,1.653380457112654800e-02,1.124984803666448721e-02,7.421158493742800732e-02,8.736885097002207445e-02
9.057667994693344984e-04,1.063575857535086280e-02,4.616641903958233761e-02,1.566216729851849926e-02,1.742032947598809445e-03,1.042012024971076395e-02,8.996423137564775463e-02,3.385765620268341852e-02,6.034147407111849215e-02,6.524354612209239471e-03
1.440682085643917943e-03,1.163230378691288043e-02,4.472517818885126534e-02,1.936797665501365645e-02,2.008751528544818615e-03,7.204335461027546947e-03,1.305974944644162639e-01,6.286054599328447234e-02,4.587442772642906508e-02,3.476874573517124006e-02
1.416386274978543138e-03,1.592317702604502741e-02,6.179198149988053557e-03,2.682679575671274852e-02,1.616630401747822269e-03,4.629202254425595839e-03,1.075755872597176782e-01,8.396377024215265217e-02,5.083200454750450709e-02,3.233509334118440937e-02
1.241691612468400277e-03,1.959003620533983359e-02,3.543553102652257508e-02,3.333160200781888627e-02,1.330340616678225363e-03,4.476671025261973712e-03,3.378423999354284585e-02,9.476731043651141773e-02,5.699470286728375995e-02,2.425820880951755701e-02
1.064310708310462752e-03,2.052240491806427841e-02,6.399180044013820512e-02,3.637137340430828675e-02,1.503518981263312487e-03,6.769710219239522334e-03,7.951401116540209035e-02,1.006214238856089349e-01,2.912804822268632438e-02,2.722510868383107643e-02
1.043129714881142192e-03,2.234636557604107593e-02,8.949809202903817595e-02,3.839886077264236669e-02,1.678647395721505602e-03,8.440735306805304677e-03,1.740229519781507084e-01,1.039390794246155963e-01,2.286799546697631039e-02,2.422066783739989723e-02
1.277791547435873452e-03,2.690286840690639392e-02,1.085919840594850028e-01,4.106997258641483656e-02,7.957125688025404016e-04,6.305725530579431824e-03,1.678192307316677678e-01,1.002553634553083883e-01,5.207720675619044448e-02,4.055717077389346149e-03
1.198815142583452851e-03,2.720192946366768727e-02,1.007716819218365811e-01,4.209450749590167018e-02,1.366895868976517612e-03,1.079969901732705066e-03,6.507785122288499424e-02,7.619795751091769376e-02,4.257714467842343281e-02,2.565358689945640425e-02
1.266618883118536532e-04,1.576434426514133902e-02,6.740504810598557661e-02,3.949091442450294864e-02,3.378951871547072189e-03,3.444623116702876485e-03,3.335095035596668395e-02,2.088467220560391926e-02,2.292496183138308108e-02,5.430883133661030399e-02
1.236983911623414003e-03,2.651955080589260636e-03,3.518803152140573265e-02,3.465459408020789278e-02,3.668360997115271711e-03,5.474823111453321588e-03,6.286480237684434480e-02,5.061577516786856801e-02,1.626996870432352235e-02,6.651270189753004380e-02
1.318606740026295396e-03,1.493967368349329028e-02,2.074273596571152636e-02,3.038539444258241823e-02,2.276844224447929083e-03,6.852607378824929901e-03,5.382688954608329246e-02,1.003312688857369017e-01,1.982027693328836104e-02,4.473176200667684094e-02
4.140982240310748380e-05,1.467530615241383236e-02,2.404315713953460165e-02,2.928162437755935793e-02,4.562017729870589014e-04,8.328583526301731876e-03,3.428597611271852474e-02,1.043122571216035521e-01,2.842456405903748956e-02,1.082072139203874885e-03
8.898889393139851290e-04,7.007335273210452478e-03,4.579055240733879983e-02,3.277175858899072924e-02,7.175664744373965896e-04,6.874645506879612476e-03,1.832794143374016221e-02,7.440202722642894062e-02,3.962837229051576621e-02,1.642319396096425868e-02
3.074074437103197811e-04,1.365597929126957742e-03,7.937100947095791781e-02,3.802255101863162567e-02,1.010261914599783640e-03,5.949144858105624495e-04,9.318315727370297952e-02,4.027730640254616190e-02,3.873584059820726205e-02,2.407877292039336398e-02
1.319442778781052764e-03,4.070918009958812180e-03,9.671104400437002813e-02,3.842090814381248637e-02,1.042870093443429205e-03,6.871939978950691863e-03,1.170103741602917802e-01,1.951148893429945075e-02,1.414780974340588970e-02,9.133879494027956347e-02
3.015583387032760940e-03,1.460912905915470912e-02,6.439675054231341900e-02,3.100789948595472981e-02,1.435202499740583990e-03,9.922912083326854843e-03,5.433610774354152850e-02,5.400839248203906373e-03,1.150602270199675703e-02,1.167717951868013915e-01
4.109590552953200360e-03,2.587555738200097641e-02,2.924488892141840005e-02,2.045962515716202162e-02,1.524601304112190719e-03,6.882448443790958187e-03,4.027821489513576381e-02,1.570480065838796360e-02,1.341682636789878931e-03,6.926154961700989321e-02
4.127334133548007586e-03,3.041955637127678747e-02,1.585096006414899727e-01,1.265827229425613328e-02,4.469865371489756007e-05,6.976915778205436489e-04,1.046507401855123476e-01,3.578301576567656517e-02,5.547656249421345498e-02,1.143477739277368871e-02
3.019028680343880180e-03,2.649401576677806389e-02,2.627854710116881432e-01,8.694337433048763414e-03,2.507367493993976730e-03,4.078167297759644795e-03,1.368706209574470645e-01,3.392169679715268532e-02,1.096906443156222682e-01,6.588112291924307085e-02
1.402821248536521501e-03,1.656277797574094712e-02,2.846132492651039514e-01,8.437168569799331080e-03,3.918937974879796622e-03,4.337867386979249451e-03,1.528542611092346404e-01,1.907752227951286725e-02,1.250499678143979498e-01,7.996635060602075296e-02
9.390946742285760640e-05,3.734845554863604374e-03,2.228918790898422320e-01,1.321775122497926939e-02,3.245468234430167170e-03,1.118623147780602872e-03,1.473210874392091030e-01,2.460201753663146876e-02,9.171765224075864587e-02,8.050810767186229733e-02
4.861184157467848821e-04,7.495303556243275434e-03,1.354386987664102648e-01,1.829665751750169170e-02,1.991619906067155360e-03,6.193594830709507441e-04,1.342965911926381484e-01,4.424641739983554284e-02,2.862872446622571551e-02,8.968756293745407115e-02
4.548863706503782772e-04,1.170189530255584184e-02,8.051909522173464340e-02,9.777572495145953752e-03,1.809842649484718268e-03,2.241944777336854662e-03,1.560913834374458020e-01,2.661871224163155428e-02,1.138656050192085600e-02,1.075837949043485231e-01
3.005443394063587320e-04,7.840305979799450445e-03,6.956800946406593855e-02,1.979574263805040923e-02,2.436878919835811647e-03,6.434565530549189380e-03,2.088881165751114433e-01,4.059275402621225631e-02,2.822289287008093728e-02,1.190186315917113880e-01
4.537162766870224732e-04,1.472126455188371187e-03,8.158848307986207860e-02,5.692656065942623689e-02,2.355306737854754445e-03,6.859027276001957579e-03,2.259306784918805877e-01,9.887758861453611881e-02,1.358304241130152412e-01,1.019632366914915156e-01
7.590594166904258413e-04,7.421317868668210905e-04,9.808001493126908277e-02,7.933425713456886130e-02,7.892931851322593966e-04,3.581411412533094980e-03,1.738467617856182257e-01,1.008734467730648260e-01,2.286316704674882794e-01,5.037553618937342520e-02
6.020130339117891593e-04,3.216479828269469890e-03,1.041992690070431271e-01,7.836930676715440913e-02,1.309431692627213619e-03,5.063114660009189081e-04,1.006916686065629229e-01,6.783117083896403332e-02,2.450795012418581775e-01,8.532401283433568503e-03
9.372691293766711746e-05,1.090608874414802573e-02,8.476352783995744211e-02,6.090195756961794965e-02,2.328993733927979710e-03,5.893312307115033000e-04,5.534875802042692194e-02,3.934674026641955119e-02,1.997471870464956611e-01,4.471112068046480259e-02
4.916548421125533069e-04,1.814951320691519931e-02,4.991245634898569539e-02,3.848176527023629973e-02,1.911642457584566447e-03,1.512434919749723432e-03,2.362692904468308847e-02,1.896102982095943315e-02,1.402241124535417161e-01,6.475899809213385427e-02
9.425709558255222428e-06,2.087515501432225112e-02,3.620303585728187890e-02,2.377929558479424665e-02,1.234825982735543275e-03,4.706630528719699808e-03,2.193086193204425716e-02,4.785931703330142603e-03,9.308539379533749270e-02,8.974419667291907987e-02
8.449443161143365636e-04,1.773245238407145097e-02,5.548041377388979178e-02,2.603705888312139033e-02,1.141688279861985010e-03,9.680760281633142214e-03,6.534488123951025240e-02,2.624429940141421308e-02,5.880557756430297711e-02,1.076090837723999438e-01
1.307748607314504312e-03,1.277841956638758533e-02,7.675363677045836386e-02,4.081772480231199429e-02,8.823933838744985741e-04,1.229889711618936850e-02,7.933046629640980174e-02,3.758135379935780701e-02,3.289532176642160494e-02,9.030061882167045306e-02
1.159463543968752971e-03,1.252163793323677124e-02,7.882978074250544809e-02,5.290936424257835363e-02,3.556506019739510993e-04,1.059041550222943745e-02,7.646055705108448231e-02,4.782282211736108707e-02,2.206908494825743708e-02,5.097549332297159758e-02
4.472219508838519973e-04,1.755672790882388881e-02,8.005835275619296865e-02,5.295541812999036979e-02,1.787360201169335087e-03,9.609920442009636452e-03,8.994565462161462077e-02,6.374711226211511594e-02,3.806044483194598316e-02,3.483069611995279896e-02
6.510018755525246977e-04,2.107487688944384083e-02,9.587792781136322828e-02,4.384720538955044766e-02,2.555006847606830934e-03,1.357885402388520069e-02,1.233290769855305835e-01,6.779208329095039176e-02,7.489291122948051049e-02,4.754535258825229316e-02
1.556352393724149850e-03,1.983324050522396187e-02,1.059259633976484816e-01,3.223744425840960326e-02,3.614632728190339626e-03,1.644743399252808491e-02,1.531645561011284185e-01,3.522022007666114618e-02,1.045642428597581275e-01,4.124343125047285480e-02
1.560555525367804961e-03,1.963564287984729401e-02,8.474125634687318387e-02,2.106791196090649493e-02,5.958748638681590944e-03,1.025263015756816033e-02,1.696659680226156042e-01,3.188722616533015003e-02,1.031444330809715426e-01,1.349891592978916255e-02
5.530231337105479851e-04,2.165524182508870785e-02,3.489742965024919541e-02,8.435902296128217764e-03,8.055407990318301861e-03,7.776805295854447193e-04,1.797281971862110528e-01,9.948885628521304814e-02,7.076784081558543105e-02,8.683208732471496549e-02
7.378239900090021591e-04,1.262282335885015275e-02,2.631412563923082176e-02,8.936316917155004425e-03,7.291100521311576384e-03,5.222905208619503525e-03,1.743204188542252508e-01,1.306264792871770775e-01,2.138583316344769975e-02,1.391333537350911698e-01
1.437867722413801097e-03,1.729766427613949747e-02,8.382733007150824922e-02,2.693254756790064777e-02,3.739558120345968899e-03,6.826031294478666477e-04,1.277658156390224509e-01,1.171200266876389756e-01,3.110221676794414775e-02,1.681963710069796780e-01
1.422157276254733347e-03,5.461603036063125000e-02,1.152884722129336736e-01,3.117315226753852170e-02,6.240367150090291026e-04,4.536676228614830095e-03,3.739745930810745023e-02,8.077047505222179069e-02,6.806728953673739368e-02,1.856379750215334801e-01
1.226679693475028320e-03,7.629918108303436475e-02,9.942712113682489194e-02,1.221730907807048495e-02,2.083238416331968960e-04,4.363167575569966948e-03,5.666852362045612240e-02,4.527628371490351883e-02,6.716778426685593439e-02,1.841312334275006513e-01
1.205999300004895842e-03,7.751374185991788401e-02,5.322031661576076544e-02,1.894604097665897324e-02,8.662869025229597616e-04,1.657251860171373358e-03,1.047458209300228676e-01,1.997901476577599450e-02,2.648115037603197136e-02,1.544890315913374501e-01
1.247824169890810863e-03,7.203676641799978964e-02,2.741338904775368623e-02,4.087129246094281521e-02,6.329548011276621726e-05,1.553827280797683962e-03,9.537173987290918642e-02,1.253724175485579871e-02,2.336753265091907200e-02,1.122120815775846936e-01
1.200693582836776093e-03,7.086080487272408690e-02,4.393916389884274659e-02,4.423528299022069094e-02,2.240922437037724379e-03,3.868197385430454781e-03,5.825455691703150529e-02,3.081082992812585186e-02,4.867848262266602499e-02,8.289251238343151029e-02
1.111655065490068034e-03,7.189456754974385411e-02,7.014086574001442143e-02,3.544858074570985534e-02,3.456641216001054596e-03,4.233000885314647764e-03,2.281069811985526885e-02,6.075139091894095345e-02,4.742204238459859361e-02,7.026458069705247833e-02
1.053099578433555877e-03,6.726805577231807776e-02,7.443296679301797392e-02,2.271436430791743538e-02,3.196510224152945834e-03,3.608452232717528031e-04,8.702270348345380116e-03,6.920169588647884229e-02,3.935346646791020725e-02,5.487539474376411375e-02
1.006203847885043211e-03,5.270632458130306008e-02,6.923795897588060078e-02,9.116474603386111319e-03,2.782572471557125896e-03,4.814979035182987213e-03,4.558874625273112713e-02,4.155834955337926739e-02,3.190884897555004013e-02,2.234028819173210917e-02
9.392762516842406793e-04,3.068533741476755367e-02,7.465619655341031169e-02,3.119856176373013695e-03,3.036963195498450924e-03,7.272011531720489787e-03,8.523623153549622633e-02,2.302514071867835764e-03,1.774612979126988926e-02,1.600951831536414488e-02
8.632663202154639654e-04,9.250458853129986392e-03,7.962288133560807557e-02,1.107812722621701572e-02,3.418436454385883044e-03,8.462617009814630414e-03,1.135514001048486404e-01,3.346154701779328194e-02,2.572010173918189754e-03,3.232220896324804194e-02
7.956889619928777342e-04,1.657571557603321200e-03,6.602997097917914782e-02,1.428546462656122250e-02,2.894059004334318102e-03,1.393109661145995777e-02,1.173338673897263568e-01,4.231701609630497685e-02,1.967040371463098236e-02,1.109527133930458299e-02
7.341967221090411845e-04,3.716493583773104910e-03,3.515744050292078648e-02,1.472521625442954618e-02,9.364758120029873997e-04,2.448709712484026593e-02,8.725703742120684281e-02,4.260652810728165346e-02,3.068446816306647298e-02,3.121778124196885121e-02
6.732277410178378945e-04,2.166662256327105823e-02,8.067886660121077400e-03,1.457057326316195389e-02,1.887870807271557370e-03,3.347994774955571212e-02,2.120909117141337591e-02,4.860456937042907655e-02,3.723398303945004567e-02,5.701248583968059058e-02
6.163715711081815775e-04,4.043261028335549262e-02,5.944773849754229900e-02,1.562471147634145185e-02,4.022115573155731795e-03,3.430828773389002495e-02,5.911999512944930701e-02,4.886417239813822117e-02,3.859785498046847119e-02,3.899350198136048579e-02
5.683426081635832962e-04,4.870894346164582334e-02,9.512392769843203144e-02,1.822330706632461703e-02,4.016495729589649247e-03,2.713254776001020052e-02,1.118470814162220994e-01,2.209540581470423315e-02,4.079695104980170239e-02,1.623828408899565673e-02
5.293379412964539267e-04,4.319365481657751193e-02,8.565384455914346051e-02,2.020717614672803628e-02,1.820825553994667289e-03,1.816561731966129245e-02,1.208739176764140333e-01,2.005655750154885716e-02,5.704450821036657904e-02,6.971221949965344944e-02
4.993644198198657997e-04,2.772461343015386950e-02,3.628580166110031979e-02,2.001402652136597543e-02,1.110863260621282062e-03,1.418859474007819893e-02,1.161992623024864779e-01,4.127934283272522570e-02,8.497158989480466107e-02,7.975632912789136497e-02
4.802548310192894607e-04,7.446552224751875476e-03,1.646634424549235295e-02,1.945652771082594448e-02,3.091073850344726228e-03,1.600765879071960190e-02,1.206159190070703879e-01,3.296650220275727794e-02,9.977106471920710318e-02,4.333526793243322461e-02
4.721378140448039733e-04,1.264930453527318005e-02,4.654345414379918583e-02,2.046579299203438521e-02,3.568050262774216143e-03,1.739304466343308958e-02,1.109817361857072526e-01,1.915017240892500500e-02,8.588444902622169308e-02,3.169917970452251939e-03
4.737349832273859171e-04,2.558144029186695464e-02,5.421652438991856476e-02,2.200151038262114500e-02,3.310081095929330326e-03,1.314530656659120694e-02,6.084323065588750218e-02,1.101607866754843873e-02,6.070214280484658581e-02,1.464654540328454851e-03
4.872178812250297633e-04,2.593154182402831673e-02,4.885158222579525505e-02,2.306658765716348980e-02,3.321463593910007304e-03,5.736009164472111524e-03,1.949523639888159007e-02,6.607066300724924110e-03,5.004405282970094543e-02,3.707962462080395538e-02
5.154012248124984451e-04,1.711145601915654499e-02,3.750885050499599971e-02,2.498854455687435708e-02,3.642181001052337014e-03,4.935893693867868985e-04,1.017044642769059093e-01,4.203597944377714113e-02,5.432662957776085433e-02,7.979950281275373369e-02
5.524925710813044467e-04,9.970551020356370475e-03,2.724657258950819935e-02,2.776620408065452045e-02,3.481049389627257490e-03,1.882862870511529518e-03,1.515237329567441782e-01,7.330494971159189077e-02,5.784275905578628585e-02,1.099796793837814896e-01
5.909332252885265242e-04,1.240406398367563043e-02,2.457508184209905924e-02,2.791064883782877135e-02,2.652655428649172437e-03,3.949639292089650658e-03,1.256610503384608390e-01,6.537214075973134253e-02,5.796232590403688212e-02,1.279182121134323225e-01
6.408155953325903910e-04,2.296225559607982872e-02,2.928350870996421912e-02,2.278199006981081881e-02,2.159276158939850768e-03,6.412710877149598900e-03,1.669913123962445817e-02,9.125267830469421804e-03,6.126558787253497812e-02,1.361147520881826334e-01
7.153269589000914525e-04,3.474553355480292094e-02,3.176932519134888916e-02,1.410782537917007820e-02,2.708264116771549618e-03,8.101928541913022697e-03,1.062975017808597683e-01,6.273149456656618161e-02,5.938404441075292167e-02,1.293484214418781919e-01
7.892309994222162410e-04,4.291845638479287184e-02,2.389086244027590136e-02,5.530183926619605846e-03,3.532485691894936448e-03,8.084936330390033940e-03,1.610526404539422141e-01,1.081109181911166228e-01,3.593338451950756074e-02,1.024755472510620324e-01
8.292099765853227231e-04,4.756795322576589519e-02,1.569864887337318882e-02,3.671342022583908883e-04,3.643302639796779964e-03,5.580527424745426388e-03,1.441560552975972298e-01,1.165543713313630381e-01,3.673562024831189196e-03,6.283019593705226058e-02
8.833289222096726238e-04,5.203485444758940842e-02,2.696988281119700945e-02,1.853230244631994764e-03,3.367691330123650552e-03,8.061223940545571504e-04,1.083835654437960011e-01,1.033476538409236339e-01,3.309239194966574066e-02,3.304943410349123201e-02
1.018587128551412839e-03,6.116993563903850434e-02,5.476368436811956952e-02,2.054846260304498805e-03,3.525661974034231122e-03,3.342961984870084988e-03,7.377980111598933521e-02,7.701329590146915871e-02,3.585876317301893434e-02,3.480743560917261975e-02
1.128279727269497273e-03,7.715123267868459478e-02,7.137231770956911636e-02,1.039490122072578293e-02,3.768563790986420407e-03,4.148160764125584550e-03,2.372160467743889695e-02,4.173119745690791194e-02,1.537786382601898962e-02,6.276534032048605716e-02
1.060263238162807275e-03,9.186095371974127566e-02,6.453419831917132921e-02,1.957941109778929198e-02,2.988447835320910077e-03,3.351976830977159046e-03,2.959166377793448488e-02,2.122709888374165951e-02,2.187831906279202876e-02,8.192492988020734501e-02
1.034467188701757847e-03,8.926444397136659714e-02,5.065507637926789514e-02,2.354069322354289742e-02,1.120432352103032910e-03,4.513577164803733548e-03,4.259263153759040160e-02,3.858984876559384825e-02,6.804927753557983572e-02,6.150193303098169112e-02
1.389294414374759885e-03,6.231980924691784413e-02,3.676585758875022120e-02,1.657744780493577985e-02,7.624670885841397690e-04,7.289876681824238383e-03,4.381022757608151602e-03,7.325835069864791715e-02,9.851027679195702158e-02,7.024941841868763762e-03
1.637718636850998616e-03,2.235453254572116952e-02,6.209267557630852169e-03,5.122300063854930662e-06,2.141857256198313915e-03,8.673509840046408556e-03,4.572429789818580059e-02,7.934756085330670061e-02,8.441863070902989874e-02,4.755145777946762076e-02
7.230476648028378792e-04,1.156078338768865357e-02,4.168439438687022991e-02,1.569710801534850847e-02,3.410588405349706045e-03,7.938928274937783955e-03,7.128517609567543156e-02,4.670007335503653656e-02,3.196990755139768325e-02,7.216545933148094116e-02
1.231557428601456287e-03,2.756159850809692183e-02,7.388211334522568063e-02,2.013769170260448077e-02,4.535986695182728755e-03,6.213457939016796099e-03,7.431251382490440538e-02,6.197780485006609483e-03,1.392600013826570185e-02,6.033494103965191674e-02
2.800729673444952213e-03,2.784028794647788740e-02,6.227619585753049747e-02,1.294164373180487979e-02,4.987458810485009136e-03,3.640269501602648103e-03,7.023689447985094481e-02,2.092369244232233916e-02,1.696934919134251984e-02,2.590227064460346590e-02
3.586517521562958624e-03,2.440328008412918914e-02,1.279056082236281096e-02,1.441779057755878876e-04,4.842369369689744976e-03,1.513129344282521322e-04,5.714825602232329049e-02,4.016349404935495859e-02,1.721425550104608432e-02,1.221826785430795044e-02
4.830839887842569395e-03,2.314560252593517858e-02,4.946048244062102583e-02,1.432074801936549652e-02,4.266041266431275410e-03,3.662271836904766771e-03,2.666192296805981049e-02,5.094600567997034646e-02,6.135588018352332307e-02,4.291127597704273017e-02
6.999307131299326197e-03,1.681280272831328637e-02,9.916937418128697612e-02,2.727552250975650433e-02,2.550264189490287180e-03,7.763680105612641262e-03,1.117603479088186656e-02,3.564789316857755463e-02,1.021925579080246727e-01,6.303729308447145185e-02
8.820041691137248813e-03,3.052160836567267659e-03,1.169578048379329160e-01,3.164352844201535897e-02,4.581216523101919462e-04,1.192818963969871811e-02,3.407146065689262843e-02,6.381899900083497224e-03,1.445522155456729074e-01,7.018319299041093917e-02
9.175302293671661405e-03,4.131656060778473444e-03,9.899222829070551677e-02,2.125866550643498373e-02,3.110883921123739401e-03,1.473196052549921933e-02,3.830630358921022910e-02,4.329117152240154892e-02,1.841664931908784109e-01,6.396497613917223601e-02
8.121502898900831435e-03,4.589670110565531244e-03,6.079849106967544908e-02,1.388096691940511520e-03,3.985748264155394502e-03,1.612160870585146663e-02,4.831210779138870454e-02,4.708572916589105067e-02,1.895521155910145916e-01,5.490724420719027277e-02
6.159933033257854185e-03,1.722977420064821658e-02,2.448518155721281231e-02,2.610020152180984529e-02,3.727809144436516897e-03,1.824647082523142907e-02,8.292588812981237234e-02,2.529209389488028259e-02,1.304889346939297201e-01,5.788509202613164456e-02
3.909807032086730361e-03,1.840922447887722094e-02,5.668693524436245988e-03,4.228051978051564769e-02,3.490467987219227942e-03,2.145895263901707872e-02,1.208725110096144501e-01,9.858684151536575326e-04,2.629925782205023294e-02,6.923756028379583760e-02
2.026499826852544515e-03,8.376229086834241847e-03,6.472533323312245832e-03,4.601944440275359399e-02,3.376936861894394917e-03,2.344407952402868464e-02,1.239883732143817058e-01,3.230454725035516311e-02,5.923879777249067141e-02,6.725053728419737309e-02
6.901870859761013305e-04,4.787500250920877914e-03,1.294864952735493707e-02,4.278415328100272641e-02,3.448151500115094296e-03,2.344194299699236400e-02,9.126049099452325508e-02,7.702133805705262126e-02,8.012924404852943272e-02,4.398014571306898407e-02
2.770291005808865354e-04,1.611558989782323204e-02,8.954438778380832339e-03,4.136174747948593439e-02,4.043761640972052228e-03,2.256948006612139249e-02,5.839443350697686580e-02,1.113544445556338552e-01,4.733531081286262987e-02,1.405722786923472439e-02
8.193963908576716538e-04,1.980041049170324849e-02,5.319717036093981818e-03,4.436289008263247235e-02,4.130083247236200801e-03,1.986375080939343021e-02,5.069142908832111744e-02,9.330470852952080230e-02,6.586351544156803656e-03,1.345056056638574242e-02
8.394461060742186218e-04,8.570853826566728062e-03,1.899111687742975271e-02,4.786651876341901229e-02,1.845416025502474595e-03,1.320768184065432456e-02,7.336882316745625687e-02,2.423593071735260715e-02,4.935986358018271992e-03,4.385777222593473940e-02
6.273005913505461280e-04,1.471351988311715708e-02,2.263962549294631227e-02,4.840185838343835645e-02,2.389656585283211204e-03,4.106149013804895505e-03,1.266421232190373947e-01,4.323498165364061951e-02,1.564763857437972625e-02,7.726547085908391788e-02
5.330089418135613467e-04,3.409674607483426795e-02,4.740036351241311632e-03,4.501274560665408098e-02,6.122057500995594162e-03,3.053500419776362333e-03,1.808238142137008064e-01,6.953013558449633313e-02,4.221766307177429733e-02,1.066888529961196180e-01
5.535242694726999133e-04,3.579782622122597291e-02,3.261624589823623049e-02,3.706441833640777839e-02,8.779014155375144957e-03,6.035320342125389051e-03,1.713066214176999502e-01,6.144452784270529322e-02,5.385581676440541476e-02,1.285637224185103289e-01
5.378510138049751726e-04,2.071875850591234011e-02,4.366623349273152099e-02,2.544275033488036311e-02,1.186991241591288729e-02,5.205258109462422567e-03,8.064279258524517657e-02,3.652911992561717891e-02,5.791361992872075259e-02,1.356858220314302588e-01
4.875117104407090713e-04,9.189505017371151548e-04,2.312234198454617140e-02,1.348078647932540557e-02,1.475221762896486606e-02,2.298963240102264681e-04,1.316738604345932782e-02,4.153744889642580103e-03,6.678244524825630024e-02,1.147536689490035178e-01
4.824632991099998217e-04,2.105037450830254259e-02,1.409057206983917176e-01,3.072114484066038476e-03,1.402372939877997472e-02,9.401577066299158375e-03,3.348066775722383093e-02,6.035167275323944508e-02,6.968223016564893679e-02,6.528415648753126133e-02
5.150999174538635136e-04,3.772825670491494060e-02,2.173595714369200016e-01,6.884230798050361769e-03,8.362578536534506779e-03,2.072065003456856000e-02,5.365123758623852393e-03,1.188094750103239755e-01,5.296468708414593662e-02,6.731639905247475270e-03
5.314171751024024783e-04,5.163673502620388239e-02,2.041254369550953296e-01,1.653089817859766664e-02,1.128362492512801317e-03,2.753629646324855934e-02,1.459993047653157169e-03,1.594837664376349551e-01,3.078270033603178191e-02,4.066516605063493633e-02
5.551679116684304915e-04,5.995619070944704920e-02,1.361513158779028843e-01,2.439410864655551514e-02,3.293346591575747537e-03,2.592620752778959647e-02,2.080866074710735134e-02,1.659033092021515998e-01,2.454433254999340008e-02,7.220190914432449147e-02
6.504762115920348928e-04,5.523530659279723282e-02,6.329329725758413294e-02,3.124051410620744956e-02,4.092819886920308174e-03,1.878397562269393598e-02,3.201546814349857939e-02,1.390074310005406932e-01,2.616967513261588343e-02,9.394208472465215287e-02
7.646019660654539314e-04,3.404818801423493274e-02,3.627284719889331457e-03,3.863370496611650412e-02,3.669797517488557464e-03,1.314682765186625524e-02,2.443565698673379541e-02,1.041096603105371166e-01,1.314557479422471739e-02,1.065352275946639671e-01
7.827033718380809867e-04,3.897197540636341932e-03,3.533668671341536061e-02,4.358599867577023224e-02,3.754281916167839447e-03,1.186264289944478217e-02,3.296290177858586523e-02,8.773541179525196076e-02,1.024791110781735071e-02,9.547006125587798042e-02
8.163916626306661276e-04,2.304187173565098307e-02,4.146180520283882648e-02,4.105113871601675374e-02,3.786935009512191769e-03,9.924663179030544097e-03,8.170541084771747176e-02,8.537908739853179718e-02,1.615197660167502075e-02,4.480241993142110302e-02
1.112728157847664521e-03,3.868790052042100913e-02,1.494895230848595873e-02,3.216463887703616131e-02,3.087355091501580145e-03,1.943902872825013393e-03,1.492027566756602419e-01,7.071539458105373377e-02,6.908450924388232633e-03,3.264765739040235287e-02
1.414419259253321161e-03,3.945327872763524507e-02,2.268655503658392747e-02,2.462981825808922137e-02,2.503770642937436577e-03,8.530848145678223554e-03,1.823145216561341264e-01,4.142173584946066273e-02,4.065316446134258077e-02,8.988481229972630770e-02
8.728232730574611922e-04,2.518831936474361100e-02,4.308382340937040589e-02,2.396439235805506232e-02,2.940385762549657753e-03,1.182298299749166316e-02,1.434923083996164916e-01,3.575446494430251088e-02,6.271153267807705323e-02,8.583815869810962340e-02
8.801910229290934142e-04,1.570927302326054556e-04,3.461383003042553530e-02,2.754749520904509197e-02,3.823819931269674226e-03,4.690686335125016614e-03,5.189970275994649357e-02,8.477614043162254309e-02,6.913354571555503647e-02,2.970116514452662490e-02
2.916048358885172959e-03,3.075256985582378380e-02,1.526923939219464871e-02,2.862882179070722066e-02,4.123457108713198677e-03,4.438921827788626026e-03,3.011273023547510891e-02,1.547494889749399805e-01,7.151036295834417578e-02,2.561860344011046217e-02
3.723549973279706004e-03,5.929461254533295589e-02,1.279990787900817800e-02,2.528624272625227751e-02,3.815144679272052149e-03,5.896654830941773159e-03,5.968203527197100955e-02,1.676145420279110121e-01,8.077000626076444312e-02,4.086321546345798861e-02
2.593211073351291401e-03,7.398019527318541733e-02,2.838284373284375925e-02,2.281570994563585433e-02,3.613747738043206464e-03,1.328757381078923263e-03,5.073880884330464469e-02,9.513223534271746107e-02,9.306243429361625574e-02,3.293223044227943513e-02
2.390586387173621497e-04,6.432804572768303919e-02,3.728804449386026454e-02,2.530571643083303485e-02,3.917985890672879765e-03,6.132501684161877054e-05,3.880322599149200330e-02,1.629663015513087938e-03,9.232020190150574956e-02,4.008747611331452826e-02
1.824116694178202309e-03,3.625275701540647127e-02,2.538314351684809594e-02,2.903081734958307125e-02,4.237037604011222036e-03,3.091738231686595815e-03,2.759506935071369058e-02,3.597448282059581559e-02,6.925842805493394316e-02,5.176472922801416549e-02
2.664832916282133726e-03,1.458881840711933123e-02,2.563054084796574650e-03,2.910651640752444716e-02,3.502172600522501528e-03,1.340453907934567286e-03,3.892861014578546334e-03,1.723990053808732020e-02,2.941177131681745396e-02,1.702838473376073331e-02
2.647256514206246334e-03,1.920191042407714058e-02,1.604747948165902854e-02,2.749875398757900893e-02,1.386016845640583280e-03,1.056326337580443947e-02,5.281719529968878502e-02,8.322564332747745333e-03,1.671197556094998829e-02,6.858378606671623745e-02
2.615145463869479429e-03,3.520485061179792069e-02,2.149058060169448114e-02,2.754576827152868321e-02,7.317312134222146930e-04,2.449549486409672086e-02,8.699259018711801017e-02,2.067031193913627940e-02,5.472938115828320654e-02,1.399877774677482090e-01
2.823982163992806802e-03,2.026122561618003484e-02,1.167962723441090013e-02,2.614335007564137781e-02,9.576544572409810292e-04,2.959455084662724125e-02,9.085452204382196695e-02,3.574643544361612302e-02,6.401378734756300870e-02,1.501841039295661040e-01
3.028330893881132826e-03,4.356517878395048393e-02,3.330092080605850761e-03,1.988027495754308635e-02,8.312294881593691081e-04,2.522934784697990207e-02,8.421369337795954479e-02,5.292097727449086852e-02,3.812757355963103389e-02,1.284537425731785143e-01
3.113343898419860395e-03,1.175930213840193361e-01,4.709586363700742247e-03,1.481577724852505863e-02,2.626372993828925487e-03,1.884714297988514253e-02,8.576106762938874584e-02,4.183485141376965671e-02,1.064215523658991469e-03,1.212136838865425226e-01
3.184794841424943949e-03,1.467763269223167633e-01,1.625001883083670648e-02,2.024562916058609066e-02,2.668516380830823157e-03,1.549099534220254801e-02,8.204662822313114889e-02,1.165044484187774051e-02,1.776693159405044048e-02,1.225249627914216655e-01
3.298347342948553321e-03,1.206210925122904176e-01,4.484664517096724479e-02,3.211030357234711391e-02,1.762518723384489706e-03,1.313761667682326016e-02,4.260720489163204172e-02,7.267105283625367729e-02,1.736343559643106424e-02,9.897750161165513871e-02
3.407481064960613676e-03,7.455901284789867578e-02,5.324830450215373850e-02,3.195929943005690332e-02,2.060200662013462591e-03,7.503209189119570098e-03,4.165606969672851906e-02,8.954312905059019778e-02,1.975521689012712731e-02,4.769474745486523837e-02
3.482772191017122123e-03,4.324927807885232262e-02,2.938546709280151492e-02,8.990269098337791420e-03,3.518213245955817848e-03,3.142062202625744895e-04,1.327319830519871346e-01,4.811463508230915537e-02,3.809950687875388042e-02,4.585679967548435959e-03
3.542496612008433961e-03,3.130978173977294610e-02,5.939643696894291933e-03,2.349456183998410025e-02,3.616262379792330259e-03,4.119163670681911388e-03,1.641044954444315918e-01,2.232044701515699739e-02,6.085252637212929666e-02,3.719060598281329760e-02
3.609293081181072244e-03,2.397355101991066953e-02,2.070979009869905463e-02,4.281890737980125622e-02,1.165980965940746931e-03,1.628202867786623844e-03,1.072747212045603304e-01,8.017213981282426960e-02,6.651156522275641914e-02,4.772642637074192562e-02
3.685629252380677283e-03,1.105486022244655912e-02,6.291069658595536442e-03,4.191118727037818764e-02,2.179463632711923626e-03,2.035414694212507938e-03,1.444816287198100700e-02,8.968610888171833773e-02,4.670346739449581647e-02,4.666122915085248180e-02
3.747621643868493703e-03,5.311220664318142340e-03,2.199276785047630037e-02,2.960498943739620081e-02,5.004056934359921681e-03,2.543021024658974859e-03,3.468716891630352350e-02,3.713346637446018894e-02,9.801083004239647192e-03,5.044687412583455377e-02
3.776272370538012822e-03,2.078318123187169325e-02,4.930795246994415515e-02,1.493004900828141281e-02,7.843578762821143413e-03,2.175039207728843814e-03,2.335172638018699967e-02,4.524426848220359371e-02,3.193570293446375968e-02,6.458767378962664008e-02
3.816982678786573404e-03,3.534440724963539698e-02,6.981510151072638226e-02,4.109364829085156330e-03,1.070250280656481756e-02,4.120313375482525728e-03,1.418442517192067612e-03,9.732194277860424514e-02,6.774522986066781882e-02,7.305402576630080913e-02
3.924589497722775350e-03,4.694084970703187726e-02,7.655421500321604733e-02,4.928297862673174969e-03,1.141337943997916896e-02,6.545294985077720895e-03,5.682130375917114791e-03,8.818008658319591297e-02,8.497866139437859623e-02,5.835966031720178637e-02
4.013311671964253646e-03,4.700245269339694415e-02,5.876911531142697126e-02,1.997268718006299168e-02,8.264601421801220579e-03,6.585328385547052285e-03,2.072204034734801900e-02,3.746174121793128392e-02,7.562579825435714054e-02,2.692241795503395180e-02
3.964812879645198546e-03,2.798337007396166365e-02,1.617764584251714377e-02,3.931735249419815448e-02,3.097306534328079803e-03,5.960624773599388845e-03,2.342459815566585307e-02,8.696546320322681017e-03,4.884060382016955359e-02,3.585474024671738563e-03
3.963974246592933889e-03,5.934891417321355722e-03,3.059448144700146338e-02,4.926245477551600971e-02,2.446771646018497306e-04,7.556789560999387957e-03,1.937394340334422371e-02,4.082797511706382984e-03,2.604905439557944277e-02,6.475117574501573769e-03
4.286033375066545387e-03,3.760957532932675956e-02,5.714249527991119987e-02,4.654062526735758265e-02,6.473737928193901321e-04,9.696345275030120517e-03,1.910121204022514549e-02,6.793421359323378872e-02,2.078158108500701567e-02,3.040139724535521545e-02
4.517423535831815995e-03,4.854937291364425089e-02,6.057804700400977460e-02,3.930300810294912878e-02,6.386905671593227874e-04,9.262493706743672381e-03,1.694792334664164263e-02,1.727739021166130040e-01,3.086585355219889984e-02,4.844453447602251051e-02
3.774558559677741124e-03,3.485357752285547089e-02,5.399383023942165571e-02,3.537314185008354206e-02,1.982723427937624176e-03,7.025875826929811954e-03,7.038020089887192174e-03,2.542316071309376757e-01,4.792360930586786472e-02,3.543110747342614192e-02
2.293159427389094510e-03,1.213623980922298555e-02,4.300573026921357400e-02,3.290293578507484662e-02,3.436661397286868910e-03,4.364011805808843368e-03,1.096914569954493893e-02,2.834548718674633205e-01,6.260123469299593013e-02,9.981816434405238470e-04
1.740165795405321800e-03,7.001939593017926207e-04,2.487483817539926090e-02,2.463419719164016558e-02,3.824005019037818309e-03,5.206502959613718354e-04,4.015146399217783824e-02,2.616996154431902033e-01,6.275473537514286715e-02,2.773470484630667643e-02
2.891322194653948765e-03,4.315892214403337958e-03,6.063591707374579171e-03,1.099845128067912688e-02,3.717991792562491248e-03,7.143789085914674028e-03,6.766509358248423700e-02,2.030393478051752132e-01,3.828560719244381710e-02,3.701021437097550687e-02
4.230877485171776094e-03,1.118264409629926050e-02,5.518889827053415249e-03,4.758918656469945246e-03,3.001004709830507565e-03,9.063244346292693987e-03,5.690226638501776762e-02,1.395771731529789061e-01,1.217501848684375207e-02,6.155941187729872810e-02
4.314900607127567823e-03,1.691580940082014484e-02,3.388200705687052089e-02,1.748101336795085392e-02,3.568279085948599847e-04,2.179656873589679196e-03,1.944080885783139485e-03,1.106444521179538176e-01,7.948721311436762749e-02,1.174771217693318520e-01
3.991381116921309015e-03,2.984319768404009726e-02,7.306113983323711536e-02,4.285250821376192232e-02,3.683408090461490723e-03,7.912791845485118297e-03,5.959496207693969899e-02,1.205463696028860054e-01,1.420512627844245368e-01,1.663605506255245725e-01
4.236822656840395773e-03,4.849696192891828767e-02,8.942663240875509123e-02,6.091123412318302788e-02,6.183586377568093574e-03,1.248956233319432722e-02,6.436893163229355508e-02,1.314134914009606470e-01,1.732749068079938448e-01,1.626758852759232210e-01
3.471815887730877147e-03,5.556572953063383669e-02,6.991462374819112924e-02,5.953129017280934382e-02,5.413380450361496114e-03,1.009183437094694942e-02,2.564863821314989495e-02,1.126482196174545258e-01,1.627966431766430799e-01,1.106338850343909080e-01
2.577564481356933116e-04,4.311303899536741285e-02,3.014672626105149855e-02,4.386279603898744772e-02,3.112140316787196520e-03,6.404192329521224067e-03,6.754154388820710064e-03,7.519578789918407447e-02,1.228368617978873034e-01,5.217318035412515931e-02
5.594244143606132147e-03,2.410873770167271807e-02,1.158825591130677006e-02,2.445158572331659896e-02,2.174047968944847233e-03,6.519071031882530017e-03,6.266619288693597856e-03,4.492130924105284390e-02,7.090926844924795580e-02,1.882193620246225274e-02
9.000440893539808293e-03,1.152802683710791795e-02,4.679120347156244530e-02,6.763499019170108283e-03,2.914533101988659239e-03,1.000275861841406176e-02,4.871982774799812378e-03,2.045401638324840371e-02,2.200217894373128133e-02,7.252142280687010577e-03
8.839349629761775531e-03,4.876777687544468082e-03,6.477180429877044121e-02,4.881014415917145702e-03,2.818709024367065195e-03,1.187680238875419431e-02,1.054882187603781510e-02,2.016549851492726447e-02,4.523028815023730914e-03,8.751495508310218330e-03
6.300162313166670323e-03,3.812517412301017622e-03,5.309807182464086617e-02,4.438616465879360526e-03,3.426482670245444874e-04,7.260658616702356412e-03,5.186405898070830384e-02,7.163381774274817093e-02,4.812761830592736552e-03,4.515916299401889766e-02
3.393525502416643112e-03,1.477215636892731734e-02,1.665457972785101132e-02,7.479820163938120763e-03,2.585860504052913712e-03,3.154423085177206817e-03,7.736508487275761681e-02,8.941525137371825194e-02,3.631058263160866217e-02,8.594283938765229225e-02
1.996171469230389062e-03,3.410536495769245224e-02,1.806220629590379531e-02,1.922683095617797044e-02,3.313164044758968186e-03,1.181312072286908044e-02,6.060159536995101542e-02,4.630681204935070683e-02,5.693890692048594881e-02,1.032608119236676086e-01
3.351126874962052742e-03,4.265992316020957020e-02,2.461225240475878318e-02,1.929798137412825146e-02,2.143438985894388811e-03,1.142317002276671545e-02,2.580800674144559034e-02,2.274569769239561529e-02,4.720253286114160091e-02,9.590130195291188264e-02
6.610776477182546580e-03,2.924309640587774775e-02,1.336122584004689577e-04,8.456846121395954555e-03,1.314952726285690968e-03,4.199989593617555611e-03,1.658780128537772069e-02,5.897434085603302928e-02,1.534797594760441489e-02,8.737734095293658854e-02
9.560383380226305725e-03,6.523365023563060944e-03,3.405863558730714419e-02,3.970020354538703403e-03,1.691599582184178914e-03,1.278377605491362590e-05,5.224213061118378187e-02,4.331368287880177359e-02,1.887181913784100398e-02,8.652754670605330989e-02
1.154454364134439165e-02,6.434233226574511029e-03,5.136986553861395272e-02,1.250016156459809492e-02,2.515851945622226728e-03,3.865821939756475083e-03,1.164082615796452475e-01,1.225342174927086195e-04,4.487883710154316058e-02,7.695705233702236636e-02
1.317310372418380865e-02,7.550528249016393370e-03,4.746475296757330514e-02,1.904906335155953298e-02,3.114489653929415191e-03,9.901216914058447865e-03,1.636427727046604053e-01,4.172533332025055164e-02,6.640087734898186822e-02,4.960401164452443029e-02
1.377535666293232784e-02,8.777320118000057556e-03,3.636988087837084160e-02,2.582488050307066296e-02,2.857515743176724295e-03,1.006990500133388318e-02,1.466841644130047473e-01,6.639829184918721872e-02,8.939111101026334105e-02,1.878879462944473000e-02
1.268791675426586725e-02,1.719308240287443015e-02,2.439811165828618261e-02,3.115579554779105559e-02,9.862914240701277889e-04,4.024341156561550038e-03,6.591286276916374920e-02,7.472480900206732168e-02,1.065227041077306536e-01,2.274153850043421181e-04
1.161156279063518641e-02,2.898544263453558395e-02,5.078118436332702997e-03,3.428611421770611650e-02,1.619454233950581336e-03,2.756128514624043083e-03,2.384257463220201476e-02,8.113969680670732321e-02,1.020729990357126110e-01,7.373751407412514752e-03
1.203743759809791994e-02,3.910676246150722457e-02,1.687123528876205772e-02,3.805557240920365986e-02,2.419061447176341223e-03,6.591867338599280077e-03,7.750946065906234861e-02,9.576890628179049458e-02,7.619511261121975076e-02,7.623086175406579290e-03
1.234879320932114229e-02,4.712515802703121787e-02,2.332315189987675327e-02,4.254920979402341402e-02,5.903058091905834161e-04,7.423271742849200071e-03,1.026799259460491609e-01,1.010915055771721832e-01,5.133303483673484768e-02,3.344145600764349916e-03
1.043791667966156335e-02,5.232877028707839245e-02,1.232074438422488954e-02,4.221104274053660843e-02,1.694219752800361824e-03,5.909489708761100565e-03,1.235849557413643690e-01,6.950928186431792888e-02,4.612571337199977695e-02,1.510345500554781395e-05
6.695637283315632182e-03,5.059969367557792114e-02,4.252515379456589528e-03,3.464991965423214193e-02,2.465093690915496055e-03,2.682845063428341680e-03,1.408793793543474393e-01,8.094665757916810062e-03,5.465345453487796545e-02,4.665587255359163188e-03
2.405467635316736828e-03,4.034173169546285964e-02,1.104533190689292385e-02,2.626047959476195126e-02,2.122255610258436207e-03,9.471312983040128209e-04,1.413160544603409563e-01,4.372612857776358997e-02,5.821304786350378624e-02,1.348288121411110249e-02
1.907320501096202402e-03,2.773574633413990881e-02,2.064041094922687905e-02,2.410486930103166933e-02,1.693452444167520710e-03,4.105888127134615581e-03,1.187718204574434444e-01,6.301676181758159023e-02,4.667068474128246991e-02,1.234502144972866519e-02
5.270642907127637625e-03,2.183611366468850637e-02,1.770348503842074372e-02,2.818927514309435209e-02,1.204120073562931067e-03,7.197797722357969150e-03,8.343646630246631668e-02,5.826467350163289788e-02,2.389622314788998614e-02,2.000696008010222418e-03
6.424260019816383990e-03,2.546981151332602250e-02,4.426143198595991653e-03,3.426761584483199730e-02,5.065742428337150285e-04,1.060762371239573967e-02,6.097275790798510620e-02,3.877317818966101448e-02,5.116288465674160776e-04,1.201998005737475728e-02
5.979265730536790883e-03,3.334175364561303007e-02,3.947869634898485899e-03,3.700281730837641503e-02,7.549093909611885860e-05,1.355326255139996557e-02,6.450758271454243298e-02,3.637418573692130161e-03,1.612885901300134886e-02,5.229979403783171013e-03
5.787033182766718881e-03,3.834728234683949105e-02,2.130384952298586265e-03,3.039973282183808939e-02,2.992409786680535946e-04,1.457593180895852374e-02,6.749576726407144345e-02,3.865129596504779386e-02,2.688005124629967019e-02,4.778219385031391535e-04
5.861611725572250797e-03,3.798029808967497839e-02,1.485351194182969389e-02,1.392002552766700291e-02,8.446688881900312048e-04,1.282352396776508842e-02,3.697848401378361904e-02,6.873651648027795380e-02,3.464125639322616912e-02,1.860672085170405124e-02
4.432710051163432294e-03,3.467782460096673763e-02,1.680552869378672265e-02,2.877932485175367476e-03,1.227583056641297311e-03,9.212533333169993510e-03,1.220350722328836582e-02,8.093851769078877489e-02,3.624663052838816846e-02,4.805401409160807435e-02
1.406722710311999330e-03,3.161821601068903753e-02,6.330412884723870225e-04,9.399494169140931721e-03,1.467591435786915312e-03,6.126111723398004749e-03,3.867692297076233410e-02,9.129564561812535117e-02,2.597198258732100196e-02,4.885632655493923893e-02
5.977309695647900923e-04,2.963246280773583485e-02,2.961947241675792417e-02,5.328030672151348561e-03,1.510106364456741254e-03,4.867909344240755817e-03,4.133372737196777669e-02,1.115769573720082342e-01,4.872759480076934747e-03,1.692485274792367850e-02
3.232707012754022910e-04,2.764922596192629853e-02,5.474374495436872684e-02,2.186531009421173281e-03,6.106605112038210933e-04,3.546488767254639147e-03,5.176151056431996245e-02,1.265201402329477753e-01,1.840798475386012240e-02,9.294916749585126897e-03
2.601017699681787507e-03,2.475761468176251520e-02,6.745777180365719605e-02,8.730921739683632915e-03,1.523883562868188655e-03,7.949662658759710111e-04,6.634263759361749835e-02,1.122041296180023573e-01,3.653697436385006103e-02,7.828897999370976191e-03
3.408970856791347821e-03,2.175715428761168871e-02,7.367324069384451057e-02,1.567721427025351930e-02,3.559844588259276736e-03,7.576826869452987084e-03,4.964630834901140322e-02,7.197837996569619867e-02,5.121863960880384398e-02,2.338065609814046764e-03
2.588467389786282789e-03,2.028989303487567161e-02,8.429602439632931377e-02,2.475904311461201920e-02,3.874661085774163977e-03,1.242221422289127922e-02,5.518172719212036288e-03,3.521553094351982660e-02,6.809115719072869610e-02,4.655288930688915305e-03
2.281462517769981997e-03,1.927387412662020377e-02,9.638462091633825946e-02,3.205904847167950766e-02,2.528052411327349168e-03,1.221540571831851267e-02,1.927098664826197225e-02,2.168398651464982507e-02,8.197050191534617503e-02,9.089890789860954196e-03
3.236926499109271486e-03,1.435648344907209870e-02,9.442215101974829605e-02,2.968525684486721800e-02,8.392820970813280081e-04,7.721987205945303814e-03,2.253515029973769332e-03,2.583614848611911347e-02,7.623504171869625867e-02,2.289632943399292145e-02
4.091596826288401711e-03,4.539980994844962370e-03,7.550400200125895189e-02,1.566019142761233482e-02,2.620470655152165769e-04,7.322686293570416366e-04,3.740993000631030740e-02,3.467934807599221125e-02,4.618497734843889785e-02,3.570846171055269691e-02
4.100215608126085882e-03,3.470936257327740700e-03,5.780142971839439398e-02,9.325681533639553714e-04,6.784189864674602033e-04,7.482536316563804385e-03,7.468050639032344784e-02,4.269214910631174975e-02,1.317905994481942920e-02,4.065156228112323106e-02
3.876197747464760722e-03,3.109784962714451546e-03,5.459956588690809826e-02,9.515980497735759130e-03,6.714779528114541611e-04,1.397440081498852078e-02,8.562914460099088632e-02,4.845950409254241864e-02,8.917614522554566381e-04,4.139233551956212481e-02
