1.398553587206233587e-02,2.269761925405695477e-02,3.539313103658128096e-02,1.480330435328644847e-02,9.727891626856302121e-04,2.438297942197563753e-03,6.108813982840514967e-03,2.653095524838360378e-02,3.265601573103025894e-03,9.092000109817043735e-03
7.529490080212798871e-03,3.483090803829438226e-02,3.705980108507025278e-02,1.359164015250476955e-02,9.388668766932191118e-04,2.407752184864304403e-03,4.000307360508961046e-03,5.995046029223696782e-02,8.671384916676602977e-04,1.060338602717167747e-02
1.211390391112330406e-02,3.536767743683816995e-02,2.492470523162011731e-02,7.758230221714191785e-03,8.930467300460586408e-04,2.438417276172929159e-03,7.775685041462691849e-03,5.798504044563725091e-02,1.522057783308919951e-03,1.247279819653927986e-02
2.142952900893151796e-02,2.378917133872219050e-02,3.467686472590275713e-03,5.234655198912757310e-03,8.487891895639211679e-04,2.803867844412498075e-03,1.421719892107482959e-02,3.378400507845710082e-02,4.408484378194838134e-03,1.168683395688599989e-02
2.597270997490268643e-02,1.018753113923888398e-02,1.533570210441772240e-02,8.651308277461503340e-03,8.010618463991503587e-04,3.015093740931081186e-03,1.815214006803724661e-02,1.323711694556411675e-02,7.202242533237939240e-03,8.212486857687443381e-03
2.548442615829576291e-02,5.318977406931131927e-03,2.259149087620494420e-02,1.722337607593744588e-02,7.267974393975704670e-04,2.194229922524975045e-03,1.989465648597373015e-02,2.849649342196046344e-03,8.796379950323887295e-03,6.172940781478307437e-03
2.606896851793956069e-02,1.019184016388847980e-02,1.844214577728508359e-02,2.864520370102950284e-02,6.425671984139364606e-04,7.459504189115290533e-04,2.359680022083186779e-02,7.799957919630388058e-03,8.072286529080825723e-03,8.255305766145597593e-03
3.007870453369753533e-02,1.853942008529731872e-02,9.163870181735856574e-03,3.681445226879129923e-02,6.049536862840884568e-04,3.462585496375445750e-04,3.007033162470151150e-02,2.287640028365746370e-02,4.601256229417706803e-03,1.238957647966920823e-02
3.414990139112440010e-02,2.570332928231664968e-02,1.246584895451489233e-03,3.570067655607069013e-02,5.870858385959106971e-04,1.387697393493372020e-03,3.504060561637584864e-02,3.395951412909520989e-02,3.312278456820846005e-04,1.569015449297822551e-02
3.533402417127478462e-02,3.132298450653860783e-02,2.880353037878346720e-03,2.769279916481638334e-02,4.741680620298654742e-04,2.060838990036856049e-03,3.524080225638865499e-02,3.533354187185471645e-02,4.004196803254743767e-03,1.815626996219098579e-02
3.500638011312535297e-02,3.607409631858450594e-02,5.229316602861600397e-03,2.146392756836468588e-02,3.294701736316685064e-04,1.109628300424853487e-03,3.344294927077499230e-02,3.524026448085794405e-02,4.231829564416572827e-03,2.059336750540735964e-02
3.552087452297446324e-02,4.084040986778838395e-02,8.748934067623873392e-03,2.156506409316561249e-02,4.199517567779096033e-04,4.920731613891829318e-04,3.444108703189104753e-02,4.502447946760082531e-02,1.208431383406258393e-03,2.263290750989077962e-02
3.542295316940149291e-02,4.792368566420415060e-02,1.406585596864069060e-02,2.627599118192263522e-02,6.034384911385162276e-04,1.873740220923506309e-03,3.698933527881857058e-02,5.977450683110924895e-02,2.819737991948904204e-03,2.438261417281237936e-02
3.102757001255539160e-02,5.695708070890211777e-02,1.932365108928323777e-02,3.316300580183987462e-02,3.040385080843668343e-06,3.950125142525434674e-03,3.400322852517618372e-02,5.986885040535736002e-02,5.969802913587919473e-03,2.611364288650996901e-02
2.195898343502947214e-02,5.952281039054167083e-02,2.146131967995546994e-02,3.973905362456571499e-02,2.007220829362982035e-03,7.319216870823337835e-03,2.257746128346768688e-02,3.694499863958122104e-02,8.139546638418215102e-03,2.581366835143424771e-02
1.211663622309976443e-02,4.519012356174027800e-02,1.801304531342547838e-02,4.183087120629244010e-02,4.410210322212868711e-03,1.041738558416612122e-02,1.030684659666428193e-02,1.043343565905741760e-02,9.509685627860087198e-03,2.140387914609443581e-02
5.866945141317981768e-03,1.554101101638918729e-02,9.675659214559362981e-03,3.814540088216307467e-02,5.134909253302057282e-03,1.100935325185336232e-02,7.532097547693388656e-03,8.075523010382010605e-03,9.193447338981320868e-03,1.500827203550409925e-02
5.182150634080577925e-03,1.398680495029823966e-02,7.391256869071828085e-04,3.342216392302747169e-02,3.345974693631426859e-03,8.623167012664188433e-03,1.458194658369897298e-02,3.135618217303166866e-02,6.607436522796775874e-03,1.089226295091035544e-02
8.396233705933250566e-03,2.951644588426562479e-02,4.684925156329396850e-03,3.212237275755332883e-02,6.257326404755196711e-04,5.042891344733986016e-03,2.170543582756599352e-02,5.091927000324488611e-02,2.510999884563924582e-03,1.030680209701365091e-02
1.092826896078950144e-02,3.019946117147883149e-02,5.789931527131590011e-03,3.352844265199044632e-02,8.735515732070563361e-04,2.400230915350677358e-03,2.233117191540924529e-02,4.244704095805620220e-02,2.179593734143485222e-03,1.169117538009316337e-02
1.010181336647291220e-02,2.126218711658364735e-02,2.704895038803533866e-03,3.722581755606157311e-02,8.603423788767639978e-04,8.209915441490126062e-04,2.086858643323015461e-02,1.795726982757007983e-02,6.523493439942298737e-03,1.403209247282228081e-02
8.404483773412803338e-03,5.169754530333520517e-03,5.797229215908581909e-03,4.656652567163334366e-02,5.698761761427052156e-04,1.222441410617795734e-03,2.469855552779240751e-02,8.554254910497285924e-03,8.553558999108914693e-03,1.740104093982617825e-02
8.996463510232697788e-03,1.152310116501746411e-02,1.744558281212028883e-02,6.001081186728709355e-02,7.208865069891117264e-04,4.207117359615836910e-03,3.379447752062039040e-02,2.374017686341765507e-02,6.884068164284478514e-03,2.231621376155938641e-02
1.033840545794391906e-02,1.237353056661872827e-02,2.282612473117814900e-02,6.554581759130688468e-02,1.002976452817286746e-03,6.761717265415816483e-03,4.254411158303512269e-02,4.504399024359579534e-02,3.061859321842483328e-03,2.935460885597935415e-02
8.612143911990699160e-03,1.204671188428680859e-02,1.462044969083046465e-02,5.361515140138347485e-02,1.104930693322204180e-03,7.825540003394085981e-03,4.771262973787047251e-02,5.296011140078323021e-02,3.958735567302482019e-04,3.629630590453044453e-02
3.347330731028594353e-03,4.573395075158184081e-02,1.187237204522209773e-03,3.182381106795541953e-02,1.157212456264463188e-03,7.985914311605519372e-03,5.011177024688182741e-02,4.189732000581002092e-02,1.144109043287583295e-03,3.755855791137002048e-02
2.972327608478713898e-03,6.152538972261620276e-02,1.124662064577980868e-02,1.666441750563989535e-02,1.294858008477768477e-03,8.257190075377118799e-03,5.132443736387237720e-02,1.545625597695133441e-02,5.157661794007310438e-03,3.140915801546881325e-02
9.984084461964999949e-03,5.235790666710962021e-02,1.052224684099344054e-02,1.444244625408113575e-02,1.449721497128771044e-03,8.817348996534187661e-03,5.307049688297035828e-02,1.599438745389232530e-02,9.869426826458029336e-03,2.399516559781616695e-02
1.945513318883870454e-02,3.485306781450445146e-02,4.999284165207077725e-03,2.059651238038662235e-02,1.568826626943954595e-03,9.355051044476763930e-03,5.809935952200286080e-02,3.706346550273622448e-02,1.216573159891451428e-02,2.146912942329008700e-02
2.902619005741718938e-02,2.291983968679147179e-02,2.634337788783439657e-04,3.195642637798939978e-02,1.691802623455213950e-03,9.755012004602416076e-03,6.737123669319963759e-02,3.642079325471794110e-02,1.120607034501757381e-02,2.388434059455842723e-02
3.229464169999690659e-02,1.275509084910919459e-02,5.223455523108743066e-03,4.700963552683996849e-02,1.809348041831708572e-03,1.010085370620094312e-02,7.632421379117096394e-02,1.415592050252019451e-02,8.346680094590807827e-03,2.927705505430395691e-02
2.891510013000982496e-02,8.972013701128030670e-05,1.306829160297588027e-02,5.819122051261840095e-02,1.872835645575321928e-03,1.051873740492764893e-02,7.805835608646569113e-02,1.512247312667347465e-02,5.116882501262874638e-03,3.541579589641666997e-02
2.699967048565353120e-02,2.137760071029230508e-03,1.632846418261648877e-02,5.605948433968542532e-02,1.948427233309045449e-03,1.104810522864399687e-02,7.096536960104478375e-02,2.506842353299411352e-02,3.274132321655862446e-03,3.711614764117763393e-02
3.021739094877868778e-02,2.307898653682456669e-02,5.468553848440449103e-03,4.039509789241352983e-02,2.115370575539603053e-03,1.120585821753301674e-02,5.772520356364189281e-02,2.849151637379599908e-05,4.647704158578382094e-03,3.092347799472192765e-02
3.122448959386314032e-02,6.645581156336748119e-02,1.682053340741882300e-02,2.031611264955968804e-02,2.202639150319484016e-03,1.009120287313696428e-02,3.695446998278698741e-02,4.132132994297989942e-02,8.314717928477741854e-03,2.108512413674633323e-02
2.427295245933954251e-02,9.909829883025211839e-02,3.517320873311240159e-02,5.688292233466042680e-03,2.039933934554298816e-03,7.859244970110854100e-03,6.575848969800081843e-03,6.508389229338844284e-02,1.039822627934829102e-02,1.312371705546254257e-02
1.626435516724269656e-02,1.067775680522163595e-01,3.900416150005295984e-02,2.448623683451409648e-03,2.000630778290316079e-03,6.257005701754791809e-03,2.491315881410770955e-02,6.862443624781572327e-02,8.539750645351219110e-03,4.786286101589876107e-03
1.793200177352428232e-02,1.004888626566737414e-01,3.319896692121051401e-02,1.025719485323991695e-02,2.473690083446596598e-03,5.876324670769456950e-03,4.615570984345947203e-02,8.026585881040876336e-02,4.017649759204907148e-03,9.955995659119972613e-03
2.791723972061446388e-02,9.257368778998288639e-02,2.858537918299374966e-02,1.854643320936954359e-02,2.603217600106083867e-03,4.161604411944450944e-03,5.921675755857733203e-02,1.099579645104864084e-01,9.608269282857394202e-04,3.094055403700559856e-02
3.216518382651756269e-02,8.105312829817476472e-02,2.879053252265214094e-02,1.125355722525613923e-02,9.758047083444615745e-04,8.472035163434412427e-04,6.964153517251982228e-02,1.287244691296242638e-01,4.917037534064817514e-03,5.062495374150514926e-02
2.202882376849047558e-02,6.122334922000789714e-02,3.011656701199985978e-02,1.747630301883213236e-02,1.828854265780026659e-03,6.234472277620954454e-03,6.930381379744800230e-02,1.096245948355889233e-01,6.495830134737763661e-03,6.118742268418374264e-02
9.476664997583558389e-03,3.784019446821509230e-02,2.898481753741961875e-02,5.700210870203111652e-02,3.247270350079108948e-03,7.662081056967461404e-03,5.174083112008592139e-02,6.841954554504775521e-02,5.513398386157098569e-03,6.029241101272494324e-02
1.483834656628362642e-02,1.918495354037793796e-02,2.511756236263826617e-02,9.173376788679329930e-02,2.348540844480447899e-03,6.051289973119258411e-03,3.235170061577197220e-02,4.566931769265480945e-02,3.844713570391842302e-03,5.085465625918794003e-02
3.889383150672347245e-02,7.191996347064737172e-03,1.987272392384563727e-02,1.120903761462756915e-01,1.439900204620697373e-03,6.527159299110499649e-03,3.123955026331240795e-02,5.725433997324215485e-02,2.716957816367400209e-03,3.827578486079603881e-02
5.982253338168378592e-02,1.277868715068578714e-03,1.509132731838951601e-02,1.177382275154324337e-01,2.761209155694843449e-03,1.107147062974825347e-02,4.878837441109867140e-02,7.880452693944425824e-02,6.686357956303164022e-04,3.000725847170333804e-02
6.083940738374408325e-02,8.305474614721607141e-03,1.298913046351665365e-02,1.200777102411641900e-01,5.567164501917723843e-03,1.623576257520921440e-02,7.357186467327013479e-02,7.933022353860956499e-02,3.605355639978744236e-03,3.401763734031210129e-02
4.903868343184537848e-02,1.397774791967015470e-02,1.445769636488716987e-02,1.336883359241828606e-01,7.861582423250605342e-03,1.845463828413351076e-02,9.952120826397163611e-02,5.962456010716212645e-02,8.111572969258044538e-03,5.112292343421666330e-02
4.351017504846026868e-02,1.833346970006745000e-02,1.713295175112556842e-02,1.558259131651185680e-01,8.930421611758875347e-03,1.807698706472280273e-02,1.255570929211138609e-01,4.919561673255314072e-02,9.206199413553741578e-03,7.046454351642518488e-02
5.284634578080486811e-02,2.178828737039543301e-02,1.695503602051796899e-02,1.657306954580533842e-01,8.717406863594599070e-03,1.710326857326470093e-02,1.501475275427605338e-01,6.589838590427307685e-02,5.434328040524709878e-03,7.928841780934878236e-02
6.731935073034547856e-02,2.544232994899065653e-02,1.208958841876747042e-02,1.502450245735872936e-01,7.018826317028277473e-03,1.600626631258202440e-02,1.686373230134435852e-01,9.068960646661605729e-02,1.117617105022105815e-03,7.549718082257320106e-02
6.973281361537400636e-02,3.100228930125564428e-02,4.440697580247126783e-03,1.172765167411186082e-01,4.794195022823059642e-03,1.467193212837315103e-02,1.704292450012786786e-01,9.099381192923569617e-02,6.616457025957524392e-03,6.465457891435624771e-02
5.157742968757349222e-02,3.840370830145480724e-02,2.655616555550672272e-03,8.257595767245445861e-02,3.809660192009428192e-03,1.403374522538944000e-02,1.467178624822036148e-01,5.944648414683890297e-02,8.627155672540584921e-03,4.877109744494271398e-02
1.999363136033411106e-02,4.451865492616693953e-02,7.805054626166199258e-03,5.514469118358349131e-02,3.816246278074295929e-03,1.427285280521291624e-02,1.052396221875292748e-01,1.907672092571462141e-02,8.047250208991680448e-03,2.677015977538989983e-02
7.617137188929330033e-03,4.642281075137008606e-02,1.228567660272710318e-02,3.413660823413904033e-02,2.755064328587223180e-03,1.311789043321640036e-02,6.501047243435072176e-02,3.949336873601038203e-03,7.275831399139162659e-03,3.163809714234167535e-03
1.660655278570817572e-02,4.494428004452255543e-02,1.681240983755949436e-02,1.313989476898120776e-02,3.656935771957903463e-04,8.524537506875578402e-03,3.344806829203323534e-02,4.345562022789855802e-03,6.274603869027620823e-03,1.321840973634904638e-02
7.281344998135076685e-03,4.303245096197932246e-02,1.891264660929355482e-02,8.756528238192571104e-03,1.320984555169032364e-03,2.039102439545055837e-03,3.558752102327420938e-03,3.108347917818308354e-03,2.655356547162220256e-03,1.760055527878637283e-02
6.038676076471184186e-03,4.175380144382591363e-02,1.615888772598373171e-02,2.094188096478365874e-02,1.331784704820963665e-03,2.596400252479873390e-03,2.411545824142451167e-02,1.421562054633354610e-03,3.407995718648548257e-03,9.479186731288835599e-03
1.040445514098775961e-02,4.023989230294698627e-02,1.101823491066618831e-02,1.554400212592744329e-02,8.446490799084444955e-04,3.609620767137129010e-03,3.657294328209993728e-02,1.404888881511290322e-02,7.599371709881895184e-03,9.951793746553675227e-03
5.900617404892965004e-03,3.875638219736438073e-02,8.955939679591885805e-03,3.626322308959428753e-03,8.808758283220859825e-04,2.580048673547461879e-03,3.129295888285058697e-02,3.460865001102250010e-02,6.675995599908502755e-03,3.301680717758945227e-02
1.203335246016687746e-03,3.847197797820691573e-02,1.155866866209083466e-02,2.785431727731683613e-03,1.148122281891252646e-03,2.109146841086081102e-03,2.303728072853870185e-02,4.713439463046604355e-02,2.235951603587292905e-03,4.688159619031676689e-02
3.041933927423456311e-03,3.763020539272723258e-02,1.449574551562663946e-02,1.176431016518166006e-02,1.218157778521356416e-03,3.198927611006381622e-03,2.038905990791336012e-02,4.517468020001242507e-02,2.357803288833257120e-03,4.829459562633570124e-02
1.104284433616996991e-02,3.184633970920176110e-02,1.348639557204958477e-02,1.497414320741494859e-02,1.244727907492869639e-03,4.997511988763334717e-03,1.712158736534986209e-02,3.414345279697342250e-02,5.993981001678818331e-03,4.796837053318844107e-02
1.808424835758416782e-02,2.042223527806431155e-02,9.997445178908414762e-03,1.107209876988200434e-02,1.373064027003470652e-03,6.312103872797261012e-03,1.265973115178323227e-02,2.570336906426216872e-02,9.412889091177774337e-03,5.340937028596325076e-02
1.603874202303165117e-02,8.928956010840947977e-03,8.674464886305644981e-03,1.606825611324305680e-02,1.456787780884721221e-03,6.644722705986123336e-03,1.745987855544720024e-02,2.714142496885724870e-02,1.255128529610994442e-02,5.729004540819209595e-02
4.435524714546173683e-03,3.268794259486310257e-03,1.066352868002650237e-02,3.396634494922207842e-02,1.537054064496480793e-03,6.063004961539472486e-03,3.129131035202434297e-02,3.711173631578825599e-02,1.331664884419919877e-02,4.900947094660493275e-02
9.207077091740754893e-03,4.619523149738229140e-03,1.250242375113275010e-02,4.473025689143851624e-02,1.851675896789653280e-03,4.866465852390402559e-03,3.788437168366723395e-02,4.963712504052946589e-02,9.561083120683697145e-03,2.892315847156545078e-02
1.948950734749119867e-02,1.089861542381858825e-02,1.113392197755720507e-02,3.107620190593360712e-02,2.111691115404695090e-03,3.346359184865902673e-03,2.966352906352572386e-02,5.736107766910052141e-02,2.565071946240101396e-03,5.541857864595904279e-03
2.776267459409231114e-02,1.773703572648094307e-02,7.451761776806010464e-03,2.714625845364870144e-03,1.541690436173875954e-03,1.589110233889713068e-03,2.138851996788296989e-02,5.141465759235214206e-02,3.393111070234187260e-03,1.459264059026788886e-02
3.466760660117925580e-02,1.776729995245759225e-02,4.268772670757900282e-03,1.566528027166356335e-02,1.829111534195261720e-04,2.360534380398260216e-04,2.911197100577266050e-02,2.804381392482501248e-02,5.826528757155620408e-03,2.984273219528755378e-02
3.625202530558185865e-02,6.212195221171556113e-03,2.276597302261471924e-03,1.032384086808825485e-02,5.632146553847305675e-04,1.477488735510223148e-03,4.573962569391101102e-02,2.176919628744001124e-04,5.682184896985163075e-03,4.154632653078459831e-02
3.136494941555861837e-02,1.146079667372262509e-02,7.062120304375573213e-06,1.373831469775203470e-02,4.339307111683980570e-04,1.312009878810485803e-03,4.993632022996059849e-02,8.647096970236857819e-03,3.855515528123104607e-03,5.160449272554275268e-02
2.606967879173472183e-02,2.342405205927608133e-02,2.517969975216575139e-03,4.052223616464294131e-02,2.283972037661751320e-03,3.583491927585296180e-04,3.631504010755401413e-02,8.963466766392313989e-03,2.342892049425107084e-04,5.795137546760074226e-02
2.690192754104681408e-02,2.360399491787969900e-02,3.138492081987931739e-03,5.481261072813637530e-02,3.011284434965494968e-03,2.229724132954654867e-03,2.266727001799305127e-02,3.340286198440872711e-02,3.322469170670693493e-03,5.428440789874653533e-02
3.306486278764844688e-02,1.575394991697907920e-02,1.583861842519090511e-03,5.602560130893539242e-02,2.196513109172243058e-03,2.347070120013057797e-03,2.359574756854830938e-02,3.985786377308125905e-02,4.204065167693260205e-03,3.993003264407878061e-02
3.681667311112916258e-02,7.137762954953679254e-03,1.131345572812380608e-04,5.817489529753619437e-02,1.504657504974387132e-03,1.859752592735354558e-04,3.203821785011631146e-02,2.526705225524536816e-02,3.735480088221462911e-03,2.552168374897543363e-02
3.163966552675416544e-02,2.697597754367691072e-03,1.275920599416834143e-03,6.524543469434361531e-02,2.202802272692994286e-03,2.761903400642289758e-03,3.621346007895399205e-02,8.795731131521034724e-03,4.951921224368120190e-03,2.180791383195926705e-02
2.095971758213947822e-02,3.949414469405086031e-03,2.275047069513201712e-03,5.814182994662349391e-02,3.366874758322957115e-03,4.983822236551969584e-03,3.946612532091568065e-02,8.152433561569692386e-03,5.894859052127931869e-03,2.689002790306975824e-02
1.561924230917341450e-02,9.181090543040639623e-03,1.599708150714624624e-03,2.370429656479151187e-02,3.395826343163438430e-03,6.287732149962131124e-03,4.851010503501713284e-02,1.915391488604521394e-02,1.683810038164648085e-03,2.985035721025391942e-02
1.937867544191656383e-02,1.437761984819681260e-02,1.509384765428781238e-03,1.812543741326536409e-02,2.387073212170113482e-03,6.948162292815376895e-03,5.499053014182473526e-02,2.298930301232322837e-02,6.953923184831630779e-03,2.298123639941460766e-02
2.225404246005826051e-02,1.630314677629330841e-02,3.576733158691684268e-03,3.686098446617983720e-02,1.849495440272362666e-03,6.860217834792089672e-03,4.675815683720543903e-02,1.244486493458420162e-02,1.336713483837315489e-02,7.424324469257055463e-03
1.391268813189568652e-02,1.521031593004502219e-02,1.405913535136759079e-03,2.682340994826598601e-02,2.439272045597895393e-03,5.527441023080843785e-03,2.955688273610408007e-02,6.096062062814142091e-04,1.297518573409546169e-02,8.438255566114168105e-03
1.576320225527711068e-03,1.326218208125480406e-02,2.786879921739595159e-03,3.331962055194006428e-03,3.247929257121944489e-03,2.410725378232231840e-03,2.058710100212988656e-02,3.621993612737822721e-04,7.118395322908628239e-03,1.393395412200515091e-02
1.056508852029501566e-02,1.034729483938189899e-02,5.423869633203991410e-03,1.936423095552777807e-02,3.406741107056903296e-03,2.030010813275525110e-03,2.393341696689693654e-02,7.057802714047048225e-03,1.219132769505452572e-04,4.837860378756390217e-03
5.603523207922948834e-03,3.866732200480168385e-03,7.051055725104071054e-03,3.282477691444617846e-02,3.152182327434423226e-03,5.993957179334604736e-03,2.744250733874451648e-02,8.276895435438635928e-03,5.411884904323926992e-03,1.047347939482663401e-02
8.673752166695972848e-03,6.170780200796357681e-03,9.737505928549437459e-03,3.415408869929108943e-02,3.019747638877050364e-03,8.147613818509993888e-03,2.504629856097330409e-02,1.772468776823949051e-03,7.221497656114089607e-03,1.910724719168696573e-02
2.363515980959293369e-02,1.499499020251563938e-02,1.269981307613916692e-02,3.054352766941219322e-02,3.058562055538128696e-03,9.018214530055801426e-03,2.614350181292642364e-02,3.269212220897545554e-03,5.986114988520528299e-03,1.943081431975697548e-02
3.618059587762955526e-02,1.869410228910309626e-02,1.366959036763705677e-02,3.078692995512800901e-02,3.111484085373517582e-03,9.651008530353735737e-03,3.351464349669609072e-02,1.605577360602255914e-03,3.377490057156881578e-03,2.103771211745197531e-02
4.738539310536740018e-02,1.877447593100767947e-02,1.169619749797947902e-02,3.182756673848226997e-02,3.089472729439260521e-03,9.982481401934440238e-03,2.857316626335768342e-02,1.534691746804665337e-02,7.199897887848721433e-04,2.718348612105956144e-02
5.393733305653487103e-02,1.793152455491893449e-02,7.155004025887481793e-03,2.730006331443853712e-02,2.918039139980058670e-03,9.608146988010735426e-03,2.519785866019878286e-03,3.055788800738435187e-02,1.556035021267028386e-03,2.873403674662144622e-02
4.923881832764191724e-02,1.529473960365403291e-02,1.753662224568126263e-03,2.318738110121224688e-02,2.778409939961745938e-03,9.160194526431368958e-03,4.187139303717048178e-02,4.405032487915636757e-02,2.958837682862127273e-03,2.079897713984699137e-02
3.530836606633213498e-02,9.947746534119906656e-03,1.326808920269671732e-03,2.920761430097990399e-02,3.059118803148215462e-03,9.316734267280754947e-03,6.113051941017743490e-02,5.969903062051429982e-02,2.521539883816059126e-03,1.338649376915653985e-02
2.380018513398480390e-02,5.047142747125479660e-03,2.575403497055640985e-04,4.149517123096023441e-02,3.355539579946693364e-03,9.048690654742506598e-03,5.696390518586087748e-02,7.686222272241793885e-02,2.188819085312455502e-04,1.730329384924686464e-02
2.203648859345063923e-02,3.968093935805399111e-03,2.850621542042600272e-03,4.830196695909388938e-02,2.163732971792436694e-03,7.110539770699449494e-03,4.509776254866092182e-02,8.527331097093002188e-02,1.610468029662091892e-03,2.843997541604569371e-02
2.856073112657665433e-02,5.902654557505330329e-03,5.077945905867574036e-03,4.678150887578995387e-02,1.225384074827268665e-03,4.899726654060831618e-03,3.475673651707171519e-02,8.298432598208921318e-02,1.752225773387620542e-04,3.427949704647227647e-02
4.295663715150513373e-02,8.850828054040079523e-03,7.359350524534375750e-03,4.240730386245101374e-02,4.955194266662491138e-03,5.105267761035204611e-03,2.810170633264593917e-02,8.824947025622061070e-02,3.544842497707003520e-03,3.026216508408011499e-02
6.528711062325892600e-02,1.287156050081990181e-02,1.197564708939386283e-02,3.695649075458541655e-02,6.158997800294593872e-03,7.766594233050127735e-03,2.929527823942533471e-02,1.147169130823375294e-01,5.171997172930598019e-03,2.233449579711511979e-02
8.387812690813745142e-02,1.687988260322126344e-02,1.605040535362692311e-02,2.630549225752642009e-02,4.335768124728607044e-03,1.016662718653116998e-02,3.812811976141908255e-02,1.431021584779963163e-01,3.400637941479366447e-03,1.640611718384846207e-02
8.101513130583920530e-02,1.694830150045559258e-02,1.341064689787177869e-02,7.999199374829717851e-03,1.919610295553651844e-03,1.045486293540036707e-02,4.572629057633560701e-02,1.407249490245755796e-01,2.490804260678036123e-03,1.290891715369009776e-02
5.834932838116133752e-02,1.222035925835614385e-02,4.275136171720857713e-03,1.284037078859115097e-02,1.148931835225882984e-03,9.671349499929069587e-03,4.474346220664573992e-02,1.075933165664496038e-01,5.361391756046738309e-03,1.183693808461407787e-02
4.167270397075637650e-02,8.260950847328026730e-03,3.010101817015858015e-03,2.485679865999277510e-02,1.504950410955886849e-03,1.008989864680755535e-02,3.666970430151734323e-02,8.013060129801598264e-02,8.163399365707023694e-03,1.494434467967682353e-02
4.924624209389993207e-02,9.996745779056466497e-03,2.670043136136227707e-03,2.020266678880615688e-02,9.280882995776032658e-04,1.239319442789523808e-02,2.656825750685753648e-02,8.469126779220947920e-02,5.746508240596730904e-03,1.953903688088633184e-02
6.809540783665561647e-02,1.537878143486921291e-02,1.148916682119732703e-03,5.034223830757765528e-03,1.314299471356306743e-03,1.503085583371431035e-02,1.450985586932500120e-02,1.080712968018544551e-01,5.297822262600865306e-04,1.801889533243192926e-02
7.444378319184379034e-02,1.972834139610894419e-02,7.160594217436512966e-04,3.648698734557661791e-03,3.862676165613671865e-03,1.602128224460474051e-02,3.521061354953884670e-03,1.216854197175741836e-01,4.613155904487753652e-03,8.159320841706532018e-03
6.406272065142358529e-02,2.128453076887614967e-02,5.591373967529802980e-03,5.000414734291210202e-03,4.919247816589172005e-03,1.442631651999284892e-02,2.342229649248785475e-02,1.146555460549808780e-01,3.800756175031878934e-03,3.718304394535170126e-03
4.712300729029820362e-02,1.942452550992723390e-02,1.318001226443998343e-02,2.348894024611635628e-02,4.036799936625564203e-03,1.049448433194355088e-02,2.986081516493613308e-02,9.157857281856066067e-02,1.553809025804210294e-03,1.232143456929949213e-02
2.759595704036645405e-02,1.354904187814368055e-02,1.785356878600397740e-02,3.299701451648477668e-02,2.537086732860134586e-03,5.727254993003116565e-03,1.572087211448869315e-02,5.591911125810825750e-02,2.652610378241175917e-03,1.680397719107152785e-02
5.346190987414770404e-03,6.068892959064618731e-03,1.863614232658047584e-02,2.215159337072602000e-02,2.255963255280449276e-03,2.074317384190663659e-03,4.009390752850458886e-03,1.109608758255663588e-02,8.062523308495325031e-03,1.402430431974297127e-02
1.477836301069593294e-02,1.397415405444472588e-04,1.588478642279749983e-02,3.556599516640254581e-03,3.210560562216562257e-03,5.652378174374559500e-04,1.056208278063033856e-02,3.358975673935239714e-02,1.498090632247868308e-02,7.030643977271131689e-06
3.169229204597288907e-02,6.080264425372707698e-03,1.075555278339748386e-02,3.146293013130774946e-02,2.709851900676500062e-03,4.940270735833122810e-03,5.035558688819196001e-03,7.228365930340899248e-02,1.997172992656291723e-02,1.995422032943608773e-02
5.308090392903567351e-02,1.604106162527126761e-02,5.682437428444145865e-03,5.440136189035833097e-02,1.829631800067282573e-03,1.255413027307708193e-02,5.810760662783851557e-04,1.108612055227119475e-01,2.111822943093652483e-02,3.268610705243224501e-02
8.076850827644561914e-02,2.684427144609037238e-02,2.616796348461699392e-03,6.639082708955049150e-02,9.127349499612026976e-03,2.037386354798292540e-02,9.758105955572966448e-04,1.563158258916828303e-01,1.835529023126926396e-02,3.208502155928822513e-02
1.049476749647337420e-01,3.208972221207798126e-02,2.228582145297696403e-03,5.272442851195640462e-02,1.487247664656268092e-02,2.388388825984012753e-02,9.059033381291580964e-03,2.054426628665708687e-01,1.256792288437735307e-02,2.478376567351527754e-02
1.189471039089736587e-01,3.091440941601492770e-02,5.617775093510401878e-03,2.882498047217172277e-03,1.656578143754395063e-02,2.252381550867275581e-02,2.424072593318607471e-02,2.487950459585797081e-01,4.426688112030350078e-03,1.916119894827998313e-02
1.235063527176478576e-01,2.716082315197064154e-02,1.272956512231313529e-02,6.384461143984075659e-02,1.543511233452950215e-02,1.938081628714391144e-02,3.442337548310242523e-02,2.744357322704573665e-01,4.919200701315242300e-03,1.608915531420485739e-02
1.137282822215684025e-01,2.182738684545243793e-02,1.850881521741471608e-02,1.050704781130432502e-01,1.323819627774457108e-02,1.613518169745880096e-02,3.412961617661147001e-02,2.674238826891194298e-01,1.199467033798965257e-02,1.196513755354631711e-02
8.192461983805882086e-02,1.348028993843460206e-02,1.666675785534356413e-02,9.800662625759067048e-02,9.910422116045173799e-03,1.163157357024209929e-02,3.424657752094543289e-02,2.224124051884743269e-01,1.266713679218632767e-02,3.897549634096488143e-03
3.781796854748395442e-02,4.427656801563936186e-03,8.421539114616113930e-03,6.312660323750171609e-02,5.414655097675981875e-03,5.876241742639489764e-03,4.470818399536986149e-02,1.581947063937502729e-01,7.318501477724639187e-03,7.974563827477507139e-03
6.449323700275487632e-03,4.658539560912352759e-04,1.365404790897072626e-03,3.760270852371516703e-02,1.421022481604474700e-03,2.177411472434045633e-03,5.716162350468777242e-02,1.054556772665321690e-01,1.802401450844706319e-03,1.835860565937526279e-02
8.219711481262867436e-04,4.301421289434805700e-04,1.050568151088263850e-03,3.651829396014135559e-02,3.077522155280672939e-04,3.445083638996391216e-03,5.663161217010979909e-02,8.045079267008652113e-02,1.053114053023277569e-03,2.056678851994589788e-02
1.223047714808358707e-02,1.350958690517107662e-03,2.536030652937154746e-03,4.794808256167839428e-02,2.248851412553329234e-04,8.151509980097003047e-03,4.391720640606478626e-02,7.977633497674371799e-02,4.009686993452793273e-03,1.573827209512276837e-02
2.861156221660132726e-02,3.457411017124805558e-03,5.530637256303686314e-03,5.426848354973674848e-02,1.563214981254940419e-03,1.186803353636823460e-02,3.048893941409012640e-02,9.252768902008129404e-02,6.938795208897773417e-03,1.258940560365065520e-02
4.586466601245840768e-02,6.848492065962113670e-03,6.320995955865747057e-03,4.604776249599356469e-02,1.963125394978369916e-03,1.208228348156440909e-02,1.541163471707533358e-02,1.041970153343481642e-01,8.721347350500785467e-03,1.651520623934809792e-02
5.930017635409672722e-02,1.103228029099435382e-02,1.736841484020526169e-03,2.373376351075213303e-02,5.625486265516101364e-04,9.989298497843850100e-03,1.135183210074779299e-02,9.701825938528962912e-02,9.937929068530623744e-03,2.546001567953685638e-02
5.911782677054720075e-02,1.395140333202039146e-02,4.223231896291901842e-03,8.726064651164637358e-04,1.847005780623073431e-03,7.836442741393062281e-03,4.356003466807467639e-02,6.346952571957623079e-02,9.799661036346765317e-03,3.576784544348403372e-02
4.174889034408032357e-02,1.509605207023067761e-02,5.185015227506724680e-03,1.083090375737813180e-02,3.849817628783233116e-03,6.179229578266316400e-03,6.032738145279592512e-02,1.850684316813492117e-02,7.574401589779587718e-03,4.400303877890990312e-02
1.954640503888321890e-02,1.589523307817524919e-02,6.897209702162637778e-04,2.417763042290727200e-03,5.153931880050333439e-03,4.240622236124019090e-03,5.456652356753727284e-02,1.229383272641867975e-02,5.034135330171168529e-03,4.445302578252801479e-02
1.132885701676390224e-02,1.726072083469869234e-02,4.987247022457628846e-03,8.270777028318618274e-03,6.222488087180038339e-03,1.618819983755539127e-03,3.865369753752389420e-02,1.651219339439267270e-02,4.378259250744144862e-03,3.439673652861883341e-02
2.285555108254469850e-02,1.873022728670986278e-02,9.278969492378696601e-03,3.978756027676992602e-03,6.804637743337378294e-03,1.155274755529134452e-03,2.224627355994544808e-02,1.435883540856743718e-03,4.852681879045892682e-03,2.130753849003372280e-02
4.221762117671735981e-02,2.009847299707726367e-02,1.181483415786117180e-02,1.373465459554652768e-02,6.247460451575584037e-03,2.981530788533212715e-03,4.460996376604738772e-03,1.790828390025503425e-02,4.004083748614873511e-03,1.628877082896050196e-02
5.526804459640424771e-02,2.194813082629369638e-02,1.138472495694278948e-02,2.710720018644850390e-02,4.522869759932140327e-03,2.626935661612380280e-03,1.113480980929179229e-02,2.955385553405804125e-02,1.969319380649192479e-03,2.141195371063772668e-02
5.950292347434558288e-02,2.410193845718683336e-02,7.082995159266847890e-03,2.130784389631431436e-02,1.808155310277732852e-03,5.787587817387793588e-04,1.188705417541028805e-02,3.025413151743919227e-02,1.915468576994083620e-03,3.002803312409969144e-02
5.974923195700475309e-02,2.491788070565034360e-02,9.305436285996425373e-04,1.073830725789762068e-03,1.793087739259164801e-03,5.625657411305872227e-03,6.656934484066970303e-03,2.997370647576005909e-02,5.114357365910753017e-03,3.618231322452296339e-02
5.474061018604686746e-02,2.223350442893791759e-02,3.643587717279381504e-03,2.440725327570752307e-02,5.071152190518650980e-03,9.546642159589306328e-03,2.999519896729265292e-02,4.310671853153742739e-02,7.797908225441485888e-03,3.737456788469357277e-02
3.786342505510578021e-02,1.535846607123401639e-02,5.247701448277657631e-03,3.712973124298216826e-02,5.791080244452811825e-03,9.935567191219088490e-03,4.045613963760632398e-02,6.761493215436620297e-02,5.398631550801784480e-03,3.221139077237134690e-02
1.526623059864422143e-02,7.635211630166028121e-03,5.056977538196723992e-03,3.936702168314928224e-02,3.168109480049755705e-03,8.109410817259257720e-03,3.673023852037351350e-02,8.378379501008897945e-02,1.072762001459523799e-03,2.198788084156160644e-02
7.906119372705154580e-03,4.745198581300302115e-03,4.397215481509291965e-03,3.281677723591453627e-02,1.030923788683429107e-03,7.143659459398592204e-03,2.778322021713921369e-02,7.717138120226084419e-02,5.830968424271734674e-03,1.147754120856894072e-02
2.194128213425166479e-02,7.183228099887009090e-03,2.963539084208879296e-03,1.298757089948719169e-02,4.582604530356222151e-03,6.560820856415567996e-03,1.466590514815757813e-02,4.860401450209428376e-02,5.837132099834430737e-03,3.441310925969008443e-03
3.483372681355313694e-02,8.336913062951208098e-03,3.256836982142351591e-05,1.952224655408757795e-02,6.605790683216664072e-03,3.144218670917166281e-03,7.593138234244675017e-03,3.944141115852240094e-03,4.193816771780335337e-03,3.710034449639714425e-03
2.839507312946099038e-02,4.379576820612081367e-03,3.588854517023129433e-03,4.676872568793043888e-02,7.001094735896608648e-03,2.692652610649275309e-03,3.533140878170027560e-02,4.824756260115537626e-02,3.925693043983893848e-03,1.052052669611755996e-02
1.453512408445603588e-02,5.204303571632316102e-04,5.252257184792162234e-03,4.777563709658477070e-02,5.820922478113071778e-03,6.713075527203827240e-03,5.954889226761996002e-02,9.304033646200372820e-02,2.379509941627887346e-03,1.498045511164544652e-02
9.646018266186502654e-03,1.985272136637912088e-03,3.873908892389814080e-03,2.526421151465499046e-02,3.627366269211857591e-03,7.621053312157413662e-03,7.860970151094150149e-02,1.194464373385416001e-01,3.476842215933199226e-03,1.675929737045033299e-02
7.167949638683384674e-03,4.981719304591163827e-03,2.871576893294209253e-04,2.927303500431510924e-03,1.360399569422214659e-03,8.438212390556408884e-03,9.033048021058927290e-02,1.317930379517290029e-01,9.923829522068225786e-03,1.606198634018158114e-02
3.782309825640504507e-03,3.185088411008882726e-03,4.428541186652403851e-03,5.042024544359742164e-03,7.348590999328363988e-05,1.047867688007517693e-02,8.092272001518759084e-02,1.410134888436014311e-01,1.112420748957501301e-02,1.112400080406799642e-02
1.267453121722704294e-02,1.945618096751311477e-03,8.384774222795545254e-03,4.808443803516899637e-03,3.473384417168060771e-04,1.132257608264703765e-02,4.462494245276109328e-02,1.477949001444456845e-01,8.046973400706057544e-03,3.497299784751723394e-03
1.930438789093762153e-03,4.108155505586764782e-03,7.775943730710002492e-03,1.802645342492352042e-03,3.169176472453179988e-03,9.761603865833443777e-03,4.432006487766603636e-03,1.428902916785590727e-01,6.018152560599048656e-03,1.041771193851914051e-04
2.300638271217735759e-02,2.235313122773689709e-03,1.751554950380611233e-03,1.013467233222624907e-02,7.048552283600686801e-03,8.195294145113935294e-03,1.075179202664372155e-02,1.252375016410149089e-01,5.806048828582419108e-03,2.971041309367941641e-03
3.571166719852857802e-02,1.267368182188122064e-03,2.446580779106708684e-03,2.886022422223808240e-02,9.116687983490204261e-03,8.496243029976584260e-03,7.580866822730998253e-04,1.102543535823517634e-01,4.143586809136479490e-03,7.445030909602112432e-03
2.114158188096925545e-02,3.574151704222306141e-03,3.439199434406017657e-03,3.156593244632357326e-02,7.611371706172554916e-03,8.775430109687428273e-03,1.401736370636916772e-02,1.099499951313921697e-01,1.155446040768283575e-03,8.915095325857713693e-03
6.026437590874421379e-03,5.257214834778955667e-03,1.625190603328721325e-02,1.378576318903219217e-03,3.600760564243808085e-03,6.453712470081481023e-03,2.451801896366550410e-02,1.127543343993036712e-01,6.577364156286843208e-05,8.021126927026157177e-03
2.188342565345522892e-02,2.848903005199228053e-03,2.367415905347325725e-02,4.300438584985779439e-02,4.708764432488824316e-04,2.332361192482298572e-03,3.481384105661831235e-02,9.992389393016322396e-02,7.001222182451843652e-04,4.020545241990280613e-03
2.300961302187291835e-02,5.619931347147339405e-04,1.919033905920730296e-02,6.545494228923458280e-02,3.276759362608455597e-03,8.408757905629159549e-04,3.843222602068369770e-02,7.415421951128889355e-02,1.531328457997636655e-04,5.896061275617636536e-03
2.372246430121967287e-02,5.034752635295170831e-04,7.730760745583662233e-03,5.554953357434026795e-02,4.565326385667177640e-03,2.002364257115093939e-03,1.887425215703337350e-02,5.148138235675643604e-02,2.653004709381006233e-03,1.873789597876734589e-02
3.029679967680878189e-02,5.990461486849194515e-03,3.065471065005086985e-03,3.334785128473350541e-02,3.743799290526751873e-03,1.551570969173946771e-03,2.085601150566599241e-02,3.510480068232646467e-02,3.722094107798282897e-03,2.618527414272276560e-02
3.472416385670328703e-02,1.071066017965728936e-02,1.042867422459156646e-02,1.633215609208931579e-02,8.980914387356716579e-04,4.951989942801570928e-04,5.088034105595949652e-02,1.940326280940880138e-02,2.441129991974558266e-03,2.440624722041006417e-02
3.223158542164192286e-02,1.173555686151196882e-02,1.522071090384860895e-02,3.076156808491676848e-03,1.700018212985968894e-03,3.533018530341673104e-03,4.833155996054320364e-02,6.897747322661039460e-03,1.155928559991296900e-03,1.650527341436755849e-02
2.879641998992170382e-02,1.109988075871017402e-02,1.808527043041101637e-02,1.225791730585534117e-02,1.934956912066517409e-03,5.135698939303242130e-03,2.525484170847090357e-02,2.678772264111117796e-04,1.707256740735594918e-03,6.423551860057996610e-03
3.055636211761977861e-02,1.132341163899145027e-02,1.825783270009606260e-02,2.750971221625388846e-02,6.979802046744498691e-04,3.440773715736290383e-03,1.123946679211456148e-02,7.735738592945984662e-03,4.183992861664924401e-03,3.252561874555178877e-03
3.725349325139143408e-02,1.248503563085614360e-02,1.498477836598027801e-02,3.660971238619074863e-02,1.376015126399644404e-04,1.555170350251098557e-04,1.569298626446080994e-02,1.908950899859210640e-02,8.400298400041864705e-03,9.653293681391903261e-03
4.595159231255463439e-02,1.392508697217577016e-02,9.290028612616371348e-03,3.644570385375483362e-02,1.068646693756654473e-03,1.124744245444124664e-03,2.142287289241717740e-02,1.978994053099424055e-02,1.331443683924192316e-02,1.130411248856413864e-02
5.539367801710048944e-02,1.566245395571076726e-02,3.466584526403333234e-03,2.973452056638285421e-02,3.774970915098106554e-03,4.304912294172271543e-04,1.680001986677759698e-02,2.081868382538921286e-03,1.658455976320263175e-02,1.060480309335731786e-02
6.819662844500853915e-02,1.825377020516760415e-02,6.468608312135623595e-04,2.537020915062558613e-02,7.752475353646447187e-03,2.233722871030064099e-03,1.625256511660692904e-02,3.878312708108355711e-02,1.767117782433377110e-02,1.206814971873830696e-02
8.727119457271972913e-02,2.234767585227865824e-02,1.420456096626278005e-03,3.153212284970162427e-02,1.022308330782578829e-02,2.451140834131194761e-03,3.574281558020010741e-02,7.194589452590470502e-02,1.929845571560890108e-02,1.740864874293990283e-02
1.056298287753042742e-01,2.683150746365618039e-02,2.336996162161175151e-03,4.442469035608823807e-02,9.406476339696366942e-03,1.831325767129013274e-03,6.462198404944759222e-02,8.905546964496316442e-02,2.314556976481826553e-02,2.161477993424077565e-02
1.068851353867759368e-01,2.785883623365549913e-02,8.068886316821115290e-03,4.982699186162897753e-02,6.980652215823541715e-03,7.532636466998234677e-04,8.112180327404287794e-02,8.577433706720999362e-02,2.634959030781547015e-02,1.657867366185070482e-02
8.425061632230494701e-02,2.286054360272630689e-02,9.864422345866092137e-03,3.979797258704678709e-02,6.185932985019645600e-03,1.907191369068437625e-03,8.164696586367464759e-02,6.466381316430860893e-02,2.511324805163748022e-02,2.726841689800937538e-03
5.192833360705577384e-02,1.504948151532633886e-02,5.537950820148125446e-03,2.140586158394486641e-02,7.254204299054478437e-03,5.549511083656866184e-03,7.612790499774435560e-02,3.787305132726664220e-02,1.990080777847544682e-02,8.316546814929557177e-03
2.977786884537714576e-02,1.042530958868823597e-02,9.508716614616671749e-04,5.576352413884656280e-03,6.834564274460551946e-03,6.837245457339887790e-03,6.727597043858189740e-02,1.936054245793070866e-02,1.403559336073037858e-02,9.338959487613662097e-03
2.280517569389392540e-02,1.049701863184122896e-02,6.279231676498184429e-03,4.881306321162629663e-03,3.106353037573077094e-03,3.934163613054371227e-03,4.976361885857785022e-02,9.545055212099237685e-03,8.762193113727178434e-03,6.914534419253432276e-03
2.196808388782271054e-02,1.134319647885569105e-02,1.093316160962490811e-02,1.173613952416696291e-02,1.220263933254229398e-03,3.110823890643021113e-04,2.151201131245066359e-02,2.989702803175706830e-03,3.259162397201701561e-03,7.061502210235412295e-03
2.094466463953967295e-02,1.002170999993634744e-02,1.404351672914165225e-02,1.406417900842238562e-02,2.748430478322857941e-03,1.397608286467266628e-03,1.038547815486984965e-02,2.174800824909838004e-02,1.524333574972700422e-03,4.597337601234104121e-03
2.538003001318074950e-02,8.608087548600599354e-03,1.219266063723733334e-02,1.079586730234011888e-02,1.810198223063908766e-03,1.350112164965915811e-03,2.979120703819139807e-02,3.171795561958712373e-02,3.050124963550699710e-03,3.404867743592341137e-03
4.295486989662898603e-02,1.066540028446360741e-02,5.847945067250755538e-03,4.655169797223799796e-03,1.265979565155565551e-03,4.160460300648238449e-03,2.327045152162052211e-02,1.484405523549541840e-02,1.522699469815497891e-03,8.435405753818779953e-03
6.764746499242933753e-02,1.588971302965052831e-02,1.131936297663655496e-03,1.103315631096489415e-03,2.525461220691016789e-03,3.771843770348493313e-03,1.375113948717603465e-03,2.315065440339934832e-02,1.015599008704153343e-03,5.170892420982851727e-03
8.226650036956277556e-02,2.028592489278194244e-02,2.243931890159981974e-03,5.393113919817195227e-03,4.402706126901967387e-03,9.014543892329288663e-04,1.933449347354751491e-02,5.075003309756206948e-02,5.068237931206004410e-03,1.440360500041524801e-03
7.959691079072800379e-02,2.109304146602539870e-02,6.053779159761223799e-03,7.468966308646786574e-03,5.483277776985719630e-03,1.894249874408897479e-03,1.706339722777291262e-02,4.741342415080105482e-02,1.277542438060726496e-02,4.814519690752147932e-03
7.014213147125286651e-02,1.891140768661282723e-02,6.872881010967519383e-03,7.368002393696495775e-03,6.000022362345223959e-03,3.311587839417175477e-03,3.426874369311866571e-03,3.108857129034157257e-02,2.042680690034145985e-02,1.115334705828541738e-02
6.068312445118325543e-02,1.431643462848830248e-02,3.191904316618829427e-03,8.482491467659097201e-03,6.488551267237479929e-03,3.351109679251177993e-03,8.480781991465867475e-03,2.591170909546230625e-02,2.571660294498627486e-02,1.334364101836828763e-02
4.049302346794159124e-02,6.583848210816851607e-03,3.222309295360042871e-03,1.555858536695307014e-02,6.288891876046058191e-03,2.793949571568217233e-03,1.616821840575304037e-02,1.844019118136801597e-02,2.858500856737509338e-02,1.183058114949371402e-02
3.741713220177037870e-03,2.106515572774154271e-03,1.082656541336184802e-02,2.765386213836481047e-02,5.196896100929570585e-03,3.193317923700876842e-03,2.401605604515180334e-02,1.797306484213989641e-02,2.886860862264374952e-02,1.078499588432668514e-02
3.222926272291103122e-02,6.834840937465513216e-03,1.642878790283941112e-02,3.334995533288825226e-02,4.721658904556452416e-03,5.052322467315729232e-03,3.482737864119867660e-02,7.152866302723387415e-02,2.581279670197230564e-02,1.060888404772446919e-02
4.831518342941004684e-02,7.031339658378153376e-03,1.412521580099697187e-02,1.905919363651334755e-02,5.399129383293958112e-03,6.038865389618998554e-03,4.502322589061134861e-02,1.037522602861989107e-01,2.023844820436117992e-02,9.696519155500798667e-03
4.571380046518021961e-02,7.196902809240397596e-03,2.288810249927976815e-03,1.146794395864374899e-02,4.931346332262579943e-03,3.424557304679578390e-03,4.580787045506750504e-02,9.888379364703379915e-02,1.476627051798946356e-02,1.030661025555338825e-02
3.599591582370367110e-02,9.500785207357052842e-03,1.157242371816517845e-02,3.373433906126055426e-02,1.627795834446337355e-03,1.840753943157422915e-03,3.208965998395914981e-02,7.510985430316048650e-02,1.084626985337265072e-02,1.662015032878189080e-02
3.010280151375841623e-02,1.296951613333918382e-02,1.889662318511610428e-02,3.101356003925263144e-02,2.443584351297086420e-03,5.921624866521756590e-03,8.735399782474182265e-03,6.481588964927083307e-02,7.217002265271103834e-03,2.522797118633814811e-02
4.097238853714376544e-02,1.889946300684441222e-02,1.988971497022003904e-02,1.830212585337245845e-02,4.510325834716789536e-03,6.680578197212558300e-03,1.471310726073151581e-02,9.424912146468013285e-02,2.166155822910657489e-03,2.314092538251716347e-02
7.200713647758789915e-02,2.834837260220180594e-02,1.980955032001053759e-02,2.155142490442525649e-02,4.960498774748607100e-03,4.606055954707526101e-03,2.987135799730325850e-02,1.553288775186660586e-01,3.867448953823700037e-03,2.185572686765850127e-03
1.003855928360606747e-01,3.581339759789959470e-02,1.962642052340276069e-02,4.121474014475354219e-02,5.391038776322469757e-03,1.462932319989391334e-04,2.811708061231870184e-02,1.950996970907778461e-01,8.544831490421577608e-03,2.734050506943678377e-02
9.578043262886019871e-02,3.383315083837741544e-02,1.663752328989394000e-02,5.556370309596846135e-02,5.370071716625325620e-03,7.371704050293474871e-03,4.298506902944207800e-03,1.665490024140106884e-01,1.011608707784756103e-02,4.533172455636766407e-02
5.876697583273601116e-02,2.322014385192017888e-02,1.047612592650178955e-02,5.315461143351813550e-02,3.785302366678952764e-03,1.362207155351797053e-02,3.172932110753282076e-02,9.112211683259116568e-02,9.764918828434814707e-03,4.252080928209675537e-02
2.188861197710343862e-02,1.277337118091933545e-02,2.977170724642070644e-03,4.232178388129002877e-02,1.225093585086198256e-03,1.423288120756548841e-02,5.702225436625365379e-02,3.798822113786057275e-02,1.088560980430741329e-02,2.556047384368205153e-02
1.133356931125552823e-02,9.077927198818129886e-03,4.460244550867913278e-03,3.252671227037411128e-02,7.967910000521497265e-04,9.303532315402228414e-03,5.789697198763158609e-02,4.135600761398879749e-02,1.467219355596535366e-02,4.815286285528234955e-03
2.367954613617645476e-02,1.029267815390417715e-02,1.021162399086586459e-02,2.302211221343277228e-02,1.566157681207496974e-03,3.982109682837195810e-03,4.459885663822905216e-02,7.035407977484170461e-02,1.731716021580172529e-02,1.423746558707588740e-02
4.092265228289691803e-02,1.052206191148970411e-02,1.274465311637574920e-02,1.018833966899660749e-02,1.718722409553264567e-03,2.365125036615376136e-03,3.799596439956766381e-02,8.081961871777063044e-02,1.404269544814278591e-02,2.854642815662740418e-02
5.214633569308989997e-02,8.032243173313878548e-03,1.272820812062116363e-02,4.181849535053119502e-03,2.821990826256135475e-03,3.910587069509904867e-03,4.808279012323560253e-02,6.370648715431027898e-02,5.514991051669755617e-03,3.510289004574648764e-02
5.583727917534467983e-02,6.395705122897293697e-03,1.199845082725494588e-02,1.435860088254517324e-02,5.586021129941350256e-03,6.085198716123197196e-03,6.800738579565797359e-02,3.536926489478711688e-02,2.398387262719517236e-03,3.465579999082615825e-02
5.235941821551801101e-02,7.371954281795210437e-03,1.104464600978184372e-02,1.597824846237826113e-02,8.287423739509847814e-03,7.888650789985587886e-03,7.997809568592197105e-02,7.628167770441793630e-03,5.377927776747417482e-03,3.344696336483463789e-02
4.215106468516580107e-02,7.387369031416002145e-03,9.269425333503949690e-03,8.284142240517638339e-03,8.328292038845462597e-03,9.079085221364479458e-03,6.630191441793262253e-02,1.751426059153332604e-02,4.872520152616650196e-03,3.620823725549945221e-02
2.904545738186708678e-02,3.944940424134173174e-03,6.352888001712629282e-03,5.261022069828524654e-03,5.039534578899617506e-03,7.454554630791117645e-03,2.556214217553352819e-02,3.664274492691022012e-02,5.105880236467288599e-03,3.902121340471735589e-02
1.908967692481296913e-02,7.810260448233964994e-06,2.938027453676634194e-03,1.647872243970502706e-02,1.165532011484953011e-04,6.121248289697031261e-04,2.145619195538939900e-02,4.353337715756792903e-02,7.641838398389326492e-03,3.449250516788293641e-02
1.343691490191164031e-02,2.201271372028967398e-03,1.273990771718972381e-03,1.642410914500316843e-02,4.959154640349070983e-03,8.800959068729003951e-03,5.017704949370975498e-02,3.878294830491792189e-02,1.009881401769228103e-02,2.276081556191313082e-02
7.057472239082926597e-03,5.169320280285522907e-03,3.786793913320975809e-03,3.402590416710676857e-03,7.413582905908490742e-03,1.382359841575658138e-02,5.448854177892532846e-02,3.303761450249680098e-02,9.813849088179452812e-03,1.076178890522103485e-02
3.057772706815278449e-03,9.803012827174335808e-03,9.502741222354713080e-03,1.473446145891013984e-02,6.614647195151473515e-03,1.124152043639256582e-02,4.487184351061323379e-02,3.792673859496085292e-02,7.302082962572290642e-03,1.955232326099689676e-03
1.465844831958248475e-02,1.190475369301436867e-02,1.456858722619868221e-02,2.895466088340363509e-02,3.965738324584835474e-03,5.096203549945552309e-03,3.164814244842666102e-02,5.617289896396909787e-02,4.969889266194184654e-03,5.460513978508042127e-03
2.743419997176219094e-02,1.007266433310036527e-02,1.774074232436202714e-02,3.809333024229129283e-02,1.819386395721102464e-03,4.645799144154608975e-04,1.958690494549521904e-02,8.167942104463592201e-02,3.766520909851977812e-03,1.125139849088224557e-02
4.514017569279955844e-02,9.851144155058404531e-03,2.152367873519730676e-02,4.615255954089213936e-02,9.507912526405020359e-04,2.341285915640266974e-03,1.146349242193308443e-02,1.070461731370034586e-01,3.232515895595848392e-03,1.190536175883630254e-02
6.472274107325989845e-02,1.430270672493788413e-02,2.635958320199663016e-02,5.236224101606229420e-02,4.997481227420693837e-04,5.597643617280856874e-03,4.217584303016292530e-03,1.257979330039869226e-01,3.421535023401661105e-03,6.994437484615463260e-03
6.973454902998965643e-02,1.677772684837995978e-02,2.797191772253802833e-02,4.987265368965481532e-02,2.097591042656506469e-05,9.345807075889363616e-03,1.095136782809620277e-02,1.267401595448661988e-01,4.310305765050795671e-03,1.361290361237018839e-03
4.570923154641720609e-02,9.993154977126840130e-03,2.249641937862269236e-02,3.502120009409840501e-02,8.024608671421496820e-05,1.092226421035026596e-02,3.081590217056716721e-02,9.785718513715198352e-02,4.862812498353095980e-03,1.349316414269630029e-04
2.372706304634112674e-03,2.141788827731977950e-03,1.161025096826647472e-02,1.358372954298096152e-02,8.826792625277836207e-05,8.358777459474003510e-03,3.442738923330770223e-02,4.546780545162884546e-02,4.408827011455402310e-03,2.745466854676656063e-03
3.173984241739995216e-02,9.174093580996028549e-03,1.388434597068487989e-03,2.895038064475291811e-03,1.062414002169399666e-03,2.850323222682980655e-03,1.285672905607942312e-02,7.208285442843757797e-04,3.050206314512750230e-03,7.286624029647057604e-03
4.158775693273256829e-02,7.852800795449572588e-03,2.984904589473546394e-03,5.186998059823524562e-03,2.897844766346699321e-03,2.800061950708924302e-03,1.272948454278159496e-02,1.746044103072960652e-02,4.103204127567416969e-04,1.211010886034357900e-02
4.060247665935359795e-02,3.913771290043862108e-03,1.152942929525397524e-03,8.265082714852899082e-03,3.879545828075261875e-03,7.515920777323271441e-03,2.448843829657127921e-02,1.622602887813227174e-02,3.341961066077779163e-03,1.776600272328176730e-02
4.691213386586699091e-02,1.746228436175356093e-03,3.854202777567308433e-03,3.173367120783725237e-02,2.823384420643207295e-03,1.205725259344658795e-02,3.622230232402055827e-02,2.251542822704263175e-02,6.015114689251376684e-03,2.381058237459159760e-02
5.720265769309213627e-02,3.080400030959247058e-04,9.945327784219975750e-03,5.566368483768512759e-02,5.556776865732677203e-04,1.622780020824866193e-02,6.280597947504376610e-02,3.436644318988738706e-02,6.203581318714744379e-03,2.746430794056358218e-02
5.470069682490034252e-02,4.248144257811058665e-03,1.584222912134082561e-02,6.923741357575567690e-02,1.324807117250391799e-03,1.848633967557932953e-02,8.740140517666016018e-02,2.954445295906765051e-02,6.147388555699127496e-03,2.589993026770333676e-02
3.561491960258245798e-02,8.326196389691304517e-03,1.766951027449906869e-02,6.395097123717008447e-02,2.251002374541833089e-03,1.822022927167550252e-02,8.616901843841467956e-02,1.095424889596777890e-02,8.397277029337481963e-03,1.952428093264609726e-02
1.674708300544490436e-02,9.968282307216188437e-03,1.188831401923043200e-02,3.991524598720051081e-02,2.401059502152263006e-03,1.600571002696097450e-02,6.275177206979193345e-02,1.124075903976301180e-02,1.137386868134380308e-02,1.240297817334987118e-02
1.609269087543508878e-02,8.514285596920329047e-03,2.185135328013448376e-03,8.768790087986156820e-03,1.519844268641572108e-03,1.210083765923541076e-02,3.527856499688743208e-02,4.624943224387157575e-02,1.158939083654490255e-02,8.152330577375374240e-03
3.108559314953692615e-02,4.211333913540426729e-03,3.462710600355229859e-03,1.276164309170160945e-02,4.496357039162827800e-04,6.963712118989186933e-03,8.161755289923558823e-03,9.097176863385100787e-02,8.901121313895527312e-03,5.846272243314642320e-03
4.111696520319206571e-02,2.023008792317271438e-03,3.175694006292557360e-03,1.595013639467037989e-02,2.229267257091049892e-03,2.630448459393529802e-03,2.177069247060024054e-02,1.089561975786558085e-01,6.292875232438139774e-03,2.774523189796687141e-03
3.236571146648033886e-02,7.282301412031500637e-03,1.606826213504040837e-03,8.522623217728040462e-03,2.411519580342533567e-03,1.425635893838790927e-03,4.233992588935850399e-02,8.865391704854834465e-02,4.823624282811696251e-03,3.371619054443287730e-04
1.421537819349689806e-02,8.333434332458165839e-03,6.520821314847997279e-04,6.571685785414048755e-03,1.220494237679321022e-03,3.291766902140561262e-03,3.253762875574016389e-02,5.010425469977200508e-02,2.247311292188077653e-03,2.501357716369514983e-03
5.522594450367269980e-03,5.328524342960164889e-03,2.028166596664521260e-03,1.601619547037820557e-02,8.001290852484118006e-05,5.580669178749431830e-03,4.807525185381801916e-03,2.606608158592545882e-02,2.362379092169100431e-03,8.353291043751594896e-03
9.738154221756504386e-03,1.485211906457043710e-03,5.444717117543545169e-03,2.716060682072807264e-02,4.025254233925107611e-04,5.521334450598177832e-03,3.557979579050386809e-02,3.074810146834740590e-02,6.229344445628508427e-03,1.081356526627275279e-02
1.453113147124430841e-02,8.764533411951993917e-04,4.327196984076745606e-03,2.965147066422910496e-02,9.728682061015461995e-04,2.453529991120517555e-03,3.189960910150031748e-02,4.389648530363994550e-02,7.163143978011887909e-03,5.238539217699160304e-03
1.407368540706995137e-02,1.368635859490428472e-03,3.505877609219703889e-03,2.644424113877571342e-02,3.397523018176839323e-03,1.716329198950518114e-03,5.505429687216342044e-03,3.718723183209116101e-02,6.894968646558712402e-03,1.870502656009243037e-03
1.633017096645913296e-02,8.509315555432113432e-04,1.487269645475729728e-02,2.840492814117472758e-02,4.063044191708511076e-03,3.857562240907515434e-03,1.058068992020942331e-02,1.141220687072463762e-02,7.783928014245898586e-03,3.033905433935046685e-03
2.499912696691607150e-02,6.595837534488663625e-03,2.633339063026870347e-02,3.821067948461495667e-02,8.456716417473563070e-04,2.638519447121324968e-03,6.210772347775450619e-03,1.157515408910799425e-02,8.997631345695353278e-03,2.395852634905643042e-02
2.907738414820200054e-02,1.297704242053124117e-02,3.600740713637846924e-02,4.548474432623869634e-02,4.248539225824686169e-03,3.894089978958275439e-04,1.791421070510299061e-03,2.658214389401681449e-02,8.237715045263216407e-03,4.716319407736999092e-02
1.683441411216698644e-02,1.427732753665855205e-02,4.036514690321156562e-02,3.919190686695073894e-02,7.100589502411515201e-03,2.411556786252080616e-04,1.205228858382660639e-02,4.968063936679262271e-02,5.151305450021292920e-03,5.658019475114295371e-02
9.240625973939996934e-03,8.907999290891440922e-03,3.550376038483590846e-02,1.999967489664744927e-02,6.605786412424997575e-03,1.962422566018914589e-03,2.383971313003434636e-02,8.499658387738941168e-02,1.087117573264002966e-03,5.254063378849568172e-02
3.461769524627981293e-02,2.556768038871652920e-03,2.360950294905118929e-02,2.022738812801235225e-03,5.445936256629507755e-03,2.919525808199136593e-03,1.986644815752630980e-02,1.078875889955658446e-01,2.861776469425383884e-03,4.610372164189930483e-02
4.408697529033796941e-02,1.548941120232366023e-03,1.284731369546064476e-02,1.697557875944000552e-02,6.024220151858505207e-03,1.910891397943824659e-03,4.706426352298511209e-03,9.065009358888469204e-02,5.900926440939906897e-03,4.143449735298525283e-02
3.382868906951918414e-02,5.012724347717265223e-03,7.974374861274243984e-03,1.966972051232004914e-02,7.585416146658377490e-03,4.876576050513758195e-04,7.771441605370568370e-03,3.830647623338386681e-02,7.117098508969829478e-03,3.563234303856206708e-02
1.765898331155974638e-02,6.603502864499820497e-03,5.822675585831126911e-03,1.024110251301819235e-02,7.503532719673162467e-03,3.602602012972753402e-03,1.669889563950370179e-02,1.016876039989650891e-02,6.712934168142013595e-03,2.998903808215090672e-02
1.526332114932683198e-02,2.833643349617932534e-03,2.827065505312894526e-03,5.145014581609310897e-03,4.460238785069357663e-03,6.307560804754509809e-03,2.796101071978185360e-02,1.857337021372618135e-02,6.559729978854136889e-03,2.874644060536300089e-02
3.151867917553063253e-02,3.836294464491025579e-03,1.014751294744969034e-03,1.778253093098434989e-02,2.705862422333589284e-04,6.963309921567471632e-03,3.589322488096878538e-02,1.511873580604411633e-02,7.868133879632019378e-03,2.973242980697873156e-02
5.548752544708517725e-02,9.990490613727748617e-03,2.710090647569771312e-03,2.435590035350327157e-02,1.574928820351791450e-03,5.687481409196927518e-03,2.600617219936075808e-02,6.452713795552499076e-02,9.198531482334392287e-03,2.548237371241715218e-02
7.572396557559923913e-02,1.469130717719514118e-02,5.722462921284813403e-03,2.755401582141942668e-02,3.114931367918138050e-04,5.025776471879698538e-03,4.189388075029788425e-03,9.684901199882044176e-02,8.601595573962120961e-03,1.210328511057202905e-02
8.401769081007107176e-02,1.650666874417842586e-02,7.867108407788607830e-03,2.683581493878818211e-02,3.579631853230317347e-03,6.779942185823045926e-03,3.535961601094955026e-02,8.629103461959970744e-02,6.843772008967416789e-03,7.597032813260331564e-03
7.312970740029467454e-02,1.253917051721069667e-02,9.729236121171505602e-03,1.749643541844348588e-02,5.157276844810317756e-03,9.242061599404632899e-03,4.421289023710785887e-02,2.946645757703350230e-02,6.321782484882619048e-03,2.728957321319369980e-02
4.759147486326995025e-02,3.674478333314292952e-03,9.833860799839970121e-03,4.031444236719355402e-03,4.715454996538342297e-03,9.141184995817648942e-03,2.949064407317929931e-02,4.098178074030197487e-02,7.438912956486981413e-03,4.084825402830007113e-02
2.811579829675189823e-02,3.988681261317625522e-03,4.953847258543199808e-03,3.177344637057142630e-03,3.673113173242117686e-03,5.840528788951561412e-03,1.160838157258524753e-02,7.700479632749231140e-02,7.991963236219996186e-03,4.570064355175117166e-02
3.027495890490158534e-02,6.121099027260423590e-03,1.427031416029234546e-03,2.442987357090771472e-02,2.148335672621724292e-03,1.580559391015767118e-03,7.695689858478522993e-03,6.077175742942873132e-02,5.826676166643486587e-03,4.462366584815614934e-02
4.633983144664963194e-02,4.191148926152318474e-03,1.436486789288390561e-04,5.525369975477090190e-02,7.392339811623474966e-04,2.358976061699333618e-03,1.751209165472517384e-02,1.786134851508556359e-02,1.270555423473478541e-03,4.320209050002674772e-02
5.839864934909900357e-02,8.727227041484711227e-04,1.136717953919998657e-02,7.333338492897499561e-02,4.304779630293933262e-03,6.872697079874584038e-03,3.186739488589346303e-02,1.795184571017222064e-02,2.959982310983223005e-03,4.535890572658411724e-02
6.020348431923035204e-02,3.093895751778767862e-03,2.192825815978557621e-02,6.871156061745029020e-02,6.606550370632017360e-03,1.203726235838586608e-02,4.306119207901442508e-02,3.729302170221341500e-02,4.698802349700561230e-03,5.164645379026804040e-02
5.584124539527225706e-02,6.038722390398924833e-03,2.348611229260811131e-02,4.897433510675552187e-02,7.075505869716530727e-03,1.615381790461004746e-02,4.778813371025213835e-02,4.805063909379501258e-02,5.005537342534613528e-03,5.977146497136674730e-02
4.513237977989462829e-02,5.160070247475985993e-03,1.891049710603402365e-02,2.657901284645792020e-02,6.619706581585229135e-03,1.814621982155286903e-02,4.798330433985900645e-02,5.242778356692807257e-02,6.528105636243780076e-03,6.541358627435400752e-02
2.485934954788483753e-02,1.182470151315831094e-03,1.360509730281053188e-02,7.591120286545387924e-03,5.463558209837618938e-03,1.793398906258950043e-02,4.753955465489555221e-02,4.596772161092663178e-02,9.597302794550205407e-03,6.489847399692488805e-02
2.454371231440673380e-03,1.647958808351722513e-03,7.553326963533300853e-03,6.402283597332696259e-03,2.988884679181425755e-03,1.502016805766879202e-02,4.521699862043043056e-02,3.540913565890264902e-02,1.192760666791801982e-02,5.852954373908356156e-02
8.216993022372455144e-03,2.337160381476297618e-03,6.604028887195435241e-04,1.195399601834686715e-02,5.410120163284794790e-04,9.689718282121593390e-03,3.555928600351088847e-02,3.998721805822378489e-02,1.219052665391039472e-02,4.902100019495775340e-02
7.985160864599685077e-03,5.296407904560706224e-03,2.679603187617069469e-03,5.923551364082916583e-03,3.566394299699425074e-03,4.483276643991758806e-03,1.832724561262681628e-02,6.577445482338928340e-02,1.195104669011588447e-02,3.662967900766794099e-02
1.233984471599133825e-02,1.305507943263236638e-02,4.788624435431492951e-04,7.100633242206350754e-03,4.304303898704332949e-03,2.101545845758872027e-03,1.760305478761189750e-03,9.214549932563366463e-02,1.310540957326841727e-02,1.999056277676261595e-02
2.602788914897898737e-02,2.146929933649916258e-02,6.621145678621388406e-03,1.550784927147366363e-02,2.059546867558875206e-03,2.957971999263789981e-03,4.395596740747012218e-03,9.723856001330119514e-02,1.451896282956065959e-02,2.207118269468250332e-03
3.581413566811148669e-02,2.533552305839694915e-02,1.032197807120120540e-02,1.157087424714776935e-02,1.748368402541397928e-03,5.534218177090372351e-03,2.703422625537277389e-03,8.441210505530366559e-02,1.298914611921177416e-02,8.929360013438088217e-03
3.380139964872588831e-02,2.452175425629605360e-02,1.007143427553445700e-02,1.803716695910527251e-03,4.403308058637778535e-03,7.631320564290715314e-03,1.552401935034535690e-02,6.783128603798731227e-02,7.610860637934382077e-03,8.898363451294768328e-03
3.024053078493417132e-02,2.182342235800383001e-02,7.454964304268566627e-03,1.842548226561439156e-02,4.709129711940809523e-03,7.655498825897353275e-03,2.205587569309165608e-02,4.554173569257151388e-02,1.210965469691157323e-03,1.389903535944417810e-03
3.535202074611226708e-02,1.846488733944135277e-02,3.921777928567573082e-03,3.726108609650693321e-02,4.135293556903274319e-03,5.961781175216537658e-03,1.847901805402193606e-02,8.445280643032512108e-03,3.465242155000552212e-03,6.558222978237044157e-03
4.300271515857018861e-02,1.415385422344962729e-02,4.870055839818221996e-04,5.520635539838155553e-02,4.313267181313320230e-03,3.885827687974936252e-03,1.112390791670661745e-02,3.339003467042572088e-02,6.969976801761890509e-03,1.164559037463741738e-02
4.278601138077679777e-02,9.376157855577995151e-03,1.412139544362048249e-03,5.715336388084422264e-02,4.550469727669567525e-03,1.439838287189353604e-03,1.520530168354190153e-03,5.761455214565243399e-02,1.101579552197224157e-02,1.414205778647763950e-02
3.709785649494515974e-02,5.710528376791357101e-03,8.679554995393683192e-04,2.918553575874733089e-02,3.129126628634536222e-03,1.805105370196790314e-03,1.960801849736092811e-02,5.856941326927090491e-02,1.521284141771031377e-02,1.334060067025176488e-02
3.381467951257092347e-02,4.165449365230089115e-03,7.778732071389664587e-04,1.778365513199538922e-02,3.470525469500886648e-04,4.369013276507541406e-03,5.327756003635633619e-02,4.791310798195971832e-02,1.806334123296513688e-02,7.825216902919667275e-03
3.101619130050994877e-02,3.983802116170767280e-03,7.012218312100801767e-04,5.366370192468087469e-02,1.389867820655233798e-03,4.485939589523590086e-03,7.924263226867174492e-02,3.233196859039446508e-02,1.938411402212000118e-02,5.011057765458857075e-05
2.275149265201083237e-02,3.739001197205044872e-03,1.884030309943967273e-03,6.102239330591149868e-02,5.586536038332536817e-04,3.105469428712058499e-03,7.720674249049688798e-02,1.375474689400089240e-02,1.966720393261078489e-02,4.040105754715151917e-03
1.180177095253534536e-02,3.197306342699961744e-03,4.653295745788799641e-03,4.721090737487813188e-02,1.795263852727118151e-03,2.143999853107376140e-03,5.298596148454141896e-02,3.715230253036266340e-03,1.866134273650729702e-02,1.763475625706957192e-03
2.770934943810293878e-03,2.525727137742276533e-03,6.267608356950151761e-03,2.568030616570814162e-02,3.732928766420633062e-03,9.788957306487832549e-04,3.003286909272822811e-02,1.067942794053464151e-02,1.628853210964802817e-02,3.166701670931510067e-03
7.397691830750338822e-03,5.211154620061140847e-04,8.894315443199731983e-03,2.108898630170284987e-03,4.562282879324041501e-03,1.878506911225283653e-03,2.143170406075906032e-02,2.359389173949049193e-02,1.362018538127008488e-02,5.652612747087702033e-03
1.717751755350423876e-02,3.237332407038924584e-03,1.406371991767435201e-02,2.066982118015753267e-02,4.537312236951760239e-03,4.602621433250651817e-03,2.167466802072251855e-02,3.676469675812244625e-02,1.163411404841264291e-02,4.079059415396365205e-03
1.200526330985148167e-02,5.604094832493555431e-03,1.923403476304496457e-02,4.032192485544006805e-02,3.375678845990763999e-03,3.186250838252014089e-03,1.990946154329339274e-02,7.077602248871747714e-02,9.776055044323224419e-03,1.993721350740587780e-04
1.460478578851458209e-02,3.640713861891920530e-03,2.163588408729271578e-02,5.845481963829381872e-02,3.929792504553858206e-04,3.475663905047598427e-03,1.153847539336520789e-02,1.336642871275594002e-01,6.569075405235855029e-03,4.614822458082687429e-03
4.411511963774376877e-02,2.102725979731440457e-04,2.203774576572160165e-02,7.222423595269202024e-02,3.941915388225447278e-03,1.232018997334546374e-02,2.378930167902746848e-03,1.886692418917566283e-01,1.345534272507439150e-03,7.706316791936158525e-03
5.309798410706485783e-02,1.236999572034265787e-03,2.150048865114212102e-02,6.576992076194815295e-02,7.508441013054897688e-03,1.935143898740963181e-02,5.728283158423998558e-03,1.968516929549153638e-01,5.044715626135547019e-03,1.193947796182876810e-02
3.975545243569524045e-02,7.944415629526283343e-03,1.840473875428028441e-02,2.858291685610417354e-02,8.089545518214490485e-03,2.204420386320091532e-02,2.646976425941859057e-02,1.625654881452678335e-01,1.118948606563930671e-02,1.989040379916103690e-02
1.948287727478801787e-02,1.546449380157305029e-02,1.228168135009884317e-02,2.029856405711987985e-02,5.384183946422111539e-03,1.960745015721891346e-02,4.884151218532636202e-02,1.111325075692605052e-01,1.635209275054269953e-02,2.713545687957488045e-02
4.574674584503302457e-03,1.895005195706124523e-02,6.954867087795242424e-03,4.696226707307606801e-02,1.243344858028652212e-03,1.317475794673159985e-02,5.245015617817071207e-02,5.781616749958282814e-02,2.006293974767494118e-02,2.709634278991611758e-02
2.401198803287336609e-03,1.851898496832757313e-02,6.525688854857507673e-03,4.035200904313017423e-02,2.090051166996046653e-03,5.553098954435455384e-03,3.740901877356010707e-02,2.048978591391848597e-02,2.092117037455188885e-02,2.325258137858828358e-02
2.692033099118239584e-03,1.763006402557525457e-02,1.083105239611480142e-02,1.772971347684028365e-02,3.672365748925719535e-03,7.490587037519585469e-04,2.067233000744881158e-02,2.574743404333942887e-02,1.798584329773758941e-02,2.633376584820894956e-02
1.939421149042498162e-03,1.819280778012001207e-02,1.664529759698431949e-02,4.289150791082024794e-03,3.943819593261132378e-03,5.541414958323934679e-03,1.022593011134691372e-02,7.607484624174848387e-02,1.342777323246583526e-02,3.758111207775826496e-02
8.086573648150975277e-03,1.930111862861895455e-02,2.106227061091320990e-02,2.622860520740815868e-02,3.768526801833285440e-03,1.020791401826399471e-02,4.727855284687415560e-03,1.329320471885655497e-01,1.071284455147260804e-02,4.465870496793099276e-02
1.164709238844313134e-02,2.050596755526836942e-02,2.319018470571164794e-02,5.218847194249606747e-02,3.617358139545713731e-03,1.495215314904897730e-02,3.441139283457006481e-02,1.516915372736691303e-01,9.981366608871956522e-03,3.781255335996154543e-02
1.064211324559208305e-02,2.281073764599238565e-02,2.423706246586414259e-02,7.350581379200121779e-02,3.460059711752685573e-03,1.816278665570282211e-02,6.656937625069914155e-02,1.206449752565462441e-01,8.449545299935872292e-03,2.219306860589624272e-02
5.005077874887087393e-03,2.508628927242973275e-02,2.526915242997460412e-02,7.385670639643077129e-02,3.242213827016803430e-03,1.896866976131438010e-02,7.539696993787078916e-02,5.761011623687434940e-02,5.173186443833113247e-03,1.057324101827616589e-02
6.291264554964024792e-03,2.359539472137638788e-02,2.440034635564879498e-02,4.808189589842259276e-02,3.160115300680031453e-03,1.851667762596735309e-02,5.496495514925615888e-02,1.421293156156352641e-02,2.376940265728794566e-03,1.031288374741921865e-02
2.467635663570337534e-02,1.741640227580804751e-02,1.896263717562052600e-02,1.024082978606949586e-02,3.167019972958949603e-03,1.757137902124479567e-02,3.010174708021193246e-02,7.591720595267316407e-02,2.191943081265192508e-03,1.949082259455153787e-02
4.557658745018727808e-02,1.059687790438931104e-02,1.073859133520880908e-02,1.887739183333889473e-02,2.497734732552690101e-03,1.483038269332046140e-02,2.459361570123940605e-02,1.119702637895705899e-01,4.316281239329064316e-03,3.015179703838952521e-02
5.555161196512965749e-02,6.627516073372410541e-03,4.782406459621352593e-03,2.924062689078902114e-02,4.077552894627847302e-04,9.291382425099494607e-03,3.225399412827106155e-02,1.133102770258725411e-01,6.958970213878832266e-03,3.520878613789487493e-02
4.384337072762281573e-02,4.141505897009432197e-03,3.031690734772644284e-03,2.440272691712972591e-02,2.337576662003927434e-03,2.817809208233035961e-03,3.444768795402261552e-02,8.358601596487996721e-02,8.455156942335419895e-03,3.550994504654384626e-02
1.829079268620477372e-02,7.200447858424167263e-04,4.450277650658571171e-03,9.974931561364436955e-03,3.392697372856432435e-03,1.261071763583048247e-03,3.350770709868058916e-02,4.232441687733157903e-02,7.501457890034772015e-03,3.638174659541594524e-02
1.369230501351171008e-03,1.455763098898462662e-03,1.002984380445613721e-02,1.312817047403601854e-02,1.393370576441621111e-03,1.532908994275793569e-03,4.480367510278036175e-02,1.666192376003891584e-02,3.519109060844783071e-03,3.646447167084346241e-02
6.116484205730252435e-03,2.109661527054899378e-03,1.935905036774253699e-02,3.927110972419195489e-02,1.489164849264253392e-03,6.948113684523699995e-05,6.101434350329490441e-02,2.103244166345081753e-02,1.461293311394497221e-03,2.891037224300135877e-02
2.295385250573073535e-02,9.972814628658606059e-03,2.384272679509372855e-02,5.063759907140737843e-02,1.377367074985763693e-03,1.456865683620755169e-04,5.464664799042437404e-02,4.673531914143323057e-02,2.704592687848614459e-03,1.408169027303520643e-02
3.454983218756605551e-02,1.394462877787394986e-02,1.432557030132556447e-02,3.361807742064198273e-02,2.309467670522567101e-03,2.176707352803996468e-03,2.067961483419162791e-02,7.618409564023718994e-02,2.417535500984614207e-03,1.677968101629042155e-04
3.448789524017097097e-02,9.647966857124223167e-03,4.504745374128549425e-03,1.971017237193345515e-04,5.761135232053584375e-03,3.620081364699674793e-03,1.296428629049561736e-02,9.906690870936314675e-02,1.019972579768609576e-02,8.684045302102452041e-03
2.394365776160992457e-02,2.415873987648221258e-03,1.764040725478882576e-02,2.161366173674883831e-02,5.666396468702096859e-03,1.271364793690486251e-03,2.482832837007784357e-02,1.085917589881416762e-01,1.422525711768805358e-02,1.477199258235767712e-02
1.856083194764109913e-03,1.226159215734631651e-03,1.771959803122428317e-02,1.809107703348675905e-02,3.088231501141594244e-03,2.335206592124153789e-03,2.074316057449142672e-02,9.631839798139024689e-02,1.232385852072942836e-02,1.931606886775454751e-02
2.760442779271225083e-02,1.199908526894226130e-03,1.097401166540212629e-02,9.344839799733739918e-04,1.139304700261512893e-03,2.361714013403809313e-03,1.032708973654458857e-02,6.473636246284493467e-02,7.115822145007417478e-03,2.152263864641585506e-02
4.744975317324047481e-02,1.099614049200435236e-03,6.080618073267192100e-03,2.016286901060450679e-02,6.592104509092419368e-04,1.155748155035685523e-03,4.647351740564711203e-03,3.483967832830289074e-02,1.310534873619327405e-03,2.242920430530689208e-02
4.419162395147966521e-02,7.202304148448499671e-03,4.495751559743228418e-03,3.468207339136590572e-02,1.474914600120845779e-04,3.960324204447927647e-03,1.231867988216652464e-02,2.623030602660562927e-02,4.337866450048397104e-03,2.296775606925915286e-02
2.546321514874111749e-02,1.549984005474458644e-02,2.709826758123208990e-03,4.745286540309337497e-02,1.093202738900162342e-03,4.576068165421427400e-03,5.361367325467992530e-03,3.616947921419274431e-02,9.706332379706847369e-03,2.172032503347676863e-02
7.852740424893984994e-03,1.796389134576269545e-02,1.099211229492494347e-04,5.744164809363085100e-02,2.062990499403192634e-03,5.457672330681929106e-03,4.204783863361856444e-02,4.957146939133071778e-02,1.466929699448399523e-02,1.863677936492942264e-02
4.511485704131249809e-03,9.271031635743597413e-03,1.654999445435738738e-03,5.474000068585263556e-02,2.134640139189969595e-03,7.578969585128749777e-03,6.872220829059595693e-02,5.916528976407321727e-02,1.911722593347106938e-02,1.586127445392172125e-02
1.495372725111864150e-02,5.397022286197841051e-03,1.101147840613084759e-02,3.195478283851614643e-02,1.987053183557921376e-03,9.088420390392083076e-03,7.178203463748795976e-02,6.199795745020221516e-02,2.225601675714216493e-02,1.234114637921670046e-02
1.888272851761479271e-02,1.705502816457134599e-02,2.301262250878733512e-02,7.555680442447565946e-05,2.179357799242420332e-03,9.282219399934848666e-03,6.387066090587853462e-02,5.047667872568414177e-02,2.302730595849796988e-02,4.745607916647768751e-03
1.267400112463226702e-02,2.327071321560553185e-02,2.789210145164762455e-02,1.710130772312368555e-02,2.335025801898913279e-03,9.150107380452285333e-03,5.500453646805031349e-02,2.702236628962847304e-02,2.212523114894127813e-02,3.719703678434768419e-03
8.470754581935356284e-03,2.619775093609415587e-02,2.285414531551422171e-02,7.138323140717695546e-03,2.238487985170761752e-03,8.007344959772937781e-03,3.941550249275553586e-02,1.423695002406896552e-02,2.198688356250387901e-02,4.262427065171302439e-03
1.934521704901755179e-02,2.495259464954837497e-02,1.446116920560165664e-02,1.493829703199519264e-02,2.485446824867760130e-03,4.049234187193890243e-03,1.425451497681345762e-02,2.993888421445173656e-02,2.354430618311606493e-02,4.497786144305907646e-03
3.691253821202308827e-02,1.785969261394610569e-02,9.394832086288872411e-03,2.421117754840844058e-02,3.106063490207258519e-03,1.301052423337449105e-03,1.130295141661001243e-02,6.395371011255945870e-02,2.418209278781844121e-02,1.370869215930409918e-02
4.102095850162264246e-02,9.360469161515996492e-03,8.009625849820952576e-03,1.199912835891052063e-02,2.535391408912783529e-03,3.479066921521435825e-03,2.860179950723090378e-02,9.271592243911958020e-02,2.015734033607506984e-02,1.695114085497752623e-02
2.432718246935861722e-02,6.474934316148006110e-03,7.937637827680065969e-03,1.161626300186832488e-02,6.033608494581082886e-04,3.796920066738947771e-04,3.430374007338480441e-02,1.014009508936024456e-01,1.071914800981372227e-02,1.635415964278517931e-02
4.963852699762648368e-03,9.204778749700664661e-03,8.318601224146316211e-03,3.514607205483462338e-02,5.404342012066676998e-03,5.084428479195850746e-03,2.395653096853596342e-02,8.482619120746709429e-02,8.038713449127344972e-04,1.545339561754958610e-02
3.534221793583066512e-02,1.095940722966869466e-02,7.668561086950353121e-03,5.286697664796197182e-02,9.755891695276488335e-03,9.331244034188791378e-03,2.964463245012286148e-03,4.578472292255893195e-02,9.921058667472719417e-03,1.550537618668270355e-02
5.738216387350642683e-02,8.562881019438790473e-03,3.043067403185752574e-03,5.783461625698275987e-02,1.246945495059756728e-02,1.206037775814459978e-02,3.205690120825689660e-02,3.047724652980856805e-04,1.428831134461308432e-02,1.776945640918644112e-02
6.548002712627692956e-02,5.885908944228145784e-03,4.742004212379507394e-03,4.364870384045924090e-02,1.314814004562642712e-02,1.400714825490099666e-02,4.142511002788474422e-02,3.227607115114908276e-02,1.427316287112230520e-02,2.093507871184011049e-02
6.061165117103119171e-02,5.767593878906141988e-03,9.676346630723513947e-03,1.669965710542989368e-02,1.148122007371194832e-02,1.385688065532070939e-02,2.315079701056374853e-02,3.787167016559792043e-02,1.201649077363436263e-02,1.945641955667411910e-02
4.681510784431626437e-02,5.208495679503481746e-03,7.526577960541475792e-03,4.497781178296346612e-03,7.833222065143904955e-03,1.030384219964637638e-02,7.152153104316184666e-03,1.742224551200229066e-02,1.033996076639895692e-02,1.077485829703721948e-02
2.692728192634796791e-02,3.741730871484801393e-03,2.404125328558130367e-04,7.467469510218906203e-03,3.457028188155132544e-03,5.137665302390756125e-03,2.368068151719298145e-02,1.744638118596385928e-02,1.043889040576457920e-02,8.486498047840936813e-04
7.139422138582214583e-03,8.315228014425878056e-03,7.706545519895698082e-03,2.762024874162229658e-03,2.848891726193868591e-04,1.505934403885877872e-03,1.558777261268244098e-02,4.315954057824197138e-02,1.036839611800622132e-02,1.073562348910766032e-02
2.149540770604225961e-03,2.108195530522107702e-02,1.332866134670883385e-02,1.358812714053110778e-02,2.481953411627552640e-03,2.257244603058278058e-04,4.081358156448606882e-04,3.924557582443687770e-02,7.839040002178493741e-03,1.704564095343276756e-02
2.023717604964835135e-03,3.125036418344291633e-02,1.573473723634311386e-02,1.958166682170538186e-02,3.018959019240710032e-03,1.486700469374904049e-04,8.955576302330323785e-04,1.314110463131590821e-02,3.746862363991427386e-03,1.720283869546277919e-02
1.059470561941161168e-02,2.885484345876236298e-02,1.546620365201619753e-02,2.147829577284026195e-02,2.684111383190826167e-03,4.769379507059661859e-04,2.007012667935917719e-02,8.570742423569924912e-03,4.208430532774126015e-04,9.573892195758867962e-03
1.517558438980057961e-02,1.711177669500794571e-02,1.224099349022153560e-02,1.705642116625047042e-02,2.393034657844859796e-03,1.577856388940366552e-04,3.052322154960744952e-02,1.995509284156610913e-02,2.400112961930737140e-03,9.274107630242271749e-04
1.644454543799147780e-02,3.186134906494292145e-03,4.286783919358185674e-03,4.772367784275696918e-03,2.339980415176940321e-03,9.474020618957490177e-04,1.332007575258026613e-02,4.124732464557436667e-02,6.723550227412550609e-03,6.754292560081011365e-03
1.635475446582447881e-02,1.171046948448437389e-02,6.339330077795895385e-03,5.405658768405418105e-03,2.239146172057089514e-03,1.176222940421620773e-03,1.905572694348998952e-02,7.793966857078886423e-02,1.189257949245294162e-02,7.877182000267901954e-03
1.193603430950597455e-02,2.543157739783510549e-02,1.108936686255663183e-02,6.517309962937528969e-04,2.012018439605806151e-03,1.226115300709092236e-03,4.060978362031211764e-02,1.054395431406525280e-01,1.387491874174357452e-02,1.142883063646801811e-02
4.730380021676066499e-04,2.969201184309853275e-02,4.002217599836406861e-03,2.051768432334248604e-02,1.829608323377075046e-03,5.431498355608188611e-03,4.055716999411034668e-02,1.036752218843893236e-01,9.941026973760621124e-03,2.058734731384493158e-02
1.606439350264697585e-02,2.009265327062545459e-02,9.755097857467275035e-03,3.576204344424217807e-02,1.718909250571268397e-03,8.685666813945653805e-03,2.617596083697995568e-02,7.865497070705729232e-02,2.721819535789705025e-03,2.978794266917676042e-02
3.251108943832668047e-02,3.839096396045739781e-03,2.029794460215235408e-02,3.587414534130466126e-02,1.517671833881133799e-03,9.729156279846322419e-03,8.176612189411227791e-03,4.545646006042423221e-02,2.167314905326737668e-03,3.210218587941097990e-02
4.249469315353480992e-02,8.057422781168130030e-03,2.411591258394927065e-02,2.783812488322311152e-02,1.247128752069279808e-03,9.415239161248529012e-03,6.649439632639615218e-03,1.519060452846545187e-02,2.627023892195221814e-03,2.637621745804524104e-02
4.257440440425880324e-02,1.067434516524906618e-02,2.361837771148873541e-02,2.003814425454326920e-02,1.177787777892585217e-03,7.969853531417252918e-03,1.410649087052986798e-02,1.730247891768634493e-03,1.774119205405054727e-03,1.619673187293329403e-02
3.714122181078026441e-02,4.711181764180272062e-03,1.968076534880997333e-02,1.062262037613638868e-02,1.254333432121994708e-03,4.798595648505152474e-03,1.380917311539892056e-02,1.544121202322681907e-03,2.466422343142973036e-03,6.428152187005219814e-03
3.301369284173588659e-02,6.912786009236122908e-03,1.093538635441443189e-02,4.239345717505775546e-03,9.045562551336983927e-04,1.263133002472272438e-03,1.081638683213126395e-02,2.436787594820002609e-02,3.992914790576912280e-03,1.132076284647088107e-03
2.839376278418502889e-02,1.837397073089513250e-02,1.855541389259206730e-04,2.103324056872698383e-02,2.551140441239748094e-06,1.426087809830334664e-04,1.038372032393830233e-02,6.178113495100567842e-02,5.627491180010577715e-03,2.033146396804297318e-04
1.645723011564644012e-02,2.300177650956721290e-02,6.893161602921620695e-03,3.247864656998257493e-02,5.749131327994619952e-04,1.852593754813873766e-03,1.300316957896793975e-02,1.010657781240385661e-01,8.777617305061732531e-03,1.869555738047938044e-03
5.793741352604114998e-04,1.986936310082054041e-02,6.659543037833331493e-03,3.349556061081123554e-02,1.859546751718931142e-04,4.090229505639975116e-03,1.740150006520487652e-02,1.192853171721736522e-01,1.380644641193040471e-02,9.547884322170470395e-03
5.391229365388142472e-03,1.402481655137646950e-02,5.357935972080616824e-03,2.058554894443410249e-02,5.294661296936598125e-04,5.042918998183470308e-03,2.329547776739344239e-02,1.021813954944962161e-01,1.876629477311647642e-02,1.947159397646868947e-02
4.815511531587544566e-03,9.181995652415878353e-03,8.280381208236174684e-03,6.515674914371612225e-03,7.007267088327118589e-04,4.477644054604549423e-03,2.925294202610744659e-02,6.308888665317477495e-02,2.211536564762553447e-02,2.418766992748053526e-02
2.118430482894375147e-02,5.211424203504747867e-03,1.233082467373838170e-02,3.772428851228169094e-02,4.518679915898497833e-04,2.622810643368305404e-03,3.321202093203842048e-02,2.738346885809930104e-02,2.352861102354541004e-02,2.133033656061467803e-02
3.037869980091382344e-02,2.424296142011990972e-03,1.249083381169803844e-02,5.598289655178344260e-02,3.459657095674271120e-04,2.727755837752337772e-04,3.537731636085345022e-02,2.595770084595645441e-03,2.256096498352141641e-02,1.559108282586480626e-02
2.894110542385832513e-02,2.810932040937222723e-03,1.035470541395693347e-02,5.486580824173058202e-02,4.495790703695581349e-04,1.147147653739341577e-03,3.781552223782350813e-02,1.692687812594197150e-02,1.923680939927225816e-02,1.248931387963117708e-02
1.998317492821330768e-02,6.810245611824888856e-03,1.039042918234366411e-02,4.475690799390708019e-02,5.180848203296149279e-04,1.263678269854089879e-03,4.269251339598090916e-02,2.099167822119452423e-02,1.489296101123832074e-02,1.282821517574826535e-02
5.976822845403557613e-03,1.230364926690131512e-02,1.283232252838546229e-02,3.529709107272847174e-02,5.106533254753374551e-04,1.367481550497334167e-03,4.780567747424181030e-02,8.662135596125329282e-03,1.057414282419654600e-02,1.377253209183833260e-02
9.416339906511307992e-03,1.621860842878415296e-02,1.517774700921810035e-02,2.363897989907215100e-02,5.372534967335305164e-04,2.572506568845314180e-03,4.032301765196170257e-02,5.712321444598299214e-02,6.238322059897885401e-03,1.387537221116107514e-02
1.956682988266160786e-02,1.513472875426315374e-02,1.616894901607075427e-02,9.211818706254428293e-03,6.151220025781405651e-04,4.421423364447389648e-03,7.127732463805209855e-03,7.959515000760232495e-02,2.580419902657378993e-03,1.398455427719514331e-02
2.057928661797517669e-02,6.600396895261157436e-03,1.525165793208650179e-02,4.854298487200886351e-03,6.893283373569285364e-04,5.617228405612563653e-03,4.037305668422712379e-02,5.667685763780259955e-02,1.114669783804690196e-03,1.294360800686890876e-02
1.478029871652336742e-02,7.693466410244385704e-03,1.215745426291060631e-02,1.826073794533277991e-02,7.471591395244450099e-04,5.480106554339274350e-03,7.000799560768254659e-02,1.365811463839317064e-02,1.493184385250599698e-03,7.906446198262315553e-03
6.272058534859377768e-03,2.208752832781447906e-02,8.263841823477346277e-03,3.525924102183845832e-02,8.100508545351003259e-04,4.439098922995138481e-03,6.794169886964918081e-02,2.190287993774510042e-02,1.273294745949141550e-03,8.119014779983302257e-04
3.019155278642488352e-03,3.188759356429215347e-02,5.553517401827140140e-03,3.728212042032524876e-02,8.800399292266257618e-04,3.141698078644983815e-03,5.326339940000406059e-02,5.033287846923672343e-02,9.877528230957922060e-04,1.982209468866390559e-03
1.153163125369020825e-02,3.643954880567785992e-02,4.623490511091185064e-03,2.510555369120697627e-02,9.429895776577631832e-04,1.487121399226914650e-03,4.566288069623043039e-02,8.072213162075830839e-02,4.432221518015963535e-03,9.846260027111125319e-04
1.637844999164904392e-02,3.702145811189667263e-02,4.977813907502890746e-03,1.237692794678027335e-02,9.938078071939297330e-04,8.907622111137495496e-04,4.214398205208313292e-02,1.065866884431184436e-01,7.803037366447295765e-03,3.493939252084347913e-03
1.625146074933974533e-02,3.353638970591175245e-02,6.069166992484380241e-03,4.825046444036539678e-03,1.035344724637653809e-03,3.510101044112836494e-03,3.302617268129552641e-02,1.121170968110848515e-01,1.083286720189522399e-02,6.018528354708212657e-04
1.377637711734426562e-02,2.441665524107055479e-02,7.905971484504427382e-03,3.338416226698676624e-03,1.066663985614993296e-03,5.231279835206412848e-03,1.904912872129624346e-02,9.303901953807641734e-02,1.341423931344071230e-02,4.816983959576590438e-03
1.180959552013387780e-02,1.082074092236700105e-02,1.033577426813889893e-02,1.793569907375315922e-02,1.083499857550909978e-03,5.555592972660187458e-03,4.979340276654045661e-03,6.158928194377522036e-02,1.484532231075155750e-02,7.292279035533386598e-03
9.243955668453979549e-03,1.298570389716772718e-04,9.961535919210484299e-03,3.692220514016195804e-02,1.083827529312842135e-03,5.117298919895946034e-03,8.460960375898921373e-03,3.160357090551409870e-02,1.479911261640137581e-02,6.737824289538806889e-03
4.634387135015646461e-03,1.657782488967611415e-03,1.087312555074883193e-03,5.278141198260091760e-02,1.067777100651441831e-03,4.749962239464074372e-03,2.117659600864895547e-02,8.554751262510932458e-03,1.409715910935057000e-02,7.255902882632137355e-03
1.123537171878982374e-03,2.498832120594185989e-03,1.520023743130550359e-02,6.045571557242380989e-02,1.035069844461362605e-03,4.556125179343957499e-03,3.161369885383896045e-02,2.872549268649786294e-03,1.362744282216485532e-02,9.593855563572695547e-03
1.728363373009360934e-03,2.294042429410197113e-03,2.774117985694234470e-02,6.059546918618925748e-02,9.850573168222929131e-04,4.192992086249272034e-03,3.974549481070090151e-02,5.042653832180388207e-03,1.352138559693402513e-02,9.721455467195414674e-03
3.245558183097495449e-03,3.365668402425767668e-03,2.780942632999117842e-02,5.320964004195025132e-02,9.179363288857558161e-04,3.701246548012215518e-03,4.555444241347363782e-02,3.176605645825237439e-02,1.403093283164569098e-02,5.892611366445289767e-03
8.081618804800961165e-04,5.739677330020083630e-03,1.965044501417726949e-02,3.392468013514635117e-02,8.347430910490255106e-04,3.456033480306926892e-03,4.463693721348145627e-02,6.290240438062529027e-02,1.560836661346865807e-02,2.434893433506861958e-03
6.308195774039470488e-03,1.205991889842427832e-03,1.291015555689530893e-02,2.833734200702512415e-03,7.367655519352057751e-04,3.292596846790239989e-03,3.165939723279531659e-02,7.946354126707722010e-02,1.747882309418192712e-02,4.133505742844612203e-03
1.740341304107035150e-02,4.059778613208065053e-03,1.136293754735069605e-02,2.877033044316766250e-02,6.255044982941306009e-04,2.535868545241468444e-03,9.556538460559139275e-03,6.788207964627088198e-02,1.810469477838102040e-02,1.048041402450777641e-02
3.210034671393266481e-02,5.797219544796034831e-03,1.430264636966273838e-02,4.749549666739763532e-02,5.028988885838074413e-04,1.335401319196298248e-03,1.015640411095884016e-02,2.723946724345997772e-02,1.738056191968226707e-02,1.704489768451741827e-02
4.688255622263678285e-02,8.581099117069702908e-03,2.130070742141390930e-02,4.951566704732057039e-02,3.712838219428511591e-04,7.622885423896882473e-04,1.941055995875433371e-02,2.578092832346434021e-02,1.584795358884453359e-02,1.904353927485398848e-02
5.621775989337565727e-02,1.776637603915328170e-02,2.945732766851813511e-02,3.990620019761925708e-02,2.332095217181534704e-04,8.375020240130317487e-04,2.173223214071140844e-02,6.669539293844034544e-02,1.231454790267247530e-02,1.289028368928465951e-02
5.789453953721564877e-02,2.977582380500919459e-02,3.200346317954238379e-02,2.564562865215554502e-02,9.137371801792157550e-05,2.327302987151979251e-04,2.477626910624176199e-02,8.364833758757184157e-02,6.079644653445031091e-03,2.123900026307528818e-03
5.353714887499257807e-02,3.510016435789323208e-02,2.513774354307017622e-02,1.177167050783837696e-02,5.138757313435021517e-05,1.174490560010094976e-03,2.908682902200813297e-02,8.166986137226356357e-02,3.447300878479991806e-04,2.155754158254529623e-02
4.538649288258409659e-02,3.014300444028013629e-02,1.266036571069865425e-02,4.831925292154374413e-05,1.921674262800342258e-04,1.742484629741889368e-03,2.892537255306915078e-02,6.759711903772994135e-02,1.425240293117398119e-03,3.608511834650678790e-02
3.409780711058767178e-02,2.064976221764844994e-02,8.597918200338747294e-04,1.196515689896514301e-02,3.280865343060939462e-04,8.974890869226283957e-04,2.105307086450025275e-02,4.300016709370326623e-02,1.090454279647203213e-03,3.704619393718422415e-02
1.823894173846134920e-02,1.162161233439070081e-02,8.388244008074493760e-03,2.615934956226877162e-02,4.563654039264616403e-04,7.804464352639047409e-05,8.563137172248914963e-03,1.383771882787525331e-02,2.897855657389350817e-03,2.464530442726129908e-02
1.666680909286390568e-03,1.013248279786975285e-03,1.723508356799349772e-02,3.862183711391597302e-02,5.743800979643598091e-04,2.789205510935441096e-04,2.705835871758169309e-03,7.202061832719315430e-03,6.644815609129714647e-03,8.775418309535772121e-03
1.705642073002295450e-02,1.190905081815547828e-02,2.547179268752915171e-02,4.061553601448483763e-02,6.797262092912800162e-04,8.469420703975052587e-04,9.624828717951129306e-03,1.560393303915214025e-02,8.503507709430004752e-03,1.752069833265850829e-03
1.598503485804353766e-02,1.960926873062677003e-02,2.710973615131736722e-02,2.937807074867875012e-02,7.702833750560781787e-04,1.018536473634491443e-03,1.319014203051416950e-02,1.885916599736928850e-02,7.417192355688020239e-03,7.604305202719398131e-03
2.085589976012891707e-03,1.525898343329554901e-02,1.691067505107199734e-02,1.335928949774647240e-02,8.442661848919131781e-04,9.517910613932916092e-04,1.426016889848124788e-02,1.583469196771553067e-02,6.251979517955812311e-03,1.214394472250297612e-02
2.279411033224781197e-02,3.725754793238347795e-03,1.654462078675860738e-04,3.588174266433999393e-03,9.002650720633279891e-04,1.018603267342810302e-03,1.086273415701474905e-02,9.053802967349221242e-03,6.780185485774628193e-03,1.213687438930877507e-02
3.196809857337273852e-02,3.320356979911651390e-03,1.170387348714476208e-02,3.135691179278478694e-03,9.372828535716858827e-04,1.149035883672792566e-03,2.891464346225094875e-03,5.551743997538443470e-02,7.315827997934944323e-03,3.687490308544694867e-03
2.803381757574161318e-02,1.197112566269492844e-04,1.125435968683126398e-02,7.134905618623305773e-03,9.547593950061700370e-04,1.105082547929824629e-03,4.267118409127945364e-03,9.216753899090211755e-02,6.238764303840385085e-03,6.991302923701366717e-03
1.707232189348910703e-02,1.153295401682540196e-02,3.771648890900578845e-03,1.003337587939387085e-02,9.525790169293285462e-04,9.215525907218281854e-04,4.854180685644833050e-03,9.093028458983611062e-02,4.985114485883608212e-03,8.482688281157240232e-03
2.810802347238799612e-03,2.543551614881815748e-02,3.337506524547283714e-03,1.035028005107306928e-02,9.310730673445476169e-04,8.935666761624718683e-04,1.677906097266285580e-03,5.860858158330151807e-02,5.542621340637422962e-03,1.460498764469371448e-03
1.373452471180281430e-02,3.731912541097166108e-02,9.241078960085979260e-03,8.973748589674241868e-03,8.910237254297400517e-04,1.253632322546263536e-03,1.175368043206074034e-02,2.018416527107382702e-02,6.521480459487724417e-03,1.338710567217344521e-02
2.867751161250249592e-02,4.434849221626722959e-02,1.690644073075612056e-02,5.283077172119145931e-03,8.336429289931856536e-04,1.885086286236190359e-03,2.005028721426926896e-02,9.303429485979080107e-03,4.712142818073714566e-03,1.793538882277730465e-02
3.507684791360320131e-02,4.453778283542184080e-02,2.449595558899603231e-02,1.940634691663710790e-03,7.605153893243438330e-04,2.182455053642981362e-03,2.073376334612645963e-02,2.467103206115659961e-02,6.538539057238605245e-04,1.558882549077880188e-02
2.924712674358174655e-02,3.618362877317266718e-02,2.505900657790030225e-02,1.020530664605289253e-02,6.735621671235167938e-04,1.450912718811448680e-03,1.117254927460994800e-02,2.160264076389376703e-02,9.640612534474343699e-04,1.285139130090732183e-02
1.444347926468360702e-02,2.086456174230442995e-02,1.628841844941254086e-02,1.415556427702633312e-02,5.750509170798569518e-04,1.483526882843343717e-04,5.050229669970137357e-03,7.830790283550439004e-05,1.923361713967179382e-03,1.122706015438248647e-02
2.653338066479155391e-03,6.294954254406565433e-03,5.147199415141078503e-03,1.156800924641716508e-02,4.675357957823712482e-04,1.507335190977862486e-04,2.117584374525028137e-02,3.257847768734092875e-02,5.288363183613885299e-03,5.225778539218469722e-03
1.643292140891907879e-02,1.471717116792150594e-03,6.481532498940797667e-04,5.253555346358193892e-03,3.536721618646585831e-04,2.243464736402930523e-03,3.221239735156236628e-02,6.609936899633891971e-02,4.978293816319036627e-03,6.876588676478397923e-03
2.280526342198237882e-02,8.686209520099038781e-03,4.028921736949299306e-04,1.135118542624440237e-03,2.361585090425797739e-04,4.139476519913938730e-03,3.569210689081624838e-02,8.897008040392997974e-02,2.676899593834575642e-03,1.666796628331028429e-02
1.923656677197440115e-02,2.265605627231410263e-02,3.220254412946849977e-03,6.395189795950010671e-03,1.179336978611245844e-04,3.213882054058281659e-03,3.078497465575756945e-02,8.959030199780902703e-02,2.518036475238990494e-03,1.610951043426428475e-02
6.533432395205228393e-03,3.638604274559264357e-02,9.387862879923060053e-03,1.090494959268385397e-02,2.098606953176811174e-06,3.189727036608588505e-04,1.932130963712621469e-02,6.390377572734710909e-02,4.552600161112277562e-03,9.605182958369118743e-03
1.193323731659779417e-02,4.701349592530493920e-02,1.765120021865424285e-02,1.447928973853587591e-02,1.087199268658817344e-04,1.592934668703956851e-03,5.342549798614151628e-03,1.913101653083655942e-02,5.326354053147988772e-03,7.944357389064090821e-03
3.343109822078207255e-02,5.608652969589726645e-02,2.593885193918038512e-02,1.595794987584726529e-02,2.124312569079264505e-04,1.614499107453586102e-03,8.226297897315148003e-03,3.300255869332013869e-02,3.517654764941948592e-03,1.398886398174383275e-02
