9.417572523450767896e-02,9.155558776129576679e-03,1.427214289331513349e-02,5.590120614992375673e-04,2.663581012857931885e-04,1.111661398618531095e-04,9.054562361713066124e-03,2.221406391573671826e-02,3.635866742365744149e-03,1.019925046268138494e-03
9.812667663936859574e-02,9.459574619143280155e-03,3.419859625511766782e-02,6.102909475496601406e-04,5.067938484082876996e-04,2.934543999744748454e-05,4.823547267628683181e-03,2.312371642772256819e-02,5.221133246145210315e-03,1.757827849033793141e-03
9.239887337770952280e-02,6.032534669475601678e-03,5.032797184918869071e-02,2.640112463872946579e-04,4.770174737538019662e-04,8.441012526193895872e-04,1.500435512117350746e-03,2.443363143399095161e-02,4.250499777150520617e-03,1.162166406263305399e-03
8.266934127196834403e-02,3.728492973188011431e-03,5.651978158050698087e-02,4.573565297877597402e-04,3.618723335450910769e-04,1.160661221992548807e-03,7.322190899913840617e-03,3.357525556903544900e-02,2.461913101139684770e-03,5.406817555176932164e-04
7.040211495621939708e-02,6.950680109589750348e-03,5.506261716372577025e-02,5.605515400844337257e-04,1.004089544919176732e-03,8.525724478421001099e-04,1.004885830726085470e-02,4.558301446435758519e-02,1.803708730288492443e-03,1.304277668821685271e-03
5.595964929753467765e-02,1.256959080430567095e-02,4.853907649905951638e-02,2.725778516034874110e-04,3.812486766951230519e-04,7.560817995367289518e-04,1.085157519302383522e-02,5.051834898612619917e-02,2.506363072136013042e-03,4.100268135011009762e-04
4.174079000624928565e-02,1.378527565688592374e-02,3.577007674622742495e-02,7.771809856209428626e-04,7.194695786211335702e-04,1.005422999142320918e-03,1.271429914273151073e-02,4.769344715033686788e-02,3.472562173337279644e-03,4.077138805420893073e-04
2.813664817180979924e-02,9.798614993388087696e-03,1.866428897020772429e-02,1.526853433554357887e-03,6.772879892890711767e-04,8.945183785717432520e-04,1.555301666520484717e-02,4.476221416018463795e-02,3.859908261808805106e-03,2.809108568970344411e-04
1.150400275041730744e-02,6.056515765213827361e-03,4.578027078505447940e-03,9.244917897671533092e-04,3.974344583674747303e-04,2.147261665940896150e-04,1.573622708572942550e-02,4.701116703234035910e-02,3.974348007273970432e-03,1.439410027827476343e-03
8.288801555814861305e-03,5.722970165338236125e-03,2.936051611335854187e-03,5.253091612484718856e-04,7.701382648376066701e-04,3.754634253951217226e-04,1.167682814658370198e-02,5.585158212280984247e-02,4.432465568768854079e-03,1.351234605742165614e-03
2.194583464658580313e-02,6.516973543461306029e-03,8.343540968138191127e-03,7.189419094492214028e-04,6.752418651352940599e-05,4.778331489612793370e-04,7.305619645198650758e-03,7.329297394903880325e-02,5.044617599715308168e-03,3.539801008276457616e-04
1.996353784067537648e-02,5.880754692970406074e-03,1.533119047038951008e-02,6.704786509245596552e-04,5.861015405242816969e-04,4.391891373342221593e-04,6.240728787838293809e-03,9.551045524550400012e-02,5.295521731220337834e-03,1.221970996990940825e-04
6.625659478695593470e-03,4.562988681602644578e-03,2.139151207528382226e-02,1.837622240942091492e-03,1.618694323678074553e-05,4.227829813744349145e-04,4.630803397052738087e-03,1.054047872709995837e-01,5.196066217939032325e-03,7.780030134595074731e-04
3.164927196798285672e-03,4.322066784828055251e-03,2.411804063503183299e-02,1.642117243303043740e-03,3.638091003465892051e-04,1.282065552211038057e-04,3.941269249927084953e-03,8.794765308457910824e-02,4.797961992403258422e-03,8.029105146685544059e-04
1.138890987134236806e-03,5.102965809434748500e-03,2.550386862984353048e-02,7.454751869751731919e-04,7.786023501562893637e-05,2.826531855984241678e-04,1.740298320381345951e-02,5.254937653665977398e-02,3.975391617462083194e-03,1.282211998626591961e-04
7.452745449920297402e-03,5.608736519782691297e-03,2.741882349965607882e-02,6.602385411550965673e-05,4.270837652832081590e-05,2.579376910366503405e-04,2.637037572159263085e-02,2.392435411705133921e-02,3.402649137565535564e-03,4.588244069809810171e-04
1.398124996005200432e-02,5.237065123441924167e-03,2.875106334247931605e-02,2.279802196248629966e-04,9.404042378009219022e-04,1.160797641971574430e-05,2.602179818981926324e-02,1.166007222798551811e-02,4.094294335852584517e-03,7.909725435532801059e-04
1.648694302059814515e-02,4.542988639438130458e-03,2.885211509282209139e-02,5.983485062228915518e-05,1.288313108490533746e-03,1.986763483318985154e-04,2.002495966503193073e-02,6.205602121976546218e-03,5.387621951685349873e-03,2.580668843665559226e-03
1.871008037319918382e-02,4.213612478711373753e-03,2.942919759383732722e-02,7.111868810908291393e-04,1.185840579378344498e-04,9.490230980781827388e-04,1.363159818007237019e-02,2.880561170988366927e-03,5.336888271543112350e-03,2.741760278214069608e-03
2.408392814179219701e-02,4.052546261154972400e-03,3.159625785442686519e-02,1.367619376337806661e-03,1.224093932435096248e-03,1.585402737522147382e-03,8.895346433943596490e-03,8.305750123101843588e-03,3.624739290769555221e-03,3.031834602436815997e-04
3.229323603872082116e-02,3.247930266291362226e-03,3.358803372426194533e-02,6.772320516796981153e-04,1.231570992622470955e-03,1.452559829511651610e-03,5.534847387922800510e-03,2.134446919690562508e-02,2.226466877959222979e-03,5.391165843704227856e-03
3.993143323955652274e-02,1.964761408511662630e-03,3.215261249282552747e-02,1.143589907732425011e-03,6.076217116494396562e-05,4.083876202222732439e-04,2.061821047458944033e-03,2.883081552314638307e-02,2.693570718968833419e-03,8.530773142165312684e-03
4.476766542858212627e-02,2.032326800687625241e-03,2.518029649211345200e-02,2.092745917087227795e-03,1.156976796032932377e-03,7.297073005484973427e-04,2.889868258327214084e-03,2.469463771655941789e-02,4.197357020120566322e-03,7.536072769905323952e-03
4.943987573825157217e-02,4.892346573829463655e-03,1.320590779103602598e-02,1.022314809298801664e-03,1.792139429062374056e-03,7.068558874259091730e-04,8.319321319829407063e-03,1.658382615596763754e-02,4.729274346503092169e-03,5.703355081283309307e-03
5.671609490556180772e-02,9.550933238306930778e-03,8.218503996449528191e-04,4.432508336735901900e-04,2.015312248395332521e-03,5.724577919288110052e-04,1.152591708104701990e-02,1.066856545308048076e-02,3.434163510360851729e-03,7.422523178688873041e-03
6.059637615674919042e-02,1.383436207829463055e-02,1.303403791610508247e-02,1.131409015734495679e-04,1.947682230715670586e-03,1.770359167506624885e-03,1.152688437349706947e-02,3.240704233629332093e-03,1.401213557401444990e-03,1.155325600886027149e-02
5.116561225546609887e-02,1.646638441644205503e-02,2.043649653159661586e-02,1.417510745073264017e-03,1.287342245688986864e-03,1.773548938206750145e-03,1.019398449613954406e-02,9.837712779460966450e-03,3.705189818695980701e-04,1.291019818068755987e-02
3.112080402143379415e-02,1.656043373279169131e-02,2.256747743443318632e-02,1.680799019222457792e-03,1.115958398671237689e-04,7.813898766296135815e-04,1.007294796230376321e-02,2.326095318221526806e-02,8.621464659169596851e-04,9.153459170709289661e-03
1.598400242889088871e-02,1.267758398589163144e-02,2.139950382317805030e-02,2.285921942166825680e-04,7.288369381685092007e-04,3.578181334444956695e-04,1.193517209147434109e-02,2.606949732777762846e-02,1.862975071954181983e-03,3.107351526307884377e-03
1.445276044493316175e-02,4.530471915322895060e-03,1.816939707890761341e-02,7.821448784218467884e-04,5.661084608659806405e-04,1.121478766273296306e-03,1.416773146911229526e-02,1.552076689405323257e-02,2.305172494157307819e-03,1.120679862845534031e-03
2.039669002690292637e-02,4.592622728411093792e-03,1.202043179692406129e-02,3.423532336301534653e-05,2.958518934215494394e-04,1.338947266696222018e-03,1.426352874987924305e-02,3.668276757899482151e-03,2.078026808156037495e-03,2.173218124105241039e-03
2.588468019499266110e-02,9.215228205689960511e-03,4.437634978328717714e-03,1.607161587810842715e-03,1.088037824533774189e-03,8.856648556010096205e-04,1.098686156070445563e-02,4.573752145298857520e-03,1.420112864951467505e-03,1.391008933973089190e-03
2.967571206577041334e-02,6.983012841388986508e-03,9.901185359742494755e-04,2.455205885132477964e-03,1.361474810883896809e-03,9.674783312847124134e-05,5.404822192628043823e-03,1.630069593200157360e-02,4.332884284864559413e-04,2.325227796032161651e-04
3.086742812969749464e-02,1.359674109760438104e-03,3.655704516250929230e-03,2.457364193918201451e-03,1.091901544825450536e-03,1.083520787523806564e-04,2.112492732520340603e-04,2.117515171948165451e-02,4.582583602630083521e-04,5.912189903888872373e-04
2.500341006920091258e-02,2.210230863988490221e-03,5.499604243311705803e-03,2.088235168654341278e-03,5.371509203260873850e-04,4.357446666370659236e-04,2.592717445393192405e-03,5.019852623882210645e-03,7.445303120925129406e-04,9.799059484052964532e-05
1.132700545560064859e-02,1.016861724904900410e-03,1.809215809794228070e-03,1.505976824169406999e-03,1.012427557501270885e-04,5.224567583911406046e-04,3.769693630902356575e-03,2.465814926436604715e-02,8.021720658938243358e-04,3.480532521924430914e-03
2.259316608064638066e-03,4.474782549436148553e-03,1.824319506227681589e-02,9.264836713937082881e-04,3.841647912246624251e-05,5.633017921380508927e-04,5.578774458979789824e-03,4.229302768527373746e-02,1.429672337783428719e-03,8.463191744326668126e-03
7.495144650785079063e-03,1.145141249100816577e-02,3.596853409304413829e-02,7.210767905418194717e-04,7.913154561612210556e-06,1.690120006504786110e-03,8.929505686813873910e-03,3.253478675573021756e-02,2.314956083799140328e-03,1.203791310619270472e-02
5.874420879070374642e-03,1.516779102360822640e-02,4.627039116672136687e-02,8.146916474437316397e-04,2.136791874781271915e-04,1.514790767419906068e-03,1.341732411096899225e-02,1.184095603348309447e-02,2.393398291076535411e-03,1.265827542651438292e-02
4.538728392698924280e-03,1.186897663524873192e-02,4.441164247652158031e-02,7.783185342918443397e-04,7.815891961082177325e-04,4.280241966742643787e-04,1.859342374703987916e-02,7.683032532259491919e-03,1.767266324835544073e-03,1.149963132695150381e-02
5.367712025907618242e-03,1.709880994892049380e-03,3.161546517459837974e-02,5.790984547340427427e-04,1.460343828844281634e-03,1.614954862321642845e-04,2.312148323334078590e-02,1.917329578813918578e-02,1.657483554434683020e-03,1.006758465569060346e-02
4.799357361690077817e-03,1.299582198381463161e-02,1.543852065785596486e-02,5.779397115076294767e-04,1.730871513813283949e-03,2.430663146877402013e-04,2.446417809001021071e-02,2.050740792471807822e-02,2.511549452034288980e-03,8.759750530636446417e-03
1.440201045106317447e-03,2.951984714203485793e-02,5.849305427897834309e-03,7.074497660866682462e-04,1.432191937132341972e-03,9.851939158770442202e-04,2.107395721706603955e-02,3.403098873814891338e-03,3.632292786332897740e-03,8.120926775107404141e-03
2.690194275716875898e-03,4.234927235628627162e-02,6.901060025299386377e-03,3.782919195306692190e-04,8.545382104814360554e-04,1.374113968828511714e-03,1.401401735044294911e-02,1.125860611500386146e-02,4.388515644129576884e-03,8.760082409531421560e-03
6.847805598849314099e-03,4.443241378715736406e-02,1.342666701834581769e-02,4.433335703909209837e-04,2.596635615329525529e-04,1.047772942091935045e-03,6.295013994598599137e-03,9.720029778122958250e-03,4.742713610469677377e-03,9.313298283198680888e-03
1.212888845020387504e-02,3.469406766831015926e-02,1.938428781729178985e-02,9.242332403140375487e-04,2.134187857414995024e-04,7.229642852796863066e-05,7.284540479394510356e-04,6.523806344561615400e-03,4.936874154009362504e-03,7.248117178800648000e-03
1.715367716119550745e-02,2.008681937387625863e-02,2.622697823723557989e-02,6.570131319786193507e-04,1.368279819582074648e-04,1.247402669527056295e-03,2.636139246137232574e-03,1.872092777038564942e-02,5.183530317748593491e-03,2.471870848778975633e-03
1.795935635170465075e-02,7.897017440867307170e-03,3.650647365597253086e-02,1.655164592795515838e-04,8.539693786943760917e-04,1.325339870619248600e-03,6.433637128623486724e-03,4.173877799457609977e-02,5.500029427608007192e-03,2.181833049495492550e-03
1.441947648083459835e-02,5.041681257164253764e-04,4.185561928057213166e-02,2.444868093242248555e-04,1.989864832789379166e-03,2.914423287180788451e-04,1.192544129815003608e-02,6.351739292622188282e-02,5.706373717236668322e-03,4.366967375859075011e-03
1.099845642207379105e-02,8.220209431490252405e-03,2.888825082870508446e-02,7.034013730797192276e-04,1.893912802583707809e-03,7.137001341129822762e-04,1.635557922857119525e-02,8.140081855139073841e-02,5.647640193588496574e-03,4.116355068786065746e-03
7.335700238134556898e-03,1.891749300526756467e-02,9.261809540432321911e-04,8.938806499774449134e-04,5.851776605145088492e-04,9.174167717094283475e-04,1.628363373731767788e-02,9.123479797838388028e-02,5.496110795983950859e-03,2.582072313659423881e-03
3.020531794879197530e-03,3.314170164964708176e-02,1.841160870635703828e-02,5.086994429469801366e-04,4.820486727339955211e-04,3.635813917917613881e-04,1.211282971184866712e-02,8.119453184568045656e-02,5.769613566078956104e-03,1.026135945004108671e-03
1.905990974827503556e-02,4.446856904545731098e-02,1.284487153843274880e-02,1.008006973409607298e-05,5.707239064567976201e-04,5.202549482692421512e-04,6.952596499421221515e-03,5.159786327909110515e-02,7.077967243509631842e-03,1.002684485519451680e-03
2.952392811917847401e-02,4.223665924600080585e-02,6.176748895803161818e-03,4.369707730886251387e-04,3.492529236261355716e-04,9.566764261493809198e-04,2.200891879384587243e-03,2.270617202014404284e-02,9.784157991349098221e-03,3.575836771259610636e-03
3.017921836599634505e-02,2.415258240688360203e-02,1.797133149700327198e-02,1.155713971194348736e-03,4.380698223089308781e-04,4.173167892950745985e-04,2.591604716163382893e-03,1.269338739606743448e-02,1.292967832166342507e-02,7.780078744987957776e-03
3.002382010717386668e-02,3.396761661961798188e-03,1.975996695095979389e-02,1.763263310186263333e-03,6.488003316793980804e-04,4.104919219680064671e-04,6.067647733331912353e-03,2.332772913721477270e-02,1.331833887303482747e-02,1.079482416986368536e-02
3.325995945865360681e-02,3.624466074120559749e-03,2.195448359801340649e-02,1.162979549995918783e-03,7.106146723062026086e-04,3.806294798695151679e-04,5.256636794110188492e-03,4.863511326380174499e-02,8.199743630876948561e-03,1.013806890484181961e-02
3.021155149895820777e-02,5.494604078851935552e-03,2.825790165586813257e-02,3.432013018894601629e-04,7.438692236483301912e-04,4.282931136441526284e-04,1.582056885536529175e-04,7.927309489639822182e-02,1.375860586720420312e-04,5.882724848688620882e-03
1.582799620100221877e-02,2.008369787277934290e-02,3.506154313041626863e-02,1.043070408227271106e-03,8.578638379227673545e-04,1.007308376852074664e-03,7.141544778773216591e-03,9.605985871307506918e-02,3.971915625848638012e-03,1.087752643871223255e-03
3.589188812783461295e-03,3.133334828611081951e-02,3.945299233778105930e-02,3.531290662816071965e-04,9.046697879918201048e-04,1.159449663943209986e-03,1.291432125374715988e-02,7.412722356145731717e-02,9.215834604108055252e-04,6.589474861821092251e-04
8.057118121600967409e-03,3.835828831918182413e-02,3.569172655680883516e-02,4.811282821467478517e-04,8.625271337333109689e-04,1.595241597378644662e-03,1.662311899642188173e-02,3.738492983268114443e-03,4.497401168157348986e-03,8.267730715545327461e-04
2.282576946566420434e-02,4.067871459469824674e-02,1.847977395764446168e-02,5.569023429477168441e-04,9.988060332956183018e-04,2.387036037307516383e-03,1.827138165561247030e-02,9.063819686868378189e-02,5.545084495212910213e-03,1.938616407451994013e-03
3.005558163348483192e-02,3.463990278449109728e-02,6.182045244105721692e-04,3.948075024019844924e-04,1.271724290975485361e-03,2.624137883090599688e-03,1.791053276614017892e-02,1.581288585639051836e-01,1.806908899711165677e-03,9.406772396141569728e-05
2.699713815175304107e-02,2.180713349497637871e-02,2.127867247557839112e-03,4.545253680190288284e-04,1.086838021809193901e-03,1.767820845054567580e-03,1.506583288176603988e-02,1.617118642477929913e-01,1.485223666644329941e-03,3.055032212527568521e-03
2.777533553181042031e-02,1.419799211236480799e-02,5.968895970125344744e-03,2.879639164508206346e-04,3.120119424356975206e-04,4.205622650993499456e-04,9.269459799677130796e-03,1.137668599519152390e-01,1.584181879815630767e-03,5.030929009223535954e-03
3.905985425255104060e-02,2.247754124913214566e-02,9.588802048960879190e-03,2.348626421800290313e-04,1.254141235570740932e-04,4.540655389884063939e-04,2.398749866657704302e-03,6.141362860316679217e-02,1.778774503263651999e-03,6.333692123591817477e-03
4.941679220531847161e-02,3.919242068896676423e-02,5.791195237553786734e-02,3.420436282585254898e-04,4.119543752704886408e-04,4.324730917761625748e-04,1.766131237052602802e-03,3.624025909419527347e-02,5.477973109026475045e-03,7.887671155992627414e-03
4.702646252747173100e-02,4.304845497533212051e-02,1.066571085933902679e-01,2.921512100040539570e-04,1.168541833884273202e-03,3.897257766368561168e-04,1.818420756345350778e-03,3.046825661726958526e-02,1.051668356706480199e-02,7.340139517632463667e-03
3.489280763114336464e-02,2.468966584463939615e-02,1.243648582682812254e-01,7.776804727643801558e-04,1.286017716425783474e-03,1.665784758409950307e-03,1.333776442268073785e-05,2.237238322721765704e-02,1.186671610569271437e-02,2.180397853210071756e-03
2.324977586997747231e-02,1.248516115329415151e-03,1.122574571065969723e-01,3.448240679428267431e-04,1.141589134627751584e-03,2.688312719121786851e-03,1.037145816279547812e-03,8.583780251671002670e-03,7.181849968343756441e-03,4.454083652006566099e-03
1.726177015065087639e-02,1.660737574645191478e-02,8.880766169249532105e-02,3.422909768332486522e-04,1.287738096467498563e-03,2.589760443729194860e-03,4.345129868721126377e-04,2.093717378405260399e-03,1.921915568910515220e-03,5.667859625097918658e-03
1.573106023580305227e-02,1.906169740259123710e-02,6.785097739938115990e-02,9.892578392065673346e-05,1.210990651158816434e-03,1.377586301070268847e-03,1.413934818411112689e-03,8.039238743004748639e-03,1.125176858383621081e-02,4.639078826067281024e-04
1.338756546193735700e-02,1.209392466481373773e-02,5.483305621110782374e-02,1.023596877780699570e-03,4.279249953190113372e-04,3.601660154465725493e-04,2.990091749413639928e-03,1.474518919814715029e-02,1.639548352227557931e-02,7.603782081526055774e-03
4.089426600092573028e-03,5.279018142762964549e-03,4.704570850255397618e-02,1.984761346616707375e-03,1.914651400843275309e-04,5.017205595842910010e-04,2.562455433996403860e-03,9.527606301711399883e-03,1.670396022381353748e-02,8.515573414308095015e-03
1.008133541262360225e-02,2.443616648585402243e-02,3.627720286401537458e-02,2.322186427610607035e-03,3.600618859690117037e-04,9.259747040051729324e-04,3.384883529632108125e-04,6.700156083078059703e-03,1.583130025988907508e-02,3.218898392576237128e-03
1.583436924373692739e-02,2.360381087530757926e-02,1.947652276153736053e-02,2.185288131081551070e-03,1.399374038983163589e-03,4.768900503001275034e-04,1.507938691073243236e-03,2.806979701718760600e-02,1.525988442936858543e-02,2.441520927392308322e-03
4.215759482865092007e-03,3.456298000544650705e-03,4.692446084084567724e-03,1.467243448042992700e-03,1.415103587900043338e-03,2.016588694729111626e-04,1.682747662858208055e-03,5.765752401043897774e-02,1.054481797832573960e-02,4.340431993291607449e-03
1.426794868921305720e-02,3.416769083987555161e-02,1.610997926649613242e-03,3.072797282431490354e-04,3.919038855087146177e-04,1.035364039899294198e-04,1.463303628712369492e-03,9.699787234589704599e-02,1.281587966317849353e-03,2.998110113454608566e-03
1.940936523560708379e-02,4.889067614032466258e-02,8.252370404439310358e-03,3.099943419466808371e-04,1.549953623116986847e-04,1.009623209818014166e-03,2.966854561239685908e-03,1.310004214481037266e-01,1.423085701717349306e-02,5.099277367649210704e-04
4.166379686344591840e-03,5.465229582321976670e-02,1.285223498143528605e-02,3.150712747781626724e-04,5.007120670843143943e-04,1.291022728396095352e-03,6.105594358008866254e-03,1.445159348073798145e-01,1.913805523611313703e-02,8.378732597686573691e-04
1.924792573837926651e-02,6.175813592075606040e-02,1.032918005980144535e-02,1.487491699843623014e-03,1.344338272021442307e-03,7.958205630901189461e-04,7.971765500602464444e-03,1.445245158289246434e-01,1.438239723759657945e-02,2.297564126774467863e-03
3.499796496136886592e-02,6.097546378687193624e-02,8.806031839276019096e-03,1.901901334689559383e-03,1.429523222295187284e-03,2.788571045121497789e-04,6.400419953578060338e-03,1.486786158100288635e-01,5.859278779349136324e-03,1.092804099144557319e-02
3.996866539568203619e-02,4.044551796421876066e-02,1.478568235175711440e-02,1.251643280891545683e-03,1.258730041665851113e-03,9.012716269570142022e-05,3.466566481929053874e-03,1.662916907212616813e-01,1.464365876422859224e-03,1.944124060399671922e-02
4.389345908422397774e-02,4.898121551793889299e-03,2.200651072737051794e-02,6.966691987108627809e-04,1.508138092771002048e-03,2.370621086028110039e-04,2.905499160828676087e-03,2.000802631114648178e-01,6.987984124843089027e-03,2.004885538020633601e-02
5.682877763843779267e-02,3.263989638189592618e-02,2.196567955974288583e-02,1.342636708826644648e-03,1.598420949411567078e-03,1.201130022255577278e-03,4.538779866964605739e-03,2.447349229012279470e-01,1.037543451780297520e-02,1.171926042934491076e-02
7.793516484646879905e-02,6.161830686902051990e-02,1.582488603617602380e-02,2.440323799353104860e-03,7.674245896218268980e-04,3.128968874512943164e-03,4.341028609599474446e-03,2.789808126625274443e-01,9.271419262161299107e-03,4.627819012613886528e-04
9.449535600406744340e-02,7.357706923010121081e-02,1.033433597559427208e-02,2.431416471020463998e-03,3.238137255119195824e-04,4.484184875609001537e-03,5.393050624853695406e-05,2.840249257604771094e-01,3.349664751610279684e-03,8.322484390104011379e-03
9.290479304200659205e-02,6.695454824070121158e-02,8.682537660554233427e-03,1.538799199962911880e-03,4.751797077726075021e-04,3.506761407807457240e-03,5.588413150105940239e-03,2.692940743254614300e-01,2.687423053231654743e-03,1.356017923213392873e-02
7.417788673928855936e-02,5.424586821175345769e-02,7.742855058175229267e-03,1.215467974038930482e-03,2.141832644587364368e-04,1.021333554693999203e-03,7.915109785077633145e-03,2.528632050042955437e-01,3.773601227949433326e-03,1.594895503101008069e-02
5.448388309920785405e-02,5.218858978592747638e-02,2.564533582706327985e-03,1.566269605734297698e-03,7.117282452988829989e-04,3.724955716523054928e-04,6.103498390221367975e-03,2.237646220649540107e-01,8.397499148238673616e-04,1.625361043111075640e-02
4.407779104966687289e-02,6.175133109296337963e-02,6.036133550006547201e-03,1.635568224463479492e-03,6.111583610265766816e-04,3.946675873081113449e-05,4.616772478091157698e-03,1.569548757431454278e-01,7.493659298519616966e-04,1.575552298322099518e-02
3.364923593581616024e-02,6.695566613766058828e-02,1.220128449804202229e-02,1.375520348113957233e-03,3.247141250986339614e-04,5.494416897013327345e-04,7.234132633710538794e-03,5.854859475627457316e-02,1.604077666890022565e-03,1.519172596985814312e-02
1.193207680908021581e-02,5.775530040716579661e-02,1.529320796731793025e-02,1.434202312139137327e-03,3.469765051205087676e-04,6.096722734846526351e-05,1.125274064546594351e-02,3.365568102508328940e-02,5.135971192703587054e-03,1.348594363479579082e-02
1.277416271544995659e-02,4.370854264926275767e-02,2.132779401819983808e-02,1.923297390976883925e-03,7.859495179386333675e-04,9.426912312322462996e-04,1.085726371769333599e-02,8.143775685730508807e-02,5.599781846811212153e-03,9.607816547039980948e-03
2.250194306526540067e-02,3.706978020453664813e-02,3.112873596405186030e-02,2.444509638374658348e-03,1.179347079962728573e-03,2.098756040196216380e-03,4.935979717721629585e-03,5.877170305104337245e-02,8.821626108200475653e-04,5.218300858402201252e-03
1.526609948571780451e-02,3.457800371189850147e-02,3.613627671133779612e-02,2.694750425346793907e-03,1.013230960705348337e-03,3.022228908443605564e-03,1.806217366074483162e-03,2.655419655676506674e-02,7.960831063513758299e-03,3.014612107657502552e-03
9.491717795150646925e-03,2.722143803180599939e-02,2.985982944267094943e-02,2.726911868206986604e-03,6.217639048032018749e-04,2.387039159834750124e-03,4.388641196058986303e-03,9.622150921062390394e-02,1.622627157998393979e-02,1.939885245333883117e-03
2.226939018567905548e-02,1.392102742234763157e-02,1.633435839836028247e-02,2.698035595877352772e-03,7.990996524668192349e-04,1.100016294019929734e-04,1.628634181880658002e-03,4.964263488636388999e-02,1.763022532736285841e-02,2.413213642790875638e-03
4.735174750412927958e-02,6.485666669354022904e-03,3.891913155265300066e-03,2.374723911963940587e-03,1.528898725976541575e-03,1.026144424035900461e-03,4.205835336555297302e-03,1.051871491896332472e-01,1.027436756628849999e-02,1.043099676100117841e-02
6.132327185042129453e-02,3.891124138586744829e-02,2.784336066817680831e-03,1.418500502165130715e-03,1.934306713535986592e-03,1.068082819001390290e-03,1.007729278431796632e-02,2.409865394060481669e-01,1.639156651162766622e-04,1.633939291927260021e-02
5.484560876531709150e-02,7.399525754395398780e-02,9.015901745046493027e-04,1.353621373735691810e-04,1.398185645033324853e-03,4.358419252552328538e-03,1.488814713506868281e-02,2.816628793014089305e-01,3.871939536111764814e-03,1.682605954918775862e-02
4.549980824784966016e-02,8.744329735256856084e-02,1.128481231953176386e-02,8.950132315155979838e-04,3.276949966661783092e-04,5.694576365293713485e-03,1.903994055099766589e-02,2.932822877943162543e-01,5.510311130306395390e-04,1.558698409379349545e-02
4.978012571931551139e-02,7.581083979323666178e-02,2.687781229073172087e-02,1.537165069393917755e-03,2.209854467864464213e-04,5.354923459839396743e-03,2.077292239901867149e-02,3.439123119069861234e-01,6.464274983805155285e-03,1.562981558869566689e-02
5.798255339181070805e-02,7.204984038501492660e-02,3.159225644943146338e-02,1.598258443826746159e-03,1.581343314790907182e-04,5.625831283770689646e-03,1.642531186625197440e-02,3.836097112118609376e-01,5.145262242541374410e-03,1.435041288633567315e-02
5.144042580408659388e-02,1.000485059661227610e-01,2.204444198326311471e-02,7.556176320110276996e-04,6.515222594889711911e-04,6.574397619777883582e-03,6.928882594128267340e-03,3.543320887905881400e-01,3.617906559077411696e-03,9.357495431619577281e-03
3.003957721250913315e-02,1.311629667450802117e-01,1.384037645547243379e-02,1.397825641908653294e-04,5.053950830068734646e-04,6.455823506665483297e-03,6.277156211542886388e-04,3.145675886511932751e-01,1.165040194121363427e-02,2.007642744509450638e-03
8.087710003310566789e-03,1.174403704070066251e-01,2.166844494423957393e-02,4.337235607493745136e-04,1.022329870290877683e-04,5.252799447208659697e-03,1.659440258015384972e-03,3.470217768047422213e-01,1.450941713936253728e-02,6.164581660459663229e-03
5.654387377934524256e-03,5.878571214517364779e-02,3.942118437669069747e-02,2.022071195694981338e-03,5.330349493270500956e-05,4.619158308096722558e-03,6.237521108002986106e-04,4.242018855199397032e-01,1.845398517027008536e-02,1.416791567109151190e-02
1.351620816782523986e-02,6.470730700580634362e-03,4.955727312012368768e-02,2.445617565249089478e-03,4.296286177706100449e-04,4.646054282696106263e-03,1.561857078982248738e-03,4.593314049309822900e-01,3.003025147840340803e-02,1.984198203010534289e-02
2.235172564323622754e-02,3.998192507712345495e-04,4.678278907304864176e-02,1.356960822071477668e-03,1.490957048021828704e-03,3.458022216274168545e-03,8.550135324761082983e-04,4.213574989119862613e-01,4.413059434420053134e-02,2.303607816538255290e-02
3.493065420768244611e-02,2.196123632504609971e-02,4.367973015537809922e-02,8.197593501629419190e-04,2.503624106335192254e-03,1.938449229908981576e-04,2.430329589222240830e-04,3.343527867831960765e-01,4.991026729125089961e-02,2.716520742410633016e-02
4.395337226095608757e-02,2.967750163669378299e-02,5.284481538692684111e-02,1.807331335573641052e-03,2.451350287260193207e-03,3.601461434741384197e-03,1.492532766032898545e-03,2.286369850118196434e-01,4.400180061100784912e-02,3.199644619411977364e-02
4.036196889224886314e-02,5.422802218458359046e-03,6.883398410828589498e-02,2.927959952099929222e-03,1.429655634331923955e-03,6.083258680999128858e-03,1.482862940065170177e-03,1.322246034740792164e-01,3.090981782809222936e-02,2.935334816653540485e-02
2.996433878672420323e-02,2.665042158170040712e-02,7.171435640140823298e-02,3.015858719404838819e-03,4.556320775159194145e-05,7.736650734907602953e-03,2.398896216994187564e-03,6.090437818552614513e-02,1.579285485015345311e-02,1.271286388688357659e-02
2.669023375654831429e-02,3.190467541707128069e-02,4.808368355397193289e-02,2.203244968944220034e-03,1.897395208917268105e-03,1.097190197266134648e-02,1.078875943428159352e-02,8.052983724063260407e-03,4.588826798683338926e-03,1.189103216409861420e-02
2.503806301503325518e-02,3.498347968306208394e-03,6.450102785176883673e-03,3.055444422850605050e-04,4.879076925868610498e-03,1.663217029271377503e-02,2.213272439593784099e-02,2.487892511950644953e-02,5.479258615216676953e-03,3.078127687823908887e-02
1.123096409632307752e-03,2.753518326731553556e-02,2.880479438315184867e-02,2.869381946931232920e-03,8.172668490251040405e-03,2.196274422004259458e-02,3.482765198697460735e-02,1.218479322823372984e-02,2.011839680489049820e-02,3.679842510322824806e-02
4.906894579810878315e-02,2.453411632858115005e-02,3.980280944059586684e-02,5.569671823100157473e-03,1.001246999247071279e-02,2.320773573114202903e-02,4.618670087600833946e-02,5.074330389892962173e-02,3.647991237851568036e-02,3.328801342296860977e-02
9.352470117778947933e-02,8.145669166028461292e-03,3.260555312658330873e-02,5.418259189765171381e-03,9.193025362450393118e-03,1.930931807799761424e-02,5.031230286473551555e-02,1.150339787546303810e-01,3.992180426644397623e-02,2.584062842959122808e-02
9.855368002475764500e-02,2.720876245030687257e-02,2.872646348869788493e-02,2.623254699355060185e-03,6.007226844274770813e-03,1.240873059482486621e-02,4.210712927216856555e-02,1.237264922535532552e-01,2.966424720887254549e-02,1.692745779374020890e-02
6.419645548965134674e-02,1.058999608630212599e-02,3.686205398065953848e-02,4.962404056344237339e-04,2.115193036941761737e-03,5.845440637821702062e-03,2.504956349377787314e-02,7.735816678971980942e-02,1.644706220829210419e-02,9.350776450667270742e-03
1.712012643831846079e-02,1.002279035813575213e-02,4.098499040418577405e-02,2.599645297630695084e-03,5.051390340363534235e-04,1.672691212603391294e-03,1.010974112157345811e-02,2.844297861338997147e-02,6.649701280919486507e-03,8.401102577408293623e-03
1.865471879250618290e-02,1.872897359291900588e-03,2.382660063456108063e-02,4.119648103333988128e-03,1.471659883679636571e-03,8.576587032668756905e-04,3.473345464797806658e-03,5.627470434897783452e-03,2.140148076836007312e-03,1.648013879156429509e-02
3.600582331259784274e-02,3.444988767759524229e-02,6.063557972038939592e-03,5.682938340717180389e-03,2.456196889891521049e-03,3.758417898756136362e-03,5.222169289825643115e-05,2.856606018561518023e-02,1.083258182880255174e-02,2.816241825635621560e-02
3.804074920739945048e-02,5.106846715074257748e-02,2.368831358740216414e-02,6.953104527290870571e-03,4.734103076035995131e-03,7.097129307024476787e-03,7.221992721535654136e-03,1.109936176014739290e-01,1.378478049346859233e-02,3.480721148249268232e-02
2.644754794263437167e-02,4.066253931754613277e-02,2.090652098010171989e-02,7.223825766578940641e-03,7.349141176614206773e-03,9.210029426893556748e-03,1.580178972790922606e-02,1.923833951510208196e-01,7.323703877397623289e-03,3.409122658327372324e-02
8.311532187775102706e-04,1.716482840462568368e-02,1.364057104032813210e-02,7.057425004790941064e-03,8.753266764672938682e-03,1.012484766160746952e-02,2.036204824532834162e-02,1.812142132322474564e-01,2.885679396409392226e-03,3.141036426718188390e-02
2.998709343322829637e-02,8.122226851728768862e-03,1.178812533500500637e-02,7.993419237642254704e-03,8.949277531017898329e-03,1.202024775992411969e-02,2.330575919159375356e-02,7.364414919616676936e-02,7.605739131622434555e-03,3.128785194815601051e-02
4.640765444261454875e-02,2.953425357792210937e-02,2.234392321388450550e-03,9.744580874125028519e-03,9.057336070463415517e-03,1.596834154573410769e-02,3.190684327450621360e-02,2.407874126421093164e-02,3.815655611031691218e-03,3.126279260811169053e-02
3.940484782570479599e-02,3.995497027793815797e-02,2.444504896423179904e-02,1.004914114536149122e-02,9.823154945993780446e-03,2.068796269490380535e-02,4.726880139439228884e-02,2.061488625378077311e-02,4.984024321696292961e-03,2.639551472993875714e-02
2.440978318711999398e-02,3.787735661874721410e-02,4.952766875385868073e-02,8.624871524246235932e-03,1.115714337366547140e-02,2.436903409533414111e-02,6.260438408723595360e-02,6.051969442414047162e-02,1.507329336839514054e-02,1.757141573124341646e-02
1.925917277503459354e-02,3.119232491583018643e-02,4.931339303075159969e-02,7.987224782195455342e-03,1.238175065671288932e-02,2.550697627103804335e-02,6.997078631689784833e-02,1.259306292947912909e-01,2.474884212202239225e-02,1.088825977716740070e-02
1.954263952031102397e-02,2.585971784408720373e-02,3.052046662457859327e-02,8.744341489236105713e-03,1.238636382479008612e-02,2.269602940517299883e-02,6.476766125642355321e-02,1.236314261724029973e-01,3.223827656918715201e-02,7.323819281905917522e-03
1.283686611487473012e-02,1.640174297257348049e-02,2.148682731229175844e-02,7.875553960713941107e-03,9.902517886466608021e-03,1.583085648154569300e-02,4.738616815548386124e-02,8.501202629216318696e-02,3.625094574957908600e-02,3.099851089192564614e-04
3.807820406355584553e-03,7.481879978083104399e-03,3.271448102419938914e-02,3.742672149884546020e-03,4.677290097298238657e-03,7.040617754892541588e-03,2.442112370370618998e-02,7.085545786654132150e-02,3.908085749584016416e-02,1.517465502159876314e-02
4.695050987402075993e-03,4.203832751054387140e-02,4.468263685694419396e-02,6.822922470902960650e-04,1.192235072172302679e-03,6.618593804314819914e-04,6.107709605517254621e-03,1.029553154649938823e-01,4.496771821854279177e-02,2.960474002081333114e-02
1.207714711419457555e-02,6.140206853351988514e-02,3.844320713057398919e-02,1.904443525022270472e-03,4.389087865790359394e-03,4.986645576356339878e-03,5.861367569341387543e-05,1.589446216893955210e-01,5.286014216069893218e-02,3.677386562336373149e-02
1.257186167538957428e-02,4.286426021337323006e-02,2.251704095907545999e-02,3.608077201412060973e-04,3.501234927647469894e-03,4.819726060504649773e-03,6.930652772781222513e-03,2.172270629627051919e-01,5.453344541274761370e-02,4.028584766281290142e-02
3.006033081921652157e-03,1.336642921492384433e-03,1.598496549080445639e-02,1.664410124896300615e-03,2.440440825822889990e-04,7.180804560881566719e-04,2.379387915387931249e-02,2.806057272054641727e-01,4.449103160656420891e-02,4.690763546073236506e-02
1.061745460956517624e-02,1.992743919643659087e-02,1.541918861161313895e-02,4.120801564673119352e-03,4.967113758658559149e-03,4.862379764700293545e-03,4.616294955820531010e-02,3.562115577696165492e-01,2.905674396018803618e-02,5.666324450920979389e-02
2.585885259394800698e-02,1.706926948880715857e-03,6.829880256403286602e-04,7.861670495732869107e-03,8.787648500794262296e-03,8.924131064217256590e-03,6.633261459080865008e-02,4.358078327804446039e-01,2.005732933250027605e-02,6.259870492611926962e-02
4.026452726098622703e-02,4.419093707208582300e-02,2.741423094177378519e-02,1.054601151152582267e-02,9.510652612324666313e-03,9.689014531368627184e-03,7.010719302761497795e-02,4.956775968337403526e-01,2.080436787542552443e-02,5.795177973496034446e-02
4.026354426402539016e-02,6.940159103466901624e-02,4.020216063707070936e-02,7.926552816487084444e-03,6.356106463647661318e-03,6.963471962739433904e-03,4.549733921159760525e-02,4.998702164772705903e-01,2.391661024668132601e-02,4.550308366124339310e-02
1.192186494556417634e-02,6.162371743390581552e-02,2.136903196520383366e-02,1.809546313890647183e-04,1.425430739911438425e-03,1.787714539798250513e-03,3.647948947510628367e-04,4.236314218733665538e-01,2.318984246990017650e-02,3.792099237882275847e-02
3.491681371728457689e-02,3.476848843220952529e-02,6.948334913232260233e-03,8.565430902776781028e-03,2.422941297397062776e-03,3.827633346106262130e-03,4.116160067077081347e-02,2.952370082169660792e-01,2.158700076491019970e-02,4.177403917030685782e-02
7.092657043362722569e-02,1.335522495073504512e-02,1.370246163947506576e-02,1.252351176253044263e-02,4.473505575555897229e-03,8.008334113128836793e-03,5.669651586450098063e-02,1.838692354296824760e-01,2.401589400809635289e-02,4.499360203764422167e-02
7.896366828535350546e-02,9.362481387823751167e-03,1.352134523683168939e-03,1.235305364574395756e-02,5.584406804089638715e-03,9.908367745125771370e-03,5.116363262546916313e-02,1.349831302475103523e-01,2.744658407952239171e-02,3.217166425049417661e-02
6.413830325946390243e-02,1.249278198450617591e-02,1.618914113511490602e-02,1.058476710376302608e-02,5.463239933091889287e-03,8.394175317249074481e-03,3.726148288123387609e-02,1.581972459660751784e-01,2.515123120317238822e-02,8.730542234163550519e-03
3.570744131488840650e-02,3.901176989930433756e-03,2.387843447923426732e-02,7.574906790556702740e-03,2.495628351367436618e-03,2.196649142881503675e-03,1.664253090327452722e-02,2.473820240815075566e-01,1.776992617183854178e-02,6.332284055593538977e-03
1.385156418534740953e-04,2.056472213682593655e-02,3.754649618117135434e-02,2.577496396682410311e-03,2.976621697580473028e-03,5.862127686906032885e-03,6.724980619996837050e-03,3.390396210263531551e-01,1.166140488155408515e-02,8.798970703919349601e-03
3.336982666101621225e-02,4.605409287337799279e-02,5.898504909378916861e-02,2.501270600659677695e-03,7.310675996102250149e-03,9.193277756646306073e-03,1.427831021250886880e-02,3.268843207574455567e-01,7.774688876828207348e-03,1.114357348328258793e-02
5.851941968408237715e-02,5.793716818642993122e-02,6.835037619607478576e-02,4.191543937337440136e-03,7.793674239385869201e-03,6.322356885069289889e-03,3.213828016961333550e-05,2.168447861483680794e-01,1.335833035994408221e-03,1.855083097633924288e-02
7.611037699331417439e-02,6.014907076412030068e-02,5.485196987504695892e-02,2.152353089986500968e-03,6.198752902071363001e-03,3.574051354493388601e-03,1.259543057686635104e-02,1.464736902255180939e-01,8.402706843201991974e-03,2.319356276039809608e-02
8.425158439318712611e-02,6.787956726771307570e-02,3.521437595871926285e-02,7.685240344122252695e-04,5.003873458722250984e-03,4.239396411062672058e-03,6.846695960400678120e-03,1.544141047643766695e-01,1.722529380311389399e-02,2.217824807908881646e-02
7.785539360123457098e-02,8.102042660441011179e-02,2.883650513829489129e-02,2.907649537225613819e-03,2.938492897780372627e-03,2.965169946486572415e-03,8.867431685293002738e-04,1.080398924452408149e-01,2.324955037859148879e-02,2.312979615021388408e-02
6.359371649497162771e-02,7.892880593949279378e-02,3.434776422645809818e-02,4.417004473202847115e-03,1.245143767029602798e-03,3.470163074632231885e-03,1.290191331867794437e-02,5.159017809902299162e-02,2.702488573123919963e-02,2.805184576100867855e-02
6.035270066550568052e-02,5.239216839416730581e-02,4.184501197704759701e-02,4.522561649356172594e-03,3.931490598455578654e-03,8.691146693563687672e-03,2.769113947982875662e-02,2.032533805511038683e-01,2.768800230217749458e-02,2.533188353768571488e-02
7.732500208769242656e-02,2.548970717050009355e-02,4.862889224862178283e-02,2.738619547630878441e-03,1.622858644635906313e-03,7.153266563154320190e-03,2.359545621409405575e-02,2.559710517393082863e-01,2.591696252669639655e-02,6.632756959629266744e-03
1.008174217936089329e-01,2.824748924269463585e-02,5.185237879750441425e-02,1.702491338176498727e-03,1.979474539030228603e-03,4.008107436417629801e-03,8.703437711063787344e-03,2.619963037686942053e-01,2.464426384653401261e-02,1.689934856908686250e-02
1.094838125023546854e-01,5.645860368058835260e-02,4.340964219495143522e-02,4.257470506477581407e-03,5.901135422813999802e-04,6.689719804787028039e-03,6.179929605970090750e-03,2.767934861509396272e-01,2.156569336259026373e-02,2.765712145700252589e-02
9.911988744552743813e-02,7.579136468151204120e-02,2.474291320664505009e-02,8.925625800238944085e-03,5.281102311523882403e-03,1.346562483621553674e-02,1.975714033952710724e-02,2.777605236184049753e-01,1.117134741551871827e-02,2.586406754003125336e-02
8.553975239353281412e-02,6.416420832259310536e-02,1.362852436329349722e-02,1.212040402634481477e-02,1.030533393223650312e-02,1.832052087978034219e-02,3.350472202018360546e-02,2.391666350390165285e-01,1.132530843076968562e-03,2.662785633842065791e-02
8.068015397594380245e-02,3.460596880652032359e-02,2.122053853011563601e-02,1.328508273780117273e-02,1.286208811213234229e-02,2.097993416196376401e-02,3.595346209921178315e-02,1.734056386561733942e-01,6.820513923240445952e-04,3.414616174748746902e-02
7.607030705575756890e-02,1.235318320438566139e-02,3.022643177089420763e-02,1.429104212112672356e-02,1.479772084373448190e-02,2.392360073803384557e-02,2.890416085658751091e-02,1.103072577431745693e-01,1.570446926874054933e-02,3.250985202241074568e-02
6.148470648846807857e-02,5.208145032274420945e-03,1.549046661384091868e-02,1.503003585299975998e-02,1.581864521733623852e-02,2.504805630575188818e-02,1.816055954223560337e-02,9.271608403425987688e-02,3.404766696919227231e-02,6.487797229904578022e-03
4.650107694502552541e-02,4.047799486884435041e-03,1.615534894760935897e-02,1.315220078093599747e-02,1.425020704090083565e-02,2.116535804888620628e-02,7.602882111248578968e-03,1.499491788919418145e-01,4.132179531079901297e-02,3.569687781123274256e-02
4.176710831517942146e-02,3.616623441852802844e-03,3.236114287055284755e-02,8.115789616100693021e-03,1.071283681860630763e-02,1.425707417748409665e-02,4.051773403140038112e-04,2.496170760566528701e-01,3.758532869264611526e-02,6.756510214435421102e-02
3.262834221977463367e-02,2.774497046495090144e-02,2.578309084598405868e-02,2.562081366144805354e-03,6.907848982443188721e-03,7.971861916561170935e-03,6.160231920638742711e-03,3.293549354891469605e-01,2.969340934018833977e-02,7.192078719299925538e-02
1.189550754244874178e-03,6.626232394619367694e-02,2.823141515982508648e-02,1.169646107291460319e-03,3.095922965530665486e-03,2.022110236851462194e-03,1.191584553990300034e-02,3.837111026237071121e-01,2.339877714104714526e-02,5.474445655881833572e-02
5.022530621346058682e-02,9.742023823632510460e-02,6.166088422962567178e-02,3.504165124248447959e-03,7.340630160922365609e-04,5.035318203631867010e-03,1.701364529594551894e-02,4.566382209504993295e-01,2.151579651296774490e-02,2.963820756685328975e-02
8.405776590839170170e-02,1.001696521138593921e-01,1.019074823273040942e-01,5.371508225875632966e-03,3.148140486950787211e-03,1.111197285765242772e-02,1.772838121931402666e-02,5.394717990957839104e-01,2.178594106031800023e-02,2.933448009576125007e-03
8.830392310729016925e-02,8.145393353210565734e-02,1.113136662061696563e-01,5.935535632975792036e-03,2.655605105710935783e-03,1.281912701835624668e-02,1.331650170875826183e-02,5.476796459777396597e-01,1.752933452941244849e-02,1.776790192830372817e-02
7.675505245876278193e-02,6.040923305900658402e-02,9.103011569792854307e-02,4.288449565933407509e-03,2.471253556140138793e-04,9.742799428070237147e-03,6.433487449860856786e-03,4.338002886154298521e-01,6.998224515543110744e-03,1.763598587154268510e-02
7.238195715960885068e-02,3.064888781686395114e-02,7.724555965360910270e-02,1.143623440691034525e-03,3.917353520564349594e-03,3.516401313084672499e-03,3.651084110013897484e-03,2.726900951349496838e-01,4.412046189357895012e-04,7.147702018571835611e-03
8.565984880050307726e-02,2.827728474163300476e-02,8.901295120256658144e-02,2.482921546428525604e-03,7.599581202215275992e-03,4.801784024245374718e-03,2.052745611646309559e-02,1.848561932646950734e-01,4.840719184442858827e-03,3.675835746058745551e-02
1.075575937773261548e-01,1.024946787315933472e-01,1.045326654872284905e-01,5.995017113536142347e-03,1.094416704394733653e-02,1.361540990230499827e-02,4.117411165804207157e-02,1.963900467748172507e-01,1.794417386745582668e-02,4.881309054263959640e-02
1.201318481753112233e-01,1.445306316620330322e-01,9.808320002610292077e-02,8.189675213872775819e-03,1.248674267883572234e-02,1.946054124637448812e-02,5.543967371769500246e-02,2.266790238909094923e-01,2.458145097608419385e-02,4.358263817239903942e-02
1.174602322006144672e-01,1.282437696706482944e-01,7.784410986574759328e-02,8.018961352188326910e-03,1.111671593302483371e-02,2.006714196091138186e-02,5.774547921167993286e-02,2.138406911505997543e-01,2.010878422064422619e-02,3.442292367072762038e-02
1.126702291016053736e-01,7.329498169619844128e-02,6.913117081106075201e-02,6.404689179058092874e-03,8.501013935944743555e-03,1.727864054923528708e-02,5.173440413799702819e-02,1.852228206196752103e-01,1.342398736222932473e-02,2.451859015781012244e-02
1.173376426824093710e-01,1.400961451542141398e-02,7.599042004588543731e-02,5.265132065813510516e-03,7.406122307732227947e-03,1.430169579355156269e-02,4.235381997538707061e-02,1.770233786974405865e-01,1.132079645371312018e-02,1.070607444505537569e-02
1.235314944919798097e-01,3.114359615716514457e-02,7.892806724756112891e-02,5.173265257081431472e-03,8.234187350795139915e-03,1.214338142741287069e-02,3.254227971335400815e-02,1.689920368292936459e-01,9.913006221357276507e-03,5.967850025587171942e-04
1.189113712150685759e-01,6.173183523348881735e-02,6.361859239269562760e-02,5.402414424979142503e-03,9.533602460070542822e-03,1.099500154405333441e-02,2.801902127324521624e-02,1.513645870199799848e-01,4.793552460991175324e-03,5.375759611599769013e-04
1.085452642363728404e-01,8.594869870234310427e-02,3.814013025290090980e-02,5.400186868366120725e-03,1.045769630497007420e-02,1.140140498058316194e-02,3.317828005219836118e-02,1.596875103424385267e-01,3.716126730045165964e-04,1.313405938927903610e-02
1.051048903256909389e-01,1.077526718693608276e-01,2.204937230573874793e-02,5.074834990605052269e-03,1.049751927572435337e-02,1.167782164339952952e-02,4.082895043281332959e-02,1.828356174907017906e-01,8.844065722369766781e-04,2.733966729322102884e-02
1.050217151925825210e-01,1.198097589248841299e-01,2.421991761063026563e-02,4.382144815615380933e-03,8.701541620035448468e-03,8.664254070669390184e-03,3.906706568922364148e-02,1.427954981940663948e-01,3.417488484432100113e-04,3.374782409360725655e-02
9.168118549098028258e-02,1.168758515505429196e-01,3.537981817297502357e-02,3.099479736062261959e-03,4.803772664370391590e-03,2.509923674574045770e-03,2.878089175191402005e-02,1.995095926255995369e-02,3.159527710009751161e-03,2.899126101433817729e-02
5.880474611025737763e-02,1.086176691927685650e-01,4.230440355202823299e-02,5.112257541348013985e-04,5.751406902824672800e-04,3.898725736060858552e-03,2.078515451254832336e-02,1.089922574835243685e-01,1.173857358995579817e-02,1.901729086065077554e-02
1.433482723837522718e-02,1.031592824417095072e-01,4.251422199367484167e-02,3.912542138105112172e-03,6.893652732091716355e-03,9.947402898116313244e-03,1.715150573588201943e-02,1.932913729154453475e-01,1.761772028948298957e-02,1.297757570262879703e-02
3.473069194389855757e-02,8.961217767926038524e-02,4.074821129521317975e-02,8.823455066622434145e-03,1.305125788399460855e-02,1.696994753443880483e-02,9.397638244416844228e-03,2.610957321102664874e-01,1.300157913796150255e-02,1.060839284807385714e-02
8.185949849254861577e-02,5.744538998016742587e-02,3.695515232671682526e-02,1.174256547773962385e-02,1.708625797023109391e-02,2.411844618597197912e-02,6.332619478194383665e-03,3.336140062790590166e-01,7.113264618437186229e-05,4.827427896466183858e-03
1.105922020175012510e-01,2.296937231086139397e-02,2.442304030301836043e-02,1.233333340366121571e-02,1.825275306845106776e-02,2.856524628171391855e-02,2.396654244870360939e-02,3.955265400057753067e-01,9.067389807799679929e-03,4.612698208215779833e-03
1.081911709337435440e-01,1.614573088508164042e-02,1.561645965350052026e-03,1.259089324824394160e-02,1.752056206421841525e-02,2.871251036325755263e-02,3.630767410646378035e-02,4.594113849201219568e-01,4.632309721074394024e-03,1.384064063824276547e-02
8.695419810710539044e-02,4.297336202960139184e-02,3.698079445090792644e-02,1.315444444740584973e-02,1.537819766008105896e-02,2.525477292512307362e-02,4.161630836403598654e-02,5.496867321390758176e-01,1.092264222787955354e-02,2.560132831479558502e-02
7.191515525716329904e-02,7.408912693499873636e-02,7.055277723289760106e-02,1.219474754829924165e-02,1.184314490557054726e-02,2.041707196791998219e-02,4.275727248420282955e-02,6.115551925330386940e-01,2.761878531574784093e-02,4.106171483745825468e-02
7.124377335483222939e-02,7.715377511438323288e-02,9.151298622919330772e-02,8.669717911041464886e-03,8.212572229872375923e-03,1.645104104000917611e-02,4.447755799403144833e-02,5.436224882962709115e-01,3.875140246778300407e-02,4.965959021659118594e-02
7.446274089185418721e-02,5.554220836074293816e-02,9.936975174855416926e-02,4.240658358697024788e-03,5.587867984524578883e-03,1.361035282786414967e-02,5.051185533445921166e-02,3.470174609094481832e-01,4.366074000887062295e-02,4.355168502745031256e-02
7.495226005971260264e-02,4.197078311416565372e-02,1.058113191514058332e-01,1.240278255493104578e-03,2.863427870747939016e-03,1.040903085474029210e-02,6.008167741097155540e-02,1.562880229281954914e-01,4.399088969774097441e-02,3.176103506027404266e-02
8.001852675226386880e-02,5.377486234032031326e-02,1.217040275641833869e-01,4.583364332895452451e-04,7.274095546209007881e-04,6.885010009863429953e-03,6.747798473187384405e-02,9.285252068946595050e-02,4.196734923186974664e-02,2.536472423527461398e-02
9.725821320436064954e-02,7.406459341680080022e-02,1.429798145921399033e-01,1.308088329323241206e-03,3.099165993060064815e-03,5.767284540455617885e-03,6.789738295761879594e-02,1.449850528034249131e-01,4.050200798568886346e-02,2.058352864606365074e-02
1.194137850295513559e-01,8.238530170233340777e-02,1.561581195599749672e-01,2.860330146278271951e-03,2.333937141990912421e-03,8.771986325573046667e-03,6.305661602280286659e-02,2.075961247010252586e-01,4.118919426670680783e-02,1.071036184981908820e-02
1.298962691492351329e-01,8.149449850094384051e-02,1.571470084682836110e-01,4.594386809936324388e-03,3.155131748974349809e-04,1.369042774806148235e-02,5.722728276473527942e-02,1.964118464142070863e-01,4.251680181943184866e-02,3.774102878257387054e-03
1.205119029747873105e-01,8.445612907497110355e-02,1.549225953639456477e-01,6.896526683340319271e-03,2.933133488596964631e-03,1.704796740222094820e-02,4.958845483286062478e-02,1.133568721834321419e-01,4.253333934525958121e-02,1.322963407336986801e-02
9.626010057185960256e-02,9.383759569819762059e-02,1.528933895963598966e-01,1.017859816632872560e-02,5.281465084334240057e-03,1.767564200880718250e-02,3.713940645297621884e-02,2.919608141777109422e-02,4.233219549425897704e-02,3.696965930062728889e-02
6.785050626956215525e-02,1.006810678716016094e-01,1.379683798313014464e-01,1.311789231632624897e-02,6.873720714184969674e-03,1.619419648329739614e-02,2.421569187662955119e-02,1.140974419675824802e-02,4.359728306181625407e-02,5.945683255593520178e-02
4.908806273358896910e-02,9.306847379207200399e-02,9.977925362983884605e-02,1.365253098843053486e-02,6.574023646498514464e-03,1.338215441459742784e-02,2.043947824225756868e-02,6.050740180247203559e-02,4.412727900457996677e-02,7.301952235026064331e-02
5.178730199133197570e-02,6.728068159786337876e-02,5.294186969532224674e-02,1.234225959282512705e-02,5.369554431759523440e-03,1.031332400951000608e-02,2.697983456835159263e-02,1.172109887807253475e-01,3.992857026981302959e-02,8.290272222588000728e-02
6.991679287333642245e-02,3.459713742182603941e-02,2.457555001620182616e-02,1.187857635169937975e-02,5.636818301706013508e-03,7.913231769181350295e-03,3.303660037762244650e-02,1.295481990341485201e-01,3.026469524045621862e-02,8.897857082286737829e-02
7.945175386485121838e-02,7.356243390668095253e-03,2.278879291162624193e-02,1.231333377794555962e-02,6.922998918644131770e-03,5.606226058758406738e-03,3.105816562471611780e-02,1.006980694560337120e-01,1.754590153597983954e-02,7.916096559340742023e-02
6.538443117489682599e-02,1.780581836186188177e-02,3.165172796486014073e-02,1.057410135061866152e-02,6.133018715521815038e-03,2.330911517575488725e-03,2.797383587173826042e-02,6.794158163921915072e-02,4.494284943564673743e-03,4.985958372581270059e-02
3.679892554583930053e-02,4.786186071123019886e-02,3.491146696901508556e-02,6.260742074037555296e-03,2.625966009197639589e-03,1.001093039302439983e-03,3.310983237449120070e-02,4.851215862742610380e-02,6.920731922429248714e-03,1.776471342560484445e-02
1.022104993066799694e-02,7.709894138810349795e-02,3.015162631000916846e-02,3.555378743531215427e-03,2.660393732820793243e-05,2.310456454127556535e-03,4.152002827830478249e-02,2.338213873668300302e-02,1.630365974426983833e-02,3.017844303429685453e-04
5.745398503328288421e-03,9.848304646700997700e-02,1.942667661640484766e-02,4.960470265261559056e-03,1.315344395915856498e-03,1.553191049695515705e-03,4.091900166719217996e-02,2.949322585736792110e-02,2.477845428200795702e-02,6.101391017918447388e-03
8.441757926112146426e-03,1.120199655960066598e-01,3.797164422756783148e-04,7.013191127919935278e-03,4.952471863064825293e-03,1.002217188965956723e-03,3.070122251169566871e-02,1.076636664725628689e-01,3.211931015835358533e-02,9.093962370620524427e-03
1.033178982309763960e-03,1.126503659769705068e-01,2.669689318898834512e-02,5.031161698215504650e-03,6.382239233898375115e-03,2.602234196087752516e-03,2.081989035719328252e-02,1.845909734627453058e-01,3.598012053893873824e-02,1.183151169737130595e-02
5.174022322091230766e-03,9.574502981405376423e-02,5.057529263343817083e-02,6.282693074426660366e-04,3.874254366301591208e-03,6.218494345368860872e-03,1.490001441337849772e-02,2.160106913381748539e-01,3.657263836880309676e-02,1.463374538138124958e-02
2.260624998313897835e-04,7.533909153437390316e-02,5.712234886259890537e-02,5.669179247991648803e-03,1.284200601053926889e-04,9.580989117071772240e-03,8.837103699210247659e-03,1.663984939927330431e-01,3.863660304359163578e-02,1.915511753874277537e-02
1.193681179804218472e-02,6.757897989970747255e-02,4.628797555358730303e-02,7.332028630455995552e-03,2.728475173309768617e-03,9.850168589380595835e-03,3.757951360962787698e-03,5.156156015920070057e-02,4.441911179811910970e-02,2.070629952655109185e-02
1.763849744861188326e-02,6.432445055949689849e-02,3.432723111502576641e-02,6.149809536210162214e-03,2.818071874169581457e-03,6.641928996453143157e-03,4.760763746938165286e-03,7.615369180827870343e-02,4.767859345986141806e-02,1.155827169973851556e-02
1.342532227366429430e-02,5.347477808399919708e-02,3.545707525975730356e-02,3.575863417342934388e-03,2.453957462517932474e-06,2.900163733556004441e-03,7.084730633520166902e-03,1.889945020268705145e-01,4.039040093630986983e-02,4.787592047587253818e-03
1.548362449247906933e-02,5.093851667848386944e-02,4.622259317909969967e-02,7.999011026543111557e-04,5.019095228283992731e-03,1.713913038422294928e-03,2.447611758421869722e-03,2.743977433024057944e-01,2.449312130399360077e-02,1.538823941087777772e-02
3.859273143088005897e-02,8.165559292732153807e-02,5.178879491853532330e-02,9.264821165606847804e-04,9.231230571909228300e-03,3.293805517743518974e-03,2.785356345031934217e-02,2.800574995018476621e-01,1.142138141090525034e-02,1.461014246016923042e-02
7.013796154292792351e-02,1.401867652167222145e-01,4.420466367890928810e-02,1.460384520697695365e-03,1.043715684068624930e-02,5.180242779279559118e-03,5.613091366145084998e-02,1.640595747328229548e-01,9.192852687433993031e-03,9.554062906828128532e-03
8.320238422479021845e-02,1.932268893208832772e-01,3.104296901448182905e-02,2.080645805025217385e-03,1.051398044203390517e-02,4.379399869659357514e-03,6.973369630576078948e-02,4.188942286830156167e-03,1.515637884772374003e-02,9.420736182535353886e-03
7.678386710451445829e-02,2.141608071131283209e-01,2.570806238504333083e-02,2.340660203354800496e-03,1.143160670394367286e-02,6.503773014206188762e-04,6.450090383518120030e-02,9.772663050769640758e-02,2.306883171831760823e-02,1.325353237119416758e-02
8.225673555510103208e-02,2.020708504582252596e-01,3.097260164091927490e-02,1.267858465204076395e-03,9.795152807242395870e-03,1.265889240090741635e-03,5.375314655561771321e-02,9.250510854469927435e-02,3.092565464622299212e-02,6.937599406066695049e-03
1.213136577321195925e-01,1.709116675444798950e-01,3.738385536348853844e-02,1.056719864832872044e-02,1.002822050412581880e-03,4.397185349734201304e-03,5.400021874680989431e-02,8.299142294179515100e-02,3.829356529578500229e-02,2.154005387977396546e-02
1.741820196866297188e-01,1.283539587537838866e-01,3.902570344173152822e-02,2.135865357061277406e-02,1.191464296874085796e-02,1.653868305317281531e-02,6.686690103124304230e-02,1.308580028095713277e-01,4.224082984541790292e-02,5.915892507579421922e-02
2.027988720994409466e-01,7.052932213158004393e-02,4.155662489871757986e-02,2.704209744239597507e-02,1.968211763098305644e-02,2.654837462250326727e-02,7.766627881172151471e-02,1.807822311939033255e-01,4.100534683910669193e-02,7.579743600569201212e-02
1.961482125508063334e-01,2.544340071902913281e-04,4.998121500715289184e-02,2.571449136898637522e-02,1.776249218481806488e-02,2.768419425549534935e-02,7.358240320898450093e-02,1.610137857794955718e-01,3.763062676160578574e-02,6.397479039394959877e-02
1.777007090737905415e-01,5.777861035823586566e-02,5.862595827481032612e-02,2.088287837290747281e-02,1.096239730455503270e-02,2.216754580802871716e-02,5.879766026084916331e-02,1.100925288381836148e-01,3.558362780090146282e-02,4.877276554206519399e-02
1.702106017228336987e-01,7.436953004505668374e-02,5.954636718936238970e-02,1.601082735100336704e-02,6.266975418240837079e-03,1.673680963811800468e-02,4.607309539037907076e-02,1.292346609706394034e-01,3.309163909468500198e-02,4.708543627015743943e-02
1.690125144627623588e-01,4.992834962566800039e-02,5.132019332564179137e-02,1.160818730406574899e-02,5.543451063235184037e-03,1.403803333728924005e-02,3.898434364606524066e-02,2.216751729064901921e-01,2.542845611801509628e-02,4.384656246230150822e-02
1.545502451773113073e-01,1.977278890255464855e-02,3.464102241159285750e-02,7.385388911139438746e-03,6.391254155449365912e-03,1.183911194360788566e-02,3.232307915259113873e-02,2.706422430833991255e-01,1.191303776127010730e-02,2.415635823106556529e-02
1.174743555460807387e-01,1.881132247494830129e-02,1.074819775332213484e-02,3.977180426736880506e-03,6.589433539138180723e-03,8.816638765974035841e-03,2.486734047387680058e-02,1.977225727756684870e-01,2.377407008967013981e-03,2.435181009454660817e-03
6.569083190874100420e-02,4.376311703575732487e-02,1.016896354377971184e-02,2.068744140201211716e-03,6.056673296674227984e-03,6.480881257090949192e-03,1.979424299460196338e-02,6.422633131256140493e-02,1.187034019163596237e-02,3.648823992534605543e-04
1.890864063585667720e-02,5.463434872387698538e-02,1.206986024744628738e-02,1.832794645381893113e-03,5.785206207864758594e-03,5.457555054955838710e-03,1.632004321587414430e-02,1.006067234033811500e-02,1.506914854025515754e-02,1.247336016674167533e-02
1.673840313220526996e-03,1.708534198703726831e-02,6.602996972305572726e-03,2.992663886396763721e-03,5.861972741182429683e-03,4.175465709453074145e-03,1.145638523044358037e-02,2.797751642789363460e-02,1.393082195000981682e-02,2.554286518498014372e-02
7.513963732040327900e-03,5.696661057456331445e-02,2.726866774517803377e-02,4.368109366257674590e-03,5.497855920755110454e-03,2.376042921447155207e-03,6.584527760989750123e-03,1.373701089263776876e-01,1.126926114610445236e-02,3.727064683575911919e-02
2.285995019969411235e-02,1.169404452279893397e-01,3.515093879384894454e-02,4.772314440696678525e-03,5.445143284797226979e-03,2.468804215778564078e-03,4.230256063408488476e-03,2.383766736037625233e-01,9.456626969182735029e-03,5.393669609814970289e-02
1.598267653234335811e-02,1.235362198483113960e-01,3.590120659083188837e-02,4.910918238607397956e-03,7.889148559942946518e-03,5.451026343192149487e-03,1.680772639951675501e-03,2.687388849007221747e-01,1.003712456812911290e-02,6.937048217030948594e-02
1.642021924837687094e-02,8.446937065656201504e-02,3.864320725343372426e-02,6.138566015551287502e-03,1.225536943739795152e-02,7.982003021881864044e-03,5.425811488074319677e-03,2.086656081779569016e-01,1.325439987985179736e-02,6.778561967633774110e-02
5.618807399049439294e-02,3.626837750990005715e-02,3.751348613236594326e-02,7.205514508816699380e-03,1.423279819266072901e-02,5.930350693079126240e-03,1.536848742189601130e-02,9.513347743759413555e-02,1.770890131128794592e-02,4.278692395212628508e-02
9.066315620119867746e-02,1.808183408909894326e-03,2.132525799759703994e-02,5.003650488801321579e-03,1.108752085585716120e-02,5.813175649895769648e-04,2.221400332469996089e-02,4.583523925453043130e-03,2.162665296404637019e-02,7.459669575348156639e-03
1.209269286177515196e-01,4.091752182641637120e-02,8.176730154075132970e-03,1.162691761915007199e-03,5.048020838662833042e-03,7.655890395270683636e-03,2.457785727853225091e-02,2.867150616685013378e-02,2.524964501462647476e-02,1.143228092646305163e-02
1.465034273671977916e-01,8.774081279191088545e-02,3.313387818554384967e-02,8.280808618033567645e-03,1.645081818576002181e-04,1.221493267545849595e-02,2.724253537951353693e-02,5.783370454513105108e-02,2.956673267941186886e-02,4.586678612635989964e-03
1.602415653685949626e-01,1.169340840850111585e-01,3.146857298819787790e-02,1.266833614880910272e-02,3.312600334186219242e-03,1.421360954528943718e-02,3.329428789804005084e-02,1.278848200961939796e-01,3.149091125983317224e-02,4.213345547433026972e-02
1.625004952264325342e-01,9.725129190570723503e-02,2.901760177550515712e-03,1.261844592184079190e-02,4.674962542620118497e-03,1.418379302356350194e-02,3.788900780241669791e-02,1.781688936825591985e-01,2.530226237300564965e-02,6.594558820268113519e-02
1.613389214153115314e-01,3.653121115430926769e-02,4.970509953299173667e-02,8.431757931748568718e-03,3.780844186184171597e-03,1.073717843299595506e-02,3.226590564614599532e-02,1.208791574574639427e-01,1.183829905423600809e-02,5.935793757165003931e-02
1.497439750886178922e-01,2.173518028370626312e-02,8.035228245852420181e-02,1.856293771399546849e-03,4.152815753835862461e-04,2.841498188251412316e-03,1.477002049034241947e-02,2.868529111668694301e-02,1.327584747906812362e-04,3.900789230132578611e-02
1.060365521462033334e-01,4.779606004077925629e-02,8.407367394112340298e-02,4.187616672130850017e-03,3.587187536565631697e-03,6.470194758984844884e-03,4.668467603426069458e-03,1.772993169970658311e-01,3.736077760887235137e-03,2.488354837420275745e-02
3.135773057674652586e-02,4.974910313152826336e-02,6.763464281884125351e-02,6.791948378341898518e-03,5.798758969397072374e-03,1.177851559758528663e-02,1.455154091955015647e-02,2.653216349696322363e-01,2.724850238321289368e-03,1.627017586796605103e-02
3.780824111601078369e-02,4.552419278148937126e-02,3.954526515003157355e-02,4.945076169807546135e-03,5.694280858931187808e-03,1.069436626218823669e-02,1.352823342670500355e-02,2.929072845397548974e-01,6.893663483453983838e-04,4.394137038499895329e-03
6.933710533446760249e-02,3.905736248793717502e-02,8.994635094354580529e-03,2.979655727366769028e-04,4.153606739798120992e-03,5.571935179601951449e-03,7.935177463707100351e-03,2.759727832217745425e-01,3.875813870627265248e-03,9.621505565214712521e-03
6.504930533869776599e-02,3.255503691397855504e-02,1.034212868056102672e-02,4.083424709917266894e-03,1.545332685165135304e-03,7.135363781267910210e-05,1.594545323528591017e-03,2.228847781550424845e-01,1.187739400462490234e-02,1.924804362150949952e-02
4.262469133276921424e-02,3.283852699288659222e-02,1.253949070946406598e-02,6.058280458681013399e-03,2.123595987211078333e-03,4.487284383571639099e-03,6.591736184016100050e-03,1.336583018303365011e-01,1.827344414285639318e-02,2.375333790974631931e-02
1.359210230023621090e-02,3.339959820817520186e-02,9.671860385183948111e-03,5.874558089337272165e-03,5.839703416407803979e-03,8.726504001712098724e-03,1.667274778707097602e-02,7.740556698457126336e-03,1.772803867140259476e-02,2.651622189520549261e-02
1.231714593250510074e-02,1.433227966199350847e-02,1.766015626986208037e-02,5.341377949246418032e-03,7.644459069718102101e-03,1.165875714830525399e-02,2.301962309101440035e-02,1.242688586561600528e-01,1.173640572253637285e-02,2.719036555466670599e-02
2.457362904339030485e-02,2.876638827193953377e-02,3.635674946264668556e-02,5.624852472204838229e-03,6.375294131647516772e-03,1.004937699554252564e-02,1.771443234335623104e-02,1.895182435596126092e-01,5.968579165936057328e-03,2.186227883029156702e-02
2.491413382904474061e-02,7.309532555551555288e-02,5.277640489353600806e-02,6.219783750560104948e-03,3.347453195236435326e-03,3.164560302929948776e-03,1.350320733572903120e-04,1.437102384131016541e-01,3.165634663756662116e-03,1.074297325969793271e-02
2.762486773373749871e-02,9.549655725566293107e-02,6.063431572900934707e-02,6.086838100824376423e-03,1.615879705359469587e-03,4.565276321609326900e-03,1.918089316106487419e-02,4.194700649228540884e-02,2.638522483551347751e-03,1.539441759746779060e-03
4.058009167275431622e-02,1.008866732818275297e-01,6.672118773728420715e-02,5.224734548420211129e-03,2.647641700928664993e-03,8.159626016255111525e-03,2.800572358217791324e-02,1.717403309420949611e-02,4.405374989473943848e-03,2.786151392612607955e-03
5.929397743809132482e-02,1.116540094239530795e-01,7.627028455348144886e-02,4.595280646955722699e-03,4.721572147741782619e-03,6.861542051883728205e-03,2.295079600008166285e-02,4.072672799453292032e-03,8.771368697954268906e-03,1.571943600898813645e-02
8.062140993305895453e-02,1.288817577552171800e-01,8.134625840081362302e-02,4.563414696656548433e-03,5.804149867332915325e-03,2.563617879377975625e-03,7.316512129730423294e-03,8.972554025709693348e-02,1.289030142799763891e-02,3.452040668547511071e-02
1.050472071203270713e-01,1.224763266835858372e-01,7.152578291551443812e-02,4.374090821997907857e-03,6.186227708007079919e-03,3.210284877504930579e-03,1.462109510075697109e-02,2.261692468201613182e-01,1.270835121183051634e-02,5.180595844079015355e-02
1.229354075529877077e-01,7.497920414854700177e-02,5.105014545841013440e-02,3.769894428335910340e-03,6.675209142573366831e-03,8.469516466530374946e-03,3.411514057911883141e-02,3.656233352747549903e-01,8.508123581535570815e-03,6.099853203923146644e-02
1.178384056292703097e-01,1.614310523632950592e-02,3.566790190501097774e-02,3.693386898258627961e-03,6.490174239583315456e-03,1.013763691158147719e-02,3.743423174574792012e-02,3.966979458325788910e-01,5.177300081679818422e-03,5.726284713222679762e-02
9.071615256159108742e-02,1.099244352531123653e-02,3.405573071708476590e-02,4.364545028983114576e-03,4.949722959991503975e-03,7.627129704291940593e-03,2.118314482613001606e-02,2.649586051313820301e-01,6.561520918620018100e-03,4.207218149592741735e-02
6.309684229256273813e-02,8.314370191821844613e-04,4.108765721226833451e-02,4.495354927612141629e-03,3.333528574432849476e-03,4.774429662915631416e-03,1.351706105527584762e-03,7.415961532205347928e-02,1.082758770694421287e-02,2.453711810906581553e-02
4.816867362329027569e-02,2.389099676762482943e-02,4.883687022394239685e-02,3.510256220983295258e-03,3.219143623153450980e-03,4.725047262223554083e-03,5.811907442696875523e-03,3.935574296808450750e-02,1.177575461054581815e-02,1.319196795167214276e-02
3.809902495726927296e-02,5.056615557752398155e-02,5.539320943184433688e-02,2.675419913198266199e-03,4.098411591044425796e-03,5.377240938228429121e-03,4.031805626492464961e-03,7.024732759702767559e-02,5.795364920195991351e-03,9.431234506224748029e-03
2.687789768761585096e-02,7.463287973418633592e-02,5.945597142416136904e-02,2.979965944603862795e-03,4.173233853634364734e-03,3.854001626274344144e-03,5.265084956229888410e-03,8.176800567603233205e-02,2.812700265671939752e-03,1.187260897900924844e-02
2.093723452104659724e-02,7.721824097409611676e-02,5.239069105490731793e-02,3.434392488753143513e-03,3.113877624523766173e-03,2.245940797212124529e-03,8.247052464602760286e-03,7.175083308526594705e-02,6.633396892282037924e-03,2.101289834031973974e-02
1.782750176143922671e-02,4.110790529097361340e-02,2.494478219321755522e-02,2.726527336985059505e-03,2.390475921418888650e-03,3.972111437496926231e-03,4.268073682597061172e-03,2.069292612804982112e-02,4.942625712600099558e-03,3.516153035165919816e-02
1.017277760270544895e-05,1.729902157214950609e-02,1.673946801004353585e-02,1.475065427244798147e-03,2.646876410223592338e-03,7.486656730426863478e-03,3.910127194426404884e-03,8.945242130595332242e-03,4.093503763576534539e-03,4.663404838953767728e-02
3.789217918846840560e-02,6.044807129153798725e-02,5.116202459221377147e-02,1.090515253571020318e-03,2.824016390543664622e-03,8.607378778342389403e-03,5.244626925801001462e-03,5.317554469360177838e-02,8.063964819898319231e-03,4.691753179465479873e-02
7.446047065711383639e-02,7.025426743737964164e-02,6.205357935064979152e-02,1.251102506034364181e-03,2.444052121655413117e-03,6.861549395394486023e-03,8.760125927332343626e-04,1.600762351786839677e-01,1.353368318830669090e-02,3.509321473397401803e-02
8.542069689419008738e-02,5.632994552893966916e-02,5.119573476665920109e-02,6.984194714910653022e-04,2.241082473201415261e-03,5.422725351161830284e-03,3.147525578853759606e-03,1.956398556336204075e-01,1.505592264619030896e-02,1.967147156695531196e-02
7.017807354771511685e-02,3.252641649499239673e-02,2.905102072823650960e-02,3.366922115422778705e-04,2.134646441693173816e-03,5.979671026224302015e-03,4.348882015339207430e-03,1.192316587629146524e-01,1.095192964162072617e-02,1.140608547757158628e-02
4.872180993807823102e-02,5.585347872047920909e-03,4.388806149015660359e-03,7.928162336230218680e-04,1.410324521092612762e-03,6.741972881765674955e-03,1.424940020473632052e-02,2.631297968271741755e-03,3.272098724572064868e-03,1.308858342092798430e-02
4.017283535714952225e-02,1.837674580635887886e-02,1.314962809064248485e-02,8.780904383644601730e-04,7.523692369248222286e-04,5.684268947753695102e-03,1.686639195358678386e-02,7.768135484480390152e-02,4.209271923064337312e-03,1.684370346380836825e-02
4.847277729233562260e-02,3.306331786657065036e-02,1.374082506321163376e-02,1.344935037465680525e-03,1.142996179880206940e-03,3.658773028821196444e-03,1.114808314962694238e-02,5.859521675960525922e-02,7.092173538576655722e-03,1.374469383508621946e-02
6.369769091763469171e-02,3.867261890149335107e-02,6.754841737820980454e-04,1.623468512567532128e-03,1.549346323641708108e-03,2.837394608659514744e-03,2.890997585473029183e-03,3.139067324382295576e-02,3.498632085378816214e-03,4.775077335875328385e-03
7.272214365648486945e-02,4.194607198100363393e-02,1.473562531906246961e-02,8.364561511274675983e-04,6.582980421939945868e-04,3.402518163304978256e-03,2.072332550532554087e-03,1.121600471428144535e-01,2.916391578064219704e-03,1.644050650827969841e-03
6.881863520816826341e-02,4.912177104302526548e-02,1.836160360111135925e-02,1.009817125863382852e-04,3.529550256484622066e-04,3.859877388169488579e-03,4.651616348822107828e-04,1.118777122546356223e-01,6.559622438567717061e-03,7.573477357899604384e-04
5.434713690983965922e-02,6.051470789801098593e-02,1.841232606608503991e-02,2.890614874922638037e-04,2.519115801892282658e-04,3.551349937779719849e-03,7.613289284191198866e-03,3.494239964842019153e-02,6.269964070900829745e-03,5.143452861005684898e-03
3.872187513793338282e-02,6.766186373693612588e-02,2.463774287627876550e-02,1.437909810165348022e-03,1.464714039029038888e-03,2.727101678195166697e-03,1.594657790869476177e-02,4.607290404314934307e-02,5.194094468877159115e-03,1.168792282861547994e-02
3.321190034810232727e-02,5.499314199198222786e-02,3.432664882436483461e-02,1.833528823329464352e-03,1.187168566749367002e-03,1.340524547538985128e-03,1.417587493073924065e-02,6.498067308491510541e-02,5.955386684111199126e-03,1.550453476127330865e-02
4.172321833696582966e-02,1.493198949253289262e-02,3.774992307148138104e-02,1.697316154101036765e-03,1.367474084918849817e-04,3.279994263736425979e-04,1.138748634321804475e-03,2.145684888455965528e-02,8.440675583725085543e-03,1.477697446534573765e-02
5.563047013652948347e-02,3.584841593700614087e-02,3.051979721839000528e-02,1.971855359159348751e-03,5.965186996098651405e-04,1.232862961701209920e-03,2.001741572120044679e-02,2.856328436063219553e-02,1.066733833367125572e-02,1.054029841294359254e-02
6.173313042515279903e-02,6.900462235489289442e-02,1.803156190420789756e-02,2.104224502452654594e-03,2.460591581012032143e-04,1.131579241526800474e-03,2.960319068440650861e-02,3.372914129421226981e-02,1.062336597739810783e-02,6.159410729885435656e-03
5.420275296087705141e-02,7.517637104833829742e-02,1.332288275356640662e-02,1.277704516116435129e-03,5.182564256404596521e-04,9.559821970443430506e-04,2.792429666278527581e-02,8.477304202737767289e-03,8.429057940885057582e-03,4.386067846310891596e-03
3.632647141822824971e-02,6.710704966896408052e-02,2.619510924352143680e-02,2.596421732789530677e-04,1.446742844968817131e-03,9.275669537703907933e-04,2.164454930807270527e-02,6.743220661287908924e-02,6.120004445754249553e-03,5.516105622519411333e-03
1.458612399042708008e-02,5.535629094863820515e-02,4.924651848035428020e-02,1.438165969596563016e-04,1.975780654814695420e-03,4.642165762653446218e-04,1.495384130895036252e-02,1.200977679385868691e-01,4.307097709167419415e-03,7.828831974800300880e-03
6.744121697967862816e-03,3.960524470659009671e-02,6.245006402989541211e-02,6.069679025115701752e-04,1.909014004644165588e-03,1.796350929869229953e-04,7.360245533825991726e-03,1.632242942313417988e-01,1.193668696990846274e-03,9.692340823550187057e-03
2.823134180529554560e-02,2.077462490831256947e-02,5.522977151665603435e-02,6.248759622297184266e-04,1.798877503390066985e-03,1.260466152296955446e-03,1.193932074802989520e-03,2.023711630248780369e-01,3.631737084989995409e-03,1.175874567941112905e-02
5.162756655898868841e-02,3.745491622038664165e-03,3.498944130334864094e-02,1.255104838629826766e-04,1.893951531722027357e-03,2.811882573633594107e-03,9.334903704985084497e-03,2.437126474954375843e-01,7.342559262845018558e-03,1.555116194038252270e-02
7.198302765020143934e-02,1.040882493237344636e-02,1.294724128784317287e-02,1.212572704821984011e-04,2.146970397049209264e-03,2.825137422890551270e-03,1.631261395416061868e-02,2.822778087861737562e-01,7.716463081258766871e-03,1.898353517040469313e-02
7.913477525371255539e-02,2.261314759723576789e-02,6.397752951339390551e-03,1.129412646904587618e-03,2.378880629962490476e-03,1.699400512098871554e-03,2.076742351389757393e-02,2.924566130907944039e-01,5.991262536744291177e-03,1.635940388938224993e-02
6.917105930031025585e-02,2.947432267745500253e-02,1.959473254386083496e-02,2.114581220520119886e-03,2.160675849282382190e-03,1.674882702449419529e-03,1.990496297076238888e-02,2.503468780314948017e-01,4.485566893033426580e-03,5.451545153546109336e-03
4.672789940687809007e-02,2.724051792401942923e-02,2.108673161937636015e-02,1.960676774617654914e-03,1.431848670384443158e-03,2.972795933079731834e-03,1.356240653457322157e-02,1.648960953944897390e-01,4.001836209630060641e-03,8.173516792717428620e-03
1.603649496637805927e-02,1.810722798798326122e-02,1.160709851564320841e-02,1.338940441025152648e-03,9.975809849634971298e-04,3.612888280688139261e-03,6.592993574468491123e-03,6.570407905173882013e-02,3.911278192002667041e-03,1.778141201502849572e-02
1.927696942797203772e-02,7.556042909729807772e-03,1.028283484374007545e-03,1.559560658901171888e-03,1.446936450997886184e-03,2.884478445300607367e-03,4.067247828075848740e-03,2.731185191254205044e-02,2.638641065014902046e-03,2.382757320695751482e-02
4.908249542943427662e-02,3.495885783947778880e-04,2.019292676947909409e-03,2.325851330191935299e-03,2.177276479722000963e-03,2.262320240235887996e-03,6.122174897385857656e-03,9.880252882964532524e-02,8.443271814970714634e-04,3.037342260653602341e-02
6.263387965754167730e-02,2.843326847324218788e-03,2.497620029718605056e-03,2.377486111605728834e-03,2.385231548990412835e-03,2.821721424177254644e-03,9.584462292415767137e-03,1.261804827937360596e-01,4.458875250532250492e-03,3.655045034011650262e-02
6.029815767360460765e-02,1.403891722494124850e-03,1.071204492772141054e-02,1.557498203713019586e-03,2.169230939894032685e-03,3.689602428207671737e-03,1.254971395596524847e-02,1.022617100255268918e-01,4.505710742436885852e-03,3.919804037212418213e-02
4.943330388643627643e-02,9.878865188836002953e-03,2.008529198586343420e-02,6.879403735566496465e-04,1.972852372871257941e-03,3.504501757276800439e-03,1.517843289509690843e-02,5.388270449096931036e-02,8.611000488469953019e-04,4.019854011102059338e-02
3.361851283883805774e-02,1.709782482582834426e-02,2.786457649933623756e-02,2.102218454551364746e-04,1.895274829453391565e-03,2.343178533306211273e-03,1.715101339583875034e-02,2.014745376840461344e-02,2.626381702471303897e-03,4.279177046380942817e-02
1.552863933501898511e-02,1.939866781702041798e-02,3.048326249497786827e-02,5.983254130575104248e-05,1.946928056015982548e-03,1.395551090471862073e-03,1.677618215352330230e-02,2.275779567216664953e-02,3.521945745976088477e-03,4.521153818321488327e-02
3.671626058942011744e-03,1.756597010304998194e-02,2.761004351673228274e-02,4.803965542866521802e-05,2.052948004033472527e-03,1.272141777073597163e-03,1.325661021791863306e-02,5.791191342557062277e-02,3.004293630538181024e-03,4.512851916401093566e-02
4.707358379247345362e-03,1.451169853891763270e-02,2.309602616246457171e-02,8.704322997500092956e-05,1.750385279601129711e-03,1.631581430629880283e-03,8.567521684272621021e-03,1.002371620011666825e-01,2.601112829027378906e-03,4.404563270095950001e-02
1.222527456448584994e-02,1.176486555819276913e-02,2.005545633717271611e-02,2.342058535436057469e-04,8.666875307554077141e-04,2.128648618944652387e-03,5.943975885873930415e-03,1.167916984856703644e-01,2.198868555145343413e-03,4.165379964546873232e-02
1.292083770163826757e-02,8.924709516732971804e-03,1.798526547416745905e-02,2.398657506034546300e-05,2.458096694161570456e-04,2.716761749194990597e-03,6.648692557385438469e-03,9.309407792861980335e-02,1.538363336213852389e-03,3.321941336894679297e-02
2.663321866854139429e-03,5.639002096921244198e-03,1.563193511696818819e-02,9.290319276230701298e-05,6.747444331247399747e-04,3.097266810505046753e-03,8.914346439793705001e-03,4.533656578258184189e-02,1.218873477107632573e-03,1.747343839700509979e-02
1.151395416394939905e-02,2.543348698265729922e-03,1.353580221668684511e-02,5.604153260388315466e-04,1.502675411222969279e-03,2.722507707070563436e-03,1.001093795452422108e-02,7.086098904361969085e-04,1.667521461955031670e-03,1.084402448114918805e-03
2.376181645962135297e-02,1.001698403689430493e-04,1.241614558366084357e-02,1.137536005586617729e-03,1.488733148835122292e-03,1.754320985264082311e-03,8.739448268999239905e-03,2.859671387150632127e-02,2.212009614735747573e-03,8.698551893565940538e-03
3.491732237407867145e-02,1.674470496501699948e-03,1.145610029679873000e-02,4.043422465583220706e-04,5.727634626908770449e-04,1.331091221977756664e-03,6.107081363911057853e-03,4.766423188063351191e-02,1.792017345255241196e-03,1.215400942003755889e-02
4.568926818522763000e-02,2.249851160502545043e-03,9.710452833269768783e-03,8.119221977086520450e-04,2.511527539126970658e-04,1.988209961791332237e-03,4.149672277574634367e-03,6.369447307288063354e-02,4.287646921288905399e-04,1.432890721290818771e-02
5.275888177627778564e-02,2.159124499314849996e-03,7.694284102668390302e-03,9.076819514694150007e-04,4.192347058279748346e-04,2.580413539265261937e-03,3.694649978031996039e-03,7.587845858569065849e-02,6.122503264073340511e-04,1.598610252814158805e-02
5.374865222497871714e-02,5.210718683964546925e-03,6.431232821274312714e-03,3.654009952465161592e-04,2.499517784397608860e-04,2.007970884190524163e-03,2.976964014798263222e-03,7.777902922551466203e-02,4.432626702901365317e-04,1.237748103202318192e-02
5.013901536822722854e-02,1.472853186930916936e-02,6.041826543972165196e-03,6.943185193704994908e-04,2.134519449000009893e-04,1.028780044485157284e-03,6.701462011001087238e-04,6.458869173736184188e-02,1.975333689874944295e-04,2.228200185124470066e-03
4.329054445168140086e-02,2.726256095763221129e-02,6.041567151356040839e-03,1.605113116720908572e-03,4.302827954144555311e-04,9.462072534255768722e-04,7.312753254082273412e-03,3.660787651586407815e-02,1.124071419831617420e-04,7.930500821044701026e-03
3.238740242909073086e-02,3.460519881400058589e-02,6.163425362983507988e-03,1.738247660339688801e-03,6.576080746079479220e-04,1.596430278354660313e-03,1.370147749301679069e-02,9.369745111745091115e-04,1.620273024943664738e-03,1.160669422200214657e-02
1.822508162244502322e-02,3.301841332958491138e-02,6.209214660669603453e-03,1.099283666319152142e-03,4.733541873633274845e-04,2.090409947731550026e-03,1.695180510359643733e-02,3.792819958725276303e-02,3.157824717213887286e-03,9.454065948407489040e-03
4.903026034663284828e-03,2.668309116799497463e-02,5.674910214713150929e-03,5.590255726614638170e-04,1.739740724382439594e-04,2.411059667116513192e-03,1.764982163841967433e-02,6.272560192722213823e-02,3.713136854735706385e-03,6.015396937817618812e-03
4.125950602867374702e-03,2.109589934353156560e-02,4.470161147770894752e-03,1.043144724714811463e-04,7.116835726480555575e-04,2.769810530974478949e-03,1.790407534427363584e-02,7.012478969791907657e-02,3.463164993047642727e-03,3.930960003334430658e-03
