8.364918751767785876e-03,1.636008463643161834e-03,5.478574404825284350e-03,2.140371429008162995e-05,1.222482779151384032e-03,9.279091622429392261e-04,3.592057698506959107e-02,2.185746322372347089e-02,3.933281878116064167e-02,2.266964976415031599e-02
6.341861602652888383e-03,1.843076067058815664e-03,5.701660771556255405e-03,2.241331754351739736e-05,7.347889946011248747e-04,1.116744184339418973e-03,2.066369894271877922e-02,9.271526164943168918e-03,3.227030185566299308e-02,2.161306088248361040e-02
4.162718961795986751e-03,1.998389663810099057e-03,6.087026908766292842e-03,2.339856915572165928e-05,5.665140017048610015e-05,1.306189885327878634e-03,1.229968717283295813e-02,3.842576943514844270e-03,3.709967839397978334e-02,1.715797596581203691e-02
1.997095181527375543e-03,2.087630228197292267e-03,7.458393834053872636e-03,2.437162155571950885e-05,3.288062668142388979e-04,1.473194071283347216e-03,1.441122997586284996e-02,7.808089173305625755e-03,5.172239819843729713e-02,1.202448171135392201e-02
1.078132710159165506e-03,2.204271100567323401e-03,8.507177403561222082e-03,2.534378761183413134e-05,1.593151043633939188e-04,1.612844902600484801e-03,2.185882806450873891e-02,5.159952322687285514e-04,6.284830622527756705e-02,8.391476131843451230e-03
4.499728757496696159e-03,2.379003870758581753e-03,6.717231100765793002e-03,2.632501944765786283e-05,7.594867439898335252e-06,1.737382448698066104e-03,2.838365892495246096e-02,1.066538626288208655e-02,5.621861785541312773e-02,6.787361035506716926e-03
6.617600748829702631e-03,2.410263142370627169e-03,3.546450328260248013e-03,2.732341152507236645e-05,3.239907730171113338e-05,1.852517208750433962e-03,3.116338984445634133e-02,2.139481643168041416e-02,3.041609797395664755e-02,6.411276312385262230e-03
7.566954081665269900e-03,2.217413882071975033e-03,3.950060132556261136e-03,2.834474308968527569e-05,2.128465481322292093e-04,1.955514974071669888e-03,3.018436722451060122e-02,3.333080178419476486e-02,7.778389722192975697e-04,6.763192311795861167e-03
9.052374272425892793e-03,2.263749938523116224e-03,7.803237306052417110e-03,2.939207438060598601e-05,3.277826626782355686e-04,2.044277729391814034e-03,2.699263838467855919e-02,4.234846123295523540e-02,1.290514329921281164e-02,8.648392948217358336e-03
1.126571715668795402e-02,3.024217808456976329e-03,7.906945776173610052e-03,3.046540961075748004e-05,3.458036765202787173e-05,2.122471508921069255e-03,2.398005558783050661e-02,3.565501548218513728e-02,4.806228685121797899e-03,1.252335355337094377e-02
1.280845152383587940e-02,4.143577315447546407e-03,5.066685842884153341e-04,3.156143801522885586e-05,7.324973687625329103e-04,2.199356834461400987e-03,2.224332818517782417e-02,7.910113030095219586e-03,9.215288462828818972e-03,1.658737390469909243e-02
1.348713113335410149e-02,4.871254427229161112e-03,9.274489186511631136e-03,3.267336234533401866e-05,1.017875128125758383e-03,2.278337578730806404e-03,2.030535802611280541e-02,2.854250339685114948e-02,6.007691238008611850e-03,1.820461751035385226e-02
1.414598227801093684e-02,5.027063744318210382e-03,1.674431475576531811e-02,3.379082194131822347e-05,8.302824327670653513e-04,2.347707538965702022e-03,1.718376253698418801e-02,5.636561928466363169e-02,1.872972651746251938e-02,1.675768603393486614e-02
1.415870587323779864e-02,4.738118143623151930e-03,2.442838526726870754e-02,3.489991498069950937e-05,9.031651068360617429e-04,2.404603255385955388e-03,1.613649277819678360e-02,6.868404384550047537e-02,4.654304462340237702e-02,1.377647834208815814e-02
1.232178968037037775e-02,3.885362230370150317e-03,3.483831971846013814e-02,3.598332180885132676e-05,1.219678731442644382e-03,2.479374571218721530e-03,2.235323102597068512e-02,6.807694711375912588e-02,6.288949185689605981e-02,1.085418947976185024e-02
9.474101693427340251e-03,2.655142326512211458e-03,4.392399028283214268e-02,3.702052848833360888e-05,1.034757444059265568e-03,2.584875042468375538e-03,3.571926183592700338e-02,5.908456070382141212e-02,7.227977215921882470e-02,8.578651868750591936e-03
7.153833157648078686e-03,1.803787547314250833e-03,4.667752025164634971e-02,3.798814691024432819e-05,4.482519586280493793e-04,2.660881376320627361e-03,4.863317302077872079e-02,4.742050503947798507e-02,8.062609478410595609e-02,6.987127320831589689e-03
5.114855017969915235e-03,1.694324722245145942e-03,4.374678879256577863e-02,3.886032509252529128e-05,2.424272829600072877e-04,2.680701426504943953e-03,5.415364924315781842e-02,4.217433595570375948e-02,8.274333754584932421e-02,5.854794881202825957e-03
2.944779641238538196e-03,1.858690335841943746e-03,3.847559592090193936e-02,3.960923870335618716e-05,4.831964085226261277e-04,2.773566767717366988e-03,5.386367648918366502e-02,5.138541983828515125e-02,7.556548400645905772e-02,4.689932692078637409e-03
1.902949042524358083e-03,1.834142421876745321e-03,3.177894556158687017e-02,4.020565240733412838e-05,6.724857719295746330e-04,3.000209157564620848e-03,5.309163986091208765e-02,7.104869597531804359e-02,6.644310627455464469e-02,3.914738576090172166e-03
2.624187672197293101e-03,1.700726632763649481e-03,2.365118201978152687e-02,4.061953747580518035e-05,7.381386126454177405e-04,3.082209459570650449e-03,5.131746777621915001e-02,8.323503607732607446e-02,6.197311185688057777e-02,6.086691549499466738e-03
3.530485334827126401e-03,1.669305578016528138e-03,1.594816757067814977e-02,4.082073042651994648e-05,8.489685697445953274e-04,2.867362346993973955e-03,4.433035706400487164e-02,7.456907259645251251e-02,5.874563362059010557e-02,1.363490264205174940e-02
3.435662170426241613e-03,1.717363428985026284e-03,9.986776008992569870e-03,4.077961615833808004e-05,8.564034784387860319e-04,2.974730336378314174e-03,3.379948508516421313e-02,5.406794934093776123e-02,4.926513718355331195e-02,2.480331331159876460e-02
2.879825153971353816e-03,1.734453361398993580e-03,4.718783570956091265e-03,4.046781787396686589e-05,7.504846848251612527e-04,4.035580785660420819e-03,2.641554925040769455e-02,4.183909493859884476e-02,3.570172442609446939e-02,3.427222088424712598e-02
1.644443056040956370e-03,1.715379160785027168e-03,2.267418674508584614e-04,3.985887540335210599e-05,1.037964447269501761e-03,5.319818464254532850e-03,2.433249282353319026e-02,4.305270909062422491e-02,3.289649311441411594e-02,3.822502372054908948e-02
1.524664149747818540e-03,1.735970174887729173e-03,3.642933327316244963e-03,3.892889400911353530e-05,1.832514800236609330e-03,5.427805437999799580e-03,2.311852920207346437e-02,4.497940320424589217e-02,4.950872222710606119e-02,3.675631578924032361e-02
5.575616874934764648e-03,1.825306645964806665e-03,6.137067998210819081e-03,3.765714668127319531e-05,2.304987078823928382e-03,4.316468458944941466e-03,1.768555469272518887e-02,3.662906875195670597e-02,7.105506458967839056e-02,3.182551827235357428e-02
7.333765427703163586e-03,1.888557166475592118e-03,1.004924121071318344e-02,3.602661292508524892e-05,1.911311188323403703e-03,3.247093406909905451e-03,6.888968213852313983e-03,2.022388369627573651e-02,7.355494343579417615e-02,2.515292530621638517e-02
6.127678634210945163e-03,1.842595606800174601e-03,1.545344901533423493e-02,3.402443755034006756e-05,1.236808837869348820e-03,3.030532604665350620e-03,4.278959483118893563e-03,6.210210336907467064e-03,4.955094987141692164e-02,1.785382606825873172e-02
4.700703749396065688e-03,1.841647570754047399e-03,1.951936617136025565e-02,3.164229693470005362e-05,9.062746662972363419e-04,3.539377223246140992e-03,7.513017671228091644e-03,4.271209780818911901e-03,1.296465265377212683e-02,1.059301001875075608e-02
4.850739641227721707e-03,2.058088932061343922e-03,1.964672905262446548e-02,2.887666457681882786e-05,8.740433010235534352e-04,4.261120099806232908e-03,1.162094467924757769e-03,1.584110418892131431e-02,1.403074290312966016e-02,4.246697802069617118e-03
5.515203446265928497e-03,2.166275952927911985e-03,1.600056571334980068e-02,2.572896596709162224e-05,1.159464409246516474e-03,4.497225639203262897e-03,6.675983108892807015e-03,3.230869644813109953e-02,1.432371955703619880e-02,7.801926763872308115e-04
5.538048724395698216e-03,1.757586814550974848e-03,1.139620757085217304e-02,2.220561113281132351e-05,1.805153903195285368e-03,3.888337508927491686e-03,1.012284452685468378e-02,4.282741853255927350e-02,1.479816802097133621e-02,2.119216584795275294e-03
5.189523644466305548e-03,1.516629265390165380e-03,7.511440717857903633e-03,1.831790553345387249e-05,2.134433594099826442e-03,2.995800178412139515e-03,1.274780793849354145e-02,4.249802127547387676e-02,6.059740207519059840e-02,6.864476746081361186e-03
4.668108549493279677e-03,2.654370801885643470e-03,1.722608236725447226e-03,1.408185308961693750e-05,1.569747446905826824e-03,2.553817843522356891e-03,1.669373553514483938e-02,3.194193383193373592e-02,1.044836167853379211e-01,9.432159943133058486e-03
3.786227935204277383e-03,4.553191768482955926e-03,8.183322313625196812e-03,9.517848812445412477e-06,7.492505937629829246e-04,2.471334401590659108e-03,1.421058111932060192e-02,1.380546182052026609e-02,1.305211308579015683e-01,5.170016011204732823e-03
3.228526905066743564e-03,4.885905610907837621e-03,1.740136917466940034e-02,4.650239907979830762e-06,4.842928318721546476e-04,2.247802065364379841e-03,1.438179177996029741e-03,7.740334834127188951e-03,1.280481868940905044e-01,3.662605252300594246e-03
4.017878582934216423e-03,2.997459957675963765e-03,1.826767971031068374e-02,4.932216681274183533e-07,4.629180183029363575e-04,1.795726775097109635e-03,2.305643153541349355e-02,2.728305891578793746e-02,9.796351958434494633e-02,1.025177091035648150e-02
5.908857904629995911e-03,9.569307498146919317e-04,1.022411710531959811e-02,5.881961984862383646e-06,2.018504103785409370e-04,1.323705813732241419e-03,3.543751088699238078e-02,4.072677494045892632e-02,5.707162455576502563e-02,1.236579163274709875e-02
7.507233007057362816e-03,4.202291755119031249e-04,2.669005378396283393e-04,1.148321411301710950e-05,1.732541069804635690e-04,8.859210492488426517e-04,3.224836145328375397e-02,4.729224206143439052e-02,2.436509169187106583e-02,1.489947812483745707e-02
7.386335946252541550e-03,6.815061544136553819e-04,5.973340752412589424e-03,1.726280575699311166e-05,7.397797378912031969e-04,3.951917655741873014e-04,2.220091331226805784e-02,4.843272601934407728e-02,2.271415059169418216e-03,2.130990656179835088e-02
4.947474498059316328e-03,4.006382838229448915e-04,9.196868854495162532e-03,2.318603420881235882e-05,1.084089947717486188e-03,1.870692134092043375e-04,1.862904669975457006e-02,4.621222447839887920e-02,1.803852068975533851e-02,2.779293625300626250e-02
1.086373247145337685e-03,5.405228403099708980e-04,1.239230016414234747e-02,2.921833000518574898e-05,4.602252491514126419e-04,8.351612367538638641e-04,2.671797812937527078e-02,4.367634880069337644e-02,3.635097682316315582e-02,2.970175944436976787e-02
2.591025847661145107e-03,1.290078407037651689e-03,1.632975286806051529e-02,3.532579312170795581e-05,5.168362940454374228e-04,1.498418189564374673e-03,4.188708937460110249e-02,4.403595320870923313e-02,4.468249239690122443e-02,2.860658850963014935e-02
5.514573819412423375e-03,1.350781724900943642e-03,2.105372157345039574e-02,4.147617838634575502e-05,9.245950215440879721e-04,2.146691525565710794e-03,5.610117865750698790e-02,4.720649520384698900e-02,4.708407539184898682e-02,2.884294559527050827e-02
7.697870535609004951e-03,1.420886418697434256e-03,2.735224718458524953e-02,4.764010201542674368e-05,8.720648736131485961e-04,2.859309174673396823e-03,6.286745177035621412e-02,4.950919300887039048e-02,5.815204160872144284e-02,3.185145835565974387e-02
8.318821698682862115e-03,2.324462059706927132e-03,3.332969738598193926e-02,5.379116848980393042e-05,9.446144684586731989e-04,3.727673054573426431e-03,6.066145931041598549e-02,4.860138316066180825e-02,7.837160978400094236e-02,3.695363479072025226e-02
6.989684494777586438e-03,3.257068167202340631e-03,3.406930809885893446e-02,5.990541027605042761e-05,1.215224212368725245e-03,4.582379600956244976e-03,5.528908930220556572e-02,4.623202576714911805e-02,8.842481345600240739e-02,4.319825342478036262e-02
5.094444783310557966e-03,3.114898262514632053e-03,2.843972676130764043e-02,6.596277217872173752e-05,1.428954955306377264e-03,5.194313627698256101e-03,5.483837721342659649e-02,4.462453818505531661e-02,7.351399467545600974e-02,4.969717252260900942e-02
3.760888439237457161e-03,3.263195247340697387e-03,2.151315193858202579e-02,7.194982274272801622e-05,1.542802336977346219e-03,5.905871151201756881e-03,6.000719545157108537e-02,4.297995372657757718e-02,4.101781391100442486e-02,5.763862434267013474e-02
2.363101494537538788e-03,5.613402325447327916e-03,1.766837090731499665e-02,7.785779394594252885e-05,1.673398799285953599e-03,7.234537707660465035e-03,6.435403526594873913e-02,3.982558432200739018e-02,1.020681216727859289e-02,6.804969475211089525e-02
3.761887059549276100e-04,8.336878814980460545e-03,1.680166005444561420e-02,8.367750649892646451e-05,1.841811622509612707e-03,8.402220855642529226e-03,6.481231142000136447e-02,3.647332251976078549e-02,6.787169738509360450e-03,7.396346886183702285e-02
1.548709736179613040e-03,7.449143516259120607e-03,1.779543991758782140e-02,8.940379372787751603e-05,1.993526705329936189e-03,7.674759686031118813e-03,6.566088977098717694e-02,3.518632340309631873e-02,1.091922715389332180e-02,6.412511606587568969e-02
2.842259081348784671e-03,2.254259626189487192e-03,1.898522072292783622e-02,9.504641252342482772e-05,2.118149198000207969e-03,5.153929052138354200e-03,7.096648799266047636e-02,3.501474207964583307e-02,8.154009893258309591e-03,4.039605563839820945e-02
3.392621490820137749e-03,4.069607083246811613e-03,1.649160609579138070e-02,1.006204223486721578e-04,2.241644144993728497e-03,3.439588439939218235e-03,7.919628207911583173e-02,3.241658024089452000e-02,7.581857988580558566e-04,2.004314544271098078e-02
3.260953935086522565e-03,8.300616900223600769e-03,8.882110868509039345e-03,1.061217661803317403e-04,2.370282533615503378e-03,4.237053679988111998e-03,8.793872279160996897e-02,2.634482131211700676e-02,1.918777191066362714e-02,1.431498367065410851e-02
3.212496708668943421e-03,9.269432815152656505e-03,5.120458277322900795e-04,1.115459241427009800e-04,2.493387803701342144e-03,6.418567779066314954e-03,9.847582645432952086e-02,1.995425864529475762e-02,4.274656745990282336e-02,1.689146295559067548e-02
4.086737599591648909e-03,7.741171839932992765e-03,5.068735270253375662e-03,1.169389339888508974e-04,2.609346829552450404e-03,8.520998391163926017e-03,1.106112029288967014e-01,1.564456637511196790e-02,5.663701709949421625e-02,1.821119512596430096e-02
5.324496049045628412e-03,5.477688140125626035e-03,9.198181338149535868e-03,1.223569484955348320e-04,2.724950674238648708e-03,1.038269286920774463e-02,1.175776224536562303e-01,1.139942086028693409e-02,5.190913049735794427e-02,1.734282040585754386e-02
5.787386416870144573e-03,2.609511818384125346e-03,1.102677374574712738e-02,1.277540113909808475e-04,2.843652352722342985e-03,1.139522070933455568e-02,1.134395848680544855e-01,5.124828225998202466e-03,3.860076278191273275e-02,1.528982376772248207e-02
5.672020250278926763e-03,3.426464452642756335e-03,5.447637825175715917e-03,1.330630771756429072e-04,2.964921053648761785e-03,1.041941187024090706e-02,1.029592058566015378e-01,2.237256215373521068e-04,3.530351020425393643e-02,9.499968665899645448e-03
6.123894014118710927e-03,1.284844928507367610e-02,5.470939977081564279e-03,1.384352217806680612e-04,3.088576204064797607e-03,8.270575737378741896e-03,9.762389312364669336e-02,5.934805094085990329e-06,4.811084868345953669e-02,5.931331149624584180e-04
7.255644611681842659e-03,1.878252917203700884e-02,9.063138795566779218e-03,1.440702033827422285e-04,3.216644004257776697e-03,7.299591980391619689e-03,1.036562079581665324e-01,5.406049663309039216e-03,6.390771846019448199e-02,1.060783849836493750e-02
7.607136364687201897e-03,1.339522267973675823e-02,1.281375833212721870e-03,1.496985152781659767e-04,3.353647087937192215e-03,8.284150673719179944e-03,1.178810996247748460e-01,1.127468873834408698e-02,6.519357294953781468e-02,1.569021957896443373e-02
5.973598184563528625e-03,9.451790410197836913e-04,1.471347592895707983e-02,1.549271343611853882e-04,3.502374128311749619e-03,1.018016094591091616e-02,1.331672752784354430e-01,1.486256955734338234e-02,5.121945759615714050e-02,1.437991590152572913e-02
3.184300945106647174e-03,1.232702058918272274e-02,1.621295067065066722e-02,1.603522290760556223e-04,3.658481124543640477e-03,1.234189941481910781e-02,1.452023474583128693e-01,1.719917632967574161e-02,3.961442550767992066e-02,8.334752952144244484e-03
9.874726099648560573e-04,1.195284256744602244e-02,3.580476952569323738e-03,1.668475596572726433e-04,3.819241248251104264e-03,1.471829485939892337e-02,1.543613041395421881e-01,1.856641135470470799e-02,4.383779514591865101e-02,7.224510217135804088e-05
4.080307387301721758e-04,1.706096066099170886e-03,1.418001892346795051e-02,1.731676141798473923e-04,3.997283204222196358e-03,1.667142111862376583e-02,1.616863029240751815e-01,1.706975790425079020e-02,5.751693086399246868e-02,9.202659540868653870e-03
2.198925653650477940e-03,1.036239277555624227e-02,2.680995415958283001e-02,1.774031486917294973e-04,4.202165836814847344e-03,1.763103116868970643e-02,1.650833893235864325e-01,1.351877192269392534e-02,6.794434140311203518e-02,1.731962604877851017e-02
4.871706387844843000e-03,1.732359769920799319e-02,2.705208468986121384e-02,1.821367372368493467e-04,4.409459745517224465e-03,1.822021991617819164e-02,1.613793822214411033e-01,1.254675545280236303e-02,7.554861232488034595e-02,2.267954858510297378e-02
7.781850574108377903e-03,1.690379177513919376e-02,1.387813784806032208e-02,1.914680062035150547e-04,4.599179290612774411e-03,1.927558734189500564e-02,1.504995526529949723e-01,1.570662408784512937e-02,8.899984611926400890e-02,2.616920855322405273e-02
1.020981106393792012e-02,1.273851396376459930e-02,3.715893547877926247e-03,1.999253458485627545e-04,4.823224984239701113e-03,2.056139875360101649e-02,1.379472878224174137e-01,1.836276726353426592e-02,1.075681229290753049e-01,3.107229170504313340e-02
1.128999896671056477e-02,1.238084191324309233e-02,1.193440422762379917e-02,1.985297197364312301e-04,5.125044743452381729e-03,2.117485051808591992e-02,1.359415091662362907e-01,1.677246752959640763e-02,1.231280144112880670e-01,3.747693983183827265e-02
9.835940401197564367e-03,1.984849352890553573e-02,5.520978997955314910e-03,1.986339976186224029e-04,5.393011196941380377e-03,2.038926916297612718e-02,1.543673720394191373e-01,1.351510366360567268e-02,1.363446422714655326e-01,4.072822775119760985e-02
6.191796019688417842e-03,2.921163654210078703e-02,5.721508197513065080e-03,2.195960915065200427e-04,5.527751863457451391e-03,1.842912857644181390e-02,1.773411457048920670e-01,1.236574257052058812e-02,1.491784763873845177e-01,3.972918180922761083e-02
3.372346390375919115e-03,2.961419576752188573e-02,6.149768936261813639e-03,2.375466996139442703e-04,5.764921260246944762e-03,1.690607262366903771e-02,1.594249904586868272e-01,1.203900451296020108e-02,1.410709312477454180e-01,4.109995396797509748e-02
3.897750428734474311e-03,1.823267410562811816e-02,9.271091168330275467e-03,2.103802891525167649e-04,6.341881147883001585e-03,1.677173018276475330e-02,7.369079438580060371e-02,9.389226501278763806e-03,8.505578056419589583e-02,4.880453700978910209e-02
5.935570541842509484e-03,3.835090073348623816e-03,2.933722095353926904e-02,1.878294106009516294e-04,6.707138021809761971e-03,1.571907645128901854e-02,4.373133902513804544e-02,5.946666674544299515e-03,3.053845624243828414e-03,5.691435843836283731e-02
5.290745665769402625e-03,3.963744756545999406e-03,3.868261391045994119e-02,2.609728514063502556e-04,5.754799611012434771e-03,1.030879088882068889e-02,1.356508544773464831e-01,5.982067896746363564e-03,6.719084674680676772e-02,5.849429947150454334e-02
1.139161428333732061e-03,3.161802760758361704e-03,3.314640162450477323e-02,3.257011843000931083e-04,3.115801737328224158e-03,5.037295765195028878e-04,2.015227050498591410e-01,8.653526398819305632e-03,7.748810854595193642e-02,5.129448126832822363e-02
3.181449058143940439e-03,3.796555716158988951e-03,2.167102816726236905e-02,1.841005699675740356e-04,3.002351325255299798e-04,1.029733234306355258e-02,2.863382154372886013e-01,7.633587829096506565e-03,6.106055276379530883e-02,3.203900234402846242e-02
5.293411675419414444e-03,1.355979047719770361e-02,1.588605633104196724e-02,5.500646109789706202e-05,2.970424795151314738e-03,1.859419321410090212e-02,4.020217920275571677e-01,4.182833694194157729e-04,5.481880019593454723e-02,1.519442986025708753e-03
6.362221262856022908e-03,2.029109381504688378e-02,1.974093369694320324e-02,3.803983947542622095e-04,3.839712038364930489e-03,2.290027096286861852e-02,5.079647804567867242e-01,7.612557483042473039e-03,6.303851019356294938e-02,2.512467532091017600e-02
7.815452699629852826e-03,1.868581452637809934e-02,2.726222346805361879e-02,6.819637470808686880e-04,3.623586890509309343e-03,2.515605888333027201e-02,5.636522525929638094e-01,1.245778689489177547e-02,7.266458115510451843e-02,3.498088863680146043e-02
8.779325764771892665e-03,1.131536789823055569e-02,2.848744853062996213e-02,3.254902674229999252e-04,4.782460703425136378e-03,2.986426854441713921e-02,5.637134941935481036e-01,1.846597125109409113e-02,7.600496082120201946e-02,4.022144920330296414e-02
8.107710494539068294e-03,7.090541052390047713e-03,1.850060312878069879e-02,2.524441277446498599e-03,8.544175413152390111e-03,3.818863664658891932e-02,5.235211889462166868e-01,2.960653969554401937e-02,6.772967216043605798e-02,6.007398549772225566e-02
6.384123596604215911e-03,1.119550990591956958e-02,2.191673505308493718e-03,3.714749774524148205e-03,1.255904747328819016e-02,4.488183747939467755e-02,4.558127689125040516e-01,4.031438723696824378e-02,4.643303156244110719e-02,8.844180019809597115e-02
4.803315697539526849e-03,2.006412339840216164e-02,1.008660040423501117e-02,2.525942660784718380e-03,1.367782290898690578e-02,4.506910774675382952e-02,3.672557075962482598e-01,4.291981452468125041e-02,2.470835628010721596e-02,1.049558012110774763e-01
4.012265113628895458e-03,2.428121323810156565e-02,1.206084496653944682e-02,4.013867689777985337e-04,1.226004579041513678e-02,4.057838785037442414e-02,2.670496639954491047e-01,3.880988406829283255e-02,1.864675426937360825e-02,1.076200317130623502e-01
4.225296626172310097e-03,1.463526229185183741e-02,5.729894858829050544e-03,6.817781195113671285e-04,1.132561992495087488e-02,3.598446962095563917e-02,1.717810824742070641e-01,3.561215786397105287e-02,2.754406271924497718e-02,1.109553927511315874e-01
4.454375769358410314e-03,8.750254011955218778e-03,3.861685889580573385e-03,5.900178476901456973e-04,1.228007885109004202e-02,3.301045571889183600e-02,1.015778567059753279e-01,3.776567950765558068e-02,3.899325764212506484e-02,1.219065229514599141e-01
2.261002562736722041e-03,3.178499052245836731e-02,1.424419759217685454e-02,5.527712129615297825e-05,1.411852094506980439e-02,3.188723786372900382e-02,6.861912372020806394e-02,4.412551018240271072e-02,5.098163622764843167e-02,1.353513262901872016e-01
3.199002087266052292e-03,3.860123507373607044e-02,2.330909849690263047e-02,5.915179865700930439e-04,1.599406696305293030e-02,3.308769945215703223e-02,6.442736691745032385e-02,5.099642096199850927e-02,7.219213653041049727e-02,1.436457207166866035e-01
8.796142706938282069e-03,2.934735307992443476e-02,2.627687317919552915e-02,9.275000397280973785e-04,1.742074864350780933e-02,3.455617688049940350e-02,6.074221836328064228e-02,5.440374513231736181e-02,9.937083330494747568e-02,1.387328407683825204e-01
1.092741302338763598e-02,1.853287128193962380e-02,2.077025406806071867e-02,5.218957959783204498e-04,1.660876506208145212e-02,3.168959602335266745e-02,3.219710908207383537e-02,5.134856697279525928e-02,1.116287721957432560e-01,1.148666480312333649e-01
1.015509964872890469e-02,1.678284394089641501e-02,1.135974284137778942e-02,1.873822252330253890e-04,1.212064369963311225e-02,2.313739082965878338e-02,1.576800444163653503e-02,4.128570895649399247e-02,9.584475904716553696e-02,7.903418982983319296e-02
9.135899872458814672e-03,2.229634546629805439e-02,3.389996765452675791e-03,4.293863262887747246e-04,5.942138300975922591e-03,1.353644670667941870e-02,4.780107476527968580e-02,2.739225665805371246e-02,6.486682014956518527e-02,5.087032893171496845e-02
7.697163242145465059e-03,2.874445526808099352e-02,3.472955913304460063e-03,2.349129680963478136e-04,1.808549244548245376e-03,8.164045747465882574e-03,3.841731675662250767e-02,1.572012647645429362e-02,3.758021470121575974e-02,4.317222976037144583e-02
4.036271944673043913e-03,3.265888282855772262e-02,1.076728993175766688e-02,1.198692675463505260e-04,5.958712692323475581e-04,6.957627149491967498e-03,4.847172585710022436e-03,1.076330703088414220e-02,1.383156859298040331e-02,4.706327322752103248e-02
7.233913753953753615e-04,3.265088851925537078e-02,1.568665361545532044e-02,1.951504036662208110e-04,1.520879609110189091e-04,5.876283087153268483e-03,1.521717394019814901e-02,1.144040235914864541e-02,9.419651103479297419e-03,4.424694302186178707e-02
3.475634518669844068e-03,2.839530588785184675e-02,1.484672571591694190e-02,2.406501895234104693e-04,2.194587671553093096e-03,2.952268814080544375e-03,9.428940406064772323e-03,1.329715379848810108e-02,1.039307971842357535e-02,2.992694276104733431e-02
3.716640723920474135e-03,2.179885542224026251e-02,9.955287521847690224e-03,1.975510577627427426e-04,4.341465279535161592e-03,1.222432777106567323e-04,7.096285994732226196e-03,1.331923105529091503e-02,3.595673112059288856e-02,1.426964943270319849e-02
3.487831464107334425e-03,1.500815373891016893e-02,6.291268135734051636e-03,1.671095012451059435e-04,4.824194731267297115e-03,1.289894123160027078e-03,2.490085005714269203e-02,1.007136218453610205e-02,1.129903327969615651e-01,3.989919694629197669e-03
3.394253922920295163e-03,7.020234644658712025e-03,7.045950868401123189e-03,1.783022519732671768e-04,3.992030026676552171e-03,3.289729421391947729e-03,4.800637715150279927e-02,3.172412662363476021e-03,1.687239922342262388e-01,4.677016325979223635e-03
2.050974159038281789e-03,4.242993320133513907e-03,1.102550324661362088e-02,1.841932526710415906e-04,3.038208934233214802e-03,7.183381746333350124e-03,7.324320961668107088e-02,2.797398775623675948e-03,1.679518853745779472e-01,1.275765139575871752e-02
6.927208113516783016e-04,1.635111815921743567e-02,1.533889198053987706e-02,1.706917680047783130e-04,1.480611215548766719e-03,1.015215686447651193e-02,8.684060326711731670e-02,5.400517091283191587e-04,1.218312942018970335e-01,1.275482310609064168e-02
3.017846955272868864e-03,2.131718993901769721e-02,1.765661282548930053e-02,1.596444035596087903e-04,1.500985628557687489e-03,9.334964968985039191e-03,8.324727556912621396e-02,1.424510529418061139e-02,7.025534991935983298e-02,3.775872818766494270e-03
3.882717732485202206e-03,1.115154616057393785e-02,1.506235471311979240e-02,1.579505468412971967e-04,4.063947982274832699e-03,6.998559144427696915e-03,7.194781962096873096e-02,2.796899506887048220e-02,4.547571477312154636e-02,7.960008518049215692e-04
4.021021533661279720e-03,1.394186155902984135e-02,5.110997791737056060e-03,1.554899863231559633e-04,3.162875137712462415e-03,7.913980850834804667e-03,6.516354050051922919e-02,3.248623145100994897e-02,4.823040192910013624e-02,9.033293600150951036e-03
3.959829452410394517e-03,4.195101637931782784e-02,9.389633825771091791e-03,1.489234872096156120e-04,1.326221102555739332e-03,1.318616322221199608e-02,6.868708244970667121e-02,2.946709875612636004e-02,5.323411020042796704e-02,2.700795012012734142e-02
3.192998373974335717e-03,5.727003928260718940e-02,2.052553432475591119e-02,1.429546090566135338e-04,6.546747894452923516e-03,1.988382703658124126e-02,8.379406108977598133e-02,2.431744336668571760e-02,3.706661871652194851e-02,4.411269738134183938e-02
1.572964455192635801e-03,5.423540128297880264e-02,2.162516267619489507e-02,1.392022557060029482e-04,9.818787322296957179e-03,2.484026671630795713e-02,1.084781132472984605e-01,1.810570279526184032e-02,2.515361482706449277e-03,5.868652121765137453e-02
7.914152112946959438e-05,3.898260142445618415e-02,1.113316141749837521e-02,1.354744980750065156e-04,9.867772039740473414e-03,2.593210600134621818e-02,1.331548488127128615e-01,1.153188312542031274e-02,5.122748040004684866e-02,6.471564400743529122e-02
9.165615144390672816e-04,1.996096751311581680e-02,6.913414002821948942e-03,1.309689714711422968e-04,7.003476854519263307e-03,2.239796129610690731e-02,1.417824271784568768e-01,7.797285767509523104e-03,9.194166439101816857e-02,5.166272330108709343e-02
7.222279325179872898e-04,2.870020161628068604e-03,2.329540119702887269e-02,1.266780789498600729e-04,3.935725825704149312e-03,1.687517426704185017e-02,1.251240720699129672e-01,6.335618637420457021e-03,1.181450552432601608e-01,2.659785064619640468e-02
3.658363540104098252e-04,8.773183319940321134e-03,2.944968361573236867e-02,1.229648273813782643e-04,3.632172214836962808e-03,1.397418475040358363e-02,9.262519660942071520e-02,1.640144772808050256e-03,1.406569735228508367e-01,1.339457353993806984e-02
2.137835709432084948e-03,1.509072759059903665e-02,2.500617675494415035e-02,1.193440757161300629e-04,4.926172159734598308e-03,1.437368847379532841e-02,6.649841208277704196e-02,7.497122052614622022e-03,1.661910553286287950e-01,1.967463631195644214e-02
3.851595732613669141e-03,1.844224845236590998e-02,1.492831373857417786e-02,1.156065082784856022e-04,3.669433613321054256e-03,1.374001324181323147e-02,6.261936942734225298e-02,1.469808991529179300e-02,1.682273706991856965e-01,2.666300431645418634e-02
3.896142841410369338e-03,1.803962797489105929e-02,2.191797511824643968e-03,1.119377119555186239e-04,6.400690104023420198e-04,9.257644519248821660e-03,7.692654755948881429e-02,1.541164713582363933e-02,1.142041357080859909e-01,1.943243425411782591e-02
1.157685241439948857e-03,1.204477831247324424e-02,1.039021081685870089e-02,1.084159606578208410e-04,3.487912384467917268e-03,3.765686207561762776e-03,8.993955831323670325e-02,1.324952149195340011e-02,2.488442991089522341e-02,7.093352253112220236e-03
3.116419144342622103e-03,3.473027055279803363e-03,1.822413024518752811e-02,1.049491055387329731e-04,2.084821931090505634e-03,1.620620151155380230e-03,8.681874923899553231e-02,1.334867386032300221e-02,4.061459656719169226e-02,5.714923983449367306e-03
6.070341269611135432e-03,3.895022452116825469e-03,2.170682867064565105e-02,1.014648441085695576e-04,6.891798578989349932e-04,2.892720918770268733e-03,7.351889115170753830e-02,1.482959913560655436e-02,6.009309640707476141e-02,1.584359377446281289e-02
6.149135527266721621e-03,1.043191038926875522e-02,2.594332706982472453e-02,9.794797380856693565e-05,1.243620606912868454e-03,4.044318142253518732e-03,6.862913779076031118e-02,1.408006415060582966e-02,5.713280006618794843e-02,2.568683626339259007e-02
4.401817705045869486e-03,1.449625442604184945e-02,2.993508581587625561e-02,9.444964499136737992e-05,5.941441484607594284e-04,3.952289834278522457e-03,7.982997787478281204e-02,1.159264520916950328e-02,4.529299915037494212e-02,3.012275976899291691e-02
2.964096112039902794e-03,1.019509851925561907e-02,2.677859904974278643e-02,9.106412337026556275e-05,1.864337306874019884e-03,6.128555699904151069e-03,9.640675291949453440e-02,1.100357923529588812e-02,2.152229704077517070e-02,3.639837338847882325e-02
2.979940483482738153e-03,3.286054609850973165e-03,1.502719456539029601e-02,8.771740343589650693e-05,4.861750531466755773e-03,1.263514458765299317e-02,1.046190469497472464e-01,1.330928631651029891e-02,4.110896905822154432e-04,4.897783589444745095e-02
3.935343070051161053e-03,2.024031589187539823e-02,1.141555618047077319e-03,8.418452130143751558e-05,6.382611195635203190e-03,1.870317647003409342e-02,1.004968984847473545e-01,1.572237753971808885e-02,1.392855447826793578e-03,5.897127763308269294e-02
4.697195233589101550e-03,3.779872782122176145e-02,2.017077392027719074e-02,8.063166791408487384e-05,4.987519299947412547e-03,1.775922756497797655e-02,8.763757577763245377e-02,1.582111950766915132e-02,9.871280692501627728e-04,5.674635505327245422e-02
5.022451894467929237e-03,5.465275106596405308e-02,3.962331203954806008e-02,7.760739140115979155e-05,2.556462827741631545e-03,1.023765835422246230e-02,7.330488129727583124e-02,1.459777087700725798e-02,9.895279333134195457e-03,4.619771251950246377e-02
5.434154570354919611e-03,6.155575852168109624e-02,4.882357761418514019e-02,7.484219203493408285e-05,1.337077011583605920e-03,3.195887347292638778e-03,6.836609805175629384e-02,1.519736677113950676e-02,1.377167799066083068e-02,3.765445487443983691e-02
5.684856964043976009e-03,4.827245313954942746e-02,3.937248987109993187e-02,7.122782844907004740e-05,2.000175091897639975e-03,2.205629845263809216e-03,8.132217800289065490e-02,1.988140401937599569e-02,1.008631660338399003e-02,3.626032347793066435e-02
4.676325171883970871e-03,2.132659559757553447e-02,2.105107095718216845e-02,6.739839776488051610e-05,4.342418016761486095e-03,6.915922467263285918e-03,1.061903231718291790e-01,2.856833147106121670e-02,3.095831876760797574e-02,4.349748837056748030e-02
2.128215144832088304e-03,6.232272767438078436e-04,1.236830005411731874e-02,6.584351481778399733e-05,7.280243260552898311e-03,1.298110541717801929e-02,1.200552533871775268e-01,3.897735486823242224e-02,5.193024527408189248e-03,5.654600389925565351e-02
8.723979376361624136e-04,4.727635843196308779e-03,1.457997473024299877e-02,6.538764769535882902e-05,8.395241947302614291e-03,1.506549464161265062e-02,1.016018697447006180e-01,4.721667934654565080e-02,4.965915019682013570e-02,6.183938519723090887e-02
2.978668276862627730e-03,4.942920053101270729e-03,1.022465378070606772e-02,6.079996639731518411e-05,6.091212417633821118e-03,9.900314187899193069e-03,5.556445561051819720e-02,4.954130997511489720e-02,7.155189446830717559e-02,4.577677359550125225e-02
3.657725486929616979e-03,1.037007645542540983e-02,8.723827067221979689e-03,5.457563464567142262e-05,2.018381591155102815e-03,2.836557778444545987e-04,1.175674689215727015e-02,4.482739825893492652e-02,4.049876080716369869e-02,1.480476642736420177e-02
3.709095754271874920e-03,1.583648007417372966e-02,2.637085257914037473e-02,5.807432973650626066e-05,6.394285184387071570e-04,8.918976541834645194e-03,5.218631413833049043e-03,3.574892861754146861e-02,2.600828380049657017e-03,9.926778199819862730e-03
4.596974856431028725e-03,1.063277444525061524e-02,2.440855860878362454e-02,6.638440039233615498e-05,4.968656169747309422e-04,1.147979464738066793e-02,1.085108781895410823e-04,2.867574254609051368e-02,4.302960878565490963e-03,1.608318430650459291e-02
6.791553320405038958e-03,4.850073755536988759e-03,6.528541868735047993e-03,5.523176976255084045e-05,1.733550888650527665e-03,8.730101650375219485e-03,1.969747164820250321e-03,2.989486542329923904e-02,4.215372944467667138e-02,6.469110923178443551e-03
9.730453298580792054e-03,1.993450550244309574e-02,7.563976999936867715e-03,3.457861809972290716e-05,4.495584349936171571e-03,3.812840318630991449e-03,1.685734364363467713e-02,3.639033075823288471e-02,8.376729458119286376e-02,9.975990296214789360e-03
1.283515829426571872e-02,2.652000423587158942e-02,5.785138991277068675e-03,5.662645141688578111e-05,6.074314187221877687e-03,7.420507276456702380e-04,5.169361363701339973e-02,3.437204981863094255e-02,1.026429336872917708e-01,2.306689001199162953e-02
1.458750005850605221e-02,2.556471806510193442e-02,6.077545118864872975e-03,1.015477814040962766e-04,6.046803645630738008e-03,3.488452083930263740e-03,8.314360230811070063e-02,1.602193339357796051e-02,8.521204000068101359e-02,2.672188234231811024e-02
1.252739730251992492e-02,2.224391869476667616e-02,1.504527423246061757e-02,5.727670276815689918e-05,5.750214057591616391e-03,4.045023597877603350e-03,9.613270476756226313e-02,7.520844475681840759e-03,3.580098498743577995e-02,2.470938236510447639e-02
6.897951235965822658e-03,1.888631260325156214e-02,1.502329665627648997e-02,3.699548192764415445e-05,5.461037961179162487e-03,2.738607730148851643e-03,8.939754411468257833e-02,1.991892745146768215e-02,1.573544393381743831e-02,2.260960827651962296e-02
1.673767025689145089e-03,1.501190853054029141e-02,8.168350661869702711e-03,6.160003552319391715e-05,3.251693209008425962e-03,2.804776391718277750e-04,7.057101803956788988e-02,1.974693381189554509e-02,3.363665425409452514e-02,1.755108291573639206e-02
5.513546129574803389e-04,1.133323584390823202e-02,1.009122726583925721e-03,2.848569553422470950e-04,1.200572298237496558e-03,1.829038669730590492e-03,4.749756342530564446e-02,1.697575102989542714e-02,1.184314093853649184e-02,7.056211634115848105e-03
1.688527115484814416e-03,7.891506190647438329e-03,6.342664134817426781e-03,6.953028435895410139e-05,4.831893691010702083e-03,2.125127229932839354e-03,2.505242432163726218e-02,1.608706782480271227e-02,2.140630499872680365e-02,5.426096029474973721e-04
4.175475909358088503e-03,7.619515155780904984e-04,1.190327046843939890e-03,7.074464335066228812e-04,5.528685818270404756e-03,1.190446963300061632e-03,7.181292103251543310e-03,1.325877650579976655e-02,3.856156808426895732e-02,7.511904777898347971e-03
7.027094356304451443e-03,1.147894084222807892e-02,1.235424311299091089e-02,1.176193223727839497e-03,5.071229369577145811e-03,1.198328154266448814e-03,8.532556295660121987e-04,7.595181651380321537e-03,4.246578201586020257e-02,1.948894957546441764e-02
7.804569392348626594e-03,2.094736888340917660e-02,2.110224169689638510e-02,6.985304314193616559e-04,5.726986180168864085e-03,2.813795446397610728e-03,4.414076725723367969e-03,5.190603491341976017e-03,5.177507346965207202e-02,1.905495194041007673e-02
6.173349948121228080e-03,1.838382000890884799e-02,1.489030055582247700e-02,8.697284875768297187e-05,6.755265952879356897e-03,3.851851801752419115e-03,1.734728030660475165e-02,9.246590358072757920e-03,6.480491783010061679e-02,5.590402387615256256e-03
3.850545867535438375e-03,5.176376419545096474e-03,2.329494962331085141e-03,3.106324672221257651e-04,6.078418047874507672e-03,1.963735757101113446e-03,2.420000726031815153e-02,1.317685563255715370e-02,5.798132553826111646e-02,3.666619752702591963e-03
2.324420893602144756e-03,8.484763940974710678e-03,1.916165139673227727e-02,9.601339739061774421e-05,3.324632293430786721e-03,1.949841112073278293e-03,1.766286405765632450e-02,8.924707013705504219e-03,2.248418757152417791e-02,2.568894049954986714e-04
1.861214832301436245e-03,1.464082121576058132e-02,2.849866049453729511e-02,5.937362655105558786e-06,2.586499295421275792e-05,4.446177107784101031e-03,6.857885448754754906e-03,2.226780466774755819e-03,1.864194762467513353e-02,4.013720931537068971e-03
2.184940933715016995e-03,1.273933609962723743e-02,3.020695140977327706e-02,1.073970822115823381e-04,1.818019448066990123e-03,3.555825086021011366e-03,5.438126777812705460e-03,1.225045622478215974e-02,3.900496070204943072e-02,2.933890443715815154e-03
3.077120840783845786e-03,5.515877333066228003e-03,2.670965525430620338e-02,1.581226738346473021e-04,1.201979457619001658e-03,5.181569370833049182e-04,1.244677655442860340e-02,1.658504174298248632e-02,3.558148996386190088e-02,1.620758307886568939e-02
4.427293488416699993e-03,6.209370834249377559e-03,1.977562421045344493e-02,1.213319562874956906e-04,7.898184206149688183e-04,2.419582754904709473e-03,1.559565765278970312e-02,1.694874086566414834e-02,1.704867697695962650e-02,2.347422857427617152e-02
6.230642191340313163e-03,2.154550097390758520e-02,1.200238860462916890e-02,1.077655360111895986e-04,1.998744786324192172e-03,4.573801791348253154e-03,1.279559785591675297e-02,1.591870611595435150e-02,1.051627324499913169e-02,2.239330052251756187e-02
8.110614689072695102e-03,3.439352677203414560e-02,7.224389525829623231e-03,1.319566043937086598e-04,1.771024773820208597e-03,6.650174305941508254e-03,1.435918510005106119e-02,1.398910991651025962e-02,3.164832400444415189e-02,1.942314784219079798e-02
9.005060942602290119e-03,3.706107104944625363e-02,5.334531017105057817e-03,1.442706071854726901e-04,1.014456030944764497e-03,8.206596748405309977e-03,2.173498316364998184e-02,1.188643831886479658e-02,2.368987838125230505e-02,1.461119136686970035e-02
8.445643247362600095e-03,3.006663400361611269e-02,1.087123841353187159e-03,1.460297175344301682e-04,2.258325447670146767e-05,7.327155917218684811e-03,2.464841957805876879e-02,1.065312068388204678e-02,8.782016207124258844e-03,2.077568417957041062e-03
7.385963104179116452e-03,2.199332237349382532e-02,6.650579083890311577e-03,1.562712452753594391e-04,1.446810953780605039e-03,4.834052997777321843e-03,2.253807381507040922e-02,8.929970029595448236e-03,2.852719892688764664e-02,1.007174702871369183e-02
6.331680891603421422e-03,1.834840843864082860e-02,1.055894686422500020e-02,1.556405237956141083e-04,1.670339585895302178e-03,5.564041500346718523e-03,2.607611269836471179e-02,4.565954585846371087e-03,1.561458927897535140e-02,4.965058817977307040e-04
4.245156505735868044e-03,1.629663443407042278e-02,6.226647465873324377e-03,1.433147234242774224e-04,1.164717253025704131e-03,1.167116274552875387e-02,3.447358792867121630e-02,1.554286532465263279e-03,1.362631930818750635e-03,3.952415224901204699e-02
1.083957264254975517e-03,1.108646678297638133e-02,4.567586834742195286e-04,1.689148982348464905e-04,5.867859953020889210e-03,1.850260415520419907e-02,3.417916101171040999e-02,7.310745393516248671e-03,1.208582850148448053e-02,8.304482452988452834e-02
7.059478376798788675e-04,2.085285690068429572e-03,8.847218485924224479e-04,2.165697439108820116e-04,9.225357498996829969e-03,2.122091130178245869e-02,2.488445493007491668e-02,1.305049270525789583e-02,4.209484081863500843e-02,1.055118470617353171e-01
6.209154536232767323e-04,8.276905669859356551e-03,5.148055007361421707e-03,1.755268674963455773e-04,1.010444153780663649e-02,2.112634421971653145e-02,2.611741953352099063e-02,1.871635894770079869e-02,4.736201136025838115e-02,1.045310542870418052e-01
3.313371197302448102e-03,1.647567033991046564e-02,7.765411325639527337e-03,8.523574987924819387e-05,9.832351821149496948e-03,2.138795052278674377e-02,4.862222737427809166e-02,2.021143982290625127e-02,2.420916567862785654e-02,9.116954255079823266e-02
4.243010601512423388e-03,1.834216516633370431e-02,9.424129632657245875e-03,1.877638675521424547e-04,9.097730561062057977e-03,2.082885419602909308e-02,7.463659663223598528e-02,1.553878532372837858e-02,1.111763780658297368e-02,7.278800734151723295e-02
2.233098049749076153e-03,1.271690862375557049e-02,1.186913776186186882e-02,4.102283448338958161e-04,7.417301553141440046e-03,1.616280973327740775e-02,7.923705273433115370e-02,1.165658293200123874e-02,2.919000803373936540e-02,5.209048004181848074e-02
1.498147313325569937e-03,4.972236267325229331e-03,1.188884874597783727e-02,1.899761221156599355e-04,5.198581044093590620e-03,7.751030663443355707e-03,6.247481123046060014e-02,1.663142563591278253e-02,5.772047966692481907e-02,3.110304162995648769e-02
4.611069283398339276e-03,1.331452591845283615e-03,7.927608568644045964e-03,5.841039396677714240e-04,3.685828014207722172e-03,1.169020503691107918e-04,4.806825519732738777e-02,2.766805873137486577e-02,7.089041520053340761e-02,1.178220833553542124e-02
5.311235514322009549e-03,2.268039320560756881e-04,4.773111026783693339e-03,1.042497430182390879e-03,3.183547783634362808e-03,3.650491756157439246e-03,5.312689814624958068e-02,3.529617025026361016e-02,6.257487183556602328e-02,1.938401472828324423e-03
4.138900831892938260e-03,3.758498259673991818e-03,4.956697041503867543e-03,5.733280773793901237e-04,2.916961386028288361e-03,2.724443665577181480e-03,7.014229705177033036e-02,3.576742908345396932e-02,3.250364943257800371e-02,4.866802015386767315e-03
3.502815521415584589e-03,8.855331460286769776e-03,3.766526869018594140e-03,1.848366211216835630e-04,1.924478856231134471e-03,2.416820578168903891e-04,8.107792088434977174e-02,3.140865136195538504e-02,2.019728080620750155e-02,2.137481586101791335e-03
4.529972975072572329e-03,8.199782804893330015e-03,1.188736017553353652e-03,4.190797614327249130e-04,3.535601360059809420e-04,8.457361964913047078e-04,7.752462998950951367e-02,2.317215628477151124e-02,8.036753455427111947e-02,1.002448597441856458e-02
5.823173501645037206e-03,2.200109976780145488e-03,4.820459858349029902e-03,2.547652709801167138e-04,3.024082061172546181e-03,1.820244462088756524e-05,6.031036815736048884e-02,1.142325626214845194e-02,1.123460163299622172e-01,1.190473392288184454e-02
5.897420929842610467e-03,1.166080471970981722e-03,5.061484472464658317e-03,1.334198611938866477e-04,3.799671680850307248e-03,1.093728905425118319e-03,3.369717680530458920e-02,1.373800393138670164e-03,8.722863817658950414e-02,1.160100709728388059e-02
4.830896265023167796e-03,1.329226861776996744e-03,7.681046579642129835e-03,1.149187185736854581e-04,1.992336331723697923e-03,5.584901585667309543e-04,1.031458262695482408e-02,8.728725767838414057e-04,1.669049937922847948e-02,1.582521317817000422e-02
3.456483771584307942e-03,4.756181368730685692e-03,1.359807028002581533e-02,2.186524926570310623e-04,2.254968781658742713e-04,1.396182825111728443e-03,5.755433164316167347e-03,2.396709358466355896e-03,4.818888861178913935e-02,2.185204915030158207e-02
3.050075689245339370e-03,4.668930623341526788e-03,1.384649815503480666e-02,4.392835707983395858e-04,8.486152397095516253e-04,2.856043770472675193e-03,1.782633319316222209e-02,2.821546568012745209e-03,6.366728420041761760e-02,2.218125189949538001e-02
4.919711000085352955e-03,1.391956109556728455e-03,4.765477959400768633e-03,2.869816389503317806e-04,2.289652903283394790e-03,2.842064057651583642e-03,2.756161685302804809e-02,1.309368762783548988e-03,3.883030267192934260e-02,1.858740111846883536e-02
8.082855762858312879e-03,2.010702091985563759e-03,5.459858359943222522e-03,5.605981650637119817e-04,1.812983748683131332e-03,2.646347509818494995e-03,2.693374834213619826e-02,2.483525508880829284e-03,2.151597578454372134e-02,1.995757822919711627e-02
9.018616375439035895e-03,3.861753794201463379e-04,1.114710882757292965e-02,1.209341074371307785e-03,2.445319314147531933e-04,3.258070974712743741e-03,2.706989739959060615e-02,3.618631361877538543e-03,3.750316835779825969e-02,2.677609933610450299e-02
5.974534722665342593e-03,9.565687947148774142e-03,1.492650384190051006e-02,5.560569474936180459e-04,4.760909996998227375e-04,2.968607725215825170e-03,3.533708276978145268e-02,1.141946727711996672e-02,5.972255376790169129e-02,2.860320841473314862e-02
1.675840257036452507e-03,2.214756183570977185e-02,1.668024338624201491e-02,6.522374407730205772e-04,2.430578026876818558e-03,7.156420825973598904e-05,4.247942303435443823e-02,1.469049739125151410e-02,4.533540482349457390e-02,1.858907164470734175e-02
2.185558781563058618e-04,2.652425373889588309e-02,1.277752025006808831e-02,4.493166683269206123e-04,3.280473232817085385e-03,4.127499845054186968e-03,3.683105396493564082e-02,1.468371478839808342e-02,7.456276042839075566e-03,2.761961209616243043e-03
3.763166227453389320e-04,1.973436852635350111e-02,7.053567703219953793e-03,1.295522153982515230e-03,2.164339654748623741e-03,5.550236648865535145e-03,1.908332465774180767e-02,1.508639850195152288e-02,5.094320180792093200e-02,8.119446677839984444e-03
8.030823925671131411e-04,8.621338255851061783e-03,7.763372288195465910e-03,2.322046821001545313e-03,1.139920362387308959e-03,3.575543536260517366e-03,5.023421964567265606e-04,1.576459835090544132e-02,3.807629979388398034e-02,1.130057627979224114e-02
2.932000580380220590e-04,1.239137942862034072e-03,1.347886711216372997e-02,1.303326754096720231e-03,1.501817661563487928e-03,9.700154875647886343e-04,1.357515022822505801e-02,1.526635832124463923e-02,2.657613865910170292e-02,1.284279509346532983e-02
1.765319959100563078e-03,1.065856860250119671e-02,1.407322034490765886e-02,2.792682093039678716e-04,2.252714707615808675e-03,2.214332029715350794e-04,2.017092819587520264e-02,1.402168778691574233e-02,9.588807090322919169e-02,1.842218478662730266e-02
2.403963113275613562e-03,1.995510103197424209e-02,6.386268548868698387e-03,6.743455559329363186e-04,2.413071814641469439e-03,1.362311912424496365e-03,2.595121672724778200e-02,1.176339500568331087e-02,1.321953250362699894e-01,2.800623848758912807e-02
2.285751577604226530e-03,2.401717926158418101e-02,4.763543861016782577e-04,2.102846947917850129e-04,2.213252639775122824e-03,3.567759574832680795e-03,3.589936135185714527e-02,5.569354465667255075e-03,1.328615611406844810e-01,3.915211328745643593e-02
1.274852144826458915e-03,1.834420475268272108e-02,1.962052151424167196e-03,2.180281661368813453e-05,1.818997051613233801e-03,6.475668828062173046e-03,5.082598535830553516e-02,5.784939433446952169e-03,1.118982739613675753e-01,5.063911574059287712e-02
1.247198361421046012e-03,6.965453716075532126e-03,9.979042863928914986e-03,2.428029673700246311e-04,1.094539394535964504e-03,9.194803119030743252e-03,6.594074173293514030e-02,1.662506802259996336e-02,7.772000041983032070e-02,6.086779967629314669e-02
4.187617575079171164e-03,3.836306769631430249e-04,1.346649477391366305e-02,3.669782238497672905e-04,5.869549418090012211e-04,1.030927902718190882e-02,7.258787135426977843e-02,1.828998125169603584e-02,2.936796135700698099e-02,6.654134628755986602e-02
4.918394463986875374e-03,1.227069016275834749e-03,8.954980835410701959e-03,2.296090339991130173e-04,9.305825987654993154e-04,9.909996755100753535e-03,6.651127906836742931e-02,1.005747809242623844e-02,3.139730517385310588e-02,6.563950419548306159e-02
2.758028240181674938e-03,7.822591039741423960e-03,1.419335738880631460e-03,9.469187104421290520e-05,1.635110651098864226e-03,9.404579389863403430e-03,5.355535548529866824e-02,8.976348300664157946e-04,8.192703993160492526e-02,5.910517226857874007e-02
1.142599578052077777e-04,1.280853596370004274e-02,3.961550627673639073e-03,2.326888257499753609e-04,1.832395133687671511e-03,8.696602628165664775e-03,4.284666064260451296e-02,2.311580829878383606e-03,8.706498324521447230e-02,4.896939965138903672e-02
1.788303539532931554e-03,1.378555595854792995e-02,6.844151196599757014e-03,4.705710884196043524e-04,1.574017755754222913e-03,6.456884337740022121e-03,3.780055348416525712e-02,1.751650868813350252e-03,4.356321346556513152e-02,3.785452390119026927e-02
2.368360563977189512e-03,1.256175502135373906e-02,1.041175292070026584e-02,2.309150307214930789e-04,1.419121460707764657e-03,3.689906241262954668e-03,3.774506851768998777e-02,9.743234261782201307e-04,3.444831491998213632e-03,2.963903404348219167e-02
2.647528648784808550e-03,1.152130633859028801e-02,1.792044054503929423e-02,5.604689303877654748e-04,1.466897976923879458e-03,3.567470321269547526e-03,4.312315741100076344e-02,1.918797514875109642e-03,1.036921942740899431e-02,2.795940990465474105e-02
3.085277944475307409e-03,1.166960067774694410e-02,2.877138072046477035e-02,1.026536247599411878e-03,1.474387618728473584e-03,6.727323617568558255e-03,5.365172923217113865e-02,8.845657861207049943e-03,2.037302175052187539e-02,3.337313891056492565e-02
3.771681048473056550e-03,1.223534319389020519e-02,3.693838098928936553e-02,5.518145393509225113e-04,1.385605777119321407e-03,9.326261109284205569e-03,6.401378193373589987e-02,1.546007139181156120e-02,6.097664087998425075e-02,3.999508142300502167e-02
4.243434801894742370e-03,1.038267465513478642e-02,3.508967281539639854e-02,2.217356399835306653e-04,1.310338537345562444e-03,6.810935578729520636e-03,6.640260313232819456e-02,1.532228945159674893e-02,9.160742750512138044e-02,3.620352942419040321e-02
3.962651602759919428e-03,3.438608977267688330e-03,2.100095480572760145e-02,4.349678828708694817e-04,1.274353031967661145e-03,1.238776789335577395e-03,5.823760965453597671e-02,7.850133190866435962e-03,9.647249970718961565e-02,1.619644063652142529e-02
3.271168341051393369e-03,6.622850260569634016e-03,2.028510208498496108e-04,2.128328158233319428e-04,1.224962287000254304e-03,1.027651121575887463e-02,4.495761887775098775e-02,8.807822737136640229e-04,5.982352019258357217e-02,9.257200047399796045e-03
3.128607927244187945e-03,1.328397701141691492e-02,1.919131132761203729e-02,1.135715512717273509e-04,1.148103685910538581e-03,1.487065525961096812e-02,3.408882942943206040e-02,4.452542740519203554e-03,1.049601858649025846e-02,2.269810413275939395e-02
4.013713693832344359e-03,1.196637308274207771e-02,2.814538650526575425e-02,2.044629550407878356e-04,1.067261213726822169e-03,1.369207891082072429e-02,2.874829867086009169e-02,2.013535279820067615e-03,7.509210664423146553e-02,2.036682337093777620e-02
5.337187920624741552e-03,4.597168201364886138e-03,2.603042058464074063e-02,2.450066629814485813e-04,9.886602698622962843e-04,9.832235763121657812e-03,2.796909061599393842e-02,2.157289669370099014e-03,9.821134015408450324e-02,1.455196164824276717e-02
5.433227043000104020e-03,2.992106817034117464e-03,1.935992072381389345e-02,1.965306687055619697e-04,9.011166423889313114e-04,6.302140717563443038e-03,3.036278681173503607e-02,4.414143766928032078e-03,8.081694036809097814e-02,1.634410502676848786e-02
2.595001646842231679e-03,6.552081785163657579e-03,1.553687367899659472e-02,1.700636009845378255e-04,8.017033288365338134e-04,2.828697021998642300e-03,3.518050127483526163e-02,5.142247478989615296e-03,4.665399701217893408e-02,2.269798508861335662e-02
2.692949361714813521e-03,6.392923535450897171e-03,1.421824513528896668e-02,1.852514673070978764e-04,6.961320250809866807e-04,2.190574874557777146e-03,4.095084423300163201e-02,5.880037568925348956e-03,9.409372689086058228e-03,2.205697656752587596e-02
7.217538971979944352e-03,5.961808605581679285e-03,8.575885697240008890e-03,1.904767371457497926e-04,5.867271911362055992e-04,8.366702716940097734e-03,4.456113988484607102e-02,6.372113865392730996e-03,2.744879011442772840e-02,1.015164386308826418e-02
8.089159180111099925e-03,6.819820289046707451e-03,2.494667279610770193e-03,1.759917541738992915e-04,4.720782255224191689e-04,1.368364051677325478e-02,4.236292519532817991e-02,6.093827186862498142e-03,4.951076106847383113e-02,3.632412981978101925e-03
5.591367484641548979e-03,5.538057861141798370e-03,8.551314979533538446e-03,1.659008963511439372e-04,3.526342158889406208e-04,1.698290024517935468e-02,3.292813960289138475e-02,5.870363562614279787e-03,3.771811261156875900e-02,8.203332329297036499e-03
2.200906263293578649e-03,1.728518397506019922e-03,1.859528026795819518e-04,1.650937847293054619e-04,2.308964168046973844e-04,1.836544137908581106e-02,1.861301339072233760e-02,6.712096675364405754e-03,2.729245986917363739e-03,5.279992929242319222e-03
1.405303774803048108e-04,1.216644226870764942e-02,1.867175927467168428e-02,1.624341995216495381e-04,1.087573864105392969e-04,1.837708126318919610e-02,3.775540249062661093e-03,8.633373175961548893e-03,4.098143090965496171e-02,5.602008292839126546e-03
4.376402494281982471e-04,1.781441763042140164e-02,3.205896693445977469e-02,1.556405224800943123e-04,1.267381521111599768e-05,1.825520731634187876e-02,8.286071154182591061e-03,1.084577222188581533e-02,5.251016420883890257e-02,1.226675815496295306e-02
2.669889764647777764e-03,1.442585119594935739e-02,3.233483729783304811e-02,1.499092525247019861e-04,1.318894245692356143e-04,1.903625462701626775e-02,1.691699231996526831e-02,1.241068776339726565e-02,3.872558658541722099e-02,1.606659560467365785e-02
4.924303148287134842e-03,5.656759043525187713e-03,2.347608111099736342e-02,1.462529443137124390e-04,2.469454953609677818e-04,1.886431632443104356e-02,2.408952826575242595e-02,1.271969131370869963e-02,1.445745441538678552e-02,9.281599310914814480e-03
5.176507908715047984e-03,1.656877245452282373e-03,1.250263299204183026e-02,1.423985997002334973e-04,3.560648496055125278e-04,1.373872679492374980e-02,3.231738529842246438e-02,1.119419565346816206e-02,9.969566899737790366e-03,3.612643408713795030e-03
3.149350349486155706e-03,4.114007690703793893e-03,2.382968883882416542e-03,1.382555647017430728e-04,4.577243479623183120e-04,2.837526679595060719e-03,4.077212797333901184e-02,7.034939620402345418e-03,3.083463434713556994e-02,1.322166745383094102e-02
3.305634347491054489e-04,3.325303538603086115e-03,6.616456073890385724e-03,1.347118962707002129e-04,5.504576228289691361e-04,9.178950932159118947e-03,4.485651880891024929e-02,6.735802163767422735e-04,4.496427881089526402e-02,1.688406209733266106e-02
1.570422052490168382e-03,2.348082160570343080e-03,1.399605162105941464e-02,1.310425590423444772e-04,6.328671656995545113e-04,1.645474550740519057e-02,4.183698715468817803e-02,5.026561721251769817e-03,4.869488665560418872e-02,1.798102445421474391e-02
1.771558049604466918e-03,2.173766756037030443e-03,1.890579812819523364e-02,1.272535743357585813e-04,7.037181747900521020e-04,1.652192056725966529e-02,3.443568022994004246e-02,6.912914716547179268e-03,4.368414464332481817e-02,1.803495090320744038e-02
6.666917688068837869e-04,2.055688720093182525e-03,2.101920464022107027e-02,1.254058616104982630e-04,7.619836747931072818e-04,1.061853185120167908e-02,2.667586932490997181e-02,4.608219880379194229e-03,4.029041556482029079e-02,1.472091299950995663e-02
3.844107939483688147e-04,1.582793679685684345e-03,2.073760114781245806e-02,1.246648401259056087e-04,8.069518888559393515e-04,2.082471708418880650e-03,1.991759471799196130e-02,3.660970139728525127e-05,4.714756714789694603e-02,7.068606126506296605e-03
2.228046264876751899e-04,1.076304710508000024e-03,1.877586996739104286e-02,1.203447023048201191e-04,8.382374710841029647e-04,5.264289648763285402e-03,1.474083995201214484e-02,5.185000350867555001e-03,5.531072114584469068e-02,3.582253805327389388e-04
3.048844732638199013e-03,7.330019966082552832e-04,1.589243998873944921e-02,1.144707226750343778e-04,8.555209190709191095e-04,9.099534005772723713e-03,1.210465421206049705e-02,9.926028001382323010e-03,4.475289339982841536e-02,6.920286944735324144e-04
6.397430271302986110e-03,4.112027641880740920e-04,1.320389003808190853e-02,1.171605831641294500e-04,8.585540268761511322e-04,9.980696541319989540e-03,1.134383224950993169e-02,1.199086680822329144e-02,1.309831725229277863e-02,7.673183340169088297e-03
6.838952435452322343e-03,2.310923935372528773e-05,1.184428008629702378e-02,1.240866825480720483e-04,8.477904346816844856e-04,1.068017608098249110e-02,1.092097913199480304e-02,9.570464930613788168e-03,1.630936579271055967e-02,1.885395147972536434e-02
2.478482569977742255e-03,3.598882472819743506e-04,1.165818440616941259e-02,1.133781643139461411e-04,8.244046624548856958e-04,1.341855103418922168e-02,1.119048598411506550e-02,4.614186392065789712e-03,2.402094608545161589e-02,2.546514896018163901e-02
4.136134014419612717e-03,6.895092201212528644e-04,1.130720078381712741e-02,9.368908673210404642e-05,7.889128472774155571e-04,1.693095507915751141e-02,1.340835883394706114e-02,1.494563497899902916e-03,1.713103569190197600e-02,2.513304965837616367e-02
8.039540559393676747e-03,9.922977891168242425e-04,1.012519647716139323e-02,1.118721366060598403e-04,7.410613863476717350e-04,1.740496664841669622e-02,1.655393494230143758e-02,1.685143277893163833e-03,1.244214792214606673e-02,2.105801408502826211e-02
7.045901317774517884e-03,1.285083716797538874e-03,8.725436544677431239e-03,1.505098282698819935e-04,6.827289053816114383e-04,1.358676293900655183e-02,1.744750116821154953e-02,2.833105038083239512e-03,1.206200671407881703e-02,1.750431098264740304e-02
3.384421485908543741e-03,1.549905434461587659e-03,7.703567066169035235e-03,1.088178172865104530e-04,6.181730517981403944e-04,8.569505331109563209e-03,1.427029755009984885e-02,2.960537241923294829e-03,7.576234798506172909e-03,1.505823320054022231e-02
1.277320414475580893e-04,1.773449363231910337e-03,6.919275730009367097e-03,2.098050595234813193e-05,5.477505643572860069e-04,4.696622782875106011e-03,8.577916859232082719e-03,2.289093155839330880e-03,2.695841197195669552e-03,1.142066793139893087e-02
2.147088332303895460e-03,1.959421899393537763e-03,6.106206568799050702e-03,1.054980907696350116e-04,4.671275191383779174e-04,4.857347829402940131e-04,2.574728360822850417e-03,1.523691230088628033e-03,1.294881311824589223e-02,7.115892571027385496e-03
4.475926344701581377e-03,2.110364248077398891e-03,5.317834496335633633e-03,3.040881144842498725e-04,3.805630765613150627e-04,4.957220577454910307e-03,4.584161540492145623e-03,1.293264816572220564e-03,2.117126627095759425e-02,6.285523754435180452e-03
6.813303886742676403e-03,2.221747835851876039e-03,4.672817865449239300e-03,1.057155529354434986e-04,3.028252112153774381e-04,8.870593981330145150e-03,1.484550348422456617e-02,2.029033303165176955e-03,3.032875413889484298e-02,9.883462060958450937e-03
7.709854722689730468e-03,2.290505075222696099e-03,4.140079225412956164e-03,6.325693779087052321e-04,2.307460410859806898e-04,8.351301018372404503e-03,2.562144032931267315e-02,2.051591274132841172e-03,3.822760665024626386e-02,1.332440413589787084e-02
6.588907303865427362e-03,2.317961031858728222e-03,3.654694789700126470e-03,1.153060814147132546e-03,1.382559738684445698e-04,2.906951945244520309e-03,3.052897513990217651e-02,1.623987725732442154e-03,3.579425965804717419e-02,1.323498598457070220e-02
5.179054697325267617e-03,2.305910713994596944e-03,3.220235514417477910e-03,7.783086057280041211e-04,3.688208413955826651e-05,6.133118564849467449e-03,2.760504625439263657e-02,8.058552747903478808e-03,2.019818158498028204e-02,1.105026976126194209e-02
5.610272422831599944e-03,2.255206848103878409e-03,2.855134955013960765e-03,9.624082700384997723e-05,1.206290989098500639e-05,1.343713541237550463e-02,2.232905391807825379e-02,1.145777321880467499e-02,2.294306365722580555e-03,8.222676945196058518e-03
7.421490266940308604e-03,2.167560169321266009e-03,2.544392390712495698e-03,5.326144102580500188e-04,2.646437725618199172e-05,9.548163115739298490e-03,1.989759415187993333e-02,8.259893484020225732e-03,5.194063633707169704e-03,3.508479201920000796e-03
7.995623077220480324e-03,2.046176252400710820e-03,2.266419570799297137e-03,9.072402539189939252e-05,1.356847380323107589e-04,9.082394868866376994e-03,1.830932188068736671e-02,1.717367326979651930e-03,9.945753365076725680e-04,3.160596490054092683e-03
6.143668276864389620e-03,1.894847882557064607e-03,2.016374674280104438e-03,7.893190261856270406e-04,3.099272062653954862e-04,3.188598747721380772e-02,1.121469839572171966e-02,2.650775076502032753e-03,8.042397564292990547e-03,8.269911774274878169e-03
3.526527782487090534e-03,1.717549177959520890e-03,1.789886683198523443e-03,1.169519324461089664e-03,2.286474096984438529e-04,4.371675367473838725e-02,4.491961071060436225e-03,2.807450914286305482e-03,1.681486372196628123e-02,8.334676451575257286e-03
1.989538575045426104e-03,1.518737295048545963e-03,1.571979497687305037e-03,6.544089963286894591e-04,3.002413196282688128e-04,4.079166974288023217e-02,2.393120764912843104e-02,2.617088276171511711e-04,2.329210101518418286e-02,4.560697876965492253e-03
1.204022445488059758e-03,1.303409061711606476e-03,1.354064503864620909e-03,7.858176689031122226e-05,9.714510757488814714e-04,3.083577217363266468e-02,3.673996829969786854e-02,2.344098781065611248e-03,2.575271532073941660e-02,2.038227804630963515e-03
1.467800775546016304e-04,1.076807939966656748e-03,1.140434287187179268e-03,2.717637659985904647e-04,1.269026854461855576e-03,2.054019550248464485e-02,3.662086035679181645e-02,2.767546033374853297e-03,2.410272974172675969e-02,3.852618843720155735e-03
2.269293381807835266e-03,8.442299120861355109e-04,9.210158874221564471e-04,6.809989776738911596e-05,9.587867639472212296e-04,1.071943931249812708e-02,2.754121411536805675e-02,6.884351633522813995e-04,2.090672390767515237e-02,8.205018621058124753e-03
4.347978901971745296e-03,6.109868217215202492e-04,6.659747484152507297e-04,2.136291943279581141e-05,2.731629145117032064e-04,2.981904184723170419e-03,1.781536558930020553e-02,1.477696090587230990e-03,1.808833195153313964e-02,1.238596112910604966e-02
5.586487391048897480e-03,3.823220818148354407e-04,3.804595177207303652e-04,6.166763284973373531e-05,2.682731097556061042e-04,2.654896852628010201e-03,1.160448173557526545e-02,6.633461000282415369e-04,1.525862991635252956e-02,1.613385562435063272e-02
5.475576996383556619e-03,1.632531562419567406e-04,1.138479127162233834e-04,9.869308730643406701e-05,3.628527394390849287e-04,1.135670375372497751e-02,9.861696930449283249e-03,3.374014794673650935e-03,1.259853947211357281e-02,1.932252498541528821e-02
4.082962615454860562e-03,4.155918219208583992e-05,1.549296161269693699e-04,5.552346552232385169e-05,2.140067218882071268e-04,2.187981049476851042e-02,1.388682158239778509e-02,7.419202215172884460e-03,1.134778906840088614e-02,2.000269350372003985e-02
2.230593869071473539e-03,2.278974708143661349e-04,5.381338897373418462e-04,3.294278356085781018e-05,1.372702402797738527e-04,2.507277295524172958e-02,2.224349008477334230e-02,8.082308030880471644e-03,9.598935810215213776e-03,1.705045361055979036e-02
4.918324638076791017e-04,3.920727711257071080e-04,9.955554211360131793e-04,4.837179746609641506e-05,1.393331419686164442e-04,1.923291867636044844e-02,2.902299013101271308e-02,5.206158974022044236e-03,2.433153200354247481e-03,1.249402657082216567e-02
1.384620918770613877e-03,5.310135670024244969e-04,1.281882801383951850e-03,5.493796478614701591e-05,1.032598350667776984e-04,9.829812053787160761e-03,3.026279250036894436e-02,1.490822458649884719e-03,1.067335181110539225e-02,9.410164704337056069e-03
