1.353869770480535875e-03,2.524662997379552862e-04,8.468049504744105949e-02,2.102856293328086816e-03,7.355886728703198109e-04,1.020172376905925703e-03,1.285989532031659409e-02,4.948329581102582642e-02,1.435292094354925600e-02,2.731093791891470515e-02
1.360191258308896369e-03,3.748631477893237668e-04,1.651997992674824473e-02,2.533508997757336675e-03,1.198300442707917650e-03,1.168940554299268417e-03,8.913909255413219462e-03,4.115743549143346253e-02,1.558228425915627116e-02,2.680165324015725686e-02
2.264907459910905398e-03,4.694533016077310247e-04,1.401142265033046841e-01,2.959873447656583695e-03,7.126998255113474456e-04,1.300872542686592071e-03,2.703162848125635967e-03,4.736206262409873441e-02,2.850690812624616377e-03,1.819135171368189627e-02
2.799660023649501017e-03,5.328420197223967354e-04,2.527805624413061447e-01,3.373550563939924172e-03,8.300264641919092331e-05,1.449707916522906996e-03,7.001049619973248594e-03,5.257509175815554964e-02,2.411914914918258587e-02,2.312986739967870346e-03
6.148528071677861022e-04,5.624364293046885122e-04,3.221151242266295234e-01,3.766269978434019176e-03,3.190352642926839403e-04,1.621106906014704646e-03,1.936926322428935907e-02,2.875815881960505985e-02,5.019585619832071799e-02,1.137479184355505261e-02
3.990662557127497637e-03,5.565230342646160580e-04,3.426135124395403020e-01,4.130077394590650312e-03,1.184437628142293893e-04,1.737591741107356392e-03,2.329846028766145022e-02,2.195067320222890764e-02,6.240426573001525007e-02,1.352210328903877615e-02
7.976622395794321849e-03,5.143237826404790242e-04,3.453343419363167355e-01,4.457514997166186523e-03,4.431223000131925832e-05,1.780019246962150255e-03,7.162057208429944630e-03,6.342063649694329452e-02,6.204851505313258020e-02,6.059216429838172081e-03
9.922272345309643068e-03,4.360291043248941509e-04,3.615165208074447856e-01,4.741790547668025581e-03,1.646707323089532850e-04,1.908988991314253258e-03,2.222521601603115113e-02,7.045384526148419646e-02,5.622165835940997475e-02,5.002037090010577960e-04
1.080416051956057180e-02,3.228069026325456649e-04,3.861707395911948004e-01,4.976931062077439953e-03,2.364668448790041696e-04,2.165843964652161731e-03,4.118595939195974359e-02,4.950950517106458837e-02,4.784043794516006781e-02,5.925330271399526253e-04
1.010526651624784299e-02,1.767869882218477075e-04,3.875004072582545200e-01,5.157917327968518373e-03,2.202628085874495326e-04,2.205114516224331283e-03,3.372693936352424288e-02,1.423050085991727637e-02,3.712089800857579919e-02,7.528122423548568552e-03
6.007177049499297719e-03,1.021039227306655723e-06,3.419712714156138977e-01,5.280795971302449515e-03,2.278153880279784550e-04,1.928355286444891330e-03,7.725568177285918083e-03,2.580159934135270450e-02,2.488909564416490541e-02,1.605219616537138100e-02
8.443405151929798133e-05,2.005810195566979726e-04,2.564296208126471965e-01,5.342766318244138168e-03,2.786123304877017887e-04,2.086967350655550939e-03,1.560608591332685730e-02,5.265812051199745408e-02,1.205466517030021056e-02,2.500668630039138904e-02
3.274978387088466319e-03,4.233366833525535936e-04,1.606862801104366467e-01,5.342239901642169275e-03,3.200897591313789240e-04,2.914891940303645894e-03,2.395242813617743868e-02,5.246175430449118160e-02,1.652417063058549476e-04,3.478420278941566496e-02
3.092310630592330981e-03,6.618968900836090649e-04,7.934690896724780340e-02,5.278871120910075439e-03,3.418945961434021429e-04,2.444052978168586004e-03,2.305988128956070263e-02,4.055457423972053110e-02,9.308993430354016094e-03,4.403421614076531015e-02
2.976842017315713476e-03,9.103702851525110598e-04,1.603610369024953061e-02,5.153558262125127083e-03,3.678876905214493835e-04,1.377201720630845568e-03,2.320354953950364008e-02,4.206860333677840680e-02,1.345543179234512388e-02,5.053714022952508073e-02
5.213065655955926095e-03,1.162462262001220589e-03,3.082014676719839474e-02,4.968414805379696951e-03,4.025587146376654137e-04,6.682225749483125705e-03,2.090383804302913678e-02,5.125260800420694540e-02,1.354964985109612108e-02,5.376966228597156866e-02
7.514009792573017946e-03,1.411624673443739788e-03,5.323661434814363352e-02,4.726711671324366516e-03,4.341262141085255703e-04,8.887634610931368154e-03,4.059388123347949621e-03,4.152616213650671406e-02,1.235618214149656127e-02,5.462427339829659806e-02
6.818071625672120217e-03,1.651213673363418743e-03,5.054287092224730993e-02,4.432791770784091229e-03,4.596795966630830917e-04,6.427229290306027062e-03,2.601195327812940231e-02,8.925732196815389097e-03,1.157139019960886500e-02,5.426583572088603674e-02
3.470536757328252387e-03,1.874653482844758964e-03,4.364048597999631296e-02,4.091958902898757203e-03,4.840483562960545068e-04,2.249450751684287358e-03,5.190807715279758400e-02,2.503256786517540911e-02,1.107082222453880174e-02,5.448529309000785248e-02
1.627778197113273701e-04,2.075599737166393920e-03,5.436695379787649662e-02,3.710343681689271065e-03,5.080289580851965687e-04,5.694718827759474985e-04,6.103020478397300913e-02,4.659854479002391303e-02,1.037080808269501275e-02,5.583351220932332437e-02
1.386901525464039530e-03,2.248094730579426343e-03,8.758757457447394201e-02,3.294749742603596265e-03,5.287832975032894824e-04,1.759750249090265587e-03,5.659047436150026894e-02,5.938824179362390404e-02,9.551517797216855718e-03,5.427627324882438459e-02
1.012243442819452457e-03,2.386715463124739270e-03,1.388614648805982787e-01,2.852483975235769152e-03,5.453683024459126749e-04,2.356910211261693724e-03,4.759730420481984164e-02,6.678787906518539319e-02,8.850201583857107007e-03,4.497823367305944092e-02
1.174654617479799299e-03,2.486718575129079085e-03,1.889257225700734788e-01,2.391174933631022136e-03,5.586278228420180634e-04,2.674367808286968150e-03,3.871886093698523323e-02,6.621909142273654791e-02,8.252877585932674384e-03,3.102681427785126955e-02
4.537965593593973161e-03,2.544168406166481388e-03,1.934176718935320394e-01,1.918583881111922537e-03,5.686116188054936163e-04,2.359387164614493593e-03,2.970895718346862335e-02,5.869427937257447325e-02,7.668932053887940817e-03,2.198724551477293510e-02
7.230850873131805176e-03,2.556027865762383004e-03,1.246284440076469990e-01,1.442413124482482076e-03,5.746023578608236686e-04,1.536959973653114148e-03,1.801034231473439690e-02,4.993165050958224549e-02,7.122736356716067446e-03,2.145514847958617313e-02
7.709899789374804330e-03,2.520230748724486530e-03,2.342664352114778165e-02,9.701163774704090218e-04,5.763305886949196414e-04,1.112707940204488806e-03,3.725377194967318967e-03,4.172458176166218141e-02,6.673922235968188232e-03,2.208434268114609772e-02
6.663322776559326560e-03,2.435770394236306223e-03,3.532900229208445902e-02,5.087158627694494950e-04,5.739810643196772890e-04,1.618723748390210561e-03,6.659903437373986858e-03,3.005342622385886661e-02,6.324855593343565140e-03,1.544990037969688756e-02
6.150803067334297686e-03,2.302758336744552617e-03,2.457764001486803865e-02,6.463071627263537039e-05,5.676259472009912398e-04,2.417760834801023582e-03,7.112572644042670922e-03,1.269770978262605224e-02,6.057024889736933697e-03,2.268472335395621542e-03
6.988473034120921620e-03,2.122371434817563532e-03,2.432535445115115852e-02,3.564790009367901826e-04,5.572148143223188809e-04,2.693249991043756598e-03,8.510810783116484583e-04,6.649706472139286888e-03,5.877949697133116359e-03,9.216233764205074980e-03
7.909022345394903578e-03,1.896780423707295415e-03,7.601579196196926735e-02,7.498487417949921928e-04,5.428376747185843960e-04,2.518774978702452080e-03,4.873325910782726547e-03,2.372635811136237366e-02,5.803588375071860872e-03,1.240867446964202293e-02
7.621616423555171299e-03,1.629234449970373482e-03,1.202236997239499450e-01,1.111722885237190943e-03,5.247284979894058102e-04,2.423804986425999366e-03,8.175415973862405761e-03,3.822036879938756071e-02,5.828865471066110512e-03,8.506001983783586726e-03
7.067217791842298098e-03,1.324107727470647238e-03,1.624393131580943728e-01,1.439442192330788210e-03,5.031357289840060129e-04,2.606389110910583423e-03,9.364758709584738994e-03,5.081118925397536817e-02,5.937468147919431477e-03,4.079665799063115703e-03
8.166477366648080063e-03,9.865325920488110523e-04,2.106940139981309801e-01,1.731503001987367424e-03,4.783108257593285569e-04,2.860692380107381083e-03,4.986235747589536603e-03,6.110168269845121097e-02,6.131352984427634531e-03,3.795857667697012834e-03
1.027913430324087392e-02,6.220272999876927129e-04,2.560133249236156705e-01,1.987586545190134744e-03,4.505588639094659288e-04,2.856172342991082722e-03,7.767119964895906510e-03,7.072772007264614691e-02,6.423048646865407371e-03,7.788680004528165252e-03
1.050632944829791270e-02,2.369376833717707362e-04,2.595915309546223404e-01,2.208557483197309303e-03,4.202332170150905764e-04,2.633276456352257131e-03,2.618518876186267871e-02,8.241434069005454388e-02,6.788842777253535632e-03,1.558655699824962153e-02
8.106808663499448162e-03,1.611502003116805325e-04,1.900388344634502125e-01,2.396431526949114200e-03,3.876993516899377812e-04,2.850919981040604158e-03,4.529900993913977408e-02,9.124184025830386902e-02,7.179086164896291387e-03,2.717382361200001289e-02
5.387710539863917875e-03,5.647883021687110467e-04,7.892519520535364042e-02,2.554312753826107427e-03,3.533236014153491133e-04,3.619200524121797980e-03,5.979296694487912234e-02,8.267570629540797744e-02,7.611640121908073292e-03,3.942844150763419320e-02
3.894231956448623595e-03,9.680708237979154286e-04,4.238823026630777514e-03,2.686301986040762375e-03,3.174762111463938475e-04,3.203580022121145770e-03,6.175934947199249875e-02,4.960795008342726298e-02,8.155672742192126429e-03,4.801329314889991179e-02
3.297937062315649953e-03,1.364243778785600254e-03,8.328189636684572850e-03,2.797378313736081923e-03,2.805227130698418432e-04,2.735022775235641454e-04,4.583503342910371509e-02,7.737855015539603538e-03,8.736210370799149527e-03,5.260428397480981094e-02
3.613168748558912274e-03,1.743176548388911682e-03,5.769754071827862263e-02,2.893256516488377540e-03,2.428086873046669933e-04,5.787263965123294607e-03,1.943330380600443927e-02,2.162005578025201144e-02,9.163587101481292935e-03,5.441293352621036361e-02
4.746334178573516707e-03,2.096937157560250543e-03,9.344180206077261353e-02,2.980223743302346049e-03,2.046504706662395851e-04,1.034522656414326412e-02,1.093901836927820004e-03,4.120938025594791942e-02,9.551096894801250695e-03,5.293954713011025937e-02
4.893256979801860647e-03,2.425863602564252725e-03,9.982127124165335319e-02,3.064959340732496818e-03,1.663299454368685499e-04,1.264768036997688909e-02,8.037163596658725845e-03,6.877646512665354372e-02,1.026468447974903178e-02,5.089519388523883192e-02
2.902042039614740818e-03,2.727318187329548851e-03,1.007261583906007285e-01,3.154342157136718217e-03,1.280878284621959624e-04,1.305614796883219388e-02,7.970930233446247778e-03,1.002202035792918167e-01,1.103083523509927437e-02,5.426228337449517936e-02
7.684575445118742342e-04,2.982894409137491071e-03,1.052340512479241902e-01,3.255249981810534338e-03,9.011656547970057021e-05,1.092984710353332549e-02,7.882499184996012709e-03,1.096308848020362547e-01,1.101998277969561471e-02,6.218538325146063389e-02
8.969805691364911033e-04,3.182517970954400373e-03,1.025088501094479632e-01,3.374355994382677217e-03,5.255572005556226155e-05,5.653442724365539615e-03,5.539672548446718421e-03,8.952269491599573747e-02,1.076984849109109861e-02,6.593670937249028474e-02
2.637878793984140338e-03,3.352756485213778150e-03,9.711073377029315334e-02,3.517927207978303970e-03,1.548959615291620707e-05,4.402384357004186918e-04,3.029728510425399625e-03,6.376989865453568107e-02,1.211402065742690076e-02,6.122418915284823931e-02
3.604090200335393571e-03,3.506377742521523625e-03,8.072643298054626992e-02,3.691629881932558758e-03,2.105408883071861775e-05,3.805119920085838284e-03,1.481700949550655844e-02,5.518952750033303406e-02,1.381067828037892825e-02,5.200053940909608874e-02
2.629711894167169849e-03,3.580782691548338361e-03,8.181678197880112857e-03,3.900346731366328892e-03,5.710425283398434722e-05,4.026315875629789091e-03,2.257191359445956391e-02,6.356020338705477279e-02,1.003811328215396988e-02,4.026644387101910305e-02
3.409204906621275005e-04,3.544257568425729973e-03,2.015124012442628398e-01,4.148010482957540865e-03,9.274459952656370707e-05,3.590581052183829981e-03,2.186245283133083847e-02,7.682027409489730618e-02,2.061158498667474935e-03,2.253616283531936076e-02
1.415385872079104584e-03,3.530417832805201640e-03,4.000879063521500800e-01,4.437457977507832177e-03,1.281099648268361037e-04,3.739900542931794136e-03,1.266617299806450242e-02,8.276340793634984205e-02,1.552682687678210403e-02,2.489760916598278764e-04
8.690187733757597476e-05,3.614903213726578576e-03,4.551740973062280426e-01,4.770308592225640937e-03,1.633812062139514457e-04,3.214340978398158057e-03,3.609523822957775175e-03,7.357864091553460717e-02,2.002403053583276527e-02,1.891147373247058575e-02
5.805012997275158307e-03,3.519401064770762665e-03,3.497834927697353602e-01,5.146870146302768949e-03,1.987787089568483464e-04,1.151201201713812888e-03,2.380766727897071569e-02,5.572167101211570467e-02,1.432282864351090527e-02,2.738078236696186996e-02
1.363017870519328892e-02,3.073800438235751737e-03,2.317620342808888456e-01,5.566074708299254166e-03,2.345545188163333371e-04,1.134923662096056288e-03,3.915986857546767397e-02,4.615557158645706287e-02,7.703553838820976357e-03,2.930454098859354775e-02
1.637436314987988223e-02,2.914737396798248049e-03,2.534765131625235646e-01,6.025446102224598852e-03,2.709832908947556887e-04,2.007135438791248297e-03,3.971988953082765395e-02,5.006967457301947366e-02,9.340015210765609949e-03,2.712286440872081067e-02
9.040845255151388343e-03,3.734349527490910415e-03,4.106801506225067899e-01,6.521100364773915227e-03,3.083523252235145329e-04,1.655343331487322493e-03,2.698524459729887207e-02,5.687158065452685429e-02,1.948683603351332796e-02,1.472824308254878228e-02
4.224291013116616977e-03,4.792224468874680711e-03,5.635060679298408148e-01,7.047779434880412607e-03,3.469509186488861857e-04,1.533234207227754343e-03,1.396656680129377756e-02,5.830606749284079904e-02,3.074954527016290559e-02,9.378632629291228096e-03
1.388905638565567785e-02,4.586774936581093122e-03,5.957331472897483549e-01,7.598917099036593334e-03,3.870592589994766323e-04,2.229480165089279750e-03,7.883613694375506131e-03,5.198551769253548227e-02,3.572023505179851288e-02,3.118087339944446493e-02
1.615104267518289657e-02,3.124536492146974022e-03,5.092557441315049838e-01,8.166735809681996416e-03,4.289371332631127334e-04,2.556704709528143191e-03,1.446382832111021543e-03,3.312364805966825504e-02,3.291015456959651281e-02,3.459952231690553021e-02
1.507074244151312796e-02,1.920093670584750159e-03,3.730244300847903594e-01,8.742373228444785122e-03,4.728127418351068785e-04,1.124199211318938248e-03,1.269826964482102111e-02,4.252570918150485116e-03,2.579092362161472182e-02,1.925228872202433897e-02
1.456101989540285399e-02,1.726375431734496072e-03,2.358316392306783194e-01,9.316035844849584677e-03,5.188718983696169375e-04,1.409425218042140724e-03,2.708525128758110245e-02,1.429775243163458956e-02,1.730982723602575782e-02,2.758583885982614746e-03
1.469878053146730403e-02,1.862629854002442742e-03,1.027348787631269939e-01,9.877174230809407027e-03,5.672478828658768669e-04,2.754410187983054575e-03,2.785637756152712849e-02,5.198894457734537684e-03,7.787942950973405880e-03,1.962154443889291972e-02
1.574097920305597351e-02,1.702277800373601683e-03,3.168875235266047780e-02,1.041467555372568854e-02,6.180122091119098944e-04,1.863572467238292082e-03,1.323255722074863708e-02,2.187025235451574984e-02,1.618533200795523562e-03,2.219271876652785525e-02
1.999499247645774094e-02,1.424404988555817058e-03,1.449135734303492462e-01,1.091707311807824966e-02,6.711665534185474839e-04,4.882286738362853285e-05,5.391607412050070797e-03,4.627683697890004610e-02,7.184771209963746429e-03,3.254120874308379704e-03
2.805168785551468563e-02,1.314653108543434919e-03,1.932025018228106239e-01,1.137276898156165152e-02,7.266360658185924519e-04,1.015359437200373527e-03,1.769602370585905346e-02,6.548469883738716746e-02,6.837418099951164153e-03,3.379587636127686506e-02
3.584329344291961594e-02,1.301713168539171466e-03,1.652623435116763462e-01,1.177025549123483436e-02,7.842642491804662028e-04,9.738437211559297386e-04,2.164801704788367129e-02,8.599447344229198265e-02,3.826811802658743999e-03,6.915291580766010082e-02
3.720602894353967210e-02,1.253765743861684490e-03,1.107470225630034777e-01,1.209832837265532000e-02,8.438095526682278576e-04,2.434162555307052534e-04,1.919889450584641444e-02,9.641520868827088697e-02,3.441921588672812015e-03,8.009916303275256555e-02
2.925107513075365928e-02,1.204099793243864616e-03,9.774127568923449139e-02,1.234630543895474941e-02,9.049437951258901096e-04,8.311149371350239718e-04,1.238949730015238490e-02,7.676792273408911127e-02,7.159678853727670204e-03,6.224769251874160553e-02
1.555523665501686546e-02,1.215329388896243135e-03,1.518323035495162121e-01,1.250425090846891615e-02,9.672525013628783391e-04,1.748914163869047956e-03,3.725465549659807106e-03,3.234552809141757329e-02,1.234148984649032117e-02,3.309075760519344239e-02
4.707080668601978241e-03,1.267946835754685340e-03,2.357684076646158200e-01,1.256315942596735076e-02,1.030237172068752295e-03,1.653135992968046567e-03,2.449470627779080055e-03,5.791795304930861567e-03,1.648712935636679339e-02,1.348678907235224822e-02
4.062810012892953231e-03,1.324572562266178918e-03,2.759950283184303688e-01,1.251508338630589329e-02,1.093319438833908813e-03,1.147102929527779938e-04,8.047291913704629734e-05,1.771555614109890028e-02,1.853528195465450890e-02,8.577267380352655152e-03
1.298740175641857793e-02,1.391694793405527653e-03,2.289598197939637092e-01,1.235328694853717393e-02,1.155847045718407353e-03,2.005934245739831711e-03,1.294531263230860700e-02,1.256476871356812866e-02,1.680082416386721386e-02,8.522226142337181037e-03
2.374431089786263258e-02,1.486241412550138490e-03,1.381316934334573254e-01,1.207245108073370064e-02,1.217101605207624631e-03,3.084654808633038175e-03,2.810754912841693237e-02,4.594035710638265900e-03,1.062861811744877233e-02,4.425571636270123933e-03
3.041612029508016998e-02,1.587709549982792897e-03,9.586667466032343377e-02,1.166874099785358138e-02,1.276307958871518607e-03,2.493395688551009425e-03,3.321926141156919532e-02,1.021921241263896128e-02,4.654752856309112875e-03,1.931879432161985946e-03
3.430815951388208745e-02,1.661921452681786385e-03,1.359553147202142986e-01,1.113966985536166653e-02,1.332644822551427161e-03,1.548621599299352357e-03,2.823425597595254771e-02,4.336369900315163034e-02,4.630153847354527390e-03,3.826564265940019319e-03
3.884723937816349226e-02,1.724114072649243290e-03,2.039763000965517381e-01,1.048415278474338665e-02,1.385256518484898969e-03,1.962871066126371886e-03,2.401433479779888081e-02,8.961425973212397422e-02,6.636771786317623503e-03,5.224502478378707099e-04
4.265250501639535063e-02,1.811728766181089356e-03,2.466624237523472041e-01,9.702898115922418965e-03,1.433265809455258220e-03,3.326573095147319480e-03,2.380016290175381369e-02,1.228258327042218850e-01,8.238837641900573433e-04,6.189402771572931512e-03
4.095808766475344392e-02,1.868582591177330538e-03,2.755066810290988655e-01,8.798295802195387622e-03,1.475787497023858374e-03,3.410914295288090120e-03,1.872287791765295945e-02,1.142487909522431622e-01,1.963205037983057136e-02,6.394509103519652529e-03
3.166150535456742354e-02,1.790761767085758717e-03,3.092071632520562163e-01,7.773467877654284368e-03,1.511941903321707952e-03,1.389298438062864377e-03,5.084624070047939932e-03,5.499845524597252178e-02,3.666186727147614788e-02,3.575105711886593807e-03
1.703837605216219908e-02,1.666897720302419356e-03,3.112977126450588439e-01,6.632268998413395553e-03,1.540868036327866205e-03,9.314908351924625941e-04,7.565238402029713510e-03,3.214152740016432835e-02,4.056522814330888044e-02,2.454299154911820241e-02
1.324711542569623028e-03,1.691811469391952703e-03,2.453745387218207452e-01,5.381004913960868788e-03,1.561737377245295657e-03,1.771722638623175489e-03,1.134332246926597620e-02,1.032750557898956395e-01,3.404660050698216089e-02,5.183965111131508263e-02
1.137851312221981569e-02,1.653295201838563596e-03,1.560866513069763817e-01,4.028078049856805357e-03,1.573767789849576807e-03,1.505629337605153334e-03,9.816722225196581816e-03,1.294074406359963236e-01,2.509429183905041022e-02,7.660650353325436368e-02
1.857834038333259705e-02,1.092137544403291513e-03,1.346240074345142201e-01,2.579831389977423929e-03,1.576234590204125732e-03,1.370419668143534313e-03,6.941349007969158623e-03,1.225488189594351740e-01,1.544907275711419892e-02,8.965969665711578940e-02
1.966999232602228628e-02,4.489324881793828543e-04,2.105393930811303438e-01,1.040653205148774378e-03,1.568478854523485495e-03,1.610873336256331452e-03,3.587933956308056145e-04,1.092926546653924386e-01,2.906984472766299243e-03,8.281050587678304153e-02
1.447038045844679585e-02,1.023948465871021016e-03,3.058198668456112990e-01,5.787413479463682448e-04,1.549918432686371713e-03,1.759634611115864448e-03,8.957176364238973038e-03,8.823800752560499727e-02,1.002543258122414599e-02,5.251212787531255033e-02
4.135064666564304547e-03,2.763700386990762797e-03,3.093235777259132901e-01,2.261953286311958224e-03,1.520060859587165714e-03,1.733462906570295246e-03,1.458021814909988591e-02,4.384691266306675606e-02,1.489475368531851217e-02,1.000461955605115583e-02
5.988905973830193664e-03,3.424431188082954509e-03,2.075877999615502456e-01,4.005261078105119138e-03,1.478505777149541085e-03,1.823210496093594828e-03,1.526451939512744362e-02,1.035443325940541698e-02,6.429643619291079866e-03,2.039712965617510726e-02
8.845080651701973593e-03,1.488236915016203634e-03,1.088598506743844591e-01,5.817390623483053788e-03,1.424937691804769105e-03,2.007632789671831910e-03,1.502212539581609246e-02,3.985476766546407201e-02,8.867395476404393503e-03,2.424413232144589231e-02
1.445893891831785899e-03,1.517760048063269886e-03,9.588273473185233986e-02,7.680949869792439745e-03,1.359135093544757257e-03,1.973410748269569231e-03,1.279541681928949778e-02,2.935419286612856588e-02,1.782072146527108325e-02,9.838083198200415352e-03
1.425835646559415332e-02,3.297684488287527978e-03,1.166984485657732440e-01,9.552540735467376226e-03,1.280994543681685536e-03,1.855691246967019776e-03,3.051160671229889189e-03,1.296686596943519287e-02,1.429682275714349096e-02,9.353807854912103356e-03
3.248674679357656248e-02,3.875795417162946135e-03,9.079177300584861943e-02,1.144571399661872303e-02,1.190513950254148186e-03,2.207048409182901186e-03,1.435392467240725542e-02,7.023881689190272781e-02,3.332934063102441311e-03,2.971653566500241650e-02
4.352276016562021954e-02,4.703539843500158246e-03,3.732328557649888801e-02,1.343342653991869660e-02,1.087736540370409831e-03,2.666135661801072743e-03,3.197542984866143245e-02,1.136921082933944199e-01,7.022703886570186120e-03,4.646112529580776612e-02
4.010782781433649274e-02,6.034380680645794713e-03,9.600315711330728585e-03,1.547126451544674625e-02,9.727748406394932717e-04,1.490732312149921400e-03,4.128416839168896901e-02,1.148881900086630298e-01,1.240168490616567858e-02,4.896297274790487736e-02
2.705774534202747689e-02,7.068165872055936529e-03,3.774799111215015185e-03,1.738767579290116660e-02,8.459148514121664830e-04,2.340038876282291534e-03,3.892935130114720532e-02,8.176272390817233837e-02,1.259987072637854325e-02,3.849057400921215844e-02
1.739534933340865577e-02,8.024552504793209737e-03,2.209447106950609627e-02,1.926414564775653579e-02,7.075460564692748720e-04,6.916393668148489507e-03,2.900012349831772307e-02,5.324942304402880550e-02,1.144414028684238339e-02,2.888986316217370676e-02
1.803115767291882734e-02,9.840673579850300889e-03,9.812545988464507762e-02,2.147560271927444545e-02,5.579108103713452263e-04,8.607381510433186056e-03,1.991704034858554281e-02,4.931343384906887450e-02,1.406545567296806076e-02,2.219279999323282501e-02
2.509979381227480516e-02,1.108468845330646407e-02,1.625195826115059528e-01,2.383438436392734325e-02,3.972168471293627376e-04,5.828372814074810233e-03,1.677333438537307805e-02,5.786797591584275785e-02,1.851883471463127567e-02,6.947305920214169594e-03
3.078342958474414998e-02,7.533756377652643492e-03,3.945738548280463415e-02,2.521800339915059030e-02,2.261416926200947568e-04,9.018142472038701354e-04,1.692706106181182668e-02,6.792165221872566161e-02,1.376064432611782788e-02,1.681512768550219583e-02
2.993647716931486027e-02,2.409132190107487505e-03,3.043132998401324452e-01,2.509980313930965795e-02,4.556938678737258090e-05,2.477137141384207642e-03,1.572982623243110792e-02,8.040004317962634595e-02,6.541060193542272937e-03,3.329100978996927390e-02
2.386866087220712238e-02,1.326457920209825683e-02,6.498740842684975760e-01,2.503655523583030867e-02,1.445312583429863153e-04,3.138510289094700173e-03,1.525134570664655326e-02,9.191989809419662261e-02,3.164846296516662938e-02,3.003866716668897319e-02
1.947611293253324535e-02,1.718541586292682971e-02,7.712415521780037198e-01,2.719777462731122475e-02,3.446117803245797844e-04,2.721782698585698684e-03,2.152357413655388643e-02,9.811219850763025496e-02,4.335837455622969933e-02,6.736757648982001287e-03
2.133688241907595248e-02,1.241794448124185386e-02,6.646012015840824239e-01,3.155716899730000302e-02,5.531731148573796946e-04,2.691012608445510126e-03,3.276894477921633159e-02,1.083251707144889386e-01,3.532017115651538142e-02,2.786149196552737892e-02
2.636000539656177533e-02,3.324994502553685685e-03,4.610119110909207119e-01,3.598798850593355747e-02,7.677966574526591060e-04,2.944093276594395014e-03,3.878798636729101357e-02,1.343639606157681354e-01,1.595416920228241026e-02,5.956774590101531625e-02
2.797844747288956435e-02,6.387657486963452778e-03,2.423686757984674089e-01,3.902612727849029406e-02,9.902681910896251206e-04,3.126507697775525018e-03,3.485602592941931810e-02,1.641331399221541976e-01,4.565743596868322707e-03,7.740677452156909111e-02
2.185699943143119481e-02,1.545771792906839442e-02,2.908467379532006861e-02,4.108977401911829280e-02,1.224539777669591016e-03,3.114745053039209236e-03,2.682452045860182419e-02,1.621292397115090822e-01,2.290265738298356141e-02,8.009324486495801587e-02
8.135642253600298968e-03,2.186036042641799695e-02,1.452542358312489401e-01,4.315115047384017466e-02,1.465759702513088790e-03,2.008914765652777389e-03,1.891054437210199640e-02,1.074232699554011905e-01,3.946735328839780232e-02,7.063285040603928255e-02
7.153844394685970887e-03,2.373350471614816409e-02,2.415534647200787421e-01,4.567381077349910723e-02,1.704359839387728070e-03,1.000113754331720308e-03,7.630772691282975383e-03,2.908199009263748649e-02,5.371450140052046185e-02,5.347318223070271492e-02
1.515851215497059611e-02,2.239626384882042326e-02,2.611520415901315562e-01,4.863543212239231778e-02,1.949605684544428608e-03,4.156016985377614797e-03,7.200086542865139633e-03,1.265553553103478980e-02,6.435251824470157589e-02,3.902187244607352445e-02
1.328854053832254252e-02,1.959213043397807497e-02,2.249587548869696751e-01,5.137695701803568493e-02,2.221491166634194207e-03,4.067601165515020642e-03,1.700157081028479122e-02,7.791225048071753756e-03,6.970935055307184158e-02,3.650429406118954612e-02
7.686294266852859020e-03,1.406492007985321417e-02,1.351448104098682546e-01,5.296250464475141251e-02,2.500235868668114828e-03,1.872274160446415429e-04,1.583054050416392994e-02,5.116610727918134705e-02,6.660860893465714305e-02,4.162031978835400992e-02
3.156948821496093939e-03,5.548769686723761460e-03,4.503732337553762594e-03,5.326474257374098215e-02,2.742273703362069041e-03,3.995693025944560550e-03,7.764174795440642596e-03,6.660335381089937945e-02,5.398973698427584483e-02,4.552505343985643188e-02
2.655622594072344547e-03,1.342375464313152415e-03,1.062662329846078696e-01,5.202527411699871263e-02,2.988522164990297433e-03,5.426384640815550171e-03,8.434559571139418205e-04,4.825119780090068172e-02,3.857431523274867935e-02,4.972509248758202882e-02
1.052949396514344174e-02,2.457971920556965926e-03,1.322750743383384053e-01,4.678371494555697702e-02,3.333050090745764363e-03,5.064554003711909877e-03,8.066100125153611092e-03,1.414896132000427464e-02,3.101873597216942002e-02,5.430637795499325404e-02
1.429343572333868252e-02,1.318435297531176525e-04,7.282212934430148943e-02,3.590152335198696504e-02,3.690873015658295737e-03,5.526492822825692167e-03,1.389685763560595359e-02,2.898133901952586189e-02,3.537955022851026199e-02,4.344762495182429018e-02
1.116746744986387048e-02,1.037970755181107790e-03,1.944094191664972812e-02,2.578242668859336353e-02,3.858501196694620518e-03,6.654432998809215079e-03,1.850799314923552361e-02,6.384452718209482347e-02,4.698028067469418867e-02,6.713614805631306151e-03
8.786632064182588880e-03,1.374616458126148508e-03,1.089334079315518455e-01,2.891204998466651022e-02,4.014145229296882042e-03,5.649850033848243316e-03,2.301631272142868473e-02,5.405268073892298408e-02,5.979613493287722070e-02,3.648212847624708599e-02
1.444545405000658214e-02,4.271468028245435991e-03,2.023000468018398834e-01,4.571738450849957558e-02,4.611017894417290472e-03,1.486600055604010576e-03,2.643900911888174762e-02,1.571311902213186687e-03,7.057271170296797180e-02,5.815822504162535683e-02
2.462393319245968770e-02,9.531747370280816561e-03,2.908482722449689528e-01,5.175316287038703861e-02,5.258233849157701797e-03,3.265368563859119815e-03,2.392481458811610701e-02,4.792471832917648278e-02,7.518027262419307855e-02,5.731751722641441338e-02
3.120785710349514158e-02,1.294682614491140214e-02,3.013865804169076901e-01,1.967599324682329023e-02,4.649079625360177243e-03,5.890586852941996285e-03,1.271861431035119228e-02,3.946846259685608121e-02,6.563068035610634954e-02,5.253096774405387193e-02
3.226268650962447332e-02,1.171479176917179441e-02,1.612432734483783547e-01,4.254533987440732579e-02,2.713349826425539863e-03,6.368485452497309705e-03,2.576348325049664274e-03,3.769596704926244171e-03,3.592587928022168003e-02,4.814436578844444314e-02
3.291476220455191726e-02,7.992277378889764070e-03,8.236734373377872787e-02,9.397925556919820012e-02,1.693454892506754319e-03,5.624271359623851663e-03,1.390704769563081040e-02,2.481296813938968504e-02,7.119432159436637694e-03,2.908480087711365347e-02
3.826261072964651927e-02,6.496074766822034809e-03,2.684394456518210403e-01,1.062484781918050653e-01,3.376653576376842381e-03,3.488789078367182488e-03,1.683362498976358895e-02,4.153192751719475724e-03,4.315686248366028266e-02,9.850140617621525388e-03
4.504952939459899719e-02,8.048669772780511072e-03,2.772850358835908802e-01,8.764639480780199443e-02,6.232244103168616510e-03,3.806094671367872204e-05,1.307708768974764381e-02,5.023901790012708091e-02,5.447058709286927564e-02,4.366240881936896828e-02
4.183171932571505547e-02,7.355551496595525221e-03,1.438622135839241201e-01,6.013716244622699381e-02,7.053461968100716364e-03,2.767292415709143080e-03,8.771269554166112245e-03,5.331487957616180828e-02,4.257081759257461129e-02,3.889514745205992913e-02
2.325448217817124505e-02,3.799216552743617595e-04,3.837530945451651451e-03,3.472367381349322074e-02,4.655152754476254116e-03,2.572579095430716032e-03,9.635120751734740918e-03,1.147740519405889351e-03,2.539405703879434040e-02,3.976313002778431548e-03
4.103976066653429152e-04,8.684509204524853629e-03,3.839493193448702962e-02,1.285406303386540938e-02,6.239188521427646615e-04,5.554003755608540645e-04,1.548389467764257378e-02,4.515900547283918653e-02,1.884725278156932152e-02,4.584300532529472783e-02
1.151176666943737846e-02,1.230269512144949000e-02,1.641939611723325365e-02,7.459055902151207063e-03,2.611083261785770299e-03,3.852250769528099434e-03,2.041162679726475290e-02,3.002544253385472026e-02,2.270737675270748795e-02,5.524252004637588559e-02
1.104252968932346868e-02,8.774797987987619646e-03,8.103001693809804007e-02,2.896055058716584529e-02,3.324710613893915988e-03,4.643151625373663320e-03,1.958233067746983566e-02,1.799688624282522534e-02,2.479503792204159826e-02,4.121890570072873905e-02
8.203929050802366216e-03,2.524687097517525590e-03,6.213743266465402565e-02,4.282025480134038498e-02,1.255780816739511703e-03,2.990540059376008315e-03,1.489013021533630229e-02,2.877234114307563456e-02,1.970531481910846663e-02,2.811662555244038783e-02
1.001507808318392520e-02,2.003426424308616446e-03,4.344653109862008089e-02,2.432673406076462166e-02,1.951717949943527868e-03,1.374092346534271482e-03,1.286056079330751001e-02,1.384929144729713998e-02,1.918864651631923407e-02,2.088070877060812722e-02
1.506452202218316015e-02,3.332732261164171594e-03,1.214879731336860752e-01,3.820859588384091510e-02,3.812480464750806451e-03,1.878138975986020200e-03,1.580337217910630226e-02,6.142522575840599075e-02,3.648472030487365236e-02,1.358694215171719205e-02
1.988304255380748259e-02,1.824595800187462334e-03,4.944987592398461529e-02,1.159659026618079375e-01,3.357921190780815447e-03,3.880528716834212924e-03,1.635539927811814620e-02,6.809926182655452742e-02,6.504039580540957322e-02,1.131458152184847132e-02
2.548406594614330625e-02,1.287369127726508636e-03,1.564176039754283654e-01,1.636648772911125649e-01,1.961384828388234355e-03,4.848189396737177977e-03,6.788320201007729156e-03,4.048861454043950481e-02,8.478240339045282903e-02,2.370548847281248733e-02
3.453778593788679740e-02,3.543719710107358194e-03,3.496844946555680567e-01,1.661718391906808479e-01,1.562900261840534594e-03,3.322688435307756712e-03,5.910210213746443231e-03,2.738236903396643052e-02,8.631453193209714936e-02,4.916980291404890457e-02
4.319064048315496285e-02,2.131362598685782733e-03,4.123115252783872142e-01,1.417512189332874040e-01,2.720779380277853036e-03,2.098935055836111683e-04,4.971521056893937057e-03,6.111263373662369214e-02,7.683817104705507883e-02,7.585522498260907631e-02
4.191053393318132370e-02,3.107853175802121823e-03,3.487326107043268175e-01,1.082416346498072390e-01,4.589579197339000056e-03,2.962028971118475795e-03,1.256055562409137509e-02,1.064826300736708281e-01,6.445940036219749425e-02,8.914598016754951559e-02
2.738903519765569644e-02,8.936472250723874813e-03,2.246198104886759361e-01,6.948719863057022106e-02,6.214331277181798369e-03,5.684398730869308879e-03,2.942347762492301608e-02,9.307991742911429778e-02,4.794591252000857812e-02,7.738222468396580012e-02
8.212374568656677018e-03,1.287941184298473443e-02,8.973939776304266924e-02,3.130485820401485153e-02,7.534284384985556922e-03,8.108132267687246167e-03,3.008549863501100777e-02,6.183378049723410076e-03,2.420280472738085484e-02,4.148316460973526520e-02
5.431748760727573080e-03,1.568322402796811649e-02,1.087700349188732915e-02,7.085184374136276227e-03,9.147133563455048244e-03,1.034966897274283704e-02,1.736476378101062604e-02,9.341286869180782937e-02,1.224874562726447833e-04,7.809032543570773935e-04
1.288014217254743188e-02,1.705959045359408191e-02,2.428831092646492607e-02,1.435665583126835912e-03,1.081050716810875827e-02,1.207947742598566854e-02,4.128039062901303104e-03,1.512995236952268674e-01,9.049777074825810647e-03,2.841409762623731822e-02
1.817315365413887246e-02,1.271252513874765455e-02,4.678459919108290954e-02,3.555021806566508250e-03,1.033007246836342014e-02,1.181650747475035228e-02,6.193504635736667152e-05,1.725008004693732999e-01,4.026438504517564250e-03,3.449077369656655678e-02
1.866197442462858708e-02,4.350502344168604655e-04,1.185734732220982690e-01,3.690749182564968464e-03,5.303721924669075639e-03,7.843808119686214789e-03,7.517153085503321813e-03,1.752000003212414447e-01,2.810058862735131599e-02,2.518525403074163560e-02
8.340824156746574208e-03,1.905637322834440386e-02,1.400120816757920994e-01,4.468474355540280434e-03,3.275266083894407682e-03,1.333262722639308191e-03,2.208408569521106563e-02,1.481561123532179891e-01,4.402573351598194906e-02,6.551296361144076305e-03
7.970065953417652255e-03,3.617129939165020930e-02,1.774590726414852215e-01,9.700621214723887525e-03,1.067025066670030525e-02,3.110200440033980204e-03,3.294773190571585741e-02,8.726234919464492812e-02,4.296027154621714916e-02,1.966295789049696610e-02
1.635060075490813933e-02,4.635689321021065762e-02,2.889088008101274863e-01,1.237527250686208148e-02,1.313959494094816584e-02,2.197479627113440616e-03,3.313581998990073468e-02,2.273808672970951614e-02,2.924977361306764501e-02,4.984664684039652460e-02
1.457372742332094587e-02,4.821275586460215673e-02,3.802052291565294895e-01,1.554760972638748705e-03,1.201783577133486505e-02,1.798948972497298703e-03,2.704032037009917316e-02,2.804251480514012573e-02,1.031627683395251044e-02,7.677770178402312795e-02
1.789547005595290216e-02,4.512996108560932834e-02,3.233677686534089379e-01,2.237225464000447417e-02,1.153438967085444744e-02,3.777612594398862666e-03,2.251826115433237102e-02,8.585784940432283907e-02,8.600288143033756050e-03,9.478912288051501156e-02
3.503188393355366470e-02,4.253926436101805597e-02,1.731718886653500766e-01,4.344701851100420120e-02,1.334238117059815404e-02,2.380845966003503240e-03,1.777511679936276401e-02,1.519031616416901542e-01,2.216213466649388439e-02,1.018251230124498780e-01
5.215781802759425489e-02,4.211813910480648182e-02,1.151686231928517878e-01,4.395227656313017983e-02,1.486303503464014852e-02,1.334341830369761839e-03,4.283306543189540835e-03,1.771753530244359331e-01,2.664975836381803381e-02,9.681887021863082310e-02
5.276148790398624278e-02,4.071881507387686838e-02,2.084868708721168140e-01,2.499279527155461034e-02,1.270656709554704965e-02,3.857060993131253279e-03,1.797384726675608363e-02,1.313215774458709462e-01,2.609719346403852058e-02,7.951884824848104438e-02
4.060740427986857248e-02,3.544132435354932498e-02,3.172266516381894719e-01,8.282622002680362777e-03,6.679777340823452383e-03,8.343168604014863932e-03,3.740202779546356743e-02,5.971193779089371823e-02,2.885863629847677109e-02,5.400859982029027062e-02
3.073131031147350797e-02,2.676775300524743967e-02,3.080124065715813542e-01,1.072027018415591323e-02,7.038576954146854789e-04,1.063008367427392860e-02,4.508429075301421951e-02,3.161941577770251838e-02,3.442357060750222963e-02,2.904464425289813093e-02
2.768352972800953299e-02,1.669970230065448077e-02,1.915556735319768333e-01,2.302665864942429752e-02,5.669424869634921748e-04,8.745218375175382863e-03,4.385147704406752722e-02,6.117568080634146893e-02,3.225472989699853382e-02,9.090961538054918162e-03
2.378096376708982093e-02,6.827143191737515548e-03,4.147421766536725507e-02,2.386117853410280390e-02,2.999498452443268362e-03,4.539793983518644431e-03,3.887557663326100810e-02,1.146837909743301798e-01,1.835772424678483450e-02,1.278903287358637564e-02
1.424221112890150520e-02,1.185292248878561539e-03,1.118321353313904837e-01,1.032538641338407240e-02,6.631834563671842354e-03,1.273838999041195267e-03,2.753776645723648997e-02,1.730832703264206796e-01,3.279156959270479108e-03,3.960600382360321414e-02
5.067151234250699340e-03,5.613898257347376894e-03,2.526646229708378044e-01,1.675864298602044566e-04,6.785248061705105235e-03,1.051803644549779895e-04,7.195705391412935206e-03,2.445229981961792587e-01,2.034730704620644169e-03,5.174298928652516782e-02
3.665728168526666188e-03,6.470583578771630685e-03,3.304059704016124588e-01,4.102276999557003326e-03,5.017576450713377365e-03,2.638601870913318860e-04,1.294945009479212851e-02,3.193775399241158275e-01,3.046100367002581473e-04,2.860527294902521361e-02
7.287889616366674365e-03,5.795964944385853176e-03,3.078098166335522246e-01,1.168570621748387869e-02,4.382501572787587778e-03,7.724026645689605671e-04,1.971559214786333669e-02,3.569519859410224538e-01,3.259230370760662736e-03,1.393181161685337968e-02
7.515387388440852509e-03,5.233889690091789518e-03,2.209282292345664256e-01,9.117974016632406434e-03,5.264014003831783868e-03,1.112152914773295457e-03,1.408863825325771223e-02,3.352903556179811506e-01,1.745103719664573699e-02,3.861750617549192244e-02
2.668543314144807173e-03,4.793249443093046055e-03,1.413501469479291894e-01,2.195463114282377327e-03,6.293227901968122782e-03,1.765639764768678994e-03,1.029243015477620399e-02,2.870256838011641665e-01,3.643552689666792327e-02,3.585193072405185727e-02
2.511061848435623602e-03,4.491875220875539421e-03,1.024615706440140661e-01,1.101511348463163342e-02,6.538264040667834780e-03,3.983219115874131119e-03,1.653069467812753185e-02,2.637267170399155147e-01,4.590846494533860900e-02,2.675709515088982304e-02
5.818034006122668050e-03,5.289096152924561110e-03,9.893040633481865742e-02,1.073182911967150883e-02,5.699900991618159045e-03,7.186228980523012844e-03,2.682192460411920651e-02,2.748950920082126048e-01,3.876787662590631262e-02,2.315426530214452494e-02
8.147114981999931463e-03,7.716905728348120996e-03,1.330029824963080420e-01,2.229002767083045847e-03,3.912557713288348192e-03,8.934048802608677425e-03,3.223551425288875838e-02,2.767115952667313916e-01,2.497319036795646319e-02,1.411815968831674206e-02
8.581452845626580742e-03,1.099490678403115644e-02,2.180143521796382988e-01,1.227115211015270858e-02,1.692357896038842536e-03,8.204157144870416127e-03,3.050843506393661683e-02,2.250694012313399495e-01,2.094125830539664279e-02,1.054480602270913350e-02
4.742900698999684070e-03,1.376619166161638548e-02,3.432594528050533222e-01,3.145297507073886722e-02,4.290866327678193341e-04,7.156274527953534852e-03,2.473972851081887928e-02,1.371643277073599509e-01,2.889622170247610131e-02,4.568483026047043261e-02
3.280766624803240893e-03,1.543357156092477027e-02,4.696524162389016377e-01,5.185987133646337288e-02,2.099799969400831592e-03,8.516913262719246619e-03,2.049755849906840025e-02,8.293271398805623917e-02,3.440457602183837754e-02,7.894650526098948018e-02
1.084100784856362361e-02,1.769048964748132918e-02,5.679134015683863224e-01,6.932841043155921201e-02,3.554846883804539930e-03,1.142076156167508467e-02,2.208550374186362200e-02,1.025626163282679360e-01,2.513603404994773152e-02,9.978047318391933262e-02
1.250805592452282865e-02,2.315475280290929874e-02,6.370825183831446692e-01,8.527098489561925343e-02,5.513289474213508949e-03,1.195257499530235148e-02,2.670443157298059422e-02,1.578296801133970972e-01,3.598784960397592020e-03,1.014420622943342370e-01
1.096621924536692917e-02,2.927706255745773228e-02,6.687969635917284661e-01,1.035979731330680942e-01,7.071403504588091339e-03,9.372346347704563208e-03,2.688708474691748826e-02,1.870807731045882882e-01,1.945341314370974475e-02,8.396687562126972648e-02
1.645651792741338257e-02,2.737711153823376223e-02,6.257031820364840069e-01,1.176375244217129495e-01,5.160960001842665804e-03,8.486508016805432292e-03,2.014405372357186419e-02,1.752472958046133178e-01,3.661529600014951785e-02,5.660097307513758946e-02
3.087227355052627603e-02,1.422149322735230363e-02,5.005759447091016057e-01,1.103490872165785036e-01,1.052759759003729558e-03,1.242417381408512413e-02,9.741816237217097024e-03,1.396184054873194913e-01,4.754368282556302450e-02,3.394031692851531140e-02
4.113163619688604833e-02,2.230808034206140935e-04,3.629104037245992065e-01,7.497771713945543259e-02,7.328134857832135224e-03,1.703947283576728172e-02,2.449409250486304489e-03,8.326714205711456540e-02,5.407813528131805852e-02,2.895809137614151901e-02
3.677075148989500386e-02,5.045729955099360377e-03,2.718973360407366258e-01,2.653452071945648638e-02,9.201404916973840442e-03,1.682362645452817329e-02,1.621311563186459206e-02,3.419410142546801951e-03,5.272588972627651610e-02,4.458002190902165401e-02
2.366495040941992561e-02,2.954195026047179342e-03,1.772245655534529507e-01,1.498423256266615336e-02,7.206765433614571725e-03,1.216621094829696721e-02,2.881359968713100364e-02,8.105830239204210586e-02,3.715629210746673045e-02,6.650602353778817255e-02
1.128395689741983760e-02,3.307783348551588971e-03,7.378724102754766201e-03,4.413359468701532479e-02,4.299506794223854900e-03,6.592182602677831502e-03,3.785940473195913841e-02,1.520109257453489127e-01,1.166975898649165455e-02,7.404999762167693844e-02
1.737697802898641088e-03,6.471473706277286811e-03,1.774619238189706627e-01,6.513080252196884468e-02,1.286623588775857906e-03,1.222363866937219677e-03,4.523059701395575061e-02,2.217591881162193357e-01,6.614564497417934827e-03,6.601836690712858946e-02
1.837567308197622998e-02,5.575070725998722623e-03,2.432729240100990620e-01,7.628124565739378971e-02,2.010945829783326779e-03,3.924960357851938093e-03,5.151943542604837251e-02,3.025794893652426487e-01,5.273545298785002958e-03,5.986592051888309923e-02
3.067187864682930851e-02,4.973966091604926573e-04,1.701175052595638448e-01,6.965808581771779084e-02,3.968662992396729434e-03,6.733978973024562671e-03,5.061129517659330307e-02,3.694953871071618434e-01,1.160916764922155855e-02,5.840687977810940512e-02
2.944131226400437812e-02,6.341925566617552350e-03,6.052028205432024438e-02,4.439618293862816756e-02,2.715164857285009420e-03,5.007952174845566387e-03,3.783626511177604762e-02,3.942857364889215677e-01,3.181404110209168357e-02,4.270176641101831871e-02
1.970184769730507282e-02,9.996362316667171607e-03,2.177624335673818828e-02,1.502626443814897642e-02,9.498585990091910295e-04,2.232690055031351720e-04,2.033669233129536957e-02,3.925707111221893308e-01,4.592226439188321074e-02,6.948692632970606721e-03
1.504916300333581161e-02,1.456667081100041644e-02,9.612612422256348876e-02,3.727426196056465163e-03,3.965156009983238257e-03,3.193884834843193406e-03,1.072460873550754382e-02,3.986906851610457214e-01,5.002835636001692204e-02,2.565315335051695372e-02
1.976271984453511696e-02,2.049059386124038248e-02,1.493818034204041634e-01,2.027096485876034304e-02,3.851635908519095847e-03,2.431801165848192312e-03,1.220312710084873672e-02,4.190723797522557525e-01,4.632529199946359283e-02,3.049853360175369330e-02
2.489293908316904044e-02,2.350735483353215069e-02,1.077149093070541158e-01,5.014623547790641317e-02,9.858619745848212507e-04,8.770979568955203625e-04,1.695568847079341121e-02,4.384068639223211994e-01,3.901408914193185001e-02,8.022117497043774678e-03
2.178442739438354175e-02,2.145180474044690311e-02,3.516481553947023442e-02,6.858034232835626132e-02,1.799018237553879880e-03,3.059873836884347692e-03,1.738647162415124167e-02,4.400860049401971730e-01,2.595537346692210201e-02,1.909329318200057163e-02
1.286784368688172545e-02,1.805472766828506576e-02,1.616771655352161330e-01,6.481208082461982489e-02,2.526800078992196084e-03,2.779263261692124266e-03,1.316554343895271102e-02,4.017448135603465253e-01,2.803416556629335921e-03,2.765682336113798462e-02
5.997270282807401487e-03,1.778918800987225324e-02,1.565448389150582431e-01,4.611550094596929272e-02,2.455919835769226379e-03,1.402823724403964422e-03,7.981085177323436058e-03,3.102410316467354989e-01,2.256604099323028523e-02,1.600945159374057153e-02
3.167592083068731038e-03,1.980750526011396118e-02,3.337218173532161686e-02,2.297626033527197520e-02,3.610176186490382695e-03,7.930628930932754174e-05,3.686820145579861041e-03,1.955890864989393296e-01,3.318859674198709059e-02,1.329070726804678845e-03
6.816270961757867064e-04,1.946873040655175760e-02,9.759418619684126495e-02,4.459174208215173287e-04,4.975093191353281187e-03,1.986557071822618939e-03,3.952467125156182599e-04,1.054537474015571491e-01,2.427555858226246310e-02,8.256252958818644655e-03
2.725323821816121213e-03,1.460250839959098025e-02,1.510704448411267775e-01,1.904121639468287636e-02,3.998997616275210346e-03,4.258361342937961452e-03,3.827766618102900701e-03,3.657871321161357964e-02,8.989994703267126241e-03,2.233824764963005666e-02
4.054808926104127437e-03,8.143063346892793000e-03,1.258122021606992713e-01,3.447625690079430399e-02,1.423526193625452739e-03,5.963371216149359125e-03,3.959363975582367093e-03,5.323338500475635615e-02,2.505636888005093391e-04,4.178435310359690513e-02
6.682794810623131701e-05,4.858528540951732172e-03,5.910965219615099686e-02,4.816201421864203108e-02,9.670067160005322649e-04,6.037555531386333378e-03,1.002134351915894873e-03,1.553133252137546827e-01,2.384541041465721486e-03,4.573368130930570430e-02
1.147200687664792773e-02,6.744691455377135880e-03,2.712126753868878554e-02,6.249787517747380089e-02,3.727546843956304132e-03,3.600484338704450053e-03,1.023925114141949026e-02,2.011279329318383380e-01,5.604473320690467678e-03,1.875088891167197083e-02
2.763164254000189182e-02,1.130297729237651760e-02,1.093266215345945480e-01,7.373462278054611352e-02,6.590937690284616630e-03,1.015717905631501397e-03,2.055321954057100220e-02,1.644918625096235543e-01,1.119094338513392482e-02,2.219523412537659571e-02
3.800890988029612810e-02,1.369624429600255211e-02,1.410543206929364413e-01,7.226457892699571228e-02,7.023058611146196575e-03,5.193774347562141354e-03,2.505774635415100940e-02,1.066824159174035169e-01,1.547191765323167531e-02,3.896211930968892373e-02
3.128264688224002138e-02,1.146202822373615891e-02,9.944901590996954588e-02,5.141821548831664035e-02,6.003861366108365072e-03,6.261262034909344590e-03,1.573717554598534629e-02,9.270628365090113898e-02,1.534486192229988014e-02,8.659943388681748053e-03
1.045062309568713099e-02,6.904168911623570493e-03,2.576801076386107253e-02,1.626297475937276901e-02,5.388990834519287627e-03,5.032441774598410932e-03,5.526673960166136879e-03,1.132528209149561704e-01,1.140987723287237125e-02,5.107183931001158667e-02
7.351786489976653780e-03,2.851687691602206379e-03,8.679756929727666659e-03,1.782135283884905136e-02,5.306421110279431821e-03,4.525809757473753421e-03,2.325106641365720997e-02,1.108449162507193775e-01,6.278444396475160207e-03,9.347030197010823549e-02
1.008847158141576092e-02,2.405809881218064737e-03,4.753698851146163223e-02,3.715499406052839848e-02,5.052826476750533861e-03,5.356760581432148428e-03,2.569927174667269165e-02,5.463519124923418152e-02,2.499576086893076816e-03,8.594838053981650183e-02
1.917116910776746515e-03,1.152100738920990713e-02,2.002276402181115134e-01,3.993453217261781762e-02,4.560087837856530678e-03,5.674003831032184419e-03,2.072827031050865354e-02,2.293830258148017720e-02,1.762501822218418869e-03,4.097907901929483815e-02
7.796996898663876435e-03,2.102234880931005273e-02,3.898444473510652708e-01,3.366388853891894711e-02,4.156702775123158333e-03,5.333809891857624330e-03,2.250184048444578422e-02,6.447646792805472593e-02,3.512689360415377927e-03,5.881978752633990233e-03
1.643696374436711544e-02,2.433302870164204268e-02,5.200270073568821205e-01,2.446194219829278538e-02,3.891703140473055759e-03,6.211004517847317982e-03,2.865149949945782620e-02,6.053016944964544066e-02,5.377771491564392430e-03,3.975618849084161521e-02
2.398771721046700361e-02,2.138152538878085318e-02,5.468353432518929802e-01,1.146398552825870359e-02,3.602116668442582360e-03,8.323050379724649533e-03,2.525507489079843737e-02,5.819827682205470920e-02,6.839734951697529035e-03,6.550008328941415991e-02
2.711688909781720738e-02,1.832349809200739185e-02,5.072774322278802428e-01,7.587187932220533851e-03,3.238175194292221455e-03,9.506020421841102422e-03,9.894180499598018153e-03,9.417332628006114259e-02,9.131413223831957859e-03,7.497339190568577671e-02
2.445991437000587243e-02,1.758882561403330921e-02,4.382272074208038437e-01,2.715557351421862484e-02,2.900610312316034226e-03,9.142327508761897634e-03,5.269561895077099108e-03,1.545712260546610040e-01,1.046910657482545692e-02,5.286451911287696342e-02
1.939171979626147860e-02,1.533595873588059974e-02,3.257212984656461807e-01,3.597695524358272140e-02,2.671369216948909185e-03,8.687300242665858124e-03,1.090372227384242901e-02,1.945838120207782351e-01,8.008175461542428597e-03,9.862309084302781428e-03
1.257100678891625960e-02,9.851966994722063595e-03,1.642707675462689865e-01,3.167814602202759233e-02,2.455241475393092881e-03,8.416253479728129025e-03,8.384649933774860481e-03,1.687695332883370758e-01,6.195021159627562245e-03,2.587457658037491115e-02
1.599085314003605759e-03,5.479924195199322584e-03,1.043667319304859148e-02,2.625544599544998858e-02,2.090691273203184458e-03,7.144658566447767943e-03,2.791727808546203005e-03,7.339196277910547961e-02,1.465291042719649162e-02,4.220744413852554888e-02
8.615573881036772685e-03,5.734992330363545068e-03,6.365308119695170519e-02,2.926458676696129524e-02,1.725294623850297422e-03,5.411123374986005242e-03,1.597330415649636124e-03,2.086877959900923160e-02,3.355109673987553831e-02,3.858359352942849346e-02
7.594652223490332490e-03,8.418913983673174256e-03,4.712912440002722109e-02,3.203468072139707690e-02,1.713974979421764447e-03,5.326234374180368117e-03,1.315656930242139946e-03,3.441462902232270138e-02,4.789921340260454297e-02,8.696296815658763682e-03
4.785156024629865466e-03,1.058343861966012933e-02,4.504541337226428133e-03,1.924079503491902751e-02,1.755750488080749143e-03,6.564766165113919590e-03,3.199052054300591339e-03,1.377213185141234336e-02,4.219058698265326646e-02,3.735676235870164646e-02
1.586633999995490027e-02,1.322769913575921191e-02,3.539477985850383174e-02,7.750069153850677045e-03,7.706381337641891004e-04,6.181127671560274206e-03,6.822221335426182330e-03,3.590120701294367833e-02,1.712540202209952497e-02,5.490847586318872015e-02
1.640095433982127412e-02,1.771820585393191552e-02,4.239625354475321656e-02,3.047153986233278392e-02,1.539077917079976652e-03,3.571227197985680103e-03,5.893373740468883619e-03,4.049919059571426699e-03,1.263250350810673529e-02,9.410159819997005598e-03
9.320945042926105997e-03,2.200453071581669542e-02,5.629321619422976430e-02,3.578718629034861182e-02,3.702830256845015145e-03,1.877841807453121178e-03,1.854094202491434785e-03,3.656028555222406995e-02,3.348347511692828515e-02,7.150774165659677661e-02
2.593966657975134947e-03,2.378007835144772472e-02,9.204047978722701417e-02,2.928150439220672877e-02,4.091443054554582369e-03,2.868973579260692720e-03,2.779458092926480588e-03,6.108464392009003985e-02,4.080409071719746233e-02,1.229783882563388886e-01
1.921793367305925241e-03,2.353859608752940577e-02,1.376097777713332360e-01,2.448822152753498543e-02,2.828919326792435612e-03,4.097969432730396572e-03,7.714383161083285603e-03,8.056568476086602149e-02,3.591527634322289053e-02,1.122807268011433435e-01
8.004328168716318484e-03,2.193704012253441110e-02,1.763183957476884556e-01,2.602899381456853789e-02,1.239882413983496665e-03,2.983710658725278846e-03,1.297684928318163303e-02,8.948519406110019836e-02,2.260784648667810842e-02,6.372292621145565772e-02
1.481915973293769506e-02,1.804645487803782297e-02,2.011570131895330238e-01,2.760010124883354593e-02,2.252609934631427191e-04,3.196298240609815470e-04,1.754422601502215323e-02,7.612222979063944239e-02,7.171030076663181124e-03,2.555782644424427902e-02
1.592136487546697010e-02,1.147355781806412393e-02,2.103929060563308473e-01,2.182415172952645657e-02,1.190712623658684503e-04,1.908688378053930140e-03,2.046839069124610500e-02,5.567845850593931833e-02,3.819399106120120301e-03,2.309035419358983210e-02
1.516833845036524679e-02,2.553821958993865611e-03,1.915282943535288052e-01,6.877860186122355772e-03,4.026991100156613907e-05,3.194694549969114613e-03,2.103697565384321858e-02,4.052986340833625301e-02,8.938695228460016504e-03,3.712639521692189665e-02
2.059581052235439844e-02,8.015863525663297420e-03,1.205590458362734985e-01,1.224940771133855265e-02,1.574036749001407349e-04,3.853182235287757728e-03,1.909540293745201622e-02,1.802351843420661043e-02,1.182447359047727152e-02,3.187188424880452176e-02
2.653894785699643932e-02,1.602243824423936827e-02,1.847320294655931117e-03,2.420260113232862789e-02,2.838856862286668779e-04,4.154372753014241165e-03,1.638247850188589289e-02,1.211315161787387094e-02,1.332834255007331672e-02,4.646581125126052203e-03
1.782767628343065111e-02,1.519745295471801316e-02,1.082709662904211140e-01,1.939091053782837984e-02,3.518224183271581856e-04,4.624641673540883305e-03,1.468407578269517386e-02,2.643169333575904126e-02,9.596976081422670807e-03,1.456948897162457443e-02
5.745931970879717895e-03,6.286950502768354210e-03,1.609641922877728115e-01,1.637339331377148620e-03,4.373474359258545897e-04,5.287084732771658510e-03,1.268171877279329791e-02,1.620902619627812707e-02,1.930785369135296081e-03,1.265239801920181595e-02
2.553880146470496534e-02,1.615712027608183585e-03,1.741437551433374920e-01,1.628081535913154798e-02,5.411439077605657236e-04,4.819042720770999252e-03,7.862399201140905097e-03,6.907618651937848242e-03,9.971047540718014877e-04,7.074158706280760968e-03
2.741134125146736655e-02,2.293312442370131887e-03,1.812652452664242075e-01,2.871582807970885637e-02,6.291245836945734719e-04,2.312719593588370703e-03,3.896329750716550364e-04,3.617883453610792194e-02,1.164696953766531685e-03,8.007210614586434544e-03
1.662219934611887384e-02,1.443326261620011880e-03,1.593457740033629166e-01,3.798938347929307902e-02,7.010197920437579366e-04,6.769090928512189621e-04,6.885361413236898258e-03,6.484327225194909394e-02,5.668694441340800874e-03,4.367184757287543087e-03
8.881821077063888070e-03,4.186926408121373171e-03,7.277562044159523180e-02,4.260337760298189835e-02,7.729498257151652847e-04,1.616438601657734474e-03,1.006739861776387822e-02,7.939735851059058491e-02,2.846989412140326151e-02,8.315431048014710128e-03
1.439807242084684309e-02,3.978883769563213400e-03,4.587524663451052198e-02,3.763249809085855713e-02,8.450333386018038474e-04,7.217427127067445216e-05,6.390060770321805833e-03,8.353811921474647850e-02,5.195397476133604975e-02,1.923197868842301331e-02
2.941713145947625133e-02,1.368813164606041445e-03,1.236518454084295643e-01,2.424852340536452766e-02,9.100399775898843340e-04,2.685916378487971864e-03,1.280468092878589686e-03,9.648956724679066954e-02,5.836096246073478599e-02,2.409515365438940487e-02
3.958717734503525154e-02,1.969773934635636863e-03,1.332246549444565664e-01,9.042252364277863705e-03,9.686784653324134959e-04,3.973092735876906402e-03,3.948721274292451254e-03,1.099396979990067552e-01,4.938863788424928403e-02,2.700693455567494683e-02
3.374884540762251167e-02,2.893110845362151327e-03,9.884412381074604570e-02,4.258788490637028731e-03,1.023724006344619002e-03,2.887610746399499589e-03,3.927217480330015553e-03,8.481156263475848889e-02,3.598329652827589320e-02,2.030893764825239187e-02
1.553137005590834140e-02,1.067359312913365070e-03,3.448844747774696545e-02,1.686010319405784053e-02,1.072727477746009735e-03,5.869237563365331620e-04,1.585850012391515698e-02,1.481315746240071535e-02,2.090116188781350470e-02,1.026646440809722907e-02
1.366173262799512227e-03,8.105235249087325983e-03,6.919470710782006651e-02,2.875452330993590044e-02,1.115003022968864268e-03,7.605575117310815845e-04,2.024897400038955936e-02,3.967159498909374193e-02,4.785446085963519780e-03,5.782817238998772674e-02
8.469228164701298259e-03,1.301405817764393798e-02,1.930240560309511022e-01,3.236694863546219630e-02,1.155413320709438706e-03,6.443644238658493466e-04,1.415454722123628967e-02,1.756903259804507705e-02,3.474696936340331433e-03,9.322029132429650311e-02
7.494994892417153678e-03,1.240355281631977044e-02,2.728606720602227975e-01,1.695553230375999865e-02,1.191961832091496028e-03,3.564780030551237245e-04,3.500639873107141975e-03,6.370762883758650241e-02,3.530880053290659775e-03,9.437184504108178662e-02
9.290152591074976596e-04,7.032976149126778445e-03,2.620762767928624393e-01,1.597246632141260600e-02,1.213075811720087504e-03,3.978644272933457232e-04,7.553084522775596089e-03,1.375523875027365450e-01,1.971220010564563724e-02,6.248213978213171260e-02
1.198355712727323247e-02,8.543068172426889840e-04,1.865588159342810026e-01,4.742992510236156839e-02,1.223034000258152888e-03,2.080877710596347897e-04,1.834679274709247881e-02,1.788386228511705256e-01,3.318941175389362314e-02,1.316304267617870657e-02
2.697283722755527968e-02,9.050672889297622578e-03,1.130126325443840951e-01,5.914567828590030357e-02,1.245821094279140088e-03,1.684662479474449259e-03,2.525094786682621772e-02,2.131232210041280883e-01,3.935797406171969576e-02,3.183473629613419592e-02
3.346136538399833299e-02,1.419252989678237986e-02,7.987325555095577123e-02,5.140531592173043507e-02,1.271426241320170857e-03,2.574785667397868748e-03,2.373464811660406376e-02,2.460022827913955490e-01,3.935873798458901229e-02,5.007873910450535287e-02
2.677102452790776355e-02,1.326262374693638023e-02,8.437767687248509674e-02,3.602594762347445523e-02,1.247499357525990804e-03,1.789071958201257856e-03,1.571570068729663885e-02,2.399759253472566745e-01,3.302561174213366341e-02,3.463743972895975964e-02
1.406269840627516303e-02,7.127837859122269568e-03,1.170148946010288044e-01,2.006142395548270868e-02,1.193671244638194566e-03,1.994610055544324633e-04,6.682945828849790916e-03,1.702749050674840503e-01,2.108165862865632456e-02,1.657547439821487924e-03
4.600548360822723573e-03,2.141449893862537937e-04,1.675149460880482888e-01,4.798440083537904195e-03,1.221940852655531169e-03,6.342666548359981180e-04,2.359997987349502467e-03,6.538876890589942481e-02,9.374002070236836515e-03,3.018157654363828532e-02
7.305390124564014633e-04,5.929654239019590059e-03,2.072714686492231617e-01,6.896142191632027157e-03,1.293192477404716753e-03,4.554372461644221764e-04,1.324845845357679359e-02,2.387149711695451398e-02,3.792917744877730927e-03,5.866491961074402767e-02
7.052461241150990122e-03,9.951213295534553846e-03,2.092104931484871644e-01,1.191084045562326721e-02,1.164700176957576046e-03,2.443269588724961659e-04,2.295754434383501935e-02,7.310219855116309451e-02,3.434287872531939338e-03,8.433939652667438169e-02
1.448894968377885395e-02,1.260026027469147297e-02,1.770527831475059433e-01,1.206732142920650432e-02,9.048363184486296704e-04,5.858373165837190604e-04,2.363804020306330828e-02,8.241029112077780105e-02,4.034303015919804038e-03,9.031271736223026037e-02
1.416657739792989701e-02,1.228443571293424789e-02,1.251584954796255977e-01,1.159978904104589335e-02,1.077080817698930276e-03,8.178864206654281460e-04,1.151846822249223690e-02,4.555187414694906317e-02,5.263570783539339715e-03,5.650416777778415056e-02
6.796039425449752064e-04,6.972465959253057802e-03,5.937226758991955011e-02,1.201700776303167399e-02,1.804923997603617280e-03,3.266487077281519285e-05,6.602839412196774213e-03,4.091924764137629816e-02,8.545982069852721408e-03,7.594993695376744437e-03
2.320306295128711158e-02,1.937691863088938926e-03,1.506089180906396152e-03,1.313197119603992484e-02,2.219067394345649365e-03,1.402673526717487448e-03,1.760220453628909276e-02,1.409681519050373644e-01,1.039514931543799106e-02,6.252409282599552531e-02
3.937946092216779159e-02,9.548097271009385253e-03,1.915296482660298893e-02,1.568629694683549430e-02,1.681801586705331582e-03,2.056256117773872481e-03,1.324456016954088378e-02,1.920448961337345717e-01,5.566836898133853233e-03,7.555706718766844188e-02
4.257201408288288635e-02,1.232928785452074190e-02,1.816324967565289064e-02,1.960181737737452801e-02,8.320737333346790200e-04,1.286272473735648996e-03,3.095539013963042110e-03,1.647817635678147652e-01,4.177382660853368006e-03,4.718923003938125388e-02
3.465921722678946826e-02,1.043278447496573391e-02,3.907356357235072797e-02,2.251301339355650522e-02,5.404125575854224839e-04,5.964442540244924238e-05,2.121299904032591596e-02,8.488613652556452338e-02,1.154560198144195457e-02,1.419172996981224802e-03
1.772783002947871459e-02,4.978191426630556270e-03,7.587860960799529264e-02,2.261264338688936948e-02,6.845261443360437393e-04,1.018921507248347381e-03,3.446436952736357806e-02,8.486913113653562699e-03,1.370139270197569953e-02,3.819032642951225576e-02
6.272668771236335553e-03,2.913800021361847431e-03,7.311132207685966389e-02,2.093497874685452259e-02,7.020680472049699956e-04,1.297380340089745749e-03,4.222027914918918823e-02,1.008574213413471338e-01,1.504006207877920873e-02,6.048239097049080276e-02
3.021823838229986334e-02,1.039168787375471803e-02,3.347542044619195717e-03,1.939821390899590728e-02,5.257298611245578984e-04,4.310351236448932291e-04,4.203269840779472188e-02,1.833265956928067930e-01,2.006117696585028864e-02,6.308617639629042484e-02
4.412557380670896479e-02,1.466042250510739622e-02,1.036410872824388152e-01,1.839539170383015440e-02,3.992539989092052104e-04,2.134849115404720363e-03,2.728240909584167193e-02,2.183117006940210048e-01,2.752196602667422720e-02,4.497020074774237680e-02
4.347639466699449590e-02,1.643531184914126878e-02,1.984664454581616666e-01,1.731448197445319831e-02,3.626955441358411581e-04,5.536797407039612505e-03,1.585476752938728669e-03,1.683067971053653911e-01,3.188715895999919003e-02,9.263118188176853313e-03
3.262665567530388666e-02,1.774228465663894513e-02,2.404698875695252258e-01,1.598260374269099005e-02,3.048333884066059367e-04,7.480675967051974087e-03,2.999950603705357072e-02,6.113730959971372392e-02,2.889820954897669505e-02,2.955178995471387585e-02
2.109645501617668853e-02,1.702143300567279804e-02,2.047648312572236673e-01,1.467562862232407034e-02,2.066812937681249606e-04,6.461633558173012631e-03,4.106064975301824960e-02,2.006779792702308163e-02,1.991203234545712436e-02,5.495899789452452638e-02
1.605288438739672224e-02,1.070871396643407157e-02,1.024716453161262780e-01,1.348104304853606737e-02,1.212564937987940697e-04,3.367501120301511983e-03,3.150572263337719087e-02,2.498754158495627986e-02,1.102343188432355209e-02,6.469130805488702840e-02
1.488983272025302951e-02,2.816896199121865854e-04,6.243620834432894381e-03,1.227704782000286522e-02,5.918626153974369136e-05,4.208421259150516534e-04,1.252137274016636333e-02,2.254809125999984731e-02,7.710799385301627361e-03,6.428571836972341025e-02
7.690943361142113174e-03,9.888520356998413072e-03,5.196925753804080422e-02,1.102822527859532303e-02,3.293058057716427740e-06,1.102384910712248542e-03,1.175299719536096596e-03,7.289563287941312753e-02,1.064599772166367232e-02,5.172386138799709571e-02
9.029244043499069436e-03,1.360638012229829948e-02,1.770275338957153638e-02,9.799035646024367024e-03,7.048959754102948312e-05,1.280598635844665961e-03,1.316771359697869147e-03,9.800207588359598210e-02,1.650937550463388998e-02,2.788641828802914183e-02
2.691749279384510543e-02,1.194168058541129375e-02,5.908197587005974138e-02,8.615471857219156315e-03,1.303654036431462675e-04,1.214066274519447946e-04,9.574966538108358946e-03,8.726945656496490344e-02,2.209296974560303814e-02,1.339623722890739485e-02
3.774522248248943224e-02,6.600405391755458963e-03,1.413001499985543918e-01,7.456841070418166600e-03,1.802413702434506012e-04,2.260986084201470001e-03,2.068556718442639275e-02,4.026165653268106576e-02,2.715956013763032306e-02,2.954459680849310863e-02
4.208643622693206826e-02,1.540671073381477511e-03,2.164671546898594146e-01,6.320220308373188621e-03,2.256587779667130231e-04,4.114868345482379508e-03,2.190608221402012487e-02,1.937179191401521353e-02,3.271584818772496628e-02,6.361471948539143551e-02
4.266140097479383803e-02,9.403094863022661010e-03,2.664464983523414099e-01,5.224865569958762022e-03,2.673944916406562002e-04,3.400328586347767419e-03,1.263304544187749713e-02,5.170735220670035631e-02,3.666525015916979185e-02,7.743016594782059503e-02
3.778619806124756952e-02,1.291361802049599203e-02,2.528643591877858254e-01,4.181855096837646356e-03,3.018281306303325848e-04,8.470580999672307080e-04,1.479596072963648701e-03,4.048746594359749207e-02,3.355956878646739611e-02,5.599300263668415684e-02
2.463297034261277552e-02,1.327841799802662558e-02,1.523187308077514346e-01,3.191426736855637082e-03,3.290360729874895859e-04,8.924494502831458592e-04,4.658234716755266062e-03,7.229922935229808265e-03,2.057668958350249155e-02,2.481636077432993609e-02
3.978447656404826734e-03,1.512466084080346142e-02,9.683226431862661590e-03,2.256940730437547067e-03,3.527887890772937241e-04,8.811664037125263669e-04,1.028779005937554246e-02,2.628019544245582123e-02,2.230387501534093243e-03,8.497952960161399630e-03
1.843540907205763746e-02,1.642834234220033260e-02,1.742019734941436526e-01,1.386091393564056664e-03,3.724625637681292390e-04,3.456330823863468520e-04,2.378346337842521599e-02,6.671088436913542863e-02,1.317904037869191761e-02,2.589616172716247867e-03
3.312844218951813829e-02,9.347431849094206199e-03,2.964589504317469149e-01,5.841965990248032189e-04,3.826598627835801859e-04,2.401735438018482165e-04,4.007127347950796559e-02,1.210743093602071330e-01,2.137283233567494056e-02,2.578493945550822466e-02
3.365421277123248345e-02,5.490047883814038951e-03,3.701715238512947037e-01,1.466159964138404395e-04,3.861340384633891575e-04,4.919636547289531203e-04,4.301854485859345906e-02,1.631710075991052167e-01,2.454996983503477878e-02,5.034814801857412370e-02
2.459815879465170052e-02,1.571512541247447811e-02,4.047389305487565925e-01,8.044143498081174088e-04,3.949261390126781383e-04,8.203326574333556992e-04,2.891187749719781666e-02,1.601883065717785715e-01,2.631716361393222209e-02,5.327780215908557021e-02
1.712544155753300407e-02,1.349843386558547027e-02,3.980431449320815940e-01,1.387152023642752256e-03,4.047751792787242036e-04,7.440237986283603985e-04,1.263018020113707007e-02,1.198658827487533024e-01,2.682427143539127881e-02,3.631072012225804169e-02
1.574032146378520278e-02,5.496484334863792343e-03,3.440405529990807620e-01,1.894141762270110108e-03,3.919957197986882269e-04,2.104439576611971327e-04,4.499464789468125316e-03,7.781231868990610978e-02,2.414682852112534292e-02,2.559788604603966539e-02
1.746226401574640930e-02,6.110906616874618811e-04,2.475823843709193950e-01,2.326259673652914493e-03,3.670559264755911526e-04,1.364526157864364179e-03,2.577756996985567078e-03,4.623776807615623957e-02,1.792041827848536023e-02,3.781613915065865084e-02
2.189208507133997769e-02,2.817722524458253670e-03,1.266546632419783269e-01,2.685263793100002138e-03,3.825829017936526822e-04,1.311642533324886440e-03,1.510799941943273723e-02,1.022540023957091773e-02,9.696964107591110257e-03,5.658769361895606836e-02
2.939457514374059499e-02,1.025051882029076773e-02,2.331638266083623651e-02,2.973661308488373574e-03,4.195346134170861675e-04,2.208544618253013457e-05,2.321090181002981659e-02,2.704538161143774794e-02,1.868384864661756751e-03,4.932416474986684590e-02
3.222085016838427407e-02,1.926337151880309906e-02,4.961738612870518483e-03,3.194963163931777324e-03,3.669639397578794144e-04,1.042687287319283640e-03,1.224742324296615448e-02,3.023183834722192875e-02,2.809576041992605834e-03,1.133346249848359022e-02
2.275385804713311172e-02,2.288385830812560140e-02,5.306781765576007448e-02,3.353654193232622795e-03,2.643192676263830788e-04,1.120115002283788262e-03,1.811247015035634053e-02,2.460449686602830810e-02,3.623052851557334066e-03,2.109200419568930257e-02
8.136776408039433917e-03,1.981423329431982600e-02,1.306692644379389423e-01,3.454948588885606298e-03,3.538359108519122760e-04,8.718007855471434416e-04,5.246123590281401988e-02,1.105006667971997758e-01,4.150472961149085337e-03,1.547608998048406390e-02
2.680291838571140922e-03,1.520655512399448489e-02,1.524719796428283813e-01,3.504649354030840974e-03,5.683894320793486275e-04,9.356386074498723336e-04,7.472067483053776438e-02,1.699091979236927452e-01,8.456390650801713996e-03,1.830769312681032948e-02
8.823482764972249287e-03,1.444470804734483346e-02,1.088844565983986823e-01,3.509086773671771416e-03,3.476286064029543259e-04,1.147855036336433571e-03,8.212130883115084656e-02,1.726260831264566364e-01,1.514646755208858345e-02,5.169770159655930758e-02
1.718454781022382347e-02,1.921735619158007266e-02,3.754968757336682450e-02,3.474990751228588734e-03,4.324494035656430949e-04,1.218075630877083967e-03,8.083265849135583270e-02,1.383480276745897852e-01,1.911598402257877125e-02,7.396966280874815725e-02
2.232000485179818847e-02,2.697182152660069360e-02,2.572321182080151980e-02,3.409311699461813928e-03,9.071161695021035627e-04,1.208607314938095348e-03,6.867264268395301130e-02,9.741822288883413006e-02,1.869566365157469823e-02,8.340319213819295807e-02
2.872614660915040821e-02,3.328038026263398230e-02,5.042257072991820910e-02,3.319063203204764782e-03,4.355206284600309278e-04,1.259790156692794155e-03,3.501997369459653592e-02,5.383914451080676344e-02,1.678261800602166495e-02,7.045743136996558686e-02
4.033102234353961452e-02,3.612016470740116170e-02,7.292618718085234347e-03,3.211185710811740278e-03,3.553848739331172098e-04,1.349346555658966071e-03,1.639736501201839725e-02,4.182186621905714489e-03,1.525499634341798139e-02,3.766667784778055666e-02
4.938632646198992671e-02,3.617570461270506327e-02,1.008042200356562834e-01,3.092402242414956769e-03,5.907799638700285405e-04,1.395265057129065284e-03,5.965707853516917514e-02,3.260388733911907810e-02,1.280853998359878822e-02,1.339370861286804867e-02
4.215455519654513761e-02,3.284942639970255679e-02,2.178364679658701952e-01,2.969071300304055271e-03,3.692701313421464619e-04,1.390089153174615521e-03,7.136568752521114944e-02,3.282527256656472825e-02,8.826277168177043900e-03,1.835771202292333162e-02
1.750637152865367960e-02,2.519035384459933705e-02,2.745492673959374352e-01,2.847055605613872230e-03,2.637071210505442776e-04,1.400873806574682006e-03,5.335740939315009729e-02,5.408270091333251470e-03,5.490175801980640667e-03,3.543299024322402874e-02
7.462177500531280878e-03,1.772700482202908823e-02,2.513208036936959711e-01,2.731609100899733307e-03,3.941091862885866249e-04,1.464329492026454193e-03,2.446787896677566493e-02,1.176188489890193575e-02,4.798956031021128429e-03,3.593826847396852653e-02
1.577533727251717588e-02,1.774131936855547625e-02,1.839859522806643888e-01,2.627277720476533379e-03,4.973865320899808519e-04,1.485291837334567697e-03,2.863987168900374285e-03,4.264333586879422155e-03,5.914046039292650790e-03,2.088944655439567422e-02
8.700636355626706342e-03,2.394015530248052442e-02,1.127337978241541583e-01,2.537816377424170940e-03,4.218363147354472630e-04,1.371544409898845483e-03,3.087365864406476160e-02,3.616817545486528812e-02,6.572701536584991087e-03,1.120273244361645777e-02
1.145948350608457997e-03,2.641320943375779010e-02,4.927837281932022362e-02,2.466127317845690121e-03,3.181999615121603852e-04,1.302175100268962871e-03,6.171105264045791822e-02,5.377497093267741279e-02,5.786035599306293964e-03,7.135599593023685995e-03
4.209682068414773159e-03,2.133121628728491467e-02,8.510159241002292554e-03,2.414221072318777951e-03,4.486326214417137048e-04,1.494448128637906967e-03,8.239354849010575854e-02,5.366429083537448130e-02,4.261079038499057323e-03,1.239913037716678171e-02
1.629588633854630458e-02,1.493800237494932910e-02,5.707054125469297745e-02,2.383199169562590005e-03,6.922347849909180929e-04,1.552165830669395780e-03,7.490244441561877409e-02,5.596348988754307890e-02,2.890849982411907923e-03,5.010256248150538050e-02
2.848561234100431550e-02,8.272281477687604134e-03,9.107084686257799211e-02,2.373258803635327173e-03,4.753525305765901620e-04,7.130878900892842313e-04,3.797038262314433865e-02,7.129959431101655365e-02,1.785571958348620199e-03,7.988121427602308533e-02
3.452623454359560889e-02,8.174721338251943192e-03,1.127564692520731382e-01,2.383719828293282342e-03,3.013198511372793421e-04,8.259489824045933987e-04,1.315843346522586194e-02,8.787382482523146965e-02,6.881213048135442854e-04,8.427372815052888710e-02
3.497513100515696471e-02,3.658995359013730853e-02,1.287850797129746205e-01,2.413073183589258333e-03,7.635410257036311316e-04,1.659292279090287918e-03,6.373909877317071593e-02,8.682738016705700279e-02,4.346489351433936461e-04,7.692105746070074246e-02
3.473846837146207095e-02,6.294448696307784752e-02,1.424959674682518551e-01,2.459048994975373496e-03,2.847987483504458542e-04,9.391914179830676730e-04,1.035145856173267653e-01,6.095672738338216851e-02,1.457430679006734529e-03,7.741429853482680035e-02
3.862742268114341404e-02,7.592607009101130788e-02,1.535844590578182289e-01,2.518702449525437974e-03,4.937714558388286512e-04,4.234308282526761638e-04,1.217535505317459826e-01,2.463759013680148768e-02,2.353267481865890971e-03,8.542654543100745845e-02
4.646466982978806476e-02,8.171913905534838873e-02,1.620894135432432437e-01,2.588515300309311706e-03,7.073218294875442029e-04,1.092742924872815765e-03,1.137194184259269075e-01,7.997652558180308457e-03,3.170669785180587740e-03,8.894719176457978327e-02
5.144111459386826318e-02,9.018191784203749561e-02,1.685771042393238162e-01,2.664510331384506783e-03,4.799009691942211992e-04,9.790786486824957190e-04,8.942137879270802003e-02,2.951495193096549327e-02,3.914579329048983869e-03,7.823937192114069350e-02
4.785958796434977569e-02,9.862312195789191271e-02,1.717083422052909925e-01,2.742375740809983690e-03,3.720735207419573675e-04,7.395114249475989070e-04,6.705375250246578545e-02,7.317728146099941600e-02,4.555738097143231108e-03,4.553420262746656760e-02
4.043001430804791380e-02,9.890730081131264562e-02,1.690864435323744253e-01,2.817596252659439714e-03,4.513549329499358951e-04,5.637965079456741090e-04,5.685180289216740235e-02,1.034522507577033817e-01,5.086674862335908640e-03,8.023752735697872729e-03
3.874755457621717469e-02,9.021410300897346468e-02,1.606484061889632275e-01,2.885587669640838227e-03,4.760696452573997834e-04,4.472082646397901079e-04,5.193919335890741923e-02,9.847928027384633687e-02,5.518158303778789887e-03,5.985203492946616216e-02
4.266654936083092570e-02,7.634717906499913220e-02,1.490513551395560576e-01,2.941831489382822681e-03,4.074593568113883679e-04,6.681383629395439569e-04,3.696124358913505797e-02,6.184144549977469568e-02,5.853047533054394139e-03,8.115481650544321968e-02
4.200825215916508676e-02,5.852387727669020046e-02,1.370432016960747290e-01,2.982006217216526603e-03,3.572795366628044251e-04,8.665682033120737345e-04,1.005631234531458029e-02,1.754470568415144108e-02,6.087689777876153542e-03,6.901292305711467789e-02
3.130193235556346515e-02,3.744605611703782228e-02,1.265061921042252846e-01,3.002112134323155386e-03,3.455382770447513953e-04,1.717562487357017812e-04,8.690306489773400728e-03,4.860170019681175554e-04,6.224186666701414170e-03,4.476532731043861291e-02
1.588245502112232976e-02,1.722038290767355026e-02,1.183124814334057529e-01,2.998586478651324438e-03,3.207054898504231501e-04,2.422781874537739254e-03,1.108871906947406921e-03,2.889181747533845629e-02,6.269843179386757823e-03,2.143641660357547413e-02
2.910212056180876052e-03,3.000003361501612717e-03,1.096281647949933075e-01,2.968406252191442898e-03,2.733924191341656484e-04,3.703593318832246878e-03,2.297751930221227090e-02,7.856089450536400676e-02,6.231320672302344266e-03,5.729108012740100758e-03
5.565626249977844581e-03,2.810127640952274700e-03,9.325640869463291960e-02,2.909176193754641968e-03,2.283274460603106071e-04,2.511842265366913147e-03,3.852802625678541926e-02,1.044252315714765122e-01,6.114679188550650388e-03,3.719085270344191230e-02
1.110126138163749013e-02,1.440570155159540990e-03,6.393039846309252205e-02,2.819199847379348645e-03,1.910158772226521568e-04,3.118666614664622775e-04,3.604305102834389624e-02,8.596592118155947648e-02,5.927927490246329145e-03,5.815508177986166566e-02
1.722780627189429356e-02,2.681770659599480057e-03,2.550987629930639294e-02,2.697532094115078459e-03,1.508250351205736247e-04,6.675896975436324552e-04,2.187211229424314285e-02,3.413134733215236055e-02,5.680806777267986135e-03,5.354392540911728088e-02
2.730118287499121166e-02,4.049535816082509669e-03,9.638781522722700973e-03,2.544011985783985793e-03,1.059783576258590691e-04,3.524701419922032244e-04,2.505747842802027829e-04,3.143989287479043160e-02,5.383332727721953231e-03,2.441428006972167289e-02
3.868200992557879747e-02,1.440399940833359330e-04,2.957169410569603432e-02,2.359275215524459911e-03,6.239528422437861266e-05,4.142965182031628133e-05,2.733240257210660384e-02,9.181407691543534699e-02,5.045590514991744532e-03,1.401657153967503754e-02
4.302292067283405852e-02,7.148205094768590902e-03,3.193622276387049486e-02,2.144746070150765297e-03,2.195182935921080440e-05,1.918511228982954257e-04,4.836711148512697067e-02,1.332983945699874606e-01,4.678106497467594480e-03,4.874889537447621435e-02
3.665311538548575443e-02,1.429677849345189697e-02,2.319266616089209893e-02,1.902609219064869527e-03,1.714182481749324048e-05,3.542584244060876749e-04,5.410434010085918288e-02,1.561149914033652386e-01,4.291627789891575874e-03,7.551163011164907513e-02
2.537052647995495513e-02,1.831054668874178282e-02,9.571369487415052474e-03,1.635762190523883802e-03,5.486173434267792250e-05,3.182186074986831348e-04,4.515258033197826204e-02,1.604880367991531886e-01,3.896619973913426939e-03,8.469220496264581732e-02
1.589463969064977208e-02,1.759307333054616410e-02,6.147690667429232467e-03,1.347749857238759444e-03,8.950125678477421237e-05,2.834730720900503612e-04,2.508125671175819027e-02,1.287284429949471232e-01,3.503041962007003712e-03,5.935095019621766665e-02
9.238731578528952201e-03,1.405600663742218037e-02,1.976654959077223106e-02,1.042682688400532395e-03,1.202583884315143697e-04,3.484266091445940199e-04,2.509996995194662371e-04,5.204554472597080345e-02,3.120267391792700198e-03,3.530160024483528121e-03
4.805557037617457991e-03,1.276463747503406125e-02,2.741055906061769243e-02,7.251409134548789971e-04,1.472241823221067650e-04,4.196411001926795680e-04,1.580967977502613017e-02,3.553369791276346501e-02,2.756896712484373582e-03,4.679221426790905469e-02
3.501258742624706235e-03,1.643555825447850019e-02,3.363079930570624099e-02,4.000670749453789400e-04,1.701870680248420277e-04,4.480848658945333360e-04,1.522154248909300851e-02,8.757113398887970968e-02,2.420525021545401941e-03,5.968686639202196165e-02
4.582260692635959330e-03,2.210719103042384226e-02,4.348400582405189535e-02,7.264971596870645632e-05,1.886370476193272808e-04,4.738681111415280660e-04,7.871839342071553641e-03,9.992987479029746822e-02,2.117592596982047735e-03,3.898524587790209994e-02
6.020344558090559399e-03,2.515093641241296016e-02,4.214007890848458365e-02,2.517988538110594687e-04,2.023360845905797212e-04,5.182170925332025245e-04,7.096674465324426424e-03,1.017815737032489593e-01,1.853294749227180852e-03,1.132928494386438445e-02
7.965816427027422666e-03,2.447908257031523871e-02,4.404533350297350561e-03,5.679676454769945048e-04,2.113303998975714620e-04,5.628210456814199342e-04,1.101090412962523260e-02,1.037717320663057580e-01,1.631495849477111217e-03,2.048773879515658914e-03
9.111378316448374287e-03,2.236841092485316804e-02,6.404824961201094347e-02,8.706718159620862544e-04,2.156874803294092462e-04,5.961183298909298678e-04,7.474212039088099988e-03,8.965753547390598044e-02,1.454661330134580802e-03,2.226523765403793948e-03
3.286574885546686767e-03,2.065846823639681459e-02,1.201364147834469709e-01,1.154974145220174228e-03,2.154876007880027536e-04,6.201265736851696055e-04,9.279640118227202791e-03,5.619986991854757086e-02,1.323836027604713330e-03,1.247577992488371756e-02
1.101771525173273446e-02,1.885106606541641847e-02,1.321643685070239549e-01,1.416300185443399029e-03,2.109438983918793926e-04,6.375388895891354220e-04,3.132223860310351382e-02,2.861347551461247349e-02,1.238663939558501403e-03,1.557578429526207398e-02
2.278058390705235692e-02,1.630076067263951101e-02,1.110990500934641717e-01,1.650544280680927818e-03,2.024014530558608147e-04,6.560035591818069245e-04,4.302730024754691796e-02,2.567010214495125606e-02,1.197436018116091816e-03,8.964291049785228990e-03
2.056853235315898865e-02,1.460774863152477197e-02,8.381760285155193113e-02,1.854163901289593557e-03,1.902714605065417757e-04,6.759895938292171313e-04,3.595719751567046096e-02,3.274581493026490486e-02,1.197166896395826432e-03,2.839696661627091282e-03
7.749685066761737712e-03,1.562246435986457994e-02,6.045526198361699660e-02,2.024260044797656418e-03,1.750182634971145733e-04,6.719579864116994369e-04,1.856576974550814066e-02,2.624697785977705283e-02,1.233704401593564356e-03,1.367329039058455716e-02
3.092159054604286510e-03,1.802918854412721705e-02,3.775382881796966045e-02,2.158641814915019785e-03,1.571747232086765896e-04,6.363965572408827875e-04,6.516515913849827042e-03,8.679407385839534028e-03,1.301867949184837021e-03,1.164995437385259354e-02
5.689307589755342003e-03,1.863702190548926357e-02,1.497519709317794191e-02,2.255873694268769897e-03,1.373308596137961753e-04,6.258693989503846984e-04,4.827024825375327184e-03,6.938976664107501108e-04,1.395609416896441543e-03,1.352894627874379717e-02
2.752949484484248487e-03,1.666311981584337951e-02,4.147763452256101116e-03,2.315304463668581194e-03,1.161069955884522854e-04,6.595632695607060595e-04,5.710676492578028313e-03,8.826933493088032559e-03,1.508192799958540595e-03,4.991468388678949736e-02
1.932613340176562392e-03,1.445947638985963825e-02,1.666046136266817815e-02,2.337077180255811484e-03,9.413779977070868110e-05,6.158851608282457299e-04,2.327399360955972104e-03,2.084813772465165735e-02,1.632389390602225626e-03,6.792185111431565947e-02
6.737825811513144247e-03,1.408574252676739712e-02,2.200852147805873460e-02,2.322120097246740608e-03,7.206279750662652214e-05,4.502911298133031892e-04,1.167900797571168759e-03,2.859324491945502630e-02,1.760683361685960995e-03,5.590113798069946266e-02
9.177170822939749451e-03,1.496218646632273969e-02,2.167734158895184143e-02,2.272118877457075369e-03,5.051147126127214385e-05,4.256591454911952074e-04,6.258248165637243614e-03,3.551598852655521443e-02,1.885481973574671018e-03,3.657529204814467111e-02
5.441994162921996551e-03,1.534698669820645268e-02,1.853192360756169416e-02,2.189470909821221618e-03,3.008541969623809107e-05,6.578441452596792702e-04,2.855024181057792126e-02,4.001066149859539012e-02,1.999325237843209251e-03,3.830255318153577559e-02
5.265750607074333109e-03,1.472385498717860425e-02,1.479341571397584099e-02,2.077222971527036433e-03,1.134369227707632461e-05,5.591726960977542321e-04,5.204277684214506094e-02,3.008734402801049868e-02,2.095090125153577579e-03,5.893501497255815291e-02
1.839454305489915398e-02,1.378944275620502639e-02,1.101120182382379561e-02,1.938993877680906218e-03,5.209265131058492786e-06,4.159852792904261362e-04,5.518865523894782299e-02,2.315434925839025999e-03,2.166184244302368951e-03,6.905942769095468892e-02
2.807167675407567717e-02,1.308660362874407984e-02,7.373161486316327957e-03,1.778884116033922595e-03,1.913541301889935353e-05,1.635895918956754933e-03,3.311942740253907835e-02,2.655278876658806464e-02,2.206724106304615036e-03,4.984984237564549919e-02
3.194229874132241409e-02,1.261418208459226011e-02,4.278770787472303827e-03,1.601374767829539560e-03,3.007398248584349008e-05,2.168237319598422322e-03,2.999525643151061335e-03,3.497181819123897778e-02,2.211693647295918941e-03,1.368786080360723592e-02
3.027757650224774735e-02,1.207253496290181666e-02,1.454655807594399785e-03,1.411218260223294193e-03,3.774994120074115169e-05,2.436944967755758692e-03,1.927376754884668406e-02,1.773704278618925059e-02,2.177079248007856606e-03,1.934525838467679448e-02
2.303560582223991224e-02,1.099845766493985806e-02,1.778193696983631361e-03,1.213323675441144080e-03,4.198004073658101373e-05,3.245088584321951641e-03,3.345968486779810763e-02,1.298363387718835457e-02,2.099978022244636429e-03,4.518947216911134435e-02
1.120797633928743986e-02,9.373995577727823464e-03,5.385847500474821338e-03,1.012639452992394754e-03,4.267676138094915581e-05,3.756385499604754808e-03,4.179317260843343901e-02,4.339919156312220527e-02,1.978676804253870058e-03,6.040382909818676344e-02
1.074158541694547695e-03,8.022846445658078293e-03,8.808496894980762104e-03,8.140363616685945651e-04,3.984995799002313577e-05,2.670613682877515885e-03,3.935825242250400036e-02,6.651153645846683005e-02,1.812700039338839900e-03,4.904542826244646936e-02
9.656852969541638437e-03,7.535544626494949591e-03,1.184237903829780773e-02,6.221935873377759055e-04,3.360617103264762885e-05,7.147646599885834270e-04,2.504146887564512661e-02,7.530485527670899293e-02,1.602825576525180457e-03,1.030281269463396293e-02
1.450193981977022060e-02,7.299496294490242024e-03,1.464805034789959381e-02,4.414906820399565248e-04,2.414572567186171241e-05,2.806604816915273361e-04,7.894487661806828468e-03,6.295788198922583345e-02,1.351068150648752561e-03,2.468400485266457334e-02
