4.258246219595513901e-03,1.119572005227246689e-03,8.450605742968213263e-02,1.067392450297468707e-03,6.285142265883054375e-06,1.397065515532343392e-04,3.293918121791239439e-02,4.986915976326596750e-02,5.285950751249586174e-03,6.703318029055808924e-02
8.556744043893312404e-03,1.247460919478465954e-03,1.676328645837378284e-01,1.460074015932744931e-03,1.652556270447748437e-06,1.807978685256146926e-04,3.810310778329230319e-02,4.969080708088850079e-02,5.168139767967384543e-03,8.717122519961073568e-02
1.133222229766573871e-02,1.396816111557448118e-03,2.008664245315588404e-01,1.819768110462219703e-03,9.039424548564909052e-06,2.269980161053925568e-04,5.209605419016898054e-02,4.763318606404866318e-02,5.016425536544624406e-03,8.305039256917882973e-02
1.254214678125032192e-02,1.566633066921953006e-03,1.795043822149954005e-01,2.136900293036635059e-03,1.569287047643319824e-05,2.784751669992446528e-04,6.088566976942876019e-02,4.541422795990392169e-02,4.833572263603262871e-03,4.403489197044963693e-02
1.310276286794311365e-02,1.755281901569068345e-03,1.363679825926034095e-01,2.402873620771970101e-03,2.144995677745043671e-05,3.273737232102288432e-04,5.287266403393908049e-02,3.533366500724641202e-02,4.622104743769965898e-03,7.577820569653385963e-03
1.172038036377592504e-02,1.960526613359876106e-03,9.386163084270722490e-02,2.610288241409961137e-03,2.617160768716619623e-05,3.708999136886281757e-04,2.671255082246692253e-02,1.604406204539924816e-02,4.383440649164133639e-03,3.862205368380831894e-02
7.299216310219606811e-03,2.179559090441074952e-03,5.352911787039713737e-02,2.753132673593360492e-03,2.974623964584945253e-05,4.234181703345447586e-04,5.949692052652593571e-03,5.200672190232676767e-03,4.119919506957120912e-03,4.148351450898044024e-02
2.423180695642145055e-03,2.409047206237540165e-03,1.417364939666163233e-02,2.826941874556358238e-03,3.209271772706758121e-05,4.888781683764561060e-04,2.712233835878763433e-02,2.486963759998008644e-02,3.836420737270415833e-03,2.835460183370586834e-02
4.062085046808774631e-04,2.645195678354182647e-03,2.188434345924442082e-02,2.828917991027652973e-03,3.316256148371213031e-05,5.343210394312010707e-04,2.885082053648329800e-02,4.447722780452777191e-02,3.535780758333806426e-03,7.768059527572275698e-03
4.734591337417971726e-04,2.883818258193282091e-03,5.414848519656453169e-02,2.758010591281636042e-03,3.294135655534800633e-05,5.481394541758305211e-04,2.149883678039065174e-02,5.971123459983104786e-02,3.214929589301960145e-03,8.148013458409646137e-03
6.627807886890949018e-04,3.120420186913010294e-03,8.316266275718561807e-02,2.614954162735467092e-03,3.144933631800012492e-05,5.982476891732215222e-04,1.880243880057748396e-02,6.044666534845904993e-02,2.874300402987671216e-03,3.433063339002599516e-03
3.673339169693265373e-03,3.350289166129978048e-03,1.067281730427146191e-01,2.402261706407376324e-03,2.874108729220674894e-05,7.091017985635526995e-04,1.964444622313688688e-02,4.574991277838352105e-02,2.526067509124201461e-03,4.695605954414750621e-02
6.337305605770032768e-03,3.568591464897930780e-03,1.229965020719483992e-01,2.124174341415785774e-03,2.490437737893464818e-05,7.339012013517717554e-04,1.520727656351995340e-02,3.131621533107608463e-02,2.174033310033431348e-03,9.216021508719109134e-02
7.743961198312375796e-03,3.770470520952475327e-03,1.346796914451166005e-01,1.786567922606881707e-03,2.005819438443851111e-05,6.162759908792270896e-04,8.038140114558674221e-03,3.478679787886822944e-02,1.795309450352258231e-03,1.091848146176555151e-01
9.138057012656596034e-03,3.951148349385391959e-03,1.456110135985143605e-01,1.396818745066888802e-03,1.435005286224707903e-05,6.820120852973827249e-04,8.599071643897813338e-03,5.492487995928203859e-02,1.382629612445967875e-03,1.006250613053394360e-01
1.019998054955744728e-02,4.106028202287391113e-03,1.563282956173400462e-01,9.636314345970815789e-04,7.952501749789244950e-06,1.051881119782264356e-03,1.502775563964997563e-02,7.161461932967924660e-02,9.844553139238204978e-04,8.652002618903249787e-02
8.433724367852883652e-03,4.230790363740700652e-03,1.673835899223802548e-01,4.968330781902448789e-04,1.058886134173501603e-06,6.972800819298718413e-04,1.278676820453645939e-02,6.857723944306626240e-02,6.155820642226193448e-04,8.124578778148522362e-02
3.534638688494627732e-03,4.321476767675214506e-03,1.816306717343355026e-01,7.138507921091536909e-06,6.121255193246111922e-06,1.875130084014833311e-03,2.856100952557831096e-03,5.177137710144687904e-02,1.691169075941023018e-04,9.181959404521053414e-02
1.412381763480482708e-03,4.374574396963516743e-03,1.969595993459631600e-01,4.941076078391836400e-04,1.336697288327010365e-05,6.275973348740133788e-03,1.858394551203280606e-02,4.222666417139392392e-02,3.948811492605672061e-04,1.139347162372232464e-01
4.300729258468195294e-03,4.387100015473742627e-03,2.059829021292921558e-01,9.952056069397277344e-04,2.045134926554858560e-05,9.430522425772896317e-03,2.209172086105908039e-02,5.207950030464755103e-02,8.561589832276804641e-04,1.263313832752259447e-01
6.022801461391359516e-03,4.356658629294568076e-03,2.135429446236090933e-01,1.484385893764783712e-03,2.714763576788779446e-05,8.426963506991794889e-03,1.762400005620544732e-02,6.937343962321140811e-02,1.131694641981685623e-03,1.117550230871633826e-01
7.545563994146512431e-03,4.281463779637034728e-03,2.366982374613374185e-01,1.950097209721766240e-03,3.323466908109939044e-05,4.011425391918099423e-03,1.869517181412870890e-02,6.944666219907248694e-02,1.704015882250738308e-03,8.347328550873478470e-02
8.250067143946479553e-03,4.160373400593344283e-03,2.648026921928529620e-01,2.381290994924486430e-03,3.850103857468246618e-05,8.366609131347970806e-05,3.375350567465880414e-02,4.462602757878302018e-02,2.796332815309200259e-03,7.112798715542699435e-02
7.451151652122391285e-03,3.992964089938908639e-03,2.474541626820797868e-01,2.767694784105890690e-03,4.275059513500166622e-05,1.416172488863578355e-03,5.993523351279307632e-02,1.644732808410984126e-02,3.333986947767035147e-03,8.303467569903512369e-02
5.288690378566277689e-03,3.779526720617318487e-03,1.626474299292406389e-01,3.100067799577242711e-03,4.581007727478462430e-05,9.312075629723751830e-04,8.525521040364968106e-02,9.039032439057438639e-03,2.267300332571601205e-03,9.939413644024834571e-02
2.406679574556450703e-03,3.520929753824486672e-03,6.235918902942477055e-02,3.370432299531636502e-03,4.753293795105437478e-05,5.876564804432017012e-04,9.610567160900627959e-02,1.820755610617670606e-02,6.848840886444965527e-04,9.726458474279872646e-02
7.041582060780381819e-06,3.218598263597158889e-03,1.420019433759725849e-03,3.572274834974863839e-03,4.779717875256016783e-05,8.016397179734914644e-04,8.471740434531023489e-02,2.100316547354993957e-02,3.360045227906762995e-04,7.009133362991615268e-02
8.118486649764339400e-04,2.874730281392755271e-03,4.853413196691214182e-02,3.700712302176284527e-03,4.650942039499057946e-05,9.539220957212762343e-04,5.437952437362311015e-02,6.953146528244002686e-03,4.780200572061676532e-04,3.250492230035001429e-02
9.001654815771277019e-05,2.492225750603993279e-03,1.073733938959317846e-01,3.752618461385305929e-03,4.361990472513816022e-05,8.615621166811941820e-04,2.204443142051015422e-02,1.720227265471011707e-02,7.050086037145768345e-04,1.226041533694582387e-02
1.427315206706183818e-03,2.074057614461246018e-03,1.392053308677688173e-01,3.726707506495310213e-03,3.912217532510545620e-05,8.006579501114009876e-04,8.368881187488776130e-03,4.395232989951983193e-02,2.020086641075803918e-03,2.325891115923718611e-02
3.507763802230362549e-03,1.623202575945617392e-03,9.914503847045452734e-02,3.623572446523012393e-03,3.302652111758439251e-05,8.597688743056418944e-04,1.649007764961020819e-02,6.737447880762979791e-02,3.256617943816483905e-04,4.527902055279143384e-02
5.199935497109897664e-03,1.143743331866030550e-03,2.076555506320512320e-02,3.445677263081419785e-03,2.536282198382505953e-05,9.130015235142443066e-04,2.808562709091887502e-02,7.667218564219638322e-02,4.570472433574470500e-03,4.603590062209551165e-02
4.093584508478118056e-03,6.407774792392947677e-04,3.033186790327378063e-02,3.197302674234512795e-03,1.623748178475949459e-05,9.180681547511387354e-04,2.672754108399465547e-02,6.431960374659032031e-02,9.734637152091801804e-03,2.022004040492359281e-02
3.502140978843430513e-04,1.177714201226405961e-04,4.292594311180735617e-02,2.884446275112083867e-03,5.826257292372020362e-06,9.319280979447375516e-04,1.504158694180028621e-02,3.850540306507092836e-02,1.319529583444804810e-02,9.410839487197009134e-03
4.536325721638792899e-03,4.236187439404537369e-04,3.920384417131465155e-02,2.514679542313960365e-03,5.752764166978039333e-06,9.756653054841900449e-04,4.134817208066620189e-03,1.821361749199889787e-02,1.444886289430668581e-02,2.536887220046997460e-02
4.961564914334889824e-03,9.782126703148231843e-04,1.919751487408882448e-02,2.096965735780344751e-03,1.843495854184281976e-05,1.027405134894338219e-03,2.853521084028335861e-03,1.588198218474914589e-02,1.241053319202135678e-02,3.261583292397735034e-02
2.686496965743512093e-03,1.537095383907137675e-03,7.492501056083454222e-03,1.641442495471703714e-03,3.194793887802592697e-05,1.076690073543746986e-03,1.172305987161999762e-02,2.792194385044851832e-02,7.379595797518222547e-03,4.253237994818172274e-02
8.743770404522361456e-04,2.099307316217696034e-03,7.130198276764180068e-03,1.159172805827614035e-03,4.582599609175786663e-05,1.124155368960815622e-03,2.801066775741544584e-02,4.187595350692692453e-02,3.363978822962175944e-03,5.537558251402534271e-02
8.681957533644563130e-04,2.672885577795499658e-03,7.049440019019838355e-02,6.618714026388444315e-04,5.998245372458265432e-05,1.174739498778166720e-03,4.779007168900614028e-02,4.891835720870810200e-02,3.810175852710483667e-03,6.426283717943506724e-02
3.405420243530083400e-03,3.250189120439031260e-03,1.016248104826770748e-01,1.616165934055246208e-04,7.470933890518616065e-05,1.247439068664904635e-03,5.604106039035127579e-02,4.638383572794818610e-02,6.486527148283239598e-03,6.675766657865171705e-02
9.895078002051270472e-03,3.805264420036640061e-03,4.226007355754943240e-02,3.294476079148767143e-04,8.947171416380376215e-05,1.338994888604454810e-03,4.062601430401435038e-02,3.347656518573178391e-02,6.781221052768680521e-03,6.626896161211975889e-02
1.927296071969094443e-02,4.346671083463420938e-03,4.262242058211535706e-02,7.994188079185505103e-04,1.028942887643190913e-04,1.397194732917289833e-03,1.036518562548406457e-02,1.129966292791382415e-02,4.966100462989036200e-03,6.671400224376934640e-02
2.718596494634611949e-02,4.924648063861216014e-03,5.237023098536327387e-02,1.236940973059871569e-03,1.153535618168638152e-04,1.421636057444005492e-03,1.074769343307030618e-02,1.616316707268720260e-02,6.139877230976624294e-03,6.989654851034300675e-02
3.134053495375682674e-02,5.518588338012313070e-03,1.891749168234905729e-02,1.631483667022905855e-03,1.290915217965697801e-04,1.526035536209192304e-03,1.075371228949348161e-02,4.562724379588031787e-02,1.287465646052330347e-02,7.660753719854289379e-02
3.408219180815497823e-02,6.018726928627495497e-03,1.145251508367565035e-01,1.973597844812211184e-03,1.426996325541534901e-04,1.713438395628443921e-03,2.666222632236861165e-05,7.556231446449414302e-02,2.166682877658847664e-02,8.729922928590037878e-02
3.693121754939763385e-02,6.465977435513871850e-03,2.176260350868456650e-01,2.255174690341523944e-03,1.507479338119137660e-04,1.735568603751992461e-03,8.740160149264592296e-03,9.988284205085060097e-02,2.822228438989438440e-02,9.893447560412085839e-02
3.657037167636654346e-02,7.100167236344534331e-03,3.238619319577907274e-01,2.469682423465104949e-03,1.555699562888522916e-04,1.576960267823442540e-03,1.673264170215068083e-02,1.041716720186739303e-01,3.267705530694129529e-02,1.026650997196633108e-01
2.949455769211185505e-02,7.852902200660975829e-03,3.451280235700545096e-01,2.612304158168257760e-03,1.683750186806463986e-04,1.780944738529175765e-03,2.820043943289431837e-02,7.836512377760906922e-02,3.592206954969873883e-02,9.186881887027645299e-02
1.787151872753268284e-02,8.172602900462426143e-03,1.640229062320995301e-01,2.680010823660808426e-03,1.841196170273093498e-04,2.383415369151066325e-03,3.793337829458860722e-02,3.668462123899028648e-02,3.376348298103890727e-02,7.404070329025877473e-02
8.204029576504666757e-03,7.943506430503536817e-03,1.873592779089527649e-01,2.671719389351644592e-03,1.784842886678100001e-04,1.873060355440933590e-03,4.070758118637428369e-02,1.025090339437940458e-02,2.139083214023422552e-02,6.554457810286228037e-02
4.966365991574283115e-03,8.018567149917700532e-03,5.013054584775491485e-01,2.588455761410242504e-03,1.614663973048720551e-04,1.059301772068382873e-03,4.084525943083967825e-02,1.103718405450100117e-02,3.435434543222000165e-03,7.048776642099185974e-02
6.815576290239220084e-03,9.028661686538449679e-03,5.993551666342598061e-01,2.433190783102729370e-03,1.852435182807038103e-04,4.681388022261236126e-03,4.171531769327760375e-02,2.165190925892952409e-02,7.670519758905956949e-03,7.449726887822169519e-02
9.969441777689241890e-03,1.038056382390311304e-02,4.982573320122933858e-01,2.210507825180491655e-03,2.299173035388800673e-04,5.381259750554801685e-03,3.865624592698094220e-02,3.075325736935255114e-02,5.684029283741273697e-03,6.567086162183664866e-02
1.378872531168129183e-02,1.123109879477015779e-02,3.381320641930617987e-01,1.926812832504243463e-03,1.836025041402308041e-04,2.298551932035838071e-03,3.212484802101585324e-02,5.255684408035084243e-02,2.422871802635543585e-03,5.175026683307828307e-02
1.921731056017985523e-02,1.161742721970135395e-02,2.194889876385578698e-01,1.590769276726781371e-03,8.590076939869747768e-05,1.417255731141964757e-03,3.349356265060980664e-02,9.281487681775338339e-02,5.829076004106863163e-03,4.760411545847228337e-02
2.367989947425934438e-02,1.205280832802883319e-02,1.617516910874554348e-01,1.212437657235569156e-03,1.796765381266998631e-04,2.811288549839774734e-03,4.557355453138202395e-02,1.207934650898949136e-01,1.949718871945589106e-03,5.423462093407963036e-02
2.422726489898427080e-02,1.279601503971497523e-02,1.599703227095297386e-01,8.017676953182272534e-04,3.963250224810896329e-04,2.403644540000229347e-03,5.022579121939912961e-02,1.049369003890311958e-01,3.663197832828838860e-03,6.061164926805018283e-02
2.374361673539573253e-02,1.372548736465486335e-02,2.017348639872707516e-01,3.697200546541909265e-04,1.731734546647387639e-04,2.185793020275102888e-03,3.134383975877461093e-02,6.155352614471850531e-02,6.001249734129033772e-03,6.042851611300876363e-02
2.610271727440370559e-02,1.441182150282658593e-02,2.395214317789280956e-01,6.926504665796375600e-05,6.113244045374261306e-04,2.440683270891849665e-03,1.003377248138162536e-03,3.387013091319887592e-02,5.059855044944003635e-03,5.624011093284416590e-02
2.771850586440071859e-02,1.466660335497342073e-02,2.081557892099075158e-01,5.004651656337813894e-04,1.087752064723662183e-03,2.306280084921487773e-03,1.453904107289025714e-02,3.011184844006643130e-02,2.634017148720478423e-03,4.936305693682645213e-02
2.186197364753757200e-02,1.513321088538235361e-02,8.632022093874736068e-02,9.151617164707839076e-04,6.204229342306656235e-04,2.107282492926545320e-03,6.954869442560516687e-03,1.846527687668343687e-02,1.223021458079748530e-03,3.595415923952094417e-02
8.236447926922654122e-03,1.600437783512478548e-02,7.294300836701042567e-02,1.304948094007500788e-03,1.538119699767710041e-04,2.739950785518235205e-03,1.160768951255555445e-02,1.935598840056236905e-02,5.717042422892800943e-03,1.401933969677023398e-02
7.996682484602410032e-03,1.511947478460098221e-02,1.705987811721139114e-01,1.649146770438139923e-03,3.714387508204989034e-04,3.045665462104012091e-03,2.718124121453826397e-02,6.277680645514925606e-02,5.057847990956646465e-03,1.279776470386550721e-02
2.202560879981540001e-02,9.780797066439257670e-03,1.342810168897516920e-01,1.927620612433808859e-03,1.533032179542933454e-04,6.290505962642980575e-04,3.113461252133273294e-02,7.709346515739351480e-02,7.315711664886977855e-03,3.779031847408084732e-02
2.926608932355137180e-02,1.323130897057615742e-03,7.534183516373693656e-03,2.148932863093383321e-03,4.973572258216421224e-05,3.981863883142274137e-03,2.151515727414234774e-02,3.968495042508300708e-02,2.834890006383359445e-02,5.243298747556502520e-02
2.515478264841862488e-02,4.506885532460125875e-03,1.363294236819108107e-01,2.324619779762072177e-03,1.339167454934518382e-04,6.930753384506431469e-03,9.386756822375795506e-03,4.393707402870485057e-02,4.496328891936643424e-02,4.936265497020991821e-02
1.054091987925282956e-02,3.446060018732665080e-03,1.547140805614903303e-01,2.409195229632389752e-03,1.910588473126337923e-04,5.908673239875827238e-03,1.272786829483216892e-02,1.299411232894872592e-01,4.694742853455532994e-02,3.042108725839894751e-02
5.940796427592230644e-03,2.350377786343373944e-03,6.541040095781516794e-02,2.354253517187149172e-03,1.724411914480414320e-04,2.628809660776912100e-03,3.560365562725099908e-02,1.635249594311990462e-01,3.601152908687572929e-02,8.224068349715188408e-03
1.512749982038036345e-02,7.444105257597651883e-03,7.396595473901473872e-02,2.238751208706383968e-03,1.301326387632269980e-04,2.985994983546548303e-04,6.141518335397559009e-02,1.320663310661169820e-01,2.076233965054579203e-02,5.035545342129185871e-03
1.533810532982250383e-02,1.042477529892824224e-02,2.214633108707537712e-01,2.157488874521296465e-03,1.027085739197725121e-04,2.043262928870013140e-03,7.154736494032214178e-02,6.840919211867771410e-02,7.512465672495987137e-03,7.280254107998341065e-03
1.014902290337562664e-02,1.408140589344128273e-02,3.404929865404645040e-01,1.937533250428459183e-03,1.690499883009372907e-04,2.566395251691001335e-03,6.472093664105071920e-02,1.463123185983525656e-04,1.810730315802431276e-03,2.152447457417720495e-03
1.505758666828815309e-03,1.738530060385192269e-02,3.729516607622182511e-01,1.362360611484656489e-03,2.914663323762509161e-04,1.707481541742275448e-03,5.332798237238881717e-02,6.969930299276633212e-02,6.307078954852812086e-03,9.338624985915281937e-03
8.939314342628047749e-03,1.334785846925798554e-02,2.810443737556913013e-01,8.351158677598592922e-04,1.732113271353100711e-04,5.515767407518210670e-05,4.459573546894387425e-02,1.263206583520626036e-01,4.517302902271579448e-03,2.618096210580054400e-02
1.484177756851794323e-02,1.100430321786650175e-03,1.026822015219672340e-01,1.131076771376103357e-03,3.749851659852258779e-04,1.859961636723619395e-03,3.379322271700117147e-02,1.435728986298915044e-01,3.122337204464099500e-03,4.153964170555134172e-02
1.107609262004312194e-02,1.869678756438996822e-02,6.212928435537613120e-02,2.056817052511416503e-03,1.056754744179769050e-03,3.581919410987921028e-03,1.804770451004925405e-02,1.267034305312431386e-01,1.178912294790463756e-02,5.001478685495873433e-02
4.211040608311744822e-03,3.029454740591921644e-02,1.192327774022429315e-01,2.209023671500017546e-03,1.353492195470221799e-03,5.036550272878689144e-03,7.678624549058153323e-03,1.149964843046039076e-01,1.505329293514222518e-02,5.742438478702450999e-02
7.351107452356902758e-03,3.444843777660087231e-02,4.984057668530587903e-02,7.700372972596417065e-04,1.031127712333800841e-03,4.821819979320214090e-03,1.441896591319766219e-02,1.245493919864514160e-01,1.167798372163987228e-02,7.110832837196594258e-02
2.260494654866556166e-02,3.417211152419626780e-02,6.158689240867283587e-02,1.314066317657935998e-03,3.331715173194301849e-04,2.132222283078156859e-03,3.059685911056859997e-02,1.295153453087001527e-01,7.038349489713769704e-03,8.330717148725801102e-02
3.675990538789530859e-02,3.041463102374151323e-02,8.976415473531976219e-02,2.728350811328975403e-03,2.274597240386301089e-04,1.213701439877724929e-03,3.152468203117473472e-02,1.112878740083363543e-01,5.747011763480364653e-03,7.760737030429744332e-02
3.799388164570333126e-02,2.372829780755686055e-02,4.526871339675515166e-03,3.412183717573554886e-03,3.711709714420046227e-04,2.795687734715435451e-03,4.683489810537830311e-03,8.547443718818940883e-02,6.627776798488613924e-03,5.097038477958098363e-02
3.060720966271338744e-02,1.681201139470056560e-02,1.246500560494268744e-01,3.929904684642243629e-03,2.802071195526954707e-04,2.596582603204324654e-03,3.342457764826676364e-02,7.100410026075570924e-02,6.592220693245383172e-03,1.822663081344460048e-02
2.705171835937280125e-02,1.051124296244437296e-02,1.386128155989377886e-01,4.357549398258147438e-03,2.150583040763581820e-04,2.162209808980417383e-03,5.838764383459477819e-02,6.543553197246423925e-02,3.800071616239720194e-03,6.007592657138261308e-03
2.944697497984141363e-02,1.771822068153584709e-03,1.459621556822105967e-02,4.839132512083697824e-03,2.233037461136764298e-04,2.156154065242172312e-03,6.321969111083970694e-02,5.672538494669913250e-02,3.465464889753550048e-03,2.027194343875581006e-02
2.878964874627437665e-02,9.624738997454581474e-03,1.458752992904008838e-01,5.866268197313284638e-03,3.045880895407488981e-04,2.357948947208784833e-03,5.362714742393086959e-02,4.024153135998215225e-02,1.336807067297221194e-02,2.645158814104888248e-02
2.173397499192952428e-02,1.616169100737179995e-02,1.972224538213503964e-01,6.701615672182368103e-03,4.106310551216885239e-04,2.643713240870617081e-03,3.710717228877538632e-02,2.140387510113515163e-02,1.707796691262946503e-02,1.909271266457630498e-02
1.566199158114138165e-02,1.060360530437377824e-02,9.069852516128748543e-02,5.311731955158062977e-03,2.809058664906609283e-04,2.581895138964414478e-03,2.762739620123133566e-02,6.707667004979251876e-03,8.138094368715018817e-03,5.181461748636640580e-04
1.510546978546785032e-02,3.250601714169611568e-03,6.873474923663702718e-02,1.632499216649212822e-03,2.661812381129321950e-04,1.313963962158369711e-03,3.975131305039869556e-02,4.942755424386314350e-03,6.526077591542181477e-03,1.219875458876513129e-02
1.639176271443970254e-02,1.419929505104000622e-02,1.325137304236962410e-01,1.070812237914749946e-03,9.520083317108408256e-04,1.139745295409612304e-03,6.630485105303639271e-02,1.394108952764295389e-02,1.400184242847010534e-02,1.467503515369818212e-03
1.833097651340380788e-02,1.666948093553680121e-02,6.134433299747982238e-02,7.097044049453403013e-05,1.266355235794608056e-03,3.484372681829202376e-03,7.952179840049700132e-02,6.718523343818850677e-03,1.081004682344160507e-02,1.551925865189286713e-02
2.536498874381070898e-02,1.445355947536928164e-02,6.410404388206543402e-02,3.411024376133391274e-03,9.647266678686723185e-04,4.669232363973777056e-03,6.450196977813150989e-02,3.151958176776407244e-02,3.100543577899786928e-03,1.244457390343974013e-02
3.750468832606029118e-02,1.304927068993570055e-02,1.547510231824925087e-01,6.204832443353399535e-03,2.761347947519077130e-04,4.981681883979314183e-03,3.867320430407571175e-02,9.197407496422060902e-02,3.871264758563413167e-03,1.612554767880489820e-02
4.697839816914343991e-02,1.367811871629870217e-02,1.821443767014089832e-01,6.905823649614442269e-03,2.782260499131839534e-04,5.216220145855708298e-03,2.840307001613280591e-02,1.445602549295940398e-01,8.778898838409987526e-03,5.763445432535253821e-02
4.707440068255696469e-02,1.469312486566892208e-02,1.469631937762149732e-01,6.386406764966353136e-03,3.906176993075527329e-04,5.337899349547364260e-03,3.729120572085801999e-02,1.604412808321924178e-01,1.104010820792447438e-02,9.686245052548866918e-02
3.967384910556620570e-02,1.541307051414692389e-02,4.592561879671861608e-02,5.856185831093630410e-03,2.552668687251211143e-04,4.605672522700211130e-03,5.161696900118910303e-02,1.270609057791118601e-01,1.145464778389841155e-02,1.201245570777845773e-01
3.302513005967572246e-02,1.683415613199515729e-02,9.468065717340297394e-02,5.562885708284781572e-03,1.932917183702413341e-04,2.879849804889882472e-03,6.586272445221415250e-02,5.545027613665091254e-02,1.344776868465609974e-02,1.209999503578639696e-01
3.273403909367234021e-02,1.851531833168179944e-02,1.990085192100314315e-01,5.106421622998510296e-03,2.325869845267280317e-04,9.557857558364509475e-04,8.154565775670999384e-02,1.954124810196125259e-02,1.888019789837228762e-02,1.067976990061269976e-01
3.609687448758014394e-02,1.678847183468358192e-02,2.031846350871140405e-01,4.352516212466022057e-03,2.423006531697514477e-04,5.050542321734217705e-04,9.130026806402631590e-02,5.722901532891271764e-02,2.447868709290028019e-02,9.102296167708613661e-02
3.682104289211173692e-02,9.033629058864896949e-03,1.173038202921364570e-01,3.716258402804617413e-03,2.039552188579266492e-04,1.468511510415445188e-03,8.840051353746619656e-02,4.053892072532554181e-02,2.560128923202148118e-02,8.140949076650604022e-02
3.277085941674377778e-02,4.918578464184304114e-04,1.464621083708398872e-02,3.418970881807577387e-03,1.778526238301721618e-04,1.967536796130824224e-03,8.272900673504000879e-02,9.566365238347709909e-03,2.083539789295780695e-02,7.944375401690784155e-02
2.643312766454451734e-02,2.671443867592117414e-03,1.684238020018046303e-02,2.786320817505364734e-03,1.738836604938995116e-04,1.970445852936841304e-03,8.687170677957591070e-02,5.033461799093379152e-02,1.017760171122297427e-02,8.265780183550945626e-02
2.078947659747319363e-02,6.339486154499625846e-03,6.317304384514570159e-02,1.132036337114558601e-03,1.643721547023294560e-04,1.736391576790333700e-03,9.558404567892254955e-02,4.967157348093976382e-02,6.317267294085829148e-03,7.974554843054190711e-02
1.708241205588975631e-02,1.914485004149905564e-02,1.970054261892337788e-01,7.535149877088871684e-04,1.447238824027776674e-04,1.622216533350352491e-03,9.339173142803725014e-02,1.093891914901710949e-02,2.408010755667540359e-02,5.574170186177036107e-02
1.437258513151209137e-02,2.448946481807351416e-02,2.728171858171524744e-01,1.346051642009459285e-03,1.282043085007766902e-04,1.624058396752404206e-03,7.517738893794355393e-02,2.552709235970265084e-02,3.420883056628176710e-02,1.549248452291542358e-02
9.980498116276598566e-03,1.882966677083526552e-02,2.358905971615475605e-01,6.543635235484377127e-04,1.174705369275185987e-04,1.502780752126685587e-03,5.048085265556381818e-02,2.003361131212999871e-02,3.227959981048246496e-02,1.252539955715974845e-02
1.634694684619342891e-03,7.220425324666249547e-03,1.192882642453582109e-01,1.688661490594933648e-04,1.066580200914308868e-04,1.284950429149053297e-03,3.088046179597744162e-02,1.587030352909691786e-02,2.177562735098477475e-02,1.343541569751020501e-02
9.539935963788759993e-03,4.215851889553369827e-03,1.360270947124454267e-02,6.015022284686553054e-04,9.472833500616945740e-05,1.273319880851369462e-03,1.844795528797420203e-02,3.446957266732081360e-02,8.250783925305761948e-03,7.832309058227035145e-03
1.848042949822936362e-02,1.258091703439321446e-02,9.910290964682365311e-02,1.278643068822853763e-03,8.464866932594730751e-05,1.408019936155697604e-03,8.155417946426388523e-03,2.490719614989498482e-02,3.075441504370076025e-03,1.606553834202996064e-02
2.125039159476775283e-02,1.787763420720036439e-02,8.713052047941663436e-02,1.608817718881026771e-03,7.712621217001563978e-05,1.099442114412449304e-03,2.091073419329922065e-03,2.427264165489498998e-02,6.123394931986960582e-03,2.659098287368717034e-02
2.143758402871613969e-02,2.173990285632698000e-02,4.655767135598698828e-03,1.717947789971774244e-03,7.091144019396240273e-05,2.216871539140713280e-04,1.034818515290595806e-02,4.969081551371178074e-02,9.183677581049690033e-04,2.234178792699925004e-02
2.736676592959194632e-02,2.500293761319960506e-02,8.347403630499357352e-02,1.792687139923569966e-03,6.573261753159976282e-05,3.417934752733544300e-04,1.808382993098235289e-02,7.396569790874027439e-02,1.099774845179690881e-02,9.432612015123912480e-03
4.058428511833565844e-02,2.620341585231790102e-02,7.540616905381083979e-02,1.857069990243575977e-03,6.218796446072288008e-05,4.998092807063019916e-05,3.065241957680376467e-02,7.351487209769369535e-02,1.515560772928168688e-02,5.779583141731761339e-05
5.168299352238871908e-02,2.460177784031062839e-02,8.090661731874749033e-03,1.984561926009162716e-03,6.037002326446367197e-05,7.534108196439266627e-04,5.036620347413309218e-02,5.177379851132361127e-02,1.105617650335986857e-02,4.352014405120337853e-03
5.193544367035924508e-02,2.342300508473538906e-02,1.104212184005055053e-01,2.010886177441719228e-03,5.990053105613333249e-05,8.982459600017528864e-04,7.485066637215180563e-02,1.512785007516326274e-02,8.051606083724880975e-04,3.957828208585618002e-04
4.461527981200516524e-02,2.543499249116625699e-02,1.752723344538217876e-01,1.555979105401378683e-03,6.057758151730565586e-05,6.107746866179933820e-04,9.954853835721334809e-02,3.408300672184295943e-02,1.280853589652356482e-02,1.988048926736278241e-02
3.787856452503882837e-02,2.503845357839660363e-02,1.434290660666993900e-01,1.057381834562929213e-03,6.237115308760295433e-05,4.549922383854429877e-04,1.172891951546415068e-01,8.099859155601706051e-02,2.201018810149917015e-02,5.128023648988110778e-02
3.132806560029439275e-02,1.196744467893126260e-02,1.580878794676306154e-02,1.796991050840942954e-03,6.512523018570999490e-05,4.978740547707284636e-04,1.211255601900298046e-01,1.050466284767667402e-01,1.420105714785521722e-02,7.605670962037235083e-02
1.973835485417174337e-02,1.338617759819939190e-02,2.386668229408952235e-01,3.752494952441185697e-03,6.856259735159249196e-05,4.961840178973735702e-04,1.115577407519583036e-01,1.044810262065556800e-01,1.356404707820792373e-02,8.469105028207399299e-02
5.377108178958631135e-03,3.596105154144398075e-02,3.933325871257726813e-01,4.721047790459777412e-03,7.243169843994419748e-05,4.112697387887301933e-04,9.463564486584190305e-02,9.145867141552446733e-02,4.515525768982021210e-02,8.120662442549805848e-02
4.509784796437918408e-03,4.261647778563511929e-02,4.045096114499862061e-01,3.179137229225268823e-03,7.651430912154782342e-05,3.553191356679867097e-04,7.340491603403490051e-02,6.584783293941186277e-02,5.993242931212747204e-02,7.165650745582273495e-02
8.058817558505076625e-03,3.537709439161233066e-02,3.126431465818338418e-01,6.370591648569220999e-04,8.056559320384972813e-05,3.473368168808891134e-04,5.076949775694026418e-02,2.273283431453216805e-02,5.348010381731158058e-02,6.177014302514624577e-02
7.920292965933784998e-03,2.367566755022095307e-02,1.973720266919352651e-01,5.575607106031656331e-04,8.431889987387290123e-05,3.339655418537836084e-04,3.668381878645929350e-02,1.793565453778880880e-02,3.687467218683170012e-02,5.992771095017409427e-02
5.119067729058533744e-03,1.177564429276807545e-02,8.750278724962873289e-02,3.616083910880515083e-04,8.752318365175125903e-05,3.051027107571915127e-04,3.825710454342073213e-02,2.520636602496563461e-02,2.001120957590020802e-02,6.862899717830965585e-02
6.764670601768054195e-04,5.246346166249385608e-04,2.888963496015521312e-02,3.004979921557320759e-04,8.995045131698879031e-05,2.857134347758586465e-04,4.601722731570037639e-02,2.142049653808575024e-03,4.055343696148900993e-03,7.966295801665276843e-02
9.126503961308356921e-03,1.116809929700281548e-02,1.357547605368153720e-01,7.495363223168819257e-04,9.138728343663609765e-05,2.793317699325105008e-04,4.419671950731016846e-02,3.937971960102495256e-02,1.101517626060949905e-02,8.711847410563670902e-02
1.938733868072696140e-02,1.638077006780249562e-02,1.768493411905150137e-01,6.879150664569988558e-04,9.163969198293104700e-05,2.710348164223864769e-04,3.128627240139261745e-02,6.930610421742272598e-02,2.003816053884982865e-02,9.392647377116489227e-02
2.953210417347313516e-02,1.604292240112061008e-02,1.266510800151778304e-01,2.243169429114664202e-04,9.054488530756932513e-05,2.588542986013328269e-04,1.877883593552704539e-02,8.834064127004329081e-02,1.860189508056096785e-02,9.940550627066568889e-02
3.657793293229010673e-02,1.410138543188005529e-02,4.019345376725493024e-02,9.235364545194463606e-04,8.797596864519646655e-05,2.533442654621719577e-04,1.426535561241539657e-02,9.656079573648677916e-02,1.091344872288242326e-02,9.613049283327250449e-02
3.856627027045845396e-02,1.353400895790004069e-02,9.519521160811436622e-04,6.766947990033099491e-04,8.384224942292902143e-05,2.524705977025654743e-04,1.421789702565215419e-02,9.892353990170738021e-02,5.537363467797189881e-03,8.295539595346138051e-02
3.594557925168161833e-02,1.375156671681680362e-02,2.628771890807061681e-02,2.164000233344646790e-04,7.809157816197843851e-05,2.401007704284256815e-04,9.560885268476216822e-03,1.021503764012695187e-01,5.575954750825121847e-03,6.543381708018150555e-02
3.148842827497351504e-02,1.324875703250919141e-02,8.440375297929547660e-02,4.593510945843401298e-04,7.071343961878190116e-05,2.200061026602087783e-04,3.872193353862676476e-03,1.042003845598963863e-01,8.222961863121987930e-03,4.534378186219365642e-02
2.892676605867803771e-02,1.209159260426055649e-02,1.397061236685785690e-01,1.236675335778446294e-03,6.173968514191929976e-05,2.206641029967138326e-04,1.750052279184367496e-02,1.000473755940012588e-01,1.126031971234965970e-02,2.427771066898076757e-02
2.992580959935392873e-02,1.106108526875327659e-02,1.951392922782693995e-01,1.956804157461180301e-03,5.124342140179470888e-05,2.320250942557637727e-04,1.718043066805746699e-02,9.515666737275486897e-02,1.522374572255695210e-02,9.717542856393330403e-03
3.291989600935943394e-02,1.038970557873622469e-02,2.586827381058300901e-01,2.563180593441753176e-03,3.933750568968844008e-05,1.933473734381833888e-04,1.094860092839396344e-03,9.594705331088418387e-02,2.096716649975151336e-02,5.413414703844841858e-03
3.643265744005039913e-02,9.892739585636516064e-03,3.032285859581261289e-01,3.299167858469384540e-03,2.617245100400032639e-05,1.236323147858892069e-04,1.724447916388693533e-02,9.389670262850211002e-02,2.751215383015238880e-02,6.808289350073345667e-03
4.101335804268219087e-02,8.880332343757220068e-03,2.831280223677837826e-01,4.182377709102577147e-03,1.193311973103070562e-05,1.538453118541862480e-04,2.502181058114844384e-02,7.990127166295868388e-02,3.115071083488319195e-02,1.195537659261544476e-02
4.466539241035219487e-02,5.881308092141952944e-03,1.979521477203161905e-01,5.081213424072675636e-03,3.165620172466760611e-06,2.551252976140568063e-04,2.117973365353532228e-02,6.307250555523279123e-02,2.771461651110296992e-02,2.159951792151194525e-02
3.983279306770912825e-02,2.035294882459745026e-04,1.116559456454486454e-01,5.964159570427186516e-03,1.888385759076466688e-05,1.072301717424800074e-04,1.273703764336680914e-02,5.397666001020508947e-02,1.793709496606266107e-02,2.828433797868509444e-02
2.159285424674562553e-02,5.729586405834529231e-03,7.770631035938121989e-02,6.868797097406184951e-03,3.496212929881000955e-05,4.808027933969809893e-04,5.553246348814185399e-03,4.551065578386643412e-02,8.034589187124966531e-03,2.450249332627711663e-02
2.196724524338133835e-03,7.510283233235453063e-03,6.913386146236491503e-02,7.785193609803630482e-03,5.112745230269384752e-05,1.201848591422148603e-03,3.028297201106283209e-03,3.092141613819837653e-02,2.890319949541546220e-03,1.788821859830646427e-02
1.622925634863659275e-02,3.634682359060586575e-03,2.680819199437266612e-02,8.669467664982439051e-03,6.709976069328334994e-05,1.540119586416188128e-03,1.974215625627889770e-02,2.208848632540260509e-02,2.138529822458960002e-03,1.806157353831616685e-02
1.468995636583900546e-02,2.228447836850341347e-03,4.503455044081263597e-02,9.499118696583777610e-03,8.259852523447433275e-05,1.263472702072454719e-03,3.962535422351516623e-02,2.791990307557325537e-02,3.703487717844534347e-03,1.455048556100942830e-02
7.354655991698474948e-03,5.446292448101314881e-03,8.518335238580784785e-02,1.026793171637284223e-02,9.734933963242651796e-05,6.026809378155234499e-04,4.529570421225553173e-02,2.959103656907723090e-02,6.111998620565665258e-03,1.186386256046044821e-02
6.287065069068942941e-03,5.355742859348686102e-03,6.000887584070530717e-02,1.096059381709200975e-02,1.110903314453518182e-04,7.212630772752978508e-05,2.914604290597244338e-02,2.157188832127156231e-03,7.311064157538993934e-03,5.895888209168180516e-02
1.061887019890213682e-02,4.408446351613972206e-03,1.001819161545403764e-02,1.155534454394995664e-02,1.235783673904956045e-04,2.243208198297091320e-05,4.296391335603700311e-03,4.443031179067055692e-02,6.970464870361958720e-03,9.944794337002288431e-02
8.986798591382898216e-03,4.241399470646507741e-03,8.877352660775730819e-02,1.203641899064879402e-02,1.345949147880244167e-04,1.268887444245425937e-04,1.229230485444325095e-02,6.925786713079495893e-02,8.894998693727795142e-03,1.082104666960091721e-01
3.974942196375780626e-03,4.533882600265175603e-03,1.401908039847325205e-01,1.239343439744168551e-02,1.439511356367520381e-04,1.988979988359346066e-04,1.720711222529607357e-02,5.083441522170865229e-02,1.473180504745250953e-02,8.593820418905552538e-02
1.790804973364847411e-02,4.525303105915453976e-03,1.287718954295473672e-01,1.261602216469990927e-02,1.514920208165082994e-04,1.637238310947638955e-04,1.805792331496504019e-02,1.688684519146815138e-02,1.747621293288475347e-02,5.439014377077294043e-02
1.636675568495948863e-02,4.143192317237835362e-03,5.608036168425410695e-02,1.269446723584105596e-02,1.571000547666135229e-04,1.513260721423425768e-04,2.126159865739003091e-02,7.079225984079100080e-03,9.470291464660869282e-03,3.106405231886971013e-02
3.941608543327744865e-03,4.058565870423518074e-03,1.757759095884332129e-02,1.262247785577477917e-02,1.606984854218717511e-04,1.803496909526604069e-04,2.541367222608508988e-02,1.339443747780452373e-02,4.602551687431895994e-03,1.315165286586025654e-02
2.787860073165644714e-02,4.781985822065554399e-03,2.839159522079410039e-02,1.239704753965293130e-02,1.622528509764791882e-04,1.902899310169010047e-04,2.458945008568503426e-02,8.854623146249152379e-03,1.195277484915663498e-02,9.127291584528345048e-03
3.941591343992928431e-02,5.260092443522723822e-03,2.468342376256866394e-02,1.201739762322358990e-02,1.617703271072352240e-04,1.705980116865297503e-04,1.563273285371013718e-02,6.394331175819731317e-02,8.465367000446588630e-03,2.987569096879620287e-02
3.871729083177619102e-02,3.607098891392979817e-03,9.435847814497388963e-02,1.148526692237147179e-02,1.592996001297390966e-04,1.486257439354172235e-04,7.915688452580296741e-04,9.975162337653557809e-02,1.499982373495376952e-03,3.404063338861788857e-02
3.554479156589183259e-02,3.232761793020500949e-04,1.495050343443046770e-01,1.080512813913915050e-02,1.549321848974407961e-04,1.292468681692399103e-04,1.412733942988292531e-02,9.034877367466603859e-02,4.118983768668080248e-03,2.496762205521305816e-02
3.291542860217921973e-02,1.283543372664824617e-03,1.998811945651664534e-01,9.983482196850079760e-03,1.487994262411148011e-04,9.949917999776757655e-05,2.234542474368925516e-02,7.625719523060937866e-02,1.145784335731082904e-02,2.217669121055751424e-02
2.605054388544746427e-02,6.367637220966298204e-04,2.621486256704522733e-01,9.028996061038536275e-03,1.410631425907940182e-04,5.646632779651533879e-05,2.123004398430404852e-02,9.294086509077181812e-02,2.029881995815903048e-02,2.702586324907775561e-02
1.258841213775471410e-02,4.279167977100793024e-03,3.190050896171742756e-01,7.953448945047741567e-03,1.319123129124577520e-04,5.912623357344726173e-06,1.546398584102791698e-02,1.174612684720417327e-01,2.244001349914530319e-02,1.628428969993751113e-02
2.855373340166190814e-03,7.114513111504586207e-03,3.235123508829446104e-01,6.770290112959654640e-03,1.215707159757119081e-04,4.980454042238614885e-05,1.015074903041999349e-02,1.137078164853311812e-01,1.403514960215858365e-02,2.075611747249145669e-02
1.149001728589820782e-02,7.694399049441302818e-03,2.515121962899278807e-01,5.491714756317357671e-03,1.102894604953879025e-04,1.122021847022146984e-04,4.051850503251711207e-03,7.220360942193847220e-02,3.064881154467515804e-03,6.353111578112280444e-02
6.573870571880118668e-03,4.580843581652766124e-03,1.384587490151876210e-01,4.130877931527889360e-03,9.831359903510296708e-05,1.831513150642639530e-04,4.389479861128071578e-03,1.590247145233322779e-02,1.833998472989765288e-03,9.109873415829894405e-02
8.650422224438880300e-03,2.207775308964529237e-03,4.155616593353730903e-02,2.707084667648605898e-03,8.587861206090484107e-05,2.626446184716442066e-04,1.017363730025197532e-02,1.571210771841649867e-01,1.729498669998575603e-03,1.092793992372375622e-01
2.127441255880729160e-02,9.037848210520487563e-03,1.953469732957915234e-02,1.239902320740582722e-03,7.326175263480699156e-05,3.458459041814396337e-04,8.058571595493287110e-03,3.031510486150992834e-01,1.187652214138122143e-03,1.310873590087048013e-01
2.233251723209180375e-02,1.185054016547168118e-02,5.270988523675079057e-02,2.633253188303805170e-04,6.077025253744713343e-05,4.282386858084275731e-04,2.593212076332367631e-03,3.662208845433410631e-01,4.227434866748890291e-04,1.479867031965380331e-01
1.557922028346827095e-02,1.031972391440739295e-02,5.281702635510833466e-02,1.796450654586711007e-03,4.861044895223919890e-05,5.170055181164152913e-04,5.113889895023027848e-03,3.147001002839156514e-01,6.494615791674449544e-03,1.393301956348914350e-01
8.536417158761345353e-03,6.181050332493657172e-03,1.692563647609929972e-02,3.328824684713549940e-03,3.688889141041382992e-05,6.202497910817579519e-04,1.716463704219183331e-02,2.072792293407776376e-01,1.672211197857957285e-02,1.030747834582321359e-01
3.374078664756497651e-03,5.963850382244644498e-04,2.551854087714834629e-02,4.829413715729109942e-03,2.587196191232434640e-05,7.201801475064625088e-04,2.071587804174270311e-02,1.213624767713950003e-01,2.461006039673368367e-02,6.296070633224674917e-02
6.424707580387108152e-04,4.145024981112559875e-03,4.066284672547693796e-02,6.323457669651751795e-03,1.597163638774274166e-05,7.955302402003394582e-04,4.174737952766757396e-03,8.269295100981333135e-02,2.057089382859533452e-02,4.340402191779624969e-02
1.524223884729170465e-03,4.602220988077731362e-03,3.205463975641984625e-02,7.843472492004836816e-03,7.173736112133935548e-06,8.805607664435053002e-04,4.904033861311780929e-02,6.813899880214666083e-02,1.865655051980960903e-03,4.438556958732454288e-02
3.430727675200750948e-03,1.173059762161829693e-03,2.815009094174743265e-02,9.307745610149333049e-03,9.613582824921954820e-07,1.018788806617673551e-03,7.926011995863552206e-02,5.163592058975238069e-02,2.019364774342194413e-02,4.786099890173737409e-02
2.792628526486299560e-03,6.789296135323261714e-04,4.262755659189651491e-02,1.062241867498274830e-02,8.089896200284117740e-06,1.135202903160638377e-03,7.752491641311058668e-02,3.129199692275078798e-02,2.947784111347322850e-02,4.314160607740164660e-02
1.383334719343336586e-03,2.854629770934656412e-03,6.944982973964318462e-02,1.194699135769726299e-02,1.306414884363190715e-05,1.131532651625444773e-03,6.744287808811127993e-02,1.043252118878948767e-02,2.144717316142692731e-02,3.190267817025350949e-02
2.165899119266021314e-03,8.934883162571004636e-03,1.049771280697944370e-01,1.349043034483353269e-02,1.651976237554479655e-05,1.164556171840515526e-03,7.473573256575018198e-02,2.374903212228684016e-02,5.621712567321064322e-03,1.413095221597843176e-02
4.052418177427132354e-03,1.158863603437774309e-02,1.379219125417456004e-01,1.488725570529610999e-02,2.099034787832161571e-05,1.459263657680177385e-03,8.592702980015891334e-02,7.602347234229649142e-02,5.607912392080964537e-03,9.441567870204999741e-03
6.687643687319171255e-03,7.480167150864743680e-03,1.131376586182568506e-01,1.540270537293677786e-02,2.538456606442983000e-05,1.664034809827297451e-03,7.419356751799865979e-02,1.195532363177549545e-01,5.990337778788346404e-03,2.605742851183239298e-02
1.232294134470104073e-02,2.606102021402633903e-03,4.429727324890694873e-02,1.518792788423422614e-02,2.459364821655649798e-05,9.720603720747535625e-04,4.728380985553176652e-02,1.291750204066886287e-01,4.102660366575371781e-03,2.515335334638606202e-02
1.869682060010895153e-02,1.479246942650801200e-02,3.294028350340793554e-01,1.560855457750871117e-02,2.126911127935612075e-05,7.765329390377837546e-04,3.684046073632634560e-02,1.139481839092209015e-01,2.070067006213233488e-02,1.694330713989188053e-02
1.882995715195828410e-02,2.349614604942024468e-02,6.091989555104558862e-01,1.763314526440094149e-02,2.695821293081456340e-05,2.720866677848622888e-03,5.140753497516292042e-02,8.898680707139874912e-02,3.768689990233883153e-02,1.625042216127112193e-02
1.098723768530653414e-02,2.474091171999131741e-02,7.279095109535052011e-01,2.047177086040073701e-02,3.696776574803965065e-05,3.831296660387913718e-03,6.778777671735608523e-02,4.924136421026842347e-02,4.766961443532160420e-02,1.979661976301878151e-02
1.682794259322260757e-03,1.965449406560037388e-02,6.591001813944775689e-01,2.257138684618233138e-02,2.726754396333174357e-05,3.504937589667276449e-03,6.398255871854684196e-02,3.205887383328338835e-03,4.558415420502427012e-02,1.866559101095785489e-02
2.893671857439004784e-03,1.293992988060559471e-02,5.012675489044132737e-01,2.361810698474325204e-02,8.073857968253023032e-06,1.740089154379584205e-03,4.065458575157086807e-02,4.334946927119159160e-02,3.229739149676461030e-02,1.881953833358890327e-02
3.037566401666010572e-03,7.313126379668067473e-03,3.264910738543149171e-01,2.476910885378865237e-02,3.184700650689420068e-05,5.408226456111635359e-04,1.004098396927340271e-02,5.546600651988868591e-02,1.292777776213692442e-02,3.113081995975969934e-02
2.142766688999350570e-03,1.588175985027180312e-03,1.258789868940931311e-01,2.675030771899207169e-02,7.903719230275249358e-05,2.057460429928226805e-03,2.184041501633802312e-02,4.731501022620122898e-02,7.365832915269229439e-03,5.252737476175232262e-02
1.494804866449963177e-03,5.285935990853390942e-03,6.343515826857451523e-02,2.854341149527196697e-02,3.786813134746071002e-05,2.408041872414691791e-03,5.325174252253152274e-02,2.342736189594816359e-02,2.390246136267171889e-02,7.147495208800826172e-02
1.113181036239382568e-03,1.136763594613193935e-02,1.042616092552317297e-01,2.928139670015979246e-02,5.221820919904390519e-05,1.965907673768519954e-03,7.309245964392034611e-02,1.925419541037420856e-02,3.177494476013025676e-02,8.475213258272033812e-02
3.132839642906001549e-03,1.424498540383807577e-02,6.297129599878939499e-02,3.083317701104478642e-02,5.185190639155433633e-05,1.076957274225387538e-03,6.539240125494527600e-02,6.188295975563706808e-02,2.974854109196439084e-02,9.742061778363117486e-02
8.465430195426122684e-03,1.333779489496408552e-02,2.866180552157946426e-01,3.495101625768300829e-02,2.821199944299202455e-04,2.380680217927159318e-04,3.214053008759014396e-02,6.551894800661142715e-02,2.369226036400800747e-02,1.092026867742408036e-01
1.023963459336813681e-02,8.648245093978880818e-03,3.706347763746558610e-01,3.730235195323381575e-02,7.562942362288986315e-05,6.610481126850781914e-05,2.754446899650518817e-03,1.846019689866637559e-02,2.031481672365298419e-02,1.109285723360874526e-01
7.590073318105539871e-04,9.374033699279607241e-04,2.982799425851410113e-01,3.040128214787105737e-02,6.905646161886818497e-04,5.148652111821264577e-04,1.802961684770126513e-02,4.038975068016249087e-02,1.743074946755010859e-02,9.774976870405902019e-02
2.152898527427244899e-02,6.158690528575391440e-03,1.838132989551392871e-01,1.520971946637825027e-02,1.146643807025623987e-03,1.070530335597880307e-03,1.261967548817803479e-02,6.259826772469880007e-02,6.847428551092186663e-03,8.004320172833316593e-02
3.619917359823356107e-02,8.273140127135650973e-03,8.933077837826496059e-02,3.173340530086600237e-03,6.542452814705672533e-04,1.579835694284068308e-03,1.324470000106214634e-03,3.979658435255225418e-02,1.153254773102750999e-02,7.427028795964857322e-02
3.317199508189171142e-02,5.238559305195121182e-03,7.552707620620199847e-03,3.401277637960732712e-03,1.485249715364243112e-04,2.097126863096715563e-03,1.230779139174067484e-02,3.978407766785936606e-03,2.558318995871755597e-02,8.247745142560203302e-02
1.678994972030687857e-02,5.590506690160796863e-04,4.026808223850077140e-02,1.389704655142887449e-02,3.918034798875174489e-04,2.443201446727577119e-03,1.725738494212059743e-02,5.127273238064830596e-02,2.484786621529762318e-02,8.679689242628202406e-02
1.649465844276240415e-04,3.627968556419421901e-03,1.195217831190210911e-02,2.717967415625294203e-02,1.982287793297936242e-04,2.399754369833611255e-03,2.107290085345347661e-02,9.924405028335570034e-02,1.262655501584276918e-02,7.030316222004585891e-02
8.755688758486796994e-03,6.817958234875257095e-03,7.414270709781758950e-02,3.811136893606158205e-02,1.309133759487521895e-04,1.867230193157349812e-03,2.778531222592009811e-02,1.412567132920926616e-01,5.975422124797071747e-04,3.953058558028074709e-02
1.171661640530036359e-02,5.761959208201262311e-03,1.527011029792822161e-01,4.543672838218808935e-02,2.586333761021469596e-04,7.584291816009380892e-04,3.350359912997352696e-02,1.613244071181329786e-01,2.957681715773685313e-03,1.460909304886690713e-02
1.311847439158946027e-02,3.766516541310864323e-03,1.880993240642164221e-01,5.188852742241675808e-02,3.382107634530150835e-04,8.055997117794609424e-04,3.211689904115790778e-02,1.452780842002658890e-01,2.209671302085509242e-03,8.741726502703760573e-04
1.172865124617434272e-02,1.910608085682504592e-02,1.796365478362469403e-01,6.190459949196803341e-02,3.285733251147356700e-04,2.353015039973418640e-03,2.553900136480125038e-02,9.300626150173463280e-02,9.394521162765788122e-03,2.240686107379111919e-02
1.853889532820222679e-03,3.094435002723568140e-02,1.234662774075265951e-01,7.216247741666212412e-02,3.417173644432200223e-04,3.751498530220721307e-03,2.208836319303552481e-02,2.145114850380299559e-02,9.920215288846663190e-03,5.628664067647878855e-02
1.703964584993345951e-02,3.337550170301483571e-02,1.948698731267492143e-02,6.775393809802564282e-02,4.006975081334639512e-04,5.567589449102285266e-03,2.622279316195808008e-02,4.645444656169580439e-02,1.339200735179491963e-03,8.799227956988313337e-02
3.542517489689651911e-02,2.822822881471377318e-02,1.096649556622427829e-01,3.770175005942721230e-02,4.526602559485141931e-04,7.568565710617006399e-03,3.694235681472500532e-02,9.627103166000332279e-02,9.907177167407727955e-03,1.011749209383406567e-01
4.189135824402279856e-02,1.947642770155412831e-02,2.344584559134721136e-01,9.825248181067633077e-03,4.798161582026801110e-04,7.836961621884113577e-03,5.325997366829728769e-02,1.261486761690772396e-01,1.552437030210166921e-02,9.441166758936643533e-02
3.437324968350406740e-02,9.593465547513514366e-03,3.331278463689274494e-01,5.723981371337356905e-02,5.066991383270065281e-04,5.293176318075638008e-03,7.146359338824583018e-02,1.457625132955411018e-01,1.276024957804362293e-02,7.924028995362925043e-02
2.031440413386601668e-02,1.080680213446312370e-03,3.824820021795881098e-01,9.526137968141451529e-02,5.540100994263625050e-04,1.814999769312446512e-03,8.104408676028998504e-02,1.744218710224046398e-01,4.153802913939853327e-03,6.862662271928973712e-02
7.952215778465157245e-03,3.823585262986729620e-03,3.519036549063000452e-01,1.227764434072051436e-01,6.093248954026027125e-04,3.218924394563296167e-04,7.522149795899180091e-02,2.232132949616493223e-01,7.528272979573090960e-03,6.404352968977092275e-02
5.137809266945671423e-04,4.888817716362072255e-03,2.166703093171317707e-01,1.391949506041214035e-01,6.353921696274948076e-04,1.465248694046050173e-03,6.189658874956359413e-02,2.678016716543115128e-01,2.205358569511454633e-02,5.373165979710312068e-02
2.660534492700142393e-03,2.805402929067642940e-03,1.095074704191109291e-02,1.449014483967603628e-01,6.375878123825397172e-04,2.849563405510019062e-03,5.235744462164151208e-02,2.646385781989196162e-01,3.896400414490735348e-02,3.137741272109499657e-02
2.938440158840627779e-03,1.718783689198231674e-03,2.551606326229726163e-01,1.417054644138622255e-01,6.925241326825456404e-04,3.704412890810673299e-03,4.301490071313054941e-02,2.149683468590202484e-01,5.314758778960806257e-02,1.225475811920271468e-02
2.066973727629916116e-03,6.275460301574182359e-03,4.066755659667695144e-01,1.288075055910553324e-01,8.095367214103288498e-04,2.545656412566924941e-03,2.141009201982833204e-02,1.752092066762316602e-01,5.573002501162202527e-02,1.545724312150901711e-02
3.142161404058317706e-03,7.424188214216927151e-03,4.078390068410941427e-01,1.039593655169418623e-01,7.972007611645501963e-04,2.577567706932613152e-05,1.282038711290104001e-02,1.760056373654312056e-01,4.214573930521321732e-02,3.183164499187299268e-02
7.656125363241359470e-03,4.735437377602715048e-03,2.956646329221312430e-01,7.046221073438875548e-02,3.516929620557306189e-04,2.149887156147053686e-03,4.730427403093774574e-02,1.798631408150111743e-01,1.931104614439863726e-02,3.109059054986247281e-02
1.136787660202386550e-02,1.156320966091735217e-03,1.465151410392195874e-01,3.856960031285942836e-02,7.747000668679578051e-04,3.572025599418372516e-03,7.399370756253456638e-02,1.472414279994269382e-01,7.058777530828390812e-04,4.721508796306683915e-03
8.255330302782229804e-03,1.599274754707810924e-03,1.588071256048633612e-03,1.530635924683322602e-02,2.487504442242793358e-03,5.706160667909444817e-03,9.180008382423024416e-02,9.139590388969227874e-02,7.661914887975674465e-03,2.152025971153732203e-02
3.741542432714818666e-04,4.979323696757061678e-03,1.357272259467994791e-01,5.439044207203475381e-03,3.886417751329203363e-03,8.845725452287980101e-03,9.610085103067098067e-02,4.551335513137353544e-02,1.195467263818757869e-02,2.532631238352201983e-02
5.942169453575923965e-03,1.058574670068610293e-02,2.575438690947940423e-01,3.144635862769815104e-02,3.646888641063485322e-03,1.065355206173785110e-02,8.018796532471809957e-02,2.236164981443067301e-02,1.856479508552577595e-02,1.554895168659733637e-02
3.057012119743944371e-03,1.768800008179127747e-02,3.434099238798913878e-01,4.848028992196273812e-02,1.645771292264270593e-03,8.411760406072638085e-03,4.503320073231964482e-02,1.755061430642364945e-02,2.287486931379998159e-02,1.233655923590427743e-02
4.649870013437051343e-03,2.338823300077517639e-02,3.873306020570576602e-01,2.918795302491914920e-02,4.866156512081992649e-04,2.672953844029855169e-03,9.807560767298526688e-05,1.493626412056217427e-02,1.504306909370520251e-02,1.843073745537866098e-02
1.047076832216372808e-02,2.417323442811938894e-02,3.995973236988324961e-01,2.416082251983563481e-02,1.280227217039969431e-03,2.677102004622863504e-03,4.265103583689629219e-02,1.359028396208581888e-02,5.971201230978700342e-03,2.310421491463402269e-02
1.251464387863036182e-02,1.883493437398779669e-02,3.818216186909216270e-01,7.092069013255068721e-02,1.033969587302905994e-03,4.694976256081335834e-03,7.151455297561207236e-02,8.167037753367591135e-02,2.967310118217825546e-02,2.214187714244617716e-02
1.393449870461886501e-02,1.060184210374119640e-02,3.302707129555063070e-01,7.937490467052091270e-02,8.259773391662105077e-04,4.242544920473236697e-03,8.496196086836037276e-02,1.607095229771822453e-01,4.469148083623483009e-02,1.970112488062659289e-02
1.831908781098486039e-02,5.224483447418546908e-03,2.658274919922670732e-01,5.819271835081434030e-02,9.544197959913775994e-04,3.744966259545879327e-03,9.105372974933462205e-02,2.052372843274893333e-01,4.718471905942226569e-02,1.784318928285523118e-02
2.651505924782336307e-02,6.627145873062703814e-03,2.336780182650694260e-01,3.084787122675593241e-02,1.068374519416336304e-03,3.961954638631584417e-03,9.100736122875834055e-02,2.067411399429698871e-01,3.822820643027149273e-02,1.692110825737647845e-02
3.544786116782378677e-02,1.366257265538274243e-02,2.552978117325002683e-01,5.110717257303804863e-03,1.026853825011164950e-03,4.200634427151384541e-03,7.212012766120937113e-02,1.957895373559210839e-01,1.937410215829492299e-02,1.847678741173935588e-02
3.923992766683113975e-02,1.948643727559338026e-02,2.800740605116418536e-01,2.042763071896101443e-02,9.839509362670208724e-04,4.124842081345705437e-03,3.008469852645989304e-02,1.903806371602835557e-01,4.229393804618055037e-03,1.730347349077770644e-02
3.486134195941352487e-02,1.621518850905398490e-02,2.167228783280115423e-01,4.169254178629971247e-02,1.021995536353807223e-03,4.010948057646731429e-03,1.592923748550503088e-02,1.788021056704734435e-01,2.112585443712369782e-02,3.892310826359833813e-03
2.781566428837421029e-02,4.043494030511432698e-03,5.020426062708036041e-02,5.542276195697893454e-02,1.076376986584197133e-03,4.029148065075449994e-03,4.439298244007441191e-02,1.645108357184643377e-01,2.334050645059035367e-02,1.395529720496523074e-02
2.825842378971080496e-02,6.725107394018464690e-03,1.129877413208523473e-01,6.730745922084588329e-02,1.076472533714183718e-03,4.113461524212039776e-03,5.159242950480761453e-02,1.832511334235197298e-01,1.843133509968237008e-02,1.015218437836185386e-02
3.852098250689090647e-02,7.417010411884446611e-03,1.726179336363085626e-01,8.196617744509800130e-02,1.038316891183093532e-03,4.163222553659683481e-03,4.178798831309707418e-02,2.448358449236851808e-01,2.153620795078234687e-02,2.364393818559529931e-02
4.801928969006280523e-02,1.377418779121156525e-03,1.493623880339239318e-01,9.284776345928844044e-02,1.062531522362306427e-03,4.080916948275212230e-03,1.884196690596775386e-02,2.966724087591268710e-01,3.443501934852746110e-02,5.884344295135754410e-02
4.613778757688861282e-02,2.721606736616644096e-03,1.071921686243641203e-01,9.196535169299009660e-02,1.173740718333892308e-03,3.957379255620082845e-03,3.842990237429110348e-03,2.872908476801476763e-01,4.458039854136873481e-02,6.438934753788179421e-02
3.733459225160276618e-02,3.651194783130409880e-03,4.396103017780948058e-02,8.331390707092223291e-02,1.182282702848520698e-03,4.130519257134352903e-03,6.989587662611710522e-03,2.334698777746694043e-01,4.669247512948304646e-02,4.443580520187328381e-02
3.442047242353236947e-02,6.800866079573835397e-03,5.642053764556352602e-02,7.707364452794455978e-02,1.004052547050742665e-03,4.467834666844577342e-03,1.226838025994084723e-02,1.794668220369857736e-01,5.023566670518640753e-02,2.475919054946321834e-02
3.826681690007398967e-02,1.345489661210334115e-02,1.411244640229637470e-01,7.640534424528029611e-02,1.034205126136977662e-03,3.848710740550427816e-03,3.811317100135292596e-02,1.243741617667987187e-01,6.078973860300969367e-02,1.815097233188148890e-02
3.657215001772329971e-02,1.774186975700510135e-02,1.486883961891249106e-01,8.023358135272563862e-02,1.496814491631059821e-03,1.323365864985200611e-03,5.815384888354706294e-02,3.945339639140468813e-02,6.958304536801314388e-02,1.932633835872955494e-02
2.469463366164530160e-02,1.421129326132847259e-02,9.684616445580793154e-02,9.124011958764224883e-02,1.495463682686536035e-03,2.199502225691268072e-03,7.109145804853918282e-02,6.734371435047742382e-02,6.850315826460390278e-02,1.896444999122632452e-02
1.418735483590136993e-02,4.697432006712496527e-03,4.279296651965387721e-02,1.051453890454471241e-01,4.782578814688611036e-05,4.216478220550277760e-03,7.373149615513027721e-02,1.432029978526348502e-01,6.139735870562712527e-02,1.186324851529984604e-02
1.406523201577846577e-02,3.372891477000662316e-03,8.358634691832735400e-03,9.868758718691370002e-02,2.427979350475225045e-03,2.959931137714046177e-03,5.913082457018912358e-02,1.399753381737934288e-01,5.329725726406572134e-02,2.302863085306485445e-03
1.553578380719210401e-02,4.825559121940656455e-03,1.004044794873464562e-02,5.094908573460563833e-02,3.574829759997107635e-03,4.924995806828030322e-04,2.889894232439805394e-02,6.334687623327077410e-02,4.126515042708391728e-02,2.810965823295289920e-04
6.228326148856497615e-03,1.428780845217492721e-03,1.578408015084186572e-02,2.313467941420041876e-02,2.473074259049291585e-03,2.886306671327543844e-03,5.529299835538688257e-03,2.535261200354177805e-02,2.334071638153241077e-02,4.601850861133578718e-03
9.485159813718875219e-03,2.202802607256649711e-03,2.767893222320674113e-02,8.118725283329317199e-02,1.260391652984284728e-04,2.289948724244769175e-03,3.241468118253518910e-02,6.592841241917922479e-02,6.848784322354160847e-03,2.991735519074543471e-03
1.784093889883490297e-02,4.451460681584196166e-03,6.251619825174947742e-02,9.706584640857968127e-02,1.416265557589591138e-03,1.968130279255186151e-04,4.354487339701949150e-02,5.366910039095597329e-02,1.719837741251054562e-03,6.674562916714178729e-03
1.660730216150021685e-02,5.916854556470474771e-03,8.926203141417797526e-02,8.012771951427892503e-02,6.988512632259670726e-04,8.855959592110555084e-04,3.729391710494425749e-02,2.208177350225067406e-02,1.059787570350571168e-02,1.435759523297278767e-02
1.472519118167131894e-02,6.228784316707847678e-03,6.414391109684335068e-02,5.309806135209611810e-02,1.426855384490886705e-03,5.717025633808672357e-04,2.388669048763581576e-02,1.111881178574485041e-02,2.633346237106556909e-02,1.553188726289671077e-02
1.630914467349342881e-02,4.735118265645666888e-03,1.083776148409677439e-02,2.760734195792596476e-02,2.415246632468722593e-03,5.972512659997548609e-05,1.460347532704663748e-02,5.597150004901087217e-02,3.541746282181819361e-02,1.394055918205984630e-02
1.741286854227108716e-02,1.957573390007585901e-03,2.316655002550518754e-03,2.801584767373795776e-03,1.643524293325326208e-03,4.967707134924043209e-05,3.559248992192726516e-03,1.187087540016629195e-01,2.812831559634727460e-02,1.415613090836605713e-02
1.484265495718927255e-02,1.552692594304107927e-03,4.390441533057181517e-02,2.294134587245548126e-02,1.545915570994495312e-03,3.778620544719441757e-04,2.119691039548784323e-02,1.754787542867267403e-01,9.933302244264285638e-03,2.022742463608391897e-02
9.409377840131188594e-03,6.142068662367638696e-03,1.115592827025730649e-01,4.192190797337241870e-02,3.506700999265316941e-03,4.640818230444047421e-04,5.040967432473299203e-02,1.839217652622297805e-01,4.765845591830551037e-03,3.078376055373581097e-02
2.964052995545118571e-03,1.166891567549604471e-02,1.677350724903232393e-01,3.815360842722315821e-02,5.218147066244442460e-03,4.312806363441178928e-04,5.942455501440525867e-02,1.293468688504863795e-01,1.412532845703622954e-02,3.506947454540756265e-02
3.744745908383725289e-03,1.601979945400183042e-02,1.949343973219542503e-01,3.630416773153077609e-03,4.137988201077793735e-03,2.388977782922141642e-03,3.670551888415592851e-02,4.573204228803531141e-02,3.090664392970825236e-02,2.317329331148700045e-02
1.129821448673987844e-02,1.621970019948819688e-02,1.687225388739093390e-01,4.591812275954403055e-02,1.128926313769696571e-03,4.366154255470842960e-03,9.544770406963470899e-03,3.348435200666445566e-02,5.762426304961179580e-02,3.805752869667880164e-03
1.815229769909737501e-02,1.167804574071228813e-02,8.187314048237284703e-02,8.055980813136831564e-02,1.219398823346316265e-03,5.302235599822045092e-03,5.879545959446885739e-02,1.159586517403299599e-01,7.662021442976277297e-02,3.436429168626514707e-02
1.572354846004051648e-02,6.251574401398157961e-03,2.370663823343871490e-02,8.477426054638528830e-02,1.829489229156829695e-03,4.928252435159380905e-03,7.944974938839236001e-02,1.975755998827593285e-01,7.314477896651200295e-02,4.891808476666357347e-02
6.460853321672503646e-03,5.873059149207343448e-03,8.661102230258210799e-02,6.819355329755683037e-02,1.265451808092973298e-03,2.980371337837941538e-03,4.676066333642470846e-02,2.122709637124083337e-01,5.316660282870844939e-02,2.973311337806726698e-02
4.518086462589965269e-02,1.214100524100252682e-02,8.558083712202416149e-02,4.548974716756640918e-02,4.091502639185309615e-04,7.126259509449496717e-04,2.438983266449953544e-02,1.110453941480622209e-01,3.119280822041887655e-02,1.737769394536971268e-02
7.933278681565646140e-02,1.884615831492066421e-02,5.594227566577279764e-02,1.916484698726509880e-02,6.009091160276427914e-05,4.617444459117809805e-03,8.508445495261414415e-02,3.677720265552324175e-02,1.325073174061494261e-02,6.002361232642051264e-02
8.935487564002776717e-02,1.816632666930556236e-02,5.322054514229693223e-02,8.265705935283078343e-03,5.400989836004130643e-04,6.227041038000407508e-03,1.011527938432082302e-01,1.069020990102944046e-01,1.800406767524659335e-03,7.124075906071136721e-02
7.654854342643720166e-02,9.628341876079348285e-03,1.069441914423971129e-01,1.952055433198471995e-02,1.232802323532506631e-03,5.444400486638999344e-03,7.896082178851109024e-02,7.263570609784855692e-02,1.295985248681135252e-02,5.658856587285072959e-02
5.597541541060666731e-02,1.025799902776477254e-03,1.917777993328159958e-01,1.228256964392222816e-04,1.386630643751643596e-03,4.737658579527218375e-03,4.203108580740644307e-02,1.631499302976056193e-02,1.532588360939811899e-02,4.042041691391896896e-02
3.663267323557532068e-02,9.665265902021932115e-03,2.304436680798683246e-01,3.701279697810091335e-02,1.148920073890051952e-03,4.965791489648017226e-03,5.590484870826088054e-03,2.194274037868689051e-03,5.346411906375166459e-03,3.657652221651769980e-02
1.889329124673670354e-02,1.480039747227985571e-02,1.548788569946414062e-01,6.059835707760146545e-02,1.081710843116938511e-03,4.205536104283797913e-03,2.197641718611956577e-02,2.266189567575099470e-02,1.413482569612519411e-02,4.258557811862263842e-02
6.235476753926584570e-03,1.341637806402996326e-02,1.028169675490494400e-02,5.804040320038695439e-02,1.172246492957610114e-03,2.017255142799117933e-03,3.475147931693134407e-02,6.560588701596885286e-02,3.343216459481261615e-02,5.114468947062822402e-02
4.887099471393117900e-03,3.678155770765426102e-03,1.553407921693725213e-01,4.095331990524162663e-02,1.061610623439788233e-03,1.047853596256609040e-03,3.554346720799477638e-02,1.405451056524067155e-01,4.148664553537608629e-02,5.497622672870271232e-02
1.014331898803093671e-02,8.361023936255896141e-03,1.943049206209269131e-01,2.200169532788332979e-02,8.959551348503369886e-04,2.178749586349258867e-03,3.383358846766142125e-02,2.187220460865434979e-01,3.356284496043867444e-02,4.770420327221500806e-02
7.024735585260153542e-03,1.238373033193807676e-02,1.299997520970437304e-01,1.787214115241435829e-03,1.109529012696129245e-03,2.133907227233532763e-03,3.341499627217195401e-02,2.313656787054268471e-01,1.380138619726436686e-02,2.991080545729048537e-02
8.176585766009037554e-03,5.834605655890994814e-03,1.497608767712639739e-02,2.071870305284352620e-02,1.307850354477799702e-03,8.600564006320842499e-04,3.208792166886481612e-02,1.590401274362934769e-01,8.376336306265604742e-03,1.036544112938360233e-02
1.870386954804077392e-02,3.443168746158850341e-03,9.032054465551685174e-02,3.673471338393284602e-02,3.888600759020844093e-04,2.986220825878968012e-03,3.197478896580948499e-02,6.040841924893456533e-02,2.163333302723096513e-02,3.429788965742381051e-03
9.622476993945663221e-03,7.095107447412461917e-03,1.236575176913235208e-01,3.203374089297390120e-02,1.658091873542966036e-03,4.507372769957080998e-04,3.770038308836486107e-02,4.801544740351367489e-03,1.571376265243058790e-02,1.162129883052616386e-02
1.075827536155915878e-02,2.875956410021794120e-03,5.545711497533176160e-02,2.348417026554282423e-03,3.143985688932997638e-03,4.223094709925227265e-03,4.620493703676362141e-02,2.399949082928588828e-02,1.043983491157798350e-02,1.673715009423398098e-02
2.316935896473084483e-02,7.866840386823231376e-03,7.348823877513546710e-02,3.686536463180366263e-02,2.708811280452234557e-03,5.714708644176301477e-03,4.859477436422937613e-02,2.993515927410768385e-03,4.266359367227352817e-02,1.751537411391018012e-02
2.274045050044767521e-02,2.201648849104518441e-02,1.859665540795783500e-01,6.098496348211630141e-02,9.986719872202278955e-04,3.097598634180144615e-03,3.882244508528977928e-02,4.628915689705041803e-02,6.152808774392154456e-02,1.249788986045531625e-02
1.982915259501666361e-02,3.350525827434532034e-02,2.295102150435290311e-01,5.919597586492540697e-02,4.119359742885295118e-04,1.758110393803056040e-04,1.553006144760625540e-02,8.763757236799332717e-02,5.998085689317587954e-02,7.257494419146260853e-03
2.146229497383934232e-02,3.655611186676019364e-02,1.956829441418647952e-01,4.137620186770041286e-02,8.749815622903158070e-04,1.634011066436317702e-03,1.622524665171814345e-02,8.480747874192047508e-02,4.547688244823447357e-02,1.153810321356297033e-02
2.479279427943265057e-02,3.175937370175765939e-02,1.227079250574870384e-01,2.096895992604849018e-02,7.977985296562321296e-04,1.968642532107436286e-03,4.238692332953806347e-02,4.808365462811648589e-02,2.696297361576322979e-02,2.429588936844714192e-02
2.664556558107714773e-02,2.534554010423416270e-02,8.123458323860370534e-02,1.537811876297138190e-03,6.457174600351959972e-04,2.564671801695518703e-03,5.056909166243062081e-02,2.147266666613961705e-02,8.550855702266216968e-03,2.649069193922309537e-02
2.689179500570254219e-02,2.113612533612657662e-02,1.033985125645119768e-01,1.543003093389890348e-02,5.722601649643257278e-04,3.482148816859360549e-03,4.492238304210560695e-02,2.110395545315002855e-02,5.596365711937305830e-03,3.016921694978558742e-03
2.150613614124480266e-02,1.589978471152454081e-02,1.334302702029110665e-01,2.197775234083140447e-02,6.765196013084127762e-04,4.330877171571408460e-03,3.974407612242349813e-02,1.318791493724220769e-02,1.048665599882478601e-02,2.985245000027640302e-02
5.098010728125685655e-03,5.084756027687400287e-03,1.026070247533949903e-01,1.322049049077313534e-02,8.504290184088540705e-04,4.972585854547364147e-03,3.963702397522014115e-02,3.288346445398803580e-02,6.084790562854657490e-03,4.137507719825292418e-02
1.573165514276666371e-02,8.517164793237799042e-03,3.219147004331384537e-02,2.120342050824154233e-03,6.011483182858254554e-04,4.535127690977017699e-03,3.697326666358334568e-02,9.004113890113316088e-02,2.830317010162753180e-03,3.061728171545869195e-02
2.397801110148195525e-02,1.620431917879968514e-02,4.952297754291174262e-04,1.042590202875816677e-02,1.799362216247261731e-04,2.115505320932938374e-03,2.669942476094950071e-02,1.029261638731249900e-01,1.245029910187665616e-02,2.583615098372807686e-02
1.319649745472197336e-02,1.421496226063695412e-02,1.981598555713899590e-02,7.743374234797506875e-03,6.747975174099007153e-04,8.592029849788442464e-04,1.217151607135917059e-02,6.208857016801292567e-02,2.002447999327065450e-02,3.841844615107530003e-02
3.459004579145138862e-03,8.542104204984492938e-03,3.271906021710434265e-02,8.072431473250282850e-04,2.448630130796370405e-04,2.033085274721558883e-03,5.519581571974668116e-04,1.300733518252955578e-02,2.081924590950221671e-02,4.709904564172710112e-02
1.028130836087564649e-02,6.867273033541824827e-03,4.501825237703571334e-03,1.083542955760265908e-02,5.362013598154983986e-04,2.295810050913453266e-03,2.111006423590214461e-03,5.241057330181956783e-03,1.196726422835172991e-02,3.354752251082487174e-02
6.224312981385460818e-03,1.013759995554595721e-02,2.756865477419022381e-02,2.178925139244804882e-02,7.831298361878125981e-04,4.836999461819401977e-03,1.890076196406253670e-02,3.473777666285275158e-03,2.101148933747095434e-03,7.803819312267555597e-03
1.227823479453045256e-03,1.446921943332887990e-02,2.879334959181334766e-02,3.317449895462038639e-02,5.008652694543047580e-04,9.615371320910991518e-03,5.727784313070556632e-02,1.552512598666309744e-02,1.363939251125093587e-02,1.225229310575750956e-02
2.574542496298577298e-03,1.693186787759399028e-02,1.780928909221139375e-02,4.221973067245279876e-02,2.893542072034379687e-04,1.266651225822024857e-02,8.369138687273351696e-02,1.428091210674343504e-02,1.974186950041544736e-02,2.566753250992884899e-02
8.935868325708591631e-03,1.664821775218916500e-02,1.272663025099875223e-02,4.628079872908629627e-02,4.621648190779680909e-04,1.152564236960411034e-02,7.546429898512826973e-02,1.058766824264850866e-02,2.169173857619231122e-02,3.689787782912787306e-02
1.469445749676188094e-02,1.365961087906836756e-02,1.850765454454898068e-02,4.641567151508172590e-02,7.091819565037985008e-04,7.807218683755048558e-03,4.433379446388344136e-02,5.937247595578318965e-02,1.821376855835010397e-02,3.793043355531168503e-02
1.675822202799885988e-02,9.622376134050319649e-03,1.090355612923908646e-01,4.547741349978515896e-02,4.266558793295486965e-04,3.842619866334519123e-03,1.614125598432530895e-02,1.056906607922580010e-01,6.800044409519766936e-03,2.309537124375920375e-02
1.585579237944074321e-02,7.656226840437517674e-03,2.252143899718837827e-01,4.200375441845141666e-02,3.970501079353422791e-04,1.064681126013656480e-04,3.622271573904378272e-03,1.085757554580889933e-01,8.376409579161709501e-03,7.236655097484539362e-03
1.222998533517253954e-02,9.142435341953594752e-03,2.924936574898841513e-01,3.139381218420640024e-02,8.717913511130811165e-04,3.112542821315337615e-03,2.645882553680824548e-02,5.812905000651975851e-02,1.805592316253050791e-02,8.450934645550352980e-03
3.702955347298570073e-03,1.180667881812129394e-02,2.776983988427014771e-01,1.527971697291748837e-02,4.112452466908900705e-04,4.417093054570398088e-03,5.471977176352577771e-02,6.708706856809782890e-03,1.825397364652989879e-02,2.462425493063383555e-02
1.068762474978993821e-02,1.266416912790663783e-02,2.103215121687401212e-01,3.149188561743336556e-03,3.360968734648063722e-04,3.301686252311706541e-03,7.677823668311316296e-02,4.087120369782902551e-02,1.207599951339939463e-02,4.188118677705222198e-02
2.772987271778153823e-02,1.157568954690198215e-02,1.313131034076667203e-01,1.667571721173998194e-03,5.246595636002129599e-04,1.661684966563711742e-03,8.428822526434484597e-02,3.936869326450817552e-02,2.581230301148963735e-03,5.286473061059418499e-02
4.170006879101523234e-02,1.033371858709385659e-02,5.788658372387702616e-02,8.024984890570772272e-03,2.826646420999952606e-04,1.643925900478831765e-03,7.976891032377109170e-02,2.375453081625817850e-02,8.248674174189268155e-03,5.584460993442488808e-02
4.804133534778372294e-02,9.725958292353504078e-03,3.316462663058314039e-03,1.549195916255375997e-02,1.621304008827184812e-04,2.999662292471570128e-03,6.636577711128249790e-02,3.866802058163983525e-04,1.574680282342877380e-02,5.056491608211701599e-02
4.627475238743129771e-02,9.207034633629292489e-03,4.541693031726624918e-02,2.023331219501122574e-02,2.288616253161846457e-04,3.963008535668501378e-03,4.375033194412206172e-02,4.378439361232886601e-02,1.652867748433754086e-02,4.445729743841138337e-02
3.989533567435725459e-02,8.424917732226474415e-03,7.420434433043049394e-02,2.159957395327515711e-02,2.454224696692940935e-04,3.856459836067089274e-03,1.903236445680258487e-02,1.006132226621696268e-01,1.449289934482330018e-02,4.944415720605597336e-02
3.248318099916826240e-02,7.637959263285752295e-03,1.060053902702909473e-01,2.023836270381457192e-02,1.740693198890665735e-04,3.437268075466079834e-03,7.778348853828794159e-03,1.455670628863573457e-01,1.547116552265989653e-02,6.498132716987294055e-02
2.514532367108872693e-02,7.036250483756691793e-03,1.385732492305196406e-01,1.753579302407767826e-02,1.246442369673041043e-04,3.375275406273416014e-03,1.486181462879836157e-02,1.624843524386617721e-01,1.849395954524820848e-02,7.617776793629237042e-02
1.915625114269975393e-02,6.482256523931941711e-03,1.439207140842857502e-01,1.487291095772498573e-02,1.166108471424369251e-04,3.569803657768293257e-03,2.636217353065772179e-02,1.549710882271388979e-01,1.882697303588685978e-02,7.406051403830890556e-02
1.779234959961876333e-02,5.852572605887966864e-03,1.073603238446305813e-01,1.263580721914271676e-02,9.917668746090517852e-05,3.576170072665870326e-03,3.059824970694075344e-02,1.313430317823185700e-01,1.649944423619357017e-02,6.629918947362370418e-02
2.265486924510094757e-02,5.267211467441037208e-03,5.660611030714502584e-02,1.048708918562798326e-02,6.296190093544295748e-05,3.198851102796267977e-03,3.471795779114454639e-02,9.413955664730504214e-02,1.602930089682627623e-02,6.404313509327275167e-02
3.081648736017194787e-02,4.871470547508725130e-03,3.184715336869857472e-02,8.274703298704912807e-03,3.199602836004477788e-05,2.954475722379921749e-03,4.897724894636327347e-02,4.348989929871768800e-02,1.981110526366570285e-02,6.989806784955125696e-02
3.720702264630096345e-02,4.502655063212184124e-03,4.072606469364322551e-02,6.164131452536878407e-03,1.132694539070232376e-05,3.480822283053625413e-03,6.621539773058349176e-02,1.520108541847770174e-02,2.556224062733490621e-02,8.130291650152943195e-02
3.762807976546271582e-02,3.911732697463426653e-03,6.161470436816243734e-02,4.247710088652251366e-03,9.882683018326780512e-06,3.814775439811187753e-03,6.845368676485806547e-02,6.650961095645864518e-02,2.915832715921904197e-02,9.007171491862964174e-02
3.064791235385315102e-02,3.409487006681210380e-03,7.783203017072594376e-02,2.468058546199491422e-03,3.379398755002127776e-05,1.615452465464790703e-03,4.615726100495397971e-02,9.231000064389768833e-02,2.835839271494694502e-02,7.361380109090584489e-02
1.980831717926866131e-02,3.543860535241624265e-03,8.943809279769501797e-02,7.975608776984214297e-04,5.504927656353405147e-05,3.337058458992728325e-03,4.673446417957605528e-03,8.936468642472654433e-02,2.448103334111586399e-02,7.789443973614442601e-03
1.160541965362645728e-02,3.612342810066224760e-03,9.972929510565964328e-02,7.236495391206381432e-04,7.229409340780291852e-05,7.340547510592425329e-03,4.156350087828029199e-02,7.325489474094186437e-02,2.080239140025565495e-02,9.703092650357009186e-02
8.196323865462581959e-03,1.541461773633282482e-03,1.070708797129323042e-01,2.071466298170107634e-03,8.778248792525936693e-05,6.629263173882533194e-03,7.788193995164199857e-02,5.935359337470447194e-02,1.909078527277548176e-02,1.903967760448711521e-01
5.101150078775960189e-03,3.653940285680516188e-03,1.095257613316340806e-01,3.256871693212549154e-03,1.019826023914419046e-04,2.064863651925255648e-03,9.689868732219961145e-02,4.833681798691038395e-02,1.832015342614495487e-02,2.291328724987923005e-01
1.653579121074235780e-03,9.835740368442702497e-03,1.086323015238731399e-01,4.287117862498099861e-03,1.137001789324934683e-04,2.069887427732151203e-03,9.783389561497350673e-02,3.595037265761327067e-02,1.685295293679685627e-02,2.164912144797238036e-01
9.439554635169567290e-03,1.283319855668556622e-02,1.075015193169462924e-01,5.156419815658821494e-03,1.226094825394124035e-04,3.255863344571156229e-03,7.865192208687532549e-02,2.872819859555755806e-02,1.458227202620775848e-02,1.821255030199635250e-01
1.229777438634851831e-02,9.756127607391336734e-03,1.082382115972991554e-01,5.864031650858323418e-03,1.292287206314929587e-04,2.663067845723486333e-03,3.825981901650844091e-02,4.235841274067630308e-02,1.238161389276452515e-02,1.422074015686723147e-01
8.680122476783094093e-03,2.360616954392442957e-03,1.103601832693015539e-01,6.418759236913328808e-03,1.337357516674500231e-04,2.303943819803360750e-03,8.950538773528584138e-03,8.387018883405940317e-02,1.060983727164215538e-02,9.741763474963914538e-02
4.233849613514556465e-03,2.754512835898942271e-03,1.105949235943221309e-01,6.830407553874511505e-03,1.359649821734037253e-04,2.515415156440239681e-03,3.580529709160493179e-02,1.363000341725477960e-01,9.000055720383507915e-03,5.630855841120589039e-02
6.110437141330259808e-03,4.935993099652693415e-06,1.061558730007593210e-01,7.107345743114446869e-03,1.359604825255585102e-04,2.628652044826581234e-03,3.146660326905795918e-02,1.656580381761908471e-01,7.395975103538217008e-03,3.663537136475217282e-02
1.472615566670172453e-02,8.160384444140014390e-03,9.819283061338061891e-02,7.260196581991717850e-03,1.339815993841737265e-04,2.442597395502645301e-03,1.494241959803479722e-02,1.509641498371138146e-01,5.913377997591782662e-03,4.137785787304783247e-02
2.297034064779306800e-02,1.315555533102046731e-02,8.999305747483310469e-02,7.302675288375769236e-03,1.302402789653148239e-04,2.302589867341079885e-03,9.441280807005377265e-03,1.080255081914906073e-01,4.621681718167808955e-03,4.923183680109666227e-02
2.390277552106197245e-02,1.018073688750473563e-02,8.307324709448191125e-02,7.249473503049485082e-03,1.248904128528376969e-04,2.421596587217260312e-03,1.713014964453523845e-02,7.681817673479636455e-02,3.461364900071257737e-03,3.826766907218288882e-02
1.696885526884386874e-02,3.042623743612349156e-03,7.690354042706981641e-02,7.115399599898200242e-03,1.181449327721992689e-04,2.544055629536111536e-03,2.601205026362032879e-02,8.299747065416271385e-02,2.390938153281312126e-03,1.224778054077985470e-02
6.843695833045398622e-03,1.785238331031785072e-03,7.058950098296398745e-02,6.915886373745344998e-03,1.102756335328102888e-04,2.315568991323430081e-03,2.680829138091429809e-02,1.151236253884854316e-01,1.427685164206182007e-03,6.612750515920538634e-03
9.025956244921609596e-04,2.468425686431473080e-03,6.355063733525097291e-02,6.666907126766590842e-03,1.015510714495239543e-04,2.054704454198095012e-03,1.774800389615776089e-02,1.406604239440230053e-01,5.796522052752427125e-04,8.006207852760766075e-03
3.408580436079911360e-03,1.631904737424011605e-03,5.631231506344916427e-02,6.384236147379965601e-03,9.222811007906359299e-05,2.499134629584260237e-03,3.359671140329052470e-03,1.400989133334900327e-01,1.739817292837149334e-04,2.802708155227088237e-03
2.295761378585128853e-03,1.576052519953183469e-03,5.040501275204287840e-02,6.082982126371407929e-03,8.257278585951382415e-05,3.048152343062889881e-03,9.316946361278997599e-03,1.189880361746515208e-01,8.510003313089997429e-04,7.887452590614628042e-04
1.178934523592912922e-03,1.990099594119438490e-03,4.553974255200737842e-02,5.777447686700634515e-03,7.285626419576515420e-05,1.501859676021203563e-03,1.802639500794731703e-02,8.883665054050575438e-02,1.456250305765675228e-03,2.583881631160594820e-03
8.088354892674646949e-04,1.691976398392474375e-03,3.929216599746661320e-02,5.480892280560415407e-03,6.333680154097196002e-05,2.714348366630973952e-03,2.644765895205580461e-02,5.288511996484600991e-02,1.996131974473411199e-03,1.061025569922929845e-02
9.484442708803771582e-04,1.004813781753657268e-03,3.248764149363710108e-02,5.205179037314240989e-03,5.425342526026517744e-05,6.368898097457079306e-03,3.559806886505628015e-02,1.663440308814015389e-02,2.483083014558439168e-03,1.442478802291440390e-02
4.231010548156397336e-03,1.372152292769741790e-03,2.942321639170803610e-02,4.960512925572405432e-03,4.582671443874420611e-05,5.864178282772669268e-03,3.856360107388900199e-02,7.950127255975766166e-03,2.928525895666678376e-03,6.645053651395922169e-03
5.787502171387287099e-03,2.251143073705179267e-03,2.696692453690846536e-02,4.755290279718197080e-03,3.825475637681144761e-05,1.891988690714130903e-03,2.861381402853456837e-02,1.885140123783769772e-02,3.340374312662153233e-03,8.378511463373856591e-03
3.509046983332768550e-03,8.140067366553191408e-05,1.151064897304404470e-02,4.595969841223249142e-03,3.170645206554149935e-05,1.698163261163642941e-03,1.025488241896836683e-02,2.664127653297839599e-02,3.726018705668107060e-03,2.638981230564459157e-02
4.696522106816275618e-04,7.092371893065218223e-03,2.303993724699143070e-02,4.486960247911941750e-03,2.631792135842978941e-05,2.829344571805120310e-03,6.128380887501988679e-03,3.430807994849075643e-02,4.093272262927073572e-03,5.257049300138758041e-02
2.996036920020850834e-03,1.508627269472030338e-02,6.161485584043017993e-02,4.430569696787028770e-03,2.219118053292799440e-05,2.600648434344409073e-03,2.102932194524979870e-02,3.021810140423281110e-02,4.448760712352600906e-03,8.760248957775679246e-02
4.194045468674556174e-03,1.718369074948572842e-02,8.323385652237881571e-02,4.427022645420827969e-03,1.939248662005370062e-05,2.365838811954834846e-03,4.358823250235824981e-02,6.457099755320409515e-03,4.797275285785696473e-03,1.156591549866352320e-01
5.909353266738600827e-03,1.198366617665145260e-02,8.340495639094792912e-02,4.474522318255097497e-03,1.795077629520475351e-05,2.179028822523598231e-03,6.879883405870876323e-02,2.430561450747147773e-02,5.142377946722624833e-03,1.248978430454972532e-01
7.357640373238964401e-03,4.610636745847039066e-03,7.296192977963926463e-02,4.569354792636297173e-03,1.785747028546477822e-05,2.270131362100097187e-03,7.568640455238734299e-02,3.736256959310822745e-02,5.486617539875247862e-03,1.322563504240526766e-01
5.661322343676042368e-03,3.506260642279270543e-04,6.193184533864591612e-02,4.706041116957739717e-03,1.906747658173254590e-05,3.034933240331420638e-03,5.541647638835348055e-02,2.468164500898278185e-02,5.831203353725524646e-03,1.596687677253713911e-01
1.036664407243696306e-04,1.988322948046970622e-04,5.222378293397716281e-02,4.877534425700017981e-03,2.150078542433308607e-05,2.719041233351471125e-03,2.107132986648823508e-02,6.524812611264631419e-03,6.175903487605114220e-03,1.864623977208192396e-01
6.450725796257857428e-03,4.700615595074858315e-04,4.206806120543045424e-02,5.075452383371465911e-03,2.504468916158194389e-05,1.536095342916621873e-03,1.415547358679294584e-02,2.201408395071781463e-03,6.519248784243536488e-03,1.648081387931039643e-01
9.923598435488923189e-03,6.745068772450769912e-04,3.214701466130440860e-02,5.290338306525613384e-03,2.955684730818193310e-05,8.616275115867811502e-03,4.442667006037520627e-02,1.282327098798792704e-03,6.858682297842017168e-03,9.452682145450659601e-02
8.512262682644065881e-03,5.689681057524846684e-04,2.634875340933357304e-02,5.511946315812191709e-03,3.486909440632490813e-05,1.263403976316708130e-02,5.816592709713243325e-02,1.642735148128682959e-02,7.190609247399220617e-03,3.855512094782097970e-02
4.462020530692710832e-03,6.451119216422879568e-04,2.673645935633563175e-02,5.729543572667206326e-03,4.079177348171218140e-05,9.647462404791187426e-03,4.449550342599948444e-02,4.346358909883563104e-02,7.510511579057196387e-03,4.098672458333170454e-02
1.123395824078934988e-03,8.215188508677325309e-04,3.016665725218948060e-02,5.932221031715446784e-03,4.711850700937407846e-05,2.754817565731640036e-03,1.106849249019814518e-02,4.876201220890744037e-02,7.813145355287445804e-03,7.101273951481765212e-02
1.440890861308947567e-03,8.767801954279083035e-04,3.233006228129638865e-02,6.109204803798532098e-03,5.363135511984117558e-05,1.947006859029123266e-03,2.364534247993128543e-02,1.473738610431484831e-02,8.092738610726169651e-03,7.504026159038094945e-02
