6.841403931992728893e-02,3.132675106685570837e-02,1.524735545440408790e-02,2.084118501256958939e-03,1.201167670901713037e-03,3.417889337143069448e-03,3.361309370385597711e-02,3.124224126014878145e-02,1.823715149810844561e-03,9.601058095329861614e-04
4.119163372960771979e-02,1.199835636843235749e-02,1.393095233541846896e-02,1.821359836620028289e-03,1.165368531300952195e-03,6.329539615268573415e-03,2.178272829778629335e-02,9.819784118316460600e-03,1.747228962409728492e-03,2.165412188865797373e-03
1.718173884442695393e-02,2.762961987456147642e-03,1.809876673827140806e-02,1.559465779964399387e-03,1.103356606992724094e-03,6.462084009267569235e-03,1.717286001694342049e-02,1.063639558180388967e-03,1.632912232067282744e-03,4.813031125497574739e-03
1.278011538964842798e-02,2.712354768247728608e-03,2.555677853346682848e-02,1.196308165884011699e-03,1.021294234273673659e-03,3.939393969192928405e-03,1.942173615820810828e-02,8.326189714047483800e-03,1.490435923963934466e-03,5.112607557861017712e-03
5.940717427075120627e-02,7.923792798394373865e-03,2.693121485592043715e-02,7.271454894182597219e-04,9.450056103252996945e-04,8.639667965367760737e-04,2.553965057707359432e-02,2.431732877264309103e-02,1.289104927858241963e-03,4.024961275811690838e-03
1.042376442605440628e-01,2.096365909702317329e-02,2.001789319252592764e-02,3.780388518806894992e-04,8.663372237459148178e-04,1.044062076031125738e-03,3.306082628570375381e-02,4.562664240597216064e-02,1.017415460282303837e-03,2.761931086377094301e-03
9.972127592398279117e-02,3.357502341227558418e-02,1.547649148975338562e-02,1.742617948839253819e-04,7.350827228634019151e-04,1.605141631905441634e-03,3.653505896663648139e-02,5.470953924588419642e-02,7.535281315298572634e-04,8.796896419383829976e-04
2.820998642786667204e-02,4.484521671543296312e-02,2.281557434779642526e-02,3.617121891103988718e-04,5.731881465363955139e-04,1.582569387171831737e-03,3.426060224025743312e-02,4.230489894012499225e-02,5.395753076624099087e-04,2.205965950190031527e-03
6.628164216871135217e-02,5.241604769105941142e-02,3.516655312644956927e-02,1.306926861822560937e-03,4.949481475548743979e-04,1.609453990013989247e-03,3.562731197339338157e-02,1.804481442713612091e-02,2.274524632902802206e-04,5.620256249220348041e-03
1.273527811298494350e-01,5.621143200499718884e-02,3.530532481356798286e-02,1.561229740095969017e-03,4.634654369834055512e-04,1.766568127269108057e-03,5.092456201490709600e-02,1.059935835945194707e-03,2.572334855837207974e-04,8.093135654285104827e-03
1.341689476970927553e-01,5.913162538979476607e-02,1.782570861994486541e-02,3.945764274840987359e-04,2.380684164551230162e-04,1.897802115004597291e-03,7.613356399278110864e-02,3.762562188817437925e-03,5.790456027353954854e-04,9.435719670603952974e-03
9.383509833203027006e-02,5.969424124398414744e-02,3.256843164079581670e-03,7.900752965296912100e-04,1.110381580322542102e-04,1.970760992192653778e-03,9.444030651502628715e-02,1.093300686640322900e-02,5.477621518829889650e-04,1.005006843665074215e-02
3.256982462692045027e-02,4.965874049462569439e-02,1.608649137206864116e-02,3.447541176548676867e-04,1.865938806264800024e-05,2.054450655717343470e-03,9.247013863405482981e-02,3.120998406348666349e-02,8.596909055404208366e-04,1.029531517297242044e-02
1.533793722930390339e-03,2.591903312929228972e-02,2.904257918139659458e-02,5.696724701687037916e-04,6.402059904712208019e-04,2.163457831931568914e-03,7.379906882825139347e-02,3.609880382511502367e-02,1.952218355835807356e-03,1.102860244392942120e-02
2.373031861812839594e-02,4.473878071496783029e-04,5.256131802380249046e-02,5.827748039124318368e-04,9.970993720940426325e-04,2.257732060818494479e-03,5.656448873891378737e-02,1.503490624948619452e-02,2.232352188943904740e-03,1.300043898303566460e-02
7.790239741754714786e-02,9.281885098076637225e-03,7.440660783521585442e-02,3.463755245441928286e-03,4.145005529615181463e-04,2.328568506091169884e-03,5.591924094295284281e-02,1.528906841313346608e-02,1.608267446459322179e-04,1.508323749620497402e-02
9.709113843554159629e-02,3.160019161086293198e-03,7.340126044512777781e-02,4.586938708599424402e-03,4.682114173778764623e-04,2.409885966577047633e-03,6.774254185985896515e-02,2.730439150466194495e-02,3.651666586564798495e-03,1.503518492792920748e-02
5.845130538756157512e-02,2.929958907881548280e-02,5.011517044764147305e-02,1.766886709480441258e-03,7.799604334267314695e-04,2.508185945200658643e-03,7.219654477919637547e-02,1.653551738864997289e-02,4.467312894642546002e-03,1.259803118804084590e-02
5.810332519711018662e-03,5.148717176882017243e-02,2.557538498292701371e-02,3.058456653811868989e-03,6.443721925908447914e-04,2.574323484703191535e-03,5.568969805838898390e-02,3.643211204869888347e-03,1.865059565290640544e-03,1.005675330222828914e-02
5.956209344075353435e-02,5.099430923744367045e-02,1.563040210504990091e-02,6.435227488961928199e-03,6.268255108494092320e-04,2.599427250251183132e-03,2.531546913428743897e-02,1.869733087139716608e-03,1.201882818514066675e-03,9.203742744001890477e-03
9.647581061504731381e-02,1.975754296617667632e-02,2.089053154260616177e-02,7.412628365746022109e-03,7.950873490422303257e-04,2.678141033461707565e-03,4.404552618401635401e-03,1.166279930126847822e-03,2.527919883812877484e-03,9.268827991611904016e-03
1.253649362393902400e-01,3.226329901991584898e-02,3.475717005974732904e-02,7.559651124407778915e-03,9.035460915443894450e-04,2.830192526199390955e-03,3.208438483726885893e-02,9.244778934460790368e-03,2.630610232620421863e-03,8.449168398533752830e-03
1.435009723610771726e-01,8.447748484279267445e-02,4.765741227611566128e-02,8.088467549579947749e-03,9.170154352171162263e-04,2.860481846427656051e-03,6.183506702232226260e-02,1.989090459668753363e-02,2.625552186694605702e-03,6.355315005038059649e-03
1.318403709341687824e-01,1.196596050838061448e-01,4.873934963970508877e-02,8.808921296946417914e-03,9.579325996315927409e-04,2.724578208453016636e-03,8.136150988740575851e-02,1.585532042862585270e-02,2.701400773890774449e-03,4.183390370671734998e-03
7.780736570414772957e-02,1.305119301026793355e-01,3.486684893996714468e-02,9.453610076296137255e-03,1.043341609356265463e-03,2.842234888433747917e-03,7.264273149656022555e-02,1.247946203148559384e-03,2.680265704997252668e-03,2.788790771396725768e-03
5.853591838549188422e-04,1.185810221766330635e-01,1.505510626694120391e-02,1.022884581590617452e-02,1.105288466661602867e-03,3.343173186666498729e-03,4.555471679454231593e-02,8.668147306154934048e-03,2.577095116188951856e-03,1.201102359514543035e-03
5.975233049932505286e-02,9.213290338049807959e-02,4.596762322759983567e-04,1.093667448162057715e-02,1.146690949987274298e-03,3.275882216754042592e-03,3.398610553434273929e-02,1.426220508418157666e-02,2.462942324770988831e-03,2.054145895764211780e-03
8.180691344573651214e-02,6.233271414363178442e-02,5.722566308150146136e-03,1.095622104834399757e-02,1.233871490477939830e-03,1.786368036768116964e-03,5.067626938775156298e-02,2.958445450666793985e-02,2.390562683252208439e-03,5.891995200982855056e-03
7.555876155686618023e-02,3.436936899781192767e-02,7.524601311297699109e-03,1.043235794746925557e-02,1.353917326354488627e-03,2.969646471365448566e-04,6.912765287379898926e-02,5.347291728335189925e-02,2.412969387676872860e-03,6.764035356102952520e-03
5.430322359088798900e-02,3.582851329139663619e-03,1.200764040952581775e-02,1.041256356144472893e-02,1.413971613280266609e-03,1.699423795343455845e-03,6.220247803340412523e-02,6.515073443356758642e-02,2.406549260894661358e-03,3.317916648784240054e-03
1.578654424396801204e-02,3.013487065121213740e-02,2.346528310438217996e-02,1.139565240616442592e-02,1.456222220884306143e-03,2.861238412749636008e-03,3.936685667947170675e-02,5.410895152621592041e-02,2.193701873777450725e-03,9.475669788110440989e-04
3.911640529982844672e-02,4.819197961092151067e-02,3.463825199441344233e-02,1.237579975032970792e-02,1.672530228976489442e-03,4.919410910085340351e-03,2.905550775373042308e-02,3.447003944764717720e-02,2.081356128461682616e-03,1.669578816114843794e-03
8.303793521065726269e-02,3.218485412720021449e-02,3.036830770202317287e-02,1.159512734841117686e-02,1.991292138137389089e-03,7.275808885340425032e-03,3.781581197665562916e-02,2.422259870343010726e-02,2.549306784508163608e-03,1.619071544756956913e-03
7.572748640207327409e-02,4.250044767516206537e-03,7.664182809465004860e-03,8.106759482269779507e-03,1.974908415058160196e-03,8.026263319979649175e-03,4.717692747884397186e-02,2.745447148920608996e-02,2.924042640163077023e-03,6.424941602368376518e-03
7.739794365100222118e-03,2.528210430573960346e-02,1.814843119465415350e-02,2.765382296921151551e-03,1.520138847509939269e-03,6.377369109962449656e-03,4.479793735517733494e-02,3.979053859744649535e-02,1.576638142808358886e-03,1.038265097823836552e-02
8.044052942209350965e-02,1.621156763079588045e-02,3.325181759509276275e-02,2.039132375798437431e-03,1.230812192414946354e-03,3.473827927240308918e-03,3.916026018715913076e-02,5.496091204992142876e-02,1.572708370015968521e-03,1.168198825882458929e-02
1.352599061891092136e-01,2.579086831942899085e-03,3.785117963457995671e-02,3.830550724100181565e-03,1.701459437487746335e-03,1.123865875163377031e-03,4.312284858144867228e-02,6.342956599977223053e-02,4.113161135704914914e-03,9.827440199045403210e-03
1.380903242537488418e-01,3.939308634628481583e-03,3.680425144183153280e-02,2.189082313800794991e-03,2.881847314379099891e-03,3.890176794916840215e-04,5.662283442979133830e-02,5.769312432841973426e-02,3.916275857805534381e-03,7.915653533227935690e-03
1.070158902369021670e-01,1.887161471078568561e-02,3.412223471050375434e-02,1.635203623459821100e-04,4.007309041362180739e-03,1.209493017674919757e-03,6.720962588529993953e-02,4.094285863538708881e-02,1.678832556334307075e-03,1.039394416841693709e-02
6.487058366954565058e-02,5.008113928000364201e-02,3.545009815124145619e-02,2.897047017290087798e-04,3.609848307235061313e-03,2.861203398000048380e-03,6.164332881831990213e-02,2.172437418569215031e-02,5.019520396182751941e-05,1.694273206732372500e-02
2.221873809264630906e-02,6.787317284871899337e-02,3.942369498159582070e-02,3.977127983237293239e-03,7.700931040980271963e-04,4.654982978615099763e-03,3.944139297305756381e-02,2.835190216998813469e-03,1.386362407704955658e-03,2.255899569802746404e-02
1.247411513424567103e-02,6.619918393706594739e-02,3.271627272490614663e-02,8.378742968758491616e-03,2.795851686494317794e-03,6.149496005003214812e-03,1.576999126739010021e-02,1.447390700769601163e-02,6.097579887813829071e-03,2.426963798622327334e-02
2.187737160651837334e-02,6.042437336041438234e-02,1.159016313454365801e-02,1.201069963049523903e-02,4.001966129453646617e-03,6.838987553162996676e-03,4.527115350397665702e-03,2.122181226206160468e-02,1.199625151025616836e-02,2.307953502833290371e-02
7.865766043075317349e-03,6.750764996952564323e-02,1.559761448915287542e-03,1.573336220995523796e-02,2.714347457188355517e-03,6.469035415367806706e-03,2.402748625370704563e-03,9.692132708658172946e-03,1.620013398826718534e-02,1.969093771591060374e-02
6.304038822932306330e-02,8.571787337587684352e-02,1.498488971023153801e-02,1.989572462452961557e-02,2.017091897278852283e-03,5.802504624147128073e-03,3.804638271136251415e-05,1.212911778263160018e-02,1.814390133172436026e-02,1.418540360844295148e-02
1.044292759476736360e-01,9.863293922099589106e-02,4.755982389904487434e-02,2.266497428384770321e-02,3.301807877152691979e-03,5.936859422901365028e-03,1.810224448916232347e-03,2.723436756467835507e-02,1.879083902687553320e-02,9.711623731733492332e-03
1.014820217505199573e-01,9.314374010356900324e-02,6.111129318919070186e-02,2.161957668738347799e-02,4.399959735723281938e-03,6.694699713778447941e-03,1.859805200525846761e-02,2.610274143025078514e-02,1.734972961616609508e-02,1.015337656510686276e-02
5.687977221805674832e-02,6.880255042373734087e-02,4.051661524795954761e-02,1.578973852902402705e-02,3.535008961918368383e-03,6.776291193356744069e-03,4.528739747802564691e-02,8.671082791780485022e-03,1.221704019949475771e-02,1.377130500452280332e-02
2.919103319760407971e-03,3.492609799361299366e-02,7.880193766699574234e-04,7.231625615737417856e-03,2.082787303445499203e-03,5.594849820977037050e-03,6.206410676735737292e-02,1.953894543635607481e-02,5.398064969953438041e-03,1.503805038174365477e-02
5.164830379514551151e-02,3.822552835295233917e-03,3.292134805159247640e-02,1.649941517809862083e-03,2.634907146946211844e-03,4.067947475426006432e-03,5.775842911907438232e-02,4.452433798080945859e-02,2.387577783563987234e-03,1.288079292726399504e-02
8.108578477220382275e-02,1.665945487479449788e-02,4.198826838759070479e-02,4.325612750601633312e-03,6.188921632252924500e-03,3.328335366253260767e-03,4.118399504162534308e-02,5.102404139494848972e-02,5.950942915009196747e-03,1.096320175153262140e-02
1.019995310911604031e-01,2.794600708379796350e-02,2.644691397706861943e-02,1.291474715950015513e-02,1.096577399519371200e-02,3.236545752628305992e-03,2.962033845083505978e-02,4.232860478410600119e-02,1.229587708554603920e-02,9.912173211715268398e-03
1.212241243192117568e-01,3.623729985014559341e-02,1.188176307757176677e-02,1.789822686339388041e-02,1.328452891571304910e-02,2.706815141751102612e-03,3.013800255442730669e-02,3.692789991452224974e-02,1.563060466661494313e-02,6.281830852700357772e-03
1.219635780984202195e-01,4.324759931388046097e-02,2.580331801203738021e-02,1.333861882155560480e-02,1.112610002398149896e-02,1.227972395865895971e-03,3.253408972501916491e-02,3.769237226421710135e-02,1.486185816642940707e-02,1.515796356488950582e-04
8.584863965175490441e-02,4.438334641923772500e-02,5.702086857093795202e-02,3.525110457000297983e-03,6.678101843905980342e-03,5.589438909183372644e-04,2.438105536635522264e-02,2.635018452627767988e-02,1.316938479185682936e-02,4.858810245729832181e-03
2.862848511575807192e-02,3.430540542965050677e-02,6.125371852172768056e-02,3.854331623024103998e-03,3.288381936632152423e-03,1.787991865282034451e-03,1.053288400571959424e-02,2.397884906069708711e-03,1.256932873057544330e-02,5.373265913508748146e-03
1.180199271339645202e-02,1.289281493474748325e-02,2.074445254304355807e-02,6.666898777995808496e-03,1.300464379516682494e-03,2.447886067908482469e-03,4.090152431831053231e-03,2.656002118367005796e-02,1.201085721616484796e-02,4.045603597915593819e-03
1.912775970069488518e-02,1.098700592455955499e-02,2.786691746777283929e-02,7.456737588430201874e-03,6.053262572682739564e-04,3.258249046025840645e-03,4.624697206170383379e-04,2.716103373616371094e-02,9.738899265637241884e-03,3.398829011773828353e-03
7.568954055244029970e-03,2.315529724848619172e-02,4.502370031765088459e-02,8.349044211504027743e-03,2.440909029527059404e-03,4.561381183387070055e-03,1.709368361058693706e-02,1.004510338212656270e-02,4.883227469966317132e-03,3.653060062082147223e-03
8.252416776804879367e-03,1.699349140131620889e-02,3.847239245849502082e-02,1.001584457577296521e-02,4.057725979407090892e-03,5.957764228725162883e-03,4.493662017193946617e-02,1.007440352613070064e-02,2.236031301021837968e-03,5.517585542973565613e-03
3.050130133388287423e-02,1.400360485147657524e-03,3.358425473875942258e-02,1.182613063463690099e-02,6.260383813195405552e-03,7.238799440797966459e-03,5.859469219510802379e-02,2.630662406368593567e-02,9.156844004312136506e-03,1.106471100801943198e-02
6.114654731040951308e-02,8.181775199711133553e-03,2.451044416732512526e-02,1.104716743238301838e-02,8.306471031956660575e-03,8.537374639747149704e-03,4.955258575485269740e-02,3.441204531467679378e-02,1.198895638883303028e-02,2.006580474262568969e-02
8.253994197111329256e-02,5.092894166893574201e-03,3.466211149565021250e-03,4.959867577991751431e-03,7.445934190996084806e-03,8.980046823664504865e-03,3.727121485051844429e-02,2.894284125589641557e-02,9.574992969601575296e-03,2.801568876352280787e-02
7.060277203710975391e-02,4.848149190774182424e-03,2.813181125012545816e-02,5.657244313908913261e-03,2.859207995203846310e-03,7.074486750261750785e-03,4.078151080427561137e-02,1.150386931344679793e-02,5.895111931169521452e-03,3.009228418780411987e-02
2.720971246057354159e-02,1.145969509466021781e-02,1.876929257070816467e-02,1.652359709715773423e-02,2.505551310408574671e-03,3.706627471888623328e-03,5.949324552961825913e-02,7.540613980429969679e-03,6.050261537645340061e-03,2.681272219837327331e-02
1.641088190640894659e-02,8.003653675538235923e-03,5.840651314504058736e-03,2.255512587867282079e-02,5.085401526389815227e-03,2.231774222602581938e-03,7.960858456450249643e-02,1.961717869825938682e-02,1.059380928326835586e-02,2.368002953812581649e-02
3.373636869632906654e-02,5.368310517877382740e-03,2.185809885062260823e-03,2.137051107381928924e-02,4.273605300247746569e-03,3.680951876037042835e-03,8.148585516189069122e-02,2.525223778095151209e-02,1.540024984141959846e-02,2.358261315495642149e-02
2.642826133989343435e-02,2.189424219175345118e-02,2.865078943610290668e-02,1.573879930808408725e-02,2.538245397839488521e-03,4.840053339745624406e-03,5.111686694797159397e-02,3.058678746585330455e-02,1.643446118443373655e-02,2.193582573673326722e-02
1.015594771551814844e-02,3.484165057877788158e-02,4.967856827720915774e-02,1.061053034398455261e-02,2.244915441283896682e-03,3.226797967282678866e-03,9.619875581748428030e-04,3.931577277370527923e-02,1.359412759146697187e-02,1.356346532699028405e-02
5.913808503657726201e-03,4.442776210790443103e-02,5.028521571143735464e-02,7.232380123657675304e-03,2.679575226209641742e-03,7.425763128645965347e-04,3.570560527019314007e-02,4.831850239891646859e-02,1.014504945435044589e-02,1.983930768050712074e-03
1.611774060558339439e-02,5.452360433430947922e-02,4.986737349407736192e-02,3.160483844372636002e-03,1.286024473586468413e-03,1.879207850152927366e-04,4.382082969722946031e-02,5.237823794219193668e-02,9.153356007421155349e-03,4.604600808966024736e-03
9.158458863724770055e-03,6.559994463244213370e-02,5.670067004963341706e-02,2.977692140426805700e-03,2.544170973299917770e-03,1.221205565926343278e-03,4.045264547291994167e-02,5.253317493031912921e-02,1.134528022740728843e-02,4.377168563822433911e-03
2.025884495183288489e-02,7.601036190858297126e-02,6.687250377112258226e-02,1.048946315784884085e-02,6.938360072453182530e-03,2.061995543568689686e-03,4.188652166147492639e-02,5.397830438376858414e-02,1.618199620215039075e-02,1.797755393991625622e-03
5.392497494298096467e-02,8.607848395912123807e-02,8.884145197362083857e-02,1.883249198348108805e-02,1.060255620579482472e-02,2.792857157882301135e-03,4.271735261789630367e-02,5.497915359869452040e-02,2.248093958837289047e-02,6.342666635537200833e-04
6.224349126097930562e-02,9.549971245773004880e-02,1.336469394186375892e-01,2.723368864173859871e-02,1.402430906023613595e-02,4.582030429802676046e-03,3.744581125713795922e-02,4.607450125337060609e-02,2.711255303322175972e-02,3.402739495795800359e-03
3.804889135469567696e-02,1.002648458605750054e-01,1.881170669127861794e-01,3.312807101056169934e-02,1.721779774187742057e-02,7.033851084974834279e-03,3.552224228502001702e-02,2.340329173992035730e-02,2.665488823064069215e-02,6.050269968963376162e-03
4.270919838772010806e-03,9.773156760978549129e-02,2.224980306789640927e-01,3.383938668485415857e-02,1.839476420991357358e-02,8.529956236588793692e-03,4.066035591560135387e-02,4.032368757899976001e-03,2.220457416007865642e-02,8.561689206330441379e-03
1.775972938776534601e-02,9.324130896148911940e-02,2.281710999625165825e-01,3.011902046774733721e-02,1.622352037567809449e-02,8.788728110584904940e-03,3.750321113499707065e-02,2.490215918918873769e-02,1.914525100796760082e-02,1.319427674662715377e-02
3.469157222845514060e-02,9.542613346595417434e-02,2.331179458203674615e-01,2.652699036409287073e-02,1.243166470498904136e-02,9.210908339953652324e-03,1.425314851273080247e-02,3.979538564556203001e-02,2.062043301864239370e-02,1.977498710787277056e-02
6.416932025993998812e-02,1.025111906738088163e-01,2.634876340595475597e-01,2.681340103464225494e-02,1.025558498015846642e-02,1.027797530604173531e-02,1.599815553651621342e-02,5.802279745305800179e-02,2.428093546782337728e-02,2.296511572611669577e-02
9.775174012209830732e-02,1.001191721672771012e-01,2.965279808331793276e-01,2.921079523075582884e-02,1.023928044367309470e-02,1.037349429597020020e-02,2.833314860878164212e-02,7.773273126627272545e-02,2.609209171330104104e-02,1.926948381911915836e-02
1.010116468338419782e-01,7.968896926511379042e-02,2.823446491560709926e-01,2.888889192500109990e-02,1.008049644963976595e-02,8.491639858263837215e-03,1.317801194518248079e-02,7.980437292661245186e-02,2.479218488156668954e-02,1.340358311130709738e-02
5.995182636932532699e-02,5.142192685948678704e-02,2.138598900034334171e-01,2.534846435223669231e-02,9.214321935907121910e-03,6.485238902957744106e-03,1.533074032142328451e-02,5.376531096163373463e-02,2.243791938963751037e-02,1.179910682567414382e-02
7.381806062380224555e-03,2.809699480338847394e-02,1.362015095626781247e-01,2.275698650336652543e-02,9.757566809260966034e-03,6.659470077022402144e-03,3.551076619777866761e-02,1.988794625348935113e-02,2.179932411202004788e-02,1.167029802096119021e-02
1.586258971926339523e-02,5.802846892378161342e-03,8.042428853877019168e-02,2.136050925454192201e-02,1.135190176281759659e-02,8.409380500213720425e-03,3.886503619478141186e-02,7.495887896448759531e-03,2.326291134693375326e-02,3.608487615372189903e-03
8.228893828395551086e-03,2.429245996508333852e-02,2.609357588950980689e-02,1.495654710160666465e-02,9.584388527309164324e-03,9.170954769628991005e-03,3.094056038831380709e-02,1.916762292254511196e-02,2.459899614032724779e-02,1.402045369356224452e-02
4.754470393239826342e-03,5.531572707268490874e-02,6.318993053625518441e-02,5.835205068673149625e-04,2.189160524913633284e-03,7.582164384134559842e-03,1.556251167911807884e-02,3.532110076595715298e-02,2.322621706764007449e-02,2.987435388035460451e-02
1.179737937707174729e-02,7.313241523016125734e-02,1.902995584169676346e-01,1.503591763609038456e-02,6.920920052921105542e-03,4.124317913221079226e-03,9.240456664606072623e-03,4.669967211918753941e-02,1.747896648661332458e-02,3.199618084531943851e-02
2.229315576836254226e-02,7.645239599024022947e-02,3.101226483481702156e-01,2.271858856795997555e-02,1.213620629163102496e-02,1.892258058921250652e-04,3.952561354992713272e-02,6.156615646816629428e-02,7.822942448143114028e-03,2.112969070253760753e-02
4.291938919556420595e-02,7.190821679088792162e-02,3.642640657530394344e-01,2.052285773936252458e-02,1.186374661505127520e-02,4.363844915929587787e-03,6.482117707298480636e-02,8.341049581588949602e-02,1.502966421264700318e-03,8.482302964799091904e-03
6.458800935749131611e-02,5.850059753068883456e-02,3.436498896319016838e-01,1.361106190753840275e-02,8.458471675508592164e-03,7.499850170477764463e-03,8.223617581131224819e-02,9.970243771130862798e-02,5.976372183640429013e-03,2.916130866008404595e-03
6.922019777233875959e-02,3.509059287931669269e-02,2.976351405579829579e-01,7.374802154837586075e-03,4.726389319934084544e-03,9.220718000697163824e-03,9.644714951433891459e-02,9.565810667922473864e-02,7.159619142662221325e-03,4.414164586665117462e-03
4.557376552690968474e-02,1.523320255423511564e-02,2.632634989477095622e-01,3.375055276923970803e-03,1.825896294184017454e-03,9.676684324128746045e-03,1.024130550419636160e-01,6.977276253596557953e-02,1.057908514698538763e-02,9.199875581268621497e-03
1.847601352455539078e-03,1.452418917172791646e-02,2.257813397911754283e-01,1.279480565705082111e-03,4.307409797765245464e-05,9.234042793459993487e-03,8.598569683190457336e-02,3.463735610235666590e-02,1.744634559548149250e-02,1.494905429794918250e-02
3.921392184401919362e-02,2.732022563568336712e-02,1.702429665941790071e-01,1.837488955322539360e-03,3.280143241355409385e-05,8.795178854408832597e-03,4.855616548439974783e-02,7.194669709144412353e-03,2.414060727281225338e-02,1.887851188526455323e-02
5.936170416071449157e-02,3.321346892263438155e-02,1.173578765548280167e-01,5.640462658197009649e-03,2.870111099975856863e-03,9.660077310960146074e-03,1.320117598538400432e-02,2.499386240779094721e-03,2.830309146510470372e-02,1.737636636978505747e-02
5.453887077943253558e-02,2.383593004045387806e-02,8.216162364633224080e-02,1.015707117475500403e-02,7.450623873416045186e-03,1.164883404984962643e-02,1.199214422713402138e-03,3.949157109457265315e-03,2.955925626704873979e-02,1.098651509847494573e-02
2.963647638609943208e-02,1.026330958353406132e-02,4.892162591261379340e-02,1.145439366197525954e-02,1.037807970090398428e-02,1.224498635809509288e-02,3.838864821860935202e-03,1.795567649857685716e-02,2.647084228161670702e-02,4.754662917493214860e-03
2.914741621648920915e-03,6.188251253941932234e-03,7.968386037563241625e-03,9.528684476075586010e-03,1.008360110348768129e-02,9.779344301766131758e-03,1.815543239234081868e-02,3.148200248185466926e-02,1.845391350378816978e-02,2.265932364726865045e-03
1.990552868950001830e-02,1.253461065054150766e-02,2.516710660496922908e-02,8.674546912289268427e-03,8.549736935757380057e-03,6.579214279124508992e-03,3.328791820867748469e-02,4.132632627148464383e-02,9.135852823372030140e-03,3.772867394116230164e-03
4.992841684921030948e-04,1.885122502378063641e-02,3.769966810863804169e-02,1.101913383975381550e-02,7.793371423840162078e-03,6.270033511151473088e-03,4.130405136553789297e-02,5.055303191948421621e-02,3.900785181787964385e-03,9.147403758652240119e-03
5.070210470010824005e-02,1.726348666413805508e-02,3.449123234023282469e-02,1.328675550653254066e-02,7.096452236716510598e-03,8.968821539372808654e-03,3.972254839972617912e-02,6.407586441505945529e-02,5.247990774649243309e-03,1.729988937482837552e-02
1.053201889928438162e-01,1.275491118899099371e-02,2.677474762495853783e-02,1.236773517650700469e-02,5.454473281391422797e-03,1.190216793595579893e-02,3.634536380754924134e-02,7.778290496090728423e-02,1.193595630134106945e-02,2.332593203032141960e-02
1.386429629549986442e-01,1.508529398560797680e-02,3.007439817058036452e-02,9.806584569915391056e-03,3.848809045676897939e-03,1.337974428515673227e-02,3.870008925565313757e-02,7.528969279357507205e-02,2.014617775760611448e-02,2.123121776693647281e-02
1.453487015975560570e-01,2.224476428203973205e-02,6.203425994174946445e-02,7.711431782731515382e-03,3.033754157891601320e-03,1.354608723696627999e-02,4.398957669387747876e-02,4.128915219750597249e-02,2.426937860193659896e-02,1.072074415061629975e-02
1.315752085685770456e-01,2.251727442041599747e-02,1.202284739575537609e-01,5.219908650389049574e-03,1.937332540554821767e-03,1.267081567293052574e-02,4.530805879227484817e-02,2.213236947299594345e-02,2.024501320869226753e-02,1.208274386162411576e-03
1.060508239233070721e-01,1.436400352096703532e-02,1.717304349627385984e-01,2.381003344526920473e-03,3.026140486884438879e-04,1.091621717218746804e-02,3.920600102167867002e-02,9.206904936693428854e-02,1.109820564023016563e-02,6.681409445564323417e-03
7.796143362763767459e-02,1.062528624881699073e-02,1.812774707057876189e-01,2.615680355594893810e-03,3.697517110566059338e-04,8.897672465202363309e-03,2.432945243667182164e-02,1.371011359086888870e-01,5.792144857761976837e-03,3.797872784337811593e-03
5.233295022148531928e-02,1.758102583563734070e-02,1.435647160798366184e-01,8.180106110354547905e-03,3.982413214257532474e-03,7.085572611204958224e-03,2.780308296399905486e-03,1.388968539837809324e-01,8.908424749389690783e-03,3.193603867785884103e-03
2.845637136229623235e-02,2.320573272407391863e-02,7.707895449210032390e-02,1.637938284446389253e-02,9.644432462773123299e-03,5.156513886202276215e-03,1.563436315886398975e-02,1.072979273928944266e-01,1.542344810371134786e-02,8.319792517047973346e-03
8.859507385313828559e-03,1.624289577286691655e-02,4.562815674234948701e-03,2.219759158339754818e-02,1.407571103352628361e-02,2.775217539117370499e-03,2.037574430377563778e-02,7.393709796138367429e-02,1.971210826602763991e-02,7.537975048716948588e-03
3.790618420546900194e-03,7.231462791614161507e-03,9.948666159717370339e-02,2.362505639711149144e-02,1.601899085969814979e-02,4.004232712246633998e-04,1.190279458179652541e-02,6.618826780965600398e-02,2.399523086843387970e-02,9.181620447886782279e-04
1.736583652744307787e-02,1.598297423807982717e-02,2.029466835056334129e-01,2.327892974742374818e-02,1.678129322015115693e-02,1.610543272209666137e-03,1.251524642456399231e-03,8.182575250237308917e-02,3.197648540554658136e-02,6.610853493351655404e-03
3.402781388440865445e-02,4.240707530140747777e-02,3.025538448662958291e-01,2.391895757463117014e-02,1.690179451125959145e-02,3.808511630242767364e-03,1.296432884091840848e-02,9.226261871478767806e-02,3.963558138448600859e-02,9.129848199683585075e-03
3.125386324415236478e-02,6.665675475302978992e-02,3.814722863871059522e-01,2.397237930095353145e-02,1.481071645377000923e-02,6.473129171726715522e-03,1.801177741306003721e-02,7.620026862072311336e-02,3.957176059093112097e-02,6.542881240001349047e-03
5.838227236079293787e-03,7.629449176178339231e-02,4.154141916908374310e-01,2.022936543324053288e-02,9.839680036788211320e-03,8.668317244685702291e-03,8.008773689415858016e-03,4.286632760587084229e-02,3.085489169503386961e-02,4.931539379480702479e-03
2.294180566283985159e-02,7.448615106165601407e-02,3.836580224266441519e-01,1.289719599558157223e-02,3.707355778044579137e-03,9.513491247869643869e-03,1.768368060579520590e-02,1.519859698523895984e-02,1.852205956738537176e-02,8.547242823793575056e-03
3.785035489651045193e-02,6.373191226274417531e-02,2.994743322945896957e-01,4.620489599709301509e-03,2.199822127088302704e-03,9.536528346602284045e-03,4.227253739542201350e-02,7.445212159716664904e-04,6.877993440166537548e-03,1.539544056326585565e-02
4.112733059611378000e-02,4.305702411851852068e-02,2.122503430188426854e-01,2.835797607579168544e-03,7.928988396209498898e-03,9.769355668586277019e-03,4.584292058608904069e-02,9.235448594885046006e-03,1.563856121409288626e-03,2.223336399227924046e-02
4.227637480674797249e-02,2.033204956794052234e-02,1.612668356593095209e-01,7.887276725289129459e-03,1.247225844200040325e-02,9.831491697257194184e-03,2.801828367234983352e-02,1.865816252219726357e-02,4.343244481324316786e-03,2.855379703751275214e-02
3.860565146135538223e-02,7.066679109439758660e-03,1.399098600531806513e-01,8.617908574355886281e-03,1.388294077374744619e-02,8.171261094541762415e-03,7.933753780720217627e-03,2.109646557439373571e-02,1.102338986839466496e-03,3.337385937311485029e-02
2.117613506372766075e-02,1.317933402877171159e-03,1.162137684310118463e-01,5.771477693716407786e-03,1.270811469659773735e-02,4.658443299919300291e-03,2.390332931459307041e-03,1.874422131982429740e-02,4.637687657708289453e-03,3.338670554189238776e-02
4.744152738795161077e-03,7.666553285608198980e-03,7.197784704761359120e-02,2.800170037424185542e-03,1.123438137318648333e-02,1.313637266434033351e-03,9.784805823214124190e-03,2.680456733249237528e-02,8.078375581459528582e-03,2.713008497007757605e-02
2.209675058886466023e-02,2.008469306742523969e-02,1.051126001110457703e-02,1.163924243302355901e-03,9.059349319032131836e-03,5.979459739813731012e-04,1.539326052379360980e-02,4.252866535726246983e-02,6.587890931257773044e-03,1.747892370548256163e-02
2.369347986397888836e-02,2.607022323540734640e-02,5.850004876818896971e-02,6.083772175552852081e-04,4.247031334387225444e-03,2.171272060595647556e-03,8.842068471818323797e-03,3.236383655284214705e-02,5.028723187710988380e-04,7.982336538341544552e-03
1.491281679084244770e-02,2.332017941892831209e-02,1.268171424343015607e-01,2.203891632358487979e-03,1.380790780251009214e-03,4.181801155411196680e-03,2.900254072263828715e-03,2.247042819370359892e-02,8.197965730910774379e-03,1.224915986107878978e-03
2.200384030140501747e-03,2.025025649673204559e-02,1.849370200003792597e-01,4.590832519448877994e-04,3.532100968752478233e-03,5.321852373360929159e-03,3.852784456216721241e-04,9.024292389647201040e-02,1.726454391902424237e-02,1.229528494744583714e-02
2.883569634878322893e-02,2.145998475529443950e-02,2.206863967776936108e-01,5.327464551950942921e-03,1.738355460965829765e-03,4.701236311676385352e-03,2.978023577464304281e-02,1.276041779289203704e-01,2.431688105206141273e-02,2.510334962841838380e-02
5.716004092256798952e-02,2.120012599837838366e-02,2.232552134904635388e-01,1.070399152679461958e-02,4.539901165197918979e-04,3.261782361114946068e-03,6.965449978949053711e-02,1.287866435513037033e-01,2.692457257988380495e-02,3.576735432668166903e-02
7.689095242148064058e-02,1.375484262043035096e-02,1.916677153858219462e-01,1.070248130656937038e-02,8.628335135017289013e-04,1.474940460073423040e-03,9.175590871837090157e-02,1.118990439411473720e-01,2.417224241043211541e-02,4.091136989174956606e-02
8.756859805485442405e-02,2.877306752090261210e-03,1.417007764965859673e-01,5.366114694094125878e-03,7.517882673208398678e-05,1.006782566919798118e-03,8.635249115742160697e-02,8.692612865651654086e-02,1.820353475234849638e-02,4.123867440361973780e-02
8.656674140855497024e-02,2.433051810203953284e-03,9.904906266317503594e-02,5.387280047625041214e-04,1.443390012593051726e-03,2.870405551892380239e-03,6.844432574540207370e-02,6.005552090800737874e-02,1.311791956738900429e-02,3.880818074740645385e-02
5.922845326839102503e-02,2.572339714707623255e-03,8.106184038954102056e-02,2.514673160675263280e-03,3.803343733389061548e-03,2.197601725677050116e-03,5.380870248440359355e-02,4.259639381097356237e-02,1.203132837133499139e-02,3.375240637831309481e-02
4.416517594732658966e-03,1.481368338070782227e-02,8.681580838615263196e-02,4.079021914623424255e-04,6.090741969677279655e-03,1.069510575282383949e-05,4.329462911830608135e-02,3.569972959651087491e-02,1.516925906923165951e-02,2.655487868390775039e-02
4.455142531262901162e-02,2.580841060851886762e-02,1.015894917495190203e-01,2.127653646787780201e-03,7.347301443925211353e-03,9.602487191059927690e-04,3.457608867979287959e-02,2.338795524347009672e-02,1.928392338758236693e-02,2.028748170136946902e-02
5.083614235492642242e-02,2.749135395914406241e-02,1.053490382583288504e-01,1.751472406776049921e-03,8.156384502438928166e-03,5.167235857786353073e-05,3.315593061818313675e-02,6.577841654329646959e-03,1.863051121319639000e-02,1.720322012405200995e-02
1.874171328640239498e-02,1.951018783105942442e-02,8.321953953931802983e-02,1.110868563810564306e-03,8.918934334337826411e-03,1.747561453810748868e-03,4.051260420382289673e-02,4.443613809394225678e-02,9.881707180325806361e-03,1.542647993059625619e-02
1.395063899650737099e-02,1.046362350439723407e-02,3.847565863466472641e-02,3.021571197597036629e-03,8.185234924346918017e-03,3.346857491105726789e-03,4.489418652366321261e-02,6.762198503699891339e-02,3.006256375541609214e-03,1.163088484361705227e-02
2.628804308089380953e-02,8.633261480150925676e-03,6.366857012304456137e-03,1.547682312091559070e-03,5.044601761280465002e-03,4.651104753830795184e-03,3.797375733559715805e-02,6.367955998283439389e-02,1.286737531093382417e-02,5.468704156397035526e-03
3.573087935472553378e-02,1.240617514178366659e-02,2.993788312339575736e-02,2.116882817808346702e-03,1.282854138400795971e-03,5.195983113781782112e-03,2.908053214504915246e-02,4.036743406697115844e-02,1.798436953738190291e-02,3.631834838823810993e-04
5.952167393709380944e-02,1.262528112539640542e-02,3.088751322605256047e-02,4.748900145979353081e-03,1.216547883292161967e-03,4.869762847747474352e-03,2.913654419959671796e-02,1.442140488011855667e-02,2.142732384224756148e-02,3.435914770108262732e-03
7.433559560078724371e-02,4.197431658324613304e-03,1.842299303278271960e-02,4.995383178780386270e-03,3.328874853693944858e-03,4.313490011465272861e-03,3.225681159752768340e-02,4.776055058914602768e-03,2.347344122344505873e-02,3.612553108388581215e-03
4.226455815020990076e-02,5.965564485558901703e-03,5.563627178963860900e-03,5.317362740027926048e-03,6.713306870628456095e-03,4.041106282916477610e-03,2.708775609615012708e-02,1.657868071975538565e-02,2.147779021819483034e-02,2.254158397552712568e-03
3.035119430154323630e-02,4.768587262838987900e-03,3.859849493266116066e-02,9.096262008018603934e-03,1.069757938469625101e-02,3.892614929900178097e-03,1.453155954947648806e-02,1.956824986653540183e-02,1.581193183981353251e-02,9.180240047367855399e-04
9.292402187693479809e-02,1.055754909418210596e-02,6.550346360863443240e-02,1.553960814713414330e-02,1.306090375838458301e-02,3.550960721987044075e-03,1.020348447748938535e-03,1.095934607330181082e-02,9.593573394296299808e-03,1.034567571525212264e-03
1.101982423820106888e-01,2.536106801602418248e-02,7.714316203183797793e-02,1.953903347554490286e-02,1.268578420748556722e-02,3.114448351078952064e-03,1.259867034053557475e-02,4.927093529887912639e-03,3.686944369648102651e-03,3.434327961597881656e-03
9.080084920008779648e-02,2.403385726442850562e-02,8.674990304081717230e-02,1.766931598561803304e-02,1.021231119247602813e-02,2.924033291287198716e-03,2.295738151209310296e-02,1.910647265726054395e-02,3.114041365954989520e-03,7.813321564541241687e-03
5.613504705269064393e-02,9.837815713583841076e-03,1.037871630495800779e-01,1.205125720449894654e-02,6.999879362245811122e-03,2.889634438624117362e-03,2.049598939884376275e-02,3.117725927586619331e-02,1.002088584980114980e-02,1.339211587892160174e-02
1.609329957709263945e-02,8.749785514661672162e-04,1.104991186452329993e-01,7.347165101236544441e-03,4.180076608260610734e-03,2.406249155560739698e-03,6.074819893542990866e-03,4.692527228474124151e-02,1.445137712941297128e-02,1.939283909908973494e-02
1.874954436041511435e-02,2.259820081850667794e-04,9.039004890522969737e-02,6.309624005971205089e-03,2.241708284559268752e-03,1.360151270953896888e-03,4.408403356800387821e-03,5.973657696315946841e-02,1.624049184099329510e-02,2.438339985748058658e-02
3.468127529413284754e-02,8.243333281247069294e-03,6.006247180147433057e-02,8.405611528988242431e-03,1.087124731175084964e-03,6.400441363622246665e-04,8.569420083683119797e-04,5.335088623953591208e-02,1.813931401670680621e-02,2.707427109004058655e-02
3.370009961609259086e-02,1.628373789870074181e-02,4.642764326156681443e-02,1.028924116017325419e-02,4.234570445151785659e-04,8.888228358991970236e-04,1.121007865892014593e-02,2.958704801947172752e-02,2.067829422492502289e-02,2.856449245387110425e-02
2.964610738439215146e-02,2.204241601075362933e-02,5.012561002014813416e-02,8.694636729470730727e-03,2.143456501771565884e-04,1.468596010664555140e-03,2.525197318355046350e-02,1.187164684016673438e-02,1.986594786890875930e-02,3.134505718395071139e-02
2.525244563692554192e-02,2.595804165584383177e-02,5.472001276137564152e-02,5.144558057481050765e-03,8.430162176393961228e-04,1.495402821215172529e-03,4.037023113377605915e-02,1.374767350293167219e-02,1.273576916893266221e-02,3.486829268880728416e-02
1.467787147345864067e-02,2.905617320066997827e-02,5.411421404408145452e-02,4.714342412307026900e-03,2.517776255239390169e-03,1.077498586990706343e-03,5.150922646455818876e-02,2.495891006225268299e-02,2.317647541861935466e-03,3.475866650690798837e-02
6.476309705606597862e-04,3.110241051282975483e-02,4.829018879701128114e-02,7.952572770311139294e-03,4.438929518765951515e-03,8.141885685110758671e-04,5.069216353726533481e-02,3.396189027713599623e-02,5.382618331182596576e-03,2.838119084979693132e-02
1.722878945237989873e-02,2.957977396321609040e-02,3.011295788104020182e-02,9.164725900507687817e-03,5.282865227648629418e-03,8.159279401946412536e-04,4.060712271757960928e-02,4.342493007730669624e-02,6.841696157129370688e-03,1.906315366561481955e-02
3.506596944525252474e-02,2.295876671804852540e-02,1.117968577978476277e-03,5.273429406909896887e-03,4.748538796260827304e-03,7.628510909298224195e-04,3.342263966375739331e-02,5.746182236734206916e-02,2.368162980857331165e-03,1.255975812232917876e-02
4.609854120970546115e-02,1.407364456507824609e-02,1.515395490576692747e-02,5.048704965613950123e-04,3.858955528479993992e-03,5.192342323868943781e-04,3.495449680267944531e-02,7.014328569258479473e-02,5.432222462600312662e-03,1.083233636981130454e-02
3.573051042531711491e-02,7.565380704911318574e-03,1.445361130932567781e-03,4.068872527326640974e-04,3.537332476260138334e-03,3.609331822700462462e-04,3.981612311482809335e-02,7.454433477791261309e-02,1.401015353855688227e-02,1.148921769877092429e-02
3.552183471287374567e-03,5.101266492686968614e-03,4.326413441572328489e-02,1.956428145455653238e-03,3.519701907358167847e-03,5.295356738335740398e-04,4.192115759425859428e-02,7.272142819908690436e-02,2.289548600420842489e-02,1.248352944820089148e-02
3.167848194284363095e-02,4.533923177244692480e-03,9.019902414060373963e-02,5.151438484759483794e-03,2.949004976574153003e-03,5.947543401390283438e-04,4.182503943014017483e-02,6.788144748560667741e-02,3.227938160762115066e-02,1.481348684924556521e-02
5.177795005804960299e-02,2.560733069694409465e-03,1.262914729448657847e-01,8.801757599056044684e-03,1.778625742793164474e-03,2.286262426282647045e-04,4.240665795420171108e-02,5.416300768918748398e-02,3.907544748260790429e-02,1.957412291334407681e-02
5.774013329421833624e-02,1.879585941068166125e-03,1.289620047485159349e-01,1.203250501908637547e-02,1.012931588808710457e-03,1.759440417062243384e-03,4.302860248747814031e-02,2.714672086925294658e-02,3.765070725514142735e-02,2.409846783372025444e-02
6.588226897524417092e-02,5.741019901951426724e-03,7.487468593278233386e-02,1.136422335747513598e-02,1.253753624920327971e-03,2.568147479604983990e-03,4.193172233089609291e-02,5.929647806156871856e-04,2.644760816726611855e-02,2.358442054617989822e-02
8.308465676906587327e-02,4.727641948819015852e-03,2.185023046208654438e-02,4.903163682506646998e-03,1.796427036706303325e-03,1.743389363829214505e-03,4.075496733398997762e-02,4.698387895539977294e-03,1.104004833237860750e-02,1.668239221838099112e-02
9.162243731284426540e-02,5.899313909560619310e-04,1.036121850963290653e-01,4.018881119781755017e-03,1.784084776274222871e-03,2.462853030946715984e-04,4.112163536729455254e-02,9.681938626190385311e-03,1.208611121425602489e-03,7.584342977093875421e-03
7.116659906761131638e-02,3.979871592438581976e-03,1.234242450853964695e-01,1.045858132665090229e-02,1.367301535660148636e-03,4.220978519037983396e-04,3.975029410033521088e-02,1.923555402384069524e-02,7.057727237047015448e-03,1.716086506465858315e-03
2.976040597100875970e-02,1.251949555655316277e-03,8.934677141975501391e-02,1.284645571442953431e-02,1.099478809850925123e-03,2.622090585171644853e-04,3.274524854177014721e-02,1.006896650580165614e-02,7.111077553158038841e-03,1.447967964988377924e-04
3.889689354596707026e-03,3.603547342422977473e-03,4.355534275976361003e-02,1.191968768187611979e-02,1.031974771055702532e-03,2.975757182398791481e-04,2.135751306077340872e-02,4.270138754965725932e-03,2.918972825695660862e-03,5.452903442791519860e-04
1.296136572893077758e-02,3.282345113718766923e-03,1.347361097666310847e-02,7.864382438096503142e-03,9.228149070188803498e-04,5.066639066969902449e-04,9.213290750103481780e-03,5.395431279378844723e-03,3.438279047191249421e-03,2.845418530486090117e-03
1.925913900785226375e-03,2.958534942618944348e-03,4.347850769971051653e-03,1.916150872789726921e-03,7.366684559017767269e-04,2.346081277812569847e-04,1.060997030057578110e-03,7.351263844085607208e-03,8.354075888635365682e-03,5.356866057585903985e-03
1.797148695803330379e-02,8.010265140650937865e-03,2.140644977214421069e-02,1.987239846875315120e-03,5.807198741807539834e-04,2.138770267272707779e-03,6.082874117064974301e-03,2.348549188229031442e-02,7.843774854908450861e-03,6.852573582345426913e-03
3.596761191441052996e-02,6.234361876965920785e-03,3.438765571732065041e-02,9.688381398648351775e-04,4.700885531810473721e-04,4.027303893342666641e-03,3.736371549449724917e-03,3.440906044675862835e-02,1.137792308598277674e-03,9.632149662549495742e-03
4.343136852360218736e-02,8.453100625457170281e-04,3.371199054923658400e-02,3.024843069796378028e-03,3.538202775490247487e-04,5.029213867008795746e-03,1.887117328210951260e-03,3.493671161528438818e-02,7.371258080329495983e-03,1.533048345991168231e-02
4.601579019249764368e-02,3.354714422097473904e-04,2.489908665198995938e-02,6.088849425369090990e-03,2.207249023407817075e-04,5.117348677557732872e-03,4.450230843516665702e-03,2.745253699846460227e-02,1.180526523932345744e-02,2.081521406268088334e-02
6.125561702952892623e-02,5.414673209842927812e-03,2.009597582224442736e-02,7.306836758567252996e-03,8.824892089279653420e-05,4.086924541351137120e-03,2.665250604545600296e-03,2.413213085286449247e-02,1.101088169588315853e-02,2.216692762267519212e-02
8.210692718103573817e-02,1.311077010647854896e-02,1.306121695949500131e-02,8.167988180039493021e-03,3.781124437583787854e-05,2.017548924414309507e-03,2.435137656357483533e-03,2.757278440656993346e-02,8.979693436883474239e-03,2.001909308611088747e-02
6.465478213840102073e-02,1.664996221331278142e-02,9.170721563336566365e-03,8.825825411229795692e-03,1.575459722662517041e-04,3.586029393697980051e-04,1.214658542707149069e-02,1.753189351325745368e-02,8.566784794877622955e-03,1.773310823097209651e-02
1.362396734071449900e-02,1.500303476161549826e-02,3.458565152888018468e-02,8.280903814461431506e-03,2.779620823793829167e-04,3.487729585340129191e-04,2.554896416745087995e-02,1.988327074456029339e-02,8.361532433822144519e-03,1.642077992169569886e-02
1.055842587500839674e-01,1.047467943307765596e-02,3.986338579653329883e-02,7.289368447127289249e-03,4.184046538245072178e-04,1.032359876493264958e-03,3.682034878925191657e-02,6.216104506426689547e-02,7.351969296760230838e-03,1.452800027181740464e-02
1.442246261555468478e-01,3.777031068170974212e-03,3.055077031473388618e-02,7.553297984239833347e-03,5.675725596062601141e-04,8.462734559028122806e-04,4.146143342814527510e-02,7.585224723488900866e-02,7.935611982934891867e-03,1.135621911264341442e-02
1.219334556782107060e-01,5.093055054334318273e-03,3.250891865208125481e-02,8.215071751919055670e-03,6.735902892544751424e-04,4.014322523667303386e-05,3.840264973725537878e-02,5.995930273679948158e-02,1.099044740910594051e-02,8.802204306774755876e-03
8.395049988024087806e-02,1.268176993341850467e-02,4.856837024538813302e-02,6.328863879553392469e-03,7.548367188648074646e-04,2.371979305244453925e-04,2.691672297175665834e-02,4.045769717834020451e-02,1.248405456745347447e-02,9.092393726233364074e-03
6.168546913459944936e-02,1.425513484356694983e-02,5.785499578547677324e-02,1.126545736177943756e-03,9.232331582392030739e-04,6.517424700283548557e-05,1.147719989332319536e-02,3.336042604315783006e-02,9.085898025121982857e-03,1.166871091694795040e-02
4.760701114904299092e-02,1.016571130650440608e-02,5.412856383800530857e-02,4.529889197920320375e-03,1.139293564732817357e-03,2.595507668839606790e-04,5.548172608987515450e-03,3.384674464310540032e-02,3.549427751130344953e-03,1.348295979713427101e-02
2.439238129721360213e-02,5.640268677993135089e-03,5.295146350260902801e-02,7.198903670405288995e-03,1.153616339027086673e-03,1.933895587530747614e-04,1.744611480939995199e-02,3.441051790028924751e-02,8.867135020425177122e-04,1.274097946862956521e-02
1.060170155488468491e-02,4.424419222646349022e-03,6.227245896001972619e-02,5.697001346449263523e-03,1.028967999589627423e-03,1.652328685187682633e-04,3.637819176495698387e-02,3.626858575123286660e-02,2.256712458285151275e-03,1.125622393669256475e-02
4.580775805225246328e-02,5.721811478517770805e-03,7.159843101357039885e-02,1.108305857506107972e-03,1.337489573640293552e-03,2.528550648167171696e-04,4.443546621534220226e-02,4.123642670949651673e-02,5.701041198488310431e-03,1.187310275114729537e-02
6.298767742049569962e-02,6.525342258296876023e-03,6.842118472359895454e-02,4.097367352376781596e-03,2.208374359194054202e-03,3.153425214647662014e-04,3.710018063858346038e-02,4.134778742836122539e-02,1.010887577346401139e-02,1.415931783521653074e-02
4.931006495596582800e-02,4.878494588635548870e-03,4.740007238656517019e-02,6.771611418056544540e-03,2.746594208362798575e-03,3.117616159742619660e-04,2.215194509551637186e-02,2.638123125494585761e-02,1.512196590029979935e-02,1.427558743364940909e-02
1.060024538690942757e-02,1.479827887215611273e-03,9.845676471244110828e-03,4.824817838563570487e-03,2.294445301077631134e-03,3.089255912088159943e-04,6.726479613654295399e-03,4.996090053143265736e-03,1.871151532294088038e-02,9.469564644605328943e-03
3.293228429678185520e-02,1.049292668312439307e-03,3.276826123254292233e-02,8.212723629233136414e-04,1.538612961612149249e-03,3.276328783836388384e-04,4.358028580978820510e-03,4.549075411618897467e-03,1.803025470674958497e-02,1.913612951574422639e-03
6.305389083169429809e-02,1.502705982130317190e-04,6.476761633428651521e-02,6.769847846664809286e-03,1.387088660018576764e-03,3.296730344934616346e-04,5.829253248811521251e-03,3.539154096924625875e-02,1.273533275274607753e-02,2.621362637299829573e-03
6.945713985113671773e-02,5.534364421477148271e-03,8.309723803248560137e-02,9.990503976884498177e-03,1.610480169734161910e-03,2.995042185804729735e-04,2.204890295782094712e-03,6.902846289995233364e-02,5.471111642290811539e-03,6.042302388671993291e-04
5.089152788143871953e-02,1.536429963289314034e-02,9.378205630575739415e-02,9.843618063594412881e-03,1.558237772835836202e-03,2.675379564188790278e-04,1.083910061747360432e-02,7.187145106269508810e-02,1.543834713718616981e-03,5.160444801808555457e-03
2.063255333037052747e-02,2.626807653980290855e-02,9.096723948231198731e-02,7.569505234761998713e-03,1.385231916721224978e-03,2.516646730745476161e-04,1.164044463990165923e-02,4.829585821905624937e-02,8.773719525497400071e-03,9.133058146212989087e-03
2.471981861705187071e-03,3.460207400844837744e-02,6.361685872308243950e-02,4.720030014176610465e-03,1.526726961767622525e-03,2.105538288519900143e-04,5.617552710051668119e-03,2.856077406868330615e-02,1.692806974940333151e-02,9.985348672675892212e-03
1.566697305758872269e-02,3.791264816536759480e-02,2.433030613522392180e-02,2.700044951230078181e-03,1.546933750569281108e-03,1.133883506540118687e-04,6.269405055077741876e-04,2.508548854217092922e-02,2.371672399168070836e-02,1.054638827190648026e-02
2.883199257088459380e-02,3.477840619215625401e-02,1.419324841567535730e-03,2.680809682320767304e-03,8.874354559333323244e-04,3.875916444279477549e-05,4.073510510089030714e-03,2.382686569985068697e-02,2.524964100099902700e-02,1.165984025552928988e-02
3.871199238689472522e-02,2.719458029377695013e-02,1.818266288776373280e-03,4.117887275790998308e-03,5.867127472459095477e-04,5.365481983293519377e-05,7.885346641492515032e-03,1.196983579219710984e-02,2.036988122994600608e-02,1.073511980900574737e-02
3.086703591541330172e-02,2.306518642400385080e-02,9.418747407087410539e-03,4.309351507222530797e-03,2.281817116172633799e-03,2.094193782389966235e-06,1.634229974042711309e-02,7.056553175105992337e-03,1.201058421642534416e-02,6.558070224443645138e-03
5.968395406667426767e-03,2.965229521219488532e-02,3.171836724984098549e-02,1.514840610741243106e-03,5.217047054989006234e-03,2.815298761979019744e-04,2.823823802961309207e-02,2.207329496526597851e-02,4.263146500158632168e-03,1.533938762944094935e-03
2.267917766922367823e-02,4.432691117561413097e-02,5.529973758121161515e-02,2.791999475559702598e-03,6.844068095192261218e-03,4.132929902899403819e-04,3.572211506229221872e-02,2.269816988201061800e-02,1.108461739438948261e-03,1.631214617858462498e-03
5.140653393388655568e-02,5.756534034260520072e-02,7.749933700972432005e-02,6.516973535399104948e-03,6.827727800882342664e-03,2.281549798621037802e-04,3.116867195749735767e-02,5.066714649432395821e-03,5.385389433485595484e-03,2.687067266519281485e-03
7.945237498532946308e-02,6.340418846768763883e-02,1.149520034347562281e-01,9.718629478019394363e-03,7.163206420087728579e-03,1.489669087849405807e-03,1.513470507075126252e-02,2.102459738728183758e-02,1.043912157855847803e-02,2.377635510183641332e-03
9.179767574330637003e-02,6.190822735820065287e-02,1.673437461785674818e-01,1.289216936568052599e-02,7.863958433281463545e-03,2.308159602371668336e-03,4.299032117453306136e-03,3.626232185692094406e-02,1.581345582545810521e-02,6.287054235456506109e-04
7.474402979976074723e-02,5.471912885036023938e-02,2.036149439295103225e-01,1.432517931640375601e-02,6.467324091235806226e-03,2.006900478459613772e-03,1.935666984010169303e-02,2.936300818165554424e-02,1.925200770827234509e-02,2.334279017140045761e-03
3.920187475935060784e-02,4.396572042923160839e-02,2.008026692892476150e-01,1.174940739000813333e-02,2.707082862388873398e-03,1.150726561508995469e-03,2.726553853222456192e-02,8.934789470741714978e-03,2.009595820780995384e-02,5.154978846551469714e-03
7.804809117017343090e-03,3.384225160480578559e-02,1.761239853953946999e-01,6.552825321183590110e-03,2.114195994209238836e-04,6.108624880323735131e-04,2.784968292948165544e-02,5.125959577250122946e-03,2.011786854119417683e-02,7.152551458042201438e-03
1.538866640647065798e-02,2.836355194913032715e-02,1.622913305811630735e-01,3.616514645207300274e-03,3.205768049308165956e-04,3.406639338777234173e-04,2.025842737816165029e-02,3.947075074325711794e-03,2.045200195730693601e-02,8.717037695995301719e-03
4.385138978737473936e-02,2.695012361282026273e-02,1.636629369435973758e-01,5.368807978675238686e-03,5.085929291484085884e-04,1.815865537865736382e-04,5.559088668398406291e-03,9.532189667045055416e-04,1.988909429297961926e-02,8.914457615636780033e-03
7.674196714126435559e-02,2.472526228933927261e-02,1.569324635085977970e-01,8.547974178477539889e-03,7.723940718173190507e-05,8.281968197797962483e-04,8.252296510229189738e-03,4.614892396019242352e-03,1.685880537314529692e-02,5.877186683342125462e-03
8.881317712158984246e-02,1.811464272116726157e-02,1.281651353513640623e-01,8.891220696240393490e-03,1.055609415629411851e-03,1.077956705440210510e-03,1.058347449142691549e-02,2.028264908524365570e-02,1.106494337984137953e-02,5.340379619802602170e-04
6.415386078827053917e-02,8.812112644247232368e-03,8.738562947367117806e-02,6.235872742030611378e-03,1.457278846660722870e-03,9.516498316068421406e-04,1.327335944667595901e-03,3.936324672965225285e-02,2.979503398945038128e-03,3.695794392117389415e-03
2.080962524306432387e-02,1.700472964464901787e-03,4.981003742111366622e-02,3.258520243366602905e-03,1.250196765809093082e-03,8.620531143518819078e-04,7.154668753823382500e-03,5.786045197380057514e-02,5.517771148578265450e-03,5.694692901048578962e-03
1.672629477269191312e-02,5.389244696435342187e-04,2.427289992161554832e-02,2.230982908980082020e-03,1.238305970623170254e-03,9.178780976899336263e-04,6.276715744145279670e-03,6.383608685198227661e-02,9.570292412185486472e-03,7.222447157074445359e-03
4.959005270485879885e-02,6.016571167175076805e-03,1.798947661129412373e-02,3.875857198190977865e-03,1.402903881882713606e-03,9.463162975834923506e-04,2.755584761200616153e-03,3.867435460854485446e-02,4.357944381543234387e-03,8.173062564500592139e-03
8.647497139104376451e-02,1.522742015350123622e-02,3.122059885953038308e-02,6.386949672596448427e-03,1.414190541114692182e-03,8.907118164688342500e-04,8.270723067799540945e-03,1.518327858401846697e-02,8.191861636915183723e-03,5.720343977681078586e-03
1.137239235998424719e-01,2.216439643856391722e-02,4.729660963244392002e-02,6.005419210287778198e-03,1.464463142580845617e-03,8.309905455858799519e-04,2.330935976918887056e-02,6.607990889620179997e-02,1.903861087490408069e-02,4.362363707811351809e-04
1.089608129879630072e-01,2.149823576756052998e-02,4.530942602419754661e-02,1.392883383573170547e-03,1.665853323061249752e-03,7.959239546237179951e-04,3.740794464516387918e-02,8.588722658012226674e-02,2.077875959850143325e-02,5.860905247671382989e-03
7.181316964403333669e-02,1.261430430033111220e-02,2.237456773092911036e-02,4.057512200847884429e-03,1.478286128797296275e-03,7.499424110818076698e-04,4.190633600082922794e-02,7.484910900968012870e-02,1.412183906762377525e-02,6.282473235604798915e-03
2.224390433362071970e-02,1.138725748344732690e-03,8.021703602013281059e-03,6.515057203335920463e-03,6.772071791495623549e-04,6.808506623949424873e-04,3.636969768472690656e-02,4.787364926708655155e-02,4.451389511178542244e-03,2.068499182413454686e-03
2.474623316995667663e-02,1.528289018055999093e-02,3.517839490324273233e-02,6.096035920755729989e-03,1.302911935836634119e-04,6.070923307447729806e-04,2.432512688658733727e-02,1.563943252075929505e-02,4.336425731769493613e-03,3.394410083726079504e-03
6.932596632854462482e-02,2.544851135140007575e-02,5.811654061680451150e-02,5.209995675840918203e-03,5.663826030040248994e-04,5.367225648139316296e-04,9.300483899770756180e-03,1.450123453042795676e-02,1.074713776954728042e-02,7.450552221147174400e-03
1.099594729862698600e-01,2.939978203136581897e-02,7.781717091337593539e-02,4.925851092520895647e-03,1.336182577008752405e-03,4.634516815175709794e-04,4.517239167930560233e-03,3.524115219741871113e-02,1.397180879346125205e-02,9.279206182297838196e-03
1.283202002166098921e-01,2.917853663481034462e-02,9.289547172900888827e-02,4.730421025028847329e-03,1.443024562457134686e-03,3.857536591276649555e-04,1.326024845118993663e-02,4.452875230506917609e-02,1.412266795392544579e-02,9.251356860435348481e-03
1.097300419224351981e-01,2.873437933792061250e-02,1.030860760540272397e-01,4.270548570549174625e-03,1.048170608043560992e-03,3.088969507405565592e-04,1.700043945735601331e-02,4.840018610823815931e-02,1.278703251592081501e-02,8.494472871435959291e-03
7.340174896487723644e-02,2.959512105208333618e-02,1.106106346594969703e-01,3.790191616404810053e-03,9.678552697787623678e-04,2.359663446318749824e-04,1.935669296156875344e-02,5.580787806822905261e-02,1.159204427190677240e-02,8.122326698351136492e-03
5.318882054305972690e-02,3.080527183407350683e-02,1.162756809080395387e-01,3.457236885741121323e-03,1.205859876114270205e-03,1.667480337186197576e-04,2.249736184381970899e-02,6.904733597489810804e-02,1.081666726835398343e-02,8.040697955940874497e-03
5.015942516798286427e-02,3.174227963443766037e-02,1.178679405634323191e-01,3.164756534192627105e-03,9.548767466031237361e-04,1.018681677424062903e-04,2.537902580780534989e-02,7.845025552901647992e-02,9.996945486818441598e-03,7.269456320620824689e-03
3.626747168175652875e-02,3.283894815531591266e-02,1.141448661504460838e-01,2.838199510139167905e-03,5.448525817625304499e-05,4.331742878462707278e-05,2.741966545082900539e-02,7.139770504015036101e-02,9.020372041848525105e-03,5.980233955250718533e-03
1.076767687344350015e-03,3.440469877130724469e-02,1.072898512097772705e-01,2.531113996381077671e-03,5.100549745127138171e-04,7.523573427730689280e-06,2.983389749801131433e-02,4.757230056520016237e-02,8.103300990768362230e-03,5.692810985761579540e-03
3.573470268524465976e-02,3.628982540028220793e-02,9.990679846639245743e-02,2.282567765999717318e-03,7.958734340825308266e-05,5.019127303241568104e-05,3.210102611042823378e-02,1.952764585680083140e-02,7.311875447915640140e-03,6.357685891008449386e-03
5.324958101021475682e-02,3.840456697558963101e-02,9.282562396564324192e-02,2.070559732727331528e-03,6.567282032908206783e-04,8.424866181377883888e-05,3.187498446686088532e-02,5.646189700373735812e-04,6.557098432491881637e-03,5.539453835538367399e-03
4.701265533048925443e-02,4.079271183357474628e-02,8.671656331724690581e-02,1.878150198906865676e-03,8.226274486246384519e-04,1.091534648848645889e-04,2.963903853131207369e-02,8.024580334523693376e-03,5.816748264423051221e-03,2.398372215732516664e-03
2.308053843530855770e-02,4.343180422250401268e-02,8.235047792588609528e-02,1.716047852804396170e-03,5.655492272074817131e-04,1.246882431718520897e-04,2.735974001650347959e-02,2.400528063449153780e-03,5.140486872731693004e-03,2.319149427680678799e-04
8.838584688117150090e-03,4.638914795246507766e-02,7.890987331083151868e-02,1.591912535066534063e-03,4.490076972172024486e-04,1.310337490418735204e-04,2.161382303930422730e-02,1.370810986636438779e-02,4.545943033766525372e-03,1.939561917560510447e-04
3.735001870471527791e-02,4.983127882461811653e-02,7.489331079189132101e-02,1.499421007730371595e-03,5.323630876640690363e-04,1.285661910240143576e-04,6.542418893566955169e-03,3.198343323133221588e-02,4.014902490468682909e-03,3.658910510846637588e-04
5.289765766955190768e-02,5.353596680408544140e-02,7.031367741509891856e-02,1.432548671628128614e-03,5.814608881627937511e-04,1.178096220507900653e-04,1.445247443321920344e-02,4.294305923296376504e-02,3.541818047243299947e-03,1.178730480733680090e-03
5.150944938876463736e-02,5.705429327667733974e-02,6.614354931519234038e-02,1.390928698869549947e-03,5.570662560317398045e-04,9.951148915840002732e-05,2.909262760186305530e-02,4.678366739225144760e-02,3.136136380879194375e-03,2.531012686522143406e-03
3.475334059225265726e-02,6.083237503940606972e-02,6.258348591048709664e-02,1.373316433621119123e-03,5.473968248372182909e-04,7.463958188162503836e-05,3.063039099804002255e-02,5.209848217610130866e-02,2.799609624531329208e-03,1.181402443311199181e-03
6.075793690753139055e-03,6.580486293686001187e-02,5.917685746006329239e-02,1.375105752298070140e-03,5.786568577511091646e-04,4.431303624443606919e-05,2.423258235644383876e-02,5.788750352701300950e-02,2.524973477156314695e-03,9.457339599862030211e-03
3.121298567420252926e-02,7.095168909660339029e-02,5.577243299355876677e-02,1.391481217774698850e-03,6.488930936268558301e-04,9.762746574039994673e-06,1.828958200317612470e-02,4.672543147299342003e-02,2.306645516504208723e-03,1.454952715368548928e-02
6.945852786122243272e-02,7.414264872875980794e-02,5.253906142381022104e-02,1.418755300009184005e-03,7.279203899956923803e-04,2.768147021858648833e-05,1.588044201960802856e-02,8.029627478272398367e-03,2.141608959340132647e-03,1.046239738675888362e-02
9.605996142828356066e-02,7.743602952676667539e-02,4.950644841590461781e-02,1.453054593355201408e-03,7.265210236067921315e-04,6.662022456463447526e-05,1.465893331158671029e-02,4.043470778330551796e-02,2.024587911104639218e-03,1.593492111459285550e-03
1.065859332812476856e-01,8.551303972343266002e-02,4.654725846716500220e-02,1.489829954392030706e-03,6.863872567274036584e-04,1.056308515323948523e-04,1.064567164847689262e-02,6.933846266698481808e-02,1.947783811053199667e-03,2.106242605271143025e-03
1.095427791410496510e-01,9.359843746182040791e-02,4.360634183644732098e-02,1.524620726569727094e-03,8.369175676237808337e-04,1.433098099987301912e-04,2.795077658517884298e-03,6.932542556021899227e-02,1.903370554044627383e-03,2.448101729745650029e-03
1.078218169732489962e-01,8.702947305569917746e-02,4.072170650903465805e-02,1.553447361741287216e-03,1.105712865681989865e-03,1.783043798286778475e-04,4.701120387960827998e-03,5.298886749846348082e-02,1.883911444657562773e-03,9.275189070115387110e-03
9.075144004856652846e-02,6.446618432439442381e-02,3.789011862629095007e-02,1.572607374324911517e-03,9.329431590901414396e-04,2.093404099661427646e-04,7.184181609422079194e-03,3.303240214844462702e-02,1.881476287772211858e-03,1.328966464324528134e-02
5.396232176686514836e-02,4.920533228396504338e-02,3.503714773886919265e-02,1.578629464613654854e-03,1.947005185584209375e-04,2.352587972577753310e-04,6.155044032678714042e-03,9.837103371364576063e-03,1.887725950011614334e-03,1.646290388223830073e-02
8.331567933462645514e-03,5.797069681901406701e-02,3.214010024294305934e-02,1.568497010506948470e-03,2.435132171926267014e-04,2.550601711466789017e-04,6.441354879208356990e-03,2.204788043376042922e-02,1.894620430402289835e-03,2.233182505057574457e-02
3.540159985347148680e-02,7.013417595530072046e-02,2.928652587382828826e-02,1.539785737087234893e-03,2.544090171344486279e-04,2.679279505945732155e-04,8.100919524687302115e-03,5.810175359430830300e-02,1.894677303777894759e-03,2.884133239524847014e-02
7.101326364717491790e-02,5.475125762421714781e-02,2.649073040398671267e-02,1.490656439095084653e-03,1.049916633347547715e-03,2.732201228802026119e-04,7.704904460896969294e-03,7.645755319594768618e-02,1.880921365012735123e-03,3.016903050170165537e-02
8.939092019910332976e-02,1.886387133452618187e-02,2.357196469682113632e-02,1.419866084033369336e-03,1.272310623932932250e-03,2.704910962246681897e-04,6.216061890679592736e-03,5.784076199151000353e-02,1.847022886402748974e-03,2.463157779664376310e-02
9.034905470906415270e-02,3.213949716127630953e-03,2.051790906521906710e-02,1.326825214279719629e-03,1.043236746345178921e-03,2.595676346588618043e-04,7.955337032860380908e-03,1.568860197272256563e-02,1.787558306637467009e-03,1.757613949033918349e-02
9.124581949539922743e-02,1.484167489375692525e-04,1.772183688929604775e-02,1.211624289921781582e-03,9.251461657542022019e-04,2.405471158868791937e-04,1.268914900543624373e-02,1.137723911203847652e-02,1.698153951723081843e-03,1.538325363140617859e-02
9.493045958886346669e-02,1.170445583289571670e-02,1.495696623500005623e-02,1.075014297387473375e-03,9.861959644561742525e-04,2.136607135083917850e-04,1.609175625226216474e-02,5.549493109491539927e-03,1.575535947014814094e-03,1.896048433406559777e-02
6.778211919916148076e-02,2.099477223473174281e-02,1.019367755581955526e-02,9.183775978203482983e-04,9.836583116725832431e-04,1.792807551053622757e-04,1.712519930227316203e-02,6.905275320990745050e-03,1.417594687725460233e-03,2.407243448421024154e-02
1.174599571533352892e-02,2.131140065910622564e-02,1.179268594734536602e-03,7.436968499757526125e-04,8.786186979491841884e-04,1.382027464231875028e-04,1.821443947369867297e-02,1.247098957646857430e-02,1.223451320085427747e-03,2.575857547039256748e-02
1.026157235951849628e-01,2.668271584172326669e-03,1.136191836187379865e-02,5.535063398632506567e-04,7.838102544809633391e-04,9.160939609178846089e-05,1.920528948599506402e-02,6.952487567576269567e-02,9.934733652873820823e-04,2.288496103066032378e-02
1.409877895123656522e-01,5.046288441698830451e-02,2.430413506399316942e-02,3.508234514980985096e-04,7.201307361414141343e-04,4.042283720568515612e-05,1.716958230816749420e-02,1.320993241385876316e-01,7.292438430666621334e-04,2.051422162720966183e-02
1.153007847108597772e-01,9.008851574476192670e-02,3.588181908068818066e-02,1.390696963757956980e-04,6.367053297832300177e-04,1.469581016987250822e-05,1.137135023751449300e-02,1.639174147570000573e-01,4.335089460333966236e-04,2.402266699524377783e-02
6.830403628114481429e-02,9.929501316886203688e-02,4.532559243711690306e-02,7.801491956434055569e-05,5.251087414216192364e-04,7.203755400922868526e-05,4.203424428268427541e-03,1.569861713760913602e-01,1.101038773296009079e-04,2.839883612353088713e-02
3.658969069583842271e-02,9.395113057871183615e-02,4.914306423180750394e-02,2.964656146347484670e-04,4.113824430125106947e-04,1.288972550451278083e-04,1.713681859922420048e-03,1.292742273135847331e-01,2.361524713914271928e-04,2.184569331668308884e-02
1.574187222858327781e-02,9.119360896020636820e-02,4.349110537313873037e-02,5.121932915838717194e-04,3.024023771373525525e-04,1.844673104963208822e-04,4.830943184896808670e-03,9.710456372498611766e-02,5.995905217783827588e-04,4.324656450885824843e-03
1.474020097142977534e-02,7.871172877275131596e-02,3.191229294683511908e-02,7.210876214340191824e-04,1.888966115422166623e-04,2.399075872296339027e-04,4.178332205268431472e-03,6.132123840125449504e-02,9.738419585429850325e-04,9.153060460283527627e-03
5.195041553821128089e-02,4.451954581540387701e-02,2.557405744432026187e-02,9.191195140486961134e-04,7.052539945741443197e-05,2.922775379478299114e-04,9.694982474892383656e-04,2.043348192751202538e-02,1.352007025749758350e-03,9.589774248694175190e-03
7.312499949080028538e-02,8.430614812310258457e-03,3.232765044294232115e-02,1.102441165729533623e-03,4.529609304435223320e-05,3.343411571947934127e-04,1.037571837777621561e-02,1.877972102258249759e-02,1.726835420176923768e-03,5.906898005705743873e-03
7.494113115232836630e-02,3.873580287339821807e-04,4.815226240374879257e-02,1.267482043750754218e-03,1.552244231449884527e-04,3.676331000272362991e-04,2.063691490711251977e-02,5.065381609771157922e-02,2.090916128899925411e-03,1.010838141267511765e-02
8.148854840321595461e-02,2.431926777795664907e-02,6.240428762837146870e-02,1.411038287386900828e-03,2.596553942306836543e-04,4.033258511927802735e-04,2.482741252696969714e-02,7.707547639713099863e-02,2.436870290337319993e-03,2.214947625233013376e-02
1.020372739609119450e-01,6.085335916786085292e-02,6.925886266069727903e-02,1.530351998568680759e-03,3.572640199175897537e-04,4.344512084552124877e-04,1.782034954572793428e-02,9.780687498585710626e-02,2.757542303599599866e-03,3.406268035193580485e-02
1.099939871380359313e-01,9.262368339053919652e-02,7.032401664906479111e-02,1.623178288093664670e-03,4.451606147597580196e-04,4.334136731429032944e-04,1.841431693161656256e-03,1.072184502781767940e-01,3.046184991230345158e-03,3.992778417110910000e-02
8.181507647496311098e-02,1.103167514366859836e-01,6.766823979993730198e-02,1.687841223069522093e-03,5.214917459141770080e-04,4.113419260036721425e-04,1.612153114980042004e-02,1.052178247485152651e-01,3.296634234202261860e-03,3.943787314480054484e-02
3.023873067334075307e-02,1.044565133620350278e-01,5.950491852012413513e-02,1.723278198861232348e-03,5.854585837586203994e-04,4.251486535336327310e-04,3.093546420996484692e-02,9.820585469362017039e-02,3.503468530927424888e-03,3.768098600113456431e-02
1.611199723031498179e-02,7.133930178681319179e-02,4.480176316601462705e-02,1.729065954621350184e-03,6.361938179214679263e-04,4.510375378691170280e-04,4.004492412945593466e-02,8.858542763014834454e-02,3.662149581030344891e-03,4.091488424700958498e-02
4.210172284706398260e-02,2.779604020798922756e-02,2.964364009625767779e-02,1.705425578007917350e-03,6.727752445658080572e-04,3.633934609154409003e-04,4.056524035783327931e-02,7.757465045819030014e-02,3.769140601088644821e-03,4.926259422703115065e-02
4.924813492111979052e-02,6.061798610048494546e-03,2.505939661405294505e-02,1.653218623970380708e-03,6.946850506311838232e-04,2.005126571963019840e-04,3.147272091705425462e-02,7.323945696216126178e-02,3.821999526039291089e-03,5.648957644972111419e-02
5.003726711560252394e-02,2.505760659127546919e-02,3.606623565729943914e-02,1.573939316349478191e-03,7.018352013361406220e-04,2.723004452913810303e-04,1.813394566344420089e-02,7.746557116337886295e-02,3.819444824376777743e-03,5.808243910071603927e-02
5.656493920368324546e-02,7.117939862346120417e-02,5.433031719396323039e-02,1.469677200824949081e-03,6.945683374573112349e-04,7.509774974738400114e-04,9.389907339794757724e-03,7.058438462511984479e-02,3.761392397411464968e-03,5.518688538178298519e-02
6.394386105490720840e-02,1.141087974087351825e-01,6.529476449985670283e-02,1.343040235740748743e-03,6.736342748217247255e-04,1.353466133798170244e-03,8.872850806579204302e-03,2.939607781173882509e-02,3.648962785037180613e-03,5.054643885809701614e-02
5.539218631462493325e-02,1.351263957117761483e-01,6.242126914094600632e-02,1.197095228832624307e-03,6.397323943379433281e-04,1.608256638445363816e-03,1.303685382138837501e-02,3.890730423694179624e-02,3.484458610809371137e-03,4.450505194819949495e-02
2.444023789497876478e-02,1.323574329160429885e-01,5.108223453046598778e-02,1.035352023024293426e-03,5.934992909077459623e-04,1.237711794790937554e-03,1.818071200344772292e-02,9.639373380663349145e-02,3.271312913874648443e-03,3.528583174305904152e-02
2.248003621917444780e-02,1.086925762580245314e-01,3.925165572955725823e-02,8.616751003935325774e-04,5.366338037583023293e-04,3.823227626244488780e-04,2.325041407957821257e-02,1.123146265797804189e-01,3.014009745969597077e-03,2.255283431406115979e-02
7.632691650211362311e-02,6.812913702974762731e-02,2.925672286791869414e-02,6.800685602572848279e-04,4.718817942611107700e-04,3.424969793142372564e-04,2.509213359036875646e-02,9.172013829321680467e-02,2.717979113155190220e-03,1.094755647826210765e-02
1.199644265962512280e-01,2.092711685993518811e-02,1.951394816599975185e-02,4.945876228662738575e-04,4.004368468348297439e-04,4.283248600905708138e-04,2.031236489788571659e-02,6.275249627409554276e-02,2.389468955601646051e-03,6.932845321776223702e-03
1.281543450500254866e-01,1.650770999124476918e-02,9.864069953319412609e-03,3.095053967881050434e-04,3.217832846351445747e-04,2.724582405395905237e-04,1.356626249261331379e-02,4.419087828163884013e-02,2.035397376307573631e-03,1.035339658255509873e-02
9.504078615594677149e-02,2.887052035756374618e-02,2.836270726240526160e-03,1.292047657062161026e-04,2.391584755268229181e-04,6.406840383999487824e-04,1.420288483812008444e-02,3.282895495166580913e-02,1.663188816606169310e-03,1.363112449981458002e-02
4.490463457591166441e-02,1.034377574792037444e-02,1.450203035925393472e-03,4.248599918591373361e-05,1.598930982978976354e-04,1.106585066914517104e-03,2.337784591903425621e-02,1.925623383865026142e-02,1.280598332435892595e-03,1.071124563273353168e-02
2.936710476453595689e-04,3.044456013883944934e-02,6.304351327341268380e-03,2.023816127864644062e-04,8.358553803653622936e-05,2.429042860053874544e-04,3.231490459417103722e-02,3.400263452902300022e-03,8.955283789703953569e-04,2.010172527072013812e-03
4.007374611882226489e-02,7.354727195691493358e-02,1.381325935536716065e-02,3.468143139154911798e-04,9.134187222170923794e-07,1.905642557857110475e-03,3.257496113825941036e-02,1.260249281541800208e-02,5.158425170496281275e-04,8.938512355571151535e-03
7.445872454334215296e-02,9.895974404429484783e-02,1.812573525450216633e-02,4.716890417675701592e-04,8.128380453988931400e-05,3.060325592450036103e-03,2.242169851669795558e-02,3.241220428449046592e-02,1.491805531126893895e-04,1.842605453061284954e-02
9.579544626744609936e-02,9.771432111638163331e-02,1.588286017536023886e-02,5.751373193301415184e-04,1.369587448164470830e-04,1.729587020726140734e-03,6.202895743264194919e-03,4.956249651705500053e-02,1.972200886617928722e-04,2.313583850146775506e-02
1.040313266713075446e-01,7.565346321512372851e-02,8.915336394555226432e-03,6.576872049727186011e-04,1.744893192751625986e-04,5.753980340011021410e-04,7.739216859330017018e-03,3.807889857170091569e-02,5.166922160220479253e-04,2.139417401935411744e-02
1.012046483562714927e-01,4.784733932959728264e-02,1.897926355538921521e-03,7.167830502050821957e-04,2.447194927003746526e-04,1.628878077598378514e-03,1.260372082357839353e-02,1.614762312540136968e-02,8.032924108675985626e-04,1.356605904885715974e-02
7.809620889849519521e-02,2.418340140124722315e-02,2.859217268789502643e-03,7.464227790977932819e-04,3.267350401981676381e-04,1.378002451242715202e-03,1.044827829218944980e-02,8.513819062752908673e-02,1.051936954915794718e-03,2.060792554456119564e-03
3.153155657765396164e-02,1.012993690166612455e-03,7.318768758916319346e-03,7.489523193921224448e-04,3.076765038278289578e-04,1.120568440018840329e-03,1.029035488840877345e-02,1.256309416535830170e-01,1.258515712795697664e-03,7.911308252272659935e-03
1.859057708721810476e-02,3.557288114436812920e-02,1.335465760567522073e-02,7.362028257545091868e-04,2.262247276222239417e-04,1.304737989465735949e-03,1.829131165006970747e-02,1.266452191445055775e-01,1.419980383824015046e-03,1.106917948317842799e-02
5.234411348260419039e-02,6.516217358731905829e-02,1.883442207361014573e-02,7.043401894358770551e-04,3.250347492857590679e-04,1.481784190077437176e-03,3.414435244616773751e-02,1.072526100038534158e-01,1.534407531428601647e-03,6.850294174563021851e-03
7.579482830744142807e-02,6.202390635111848516e-02,2.070945001767717647e-02,6.307418233478857307e-04,5.360437955645363855e-04,1.447035601711339770e-03,5.336304872026502444e-02,8.110396990659173022e-02,1.601036919809589298e-03,1.037319374824891048e-03
1.017713353531307097e-01,2.536342029096716813e-02,1.959721885067733371e-02,5.275445791906928188e-04,2.964959573174267464e-04,1.403780341704146187e-03,6.652404839204413556e-02,4.968883762887149613e-02,1.620279125471841327e-03,7.969195518425647995e-03
1.162428040932994844e-01,9.864215761412001987e-03,1.831316475183127415e-02,4.495913941190614956e-04,5.159779998320372955e-04,1.451252823806473439e-03,6.332479779494266936e-02,1.962508536411539453e-02,1.593688053563102527e-03,1.016504978196262898e-02
9.029444052506513385e-02,1.484126702969919796e-02,1.788596141373261297e-02,3.801068989948968723e-04,1.030602388764976845e-03,1.494226445488400050e-03,4.657110877070082255e-02,6.856270413176613829e-04,1.523910203965635245e-03,7.955595301589037799e-03
2.590956523027086039e-02,4.714161807049182390e-03,1.748306092798539157e-02,2.104078906828666740e-04,6.078637981425745376e-04,1.485040924154710194e-03,3.401268606899637142e-02,9.905490232342349655e-03,1.414621576016162740e-03,6.475996599950717934e-03
3.464251249694107193e-02,2.926910188558753262e-02,1.668146039808186820e-02,1.671360909888027488e-05,1.153926996540913453e-04,1.475263887298037223e-03,3.577394838458332338e-02,2.317871527040514523e-02,1.270430576899763981e-03,7.666021588040096077e-03
5.734762271642673825e-02,5.096683317389245210e-02,1.588669071362339841e-02,5.465702781385936522e-05,2.709907027631451820e-04,1.493119896598551696e-03,3.825680578411064930e-02,3.927208591194362303e-02,1.096728529323033694e-03,6.431768896029180574e-03
5.401755740943441075e-02,7.039629228198292232e-02,1.533660454643434590e-02,3.219861002621106290e-05,1.623761210297041541e-05,1.504078040381867393e-03,2.266493845016925857e-02,4.636416075278661231e-02,8.995408117977819881e-04,9.218019652846821347e-04
5.215059749159638852e-02,8.682605844207351431e-02,1.488180489143618723e-02,3.155697620432410368e-04,1.812736383484952357e-04,1.488487680276591278e-03,6.864114421164271146e-03,4.014565403287528172e-02,6.854283355131687589e-04,1.216345205319472548e-03
4.862385036285345186e-02,9.998078102882246299e-02,1.444287983575588685e-02,1.217429428822374001e-03,1.540510890647185378e-04,1.490683884788786100e-03,2.625641824821235704e-02,3.251983224639478504e-02,4.613378863595746357e-04,6.159772503161387545e-03
2.004736136611168923e-02,1.113620280879353830e-01,1.411286700572482282e-02,1.800202723745777163e-03,1.755330376939163626e-04,1.539591638334645868e-03,1.910213338175508965e-02,3.766292826375149116e-02,2.343042365358322197e-04,1.787929926058961713e-02
3.716727369376716938e-02,1.199686707669112562e-01,1.394827638517588501e-02,1.422530746475476025e-03,2.830643543714597200e-04,1.559913271574878699e-03,8.484601283676663358e-03,5.838227701432845140e-02,1.123081483926582376e-05,2.479138069817111642e-02
1.007352587307159819e-01,1.228115895613425684e-01,1.392996448928736364e-02,7.200121520047017033e-04,3.628412766937910120e-04,1.499443889419756204e-03,3.733171103914082606e-02,8.783763804688876631e-02,2.010245682884882128e-04,2.544247740630559487e-02
1.447255570847376938e-01,1.202267690743302891e-01,1.405114634782404955e-02,5.602036683089873636e-04,3.934230387652703489e-04,1.515531870700044916e-03,5.282634651230665168e-02,1.156817668689759104e-01,3.957238772056459637e-04,2.560244984036135624e-02
1.530079521422097466e-01,1.159378395633714753e-01,1.431081572230008189e-02,8.182923722481194595e-04,4.255600824954090615e-04,1.732957000384709656e-03,5.544105436202258208e-02,1.298389375328841133e-01,5.669653034048075749e-04,2.917194073427537351e-02
1.226846772006193326e-01,1.124712837918659253e-01,1.469085189105246922e-02,9.299143049297159186e-04,4.679736748684949093e-04,1.794404268000032200e-03,5.520529376587515052e-02,1.207734328407471941e-01,7.100486358145621487e-04,3.414233520717976922e-02
6.746760589406888831e-02,1.099985179791899970e-01,1.521435072369566911e-02,8.262741140936420833e-04,4.953902665735835861e-04,1.152188517547926994e-03,5.457380630249532294e-02,9.083312281698416313e-02,8.204210482283543588e-04,3.755566893454843208e-02
1.277984986780311867e-02,1.080526360592368451e-01,1.591927374025186442e-02,7.501879506632735039e-04,5.021586509573331206e-04,8.904139699761891866e-05,4.319828657343457307e-02,5.630730608672216558e-02,8.932855977930928689e-04,3.993825482244992703e-02
1.814649949732844228e-02,1.055895259086778309e-01,1.671177373128264129e-02,7.413876309715038138e-04,4.991757940304762751e-04,1.282725475692369360e-03,1.418077532711881604e-02,3.500805429487542642e-02,9.261986667207241326e-04,4.252996338555323913e-02
1.492285330819390077e-02,1.019711371951507600e-01,1.745533454091144701e-02,6.889290444581212293e-04,4.887639552848537395e-04,2.319140795845513105e-03,2.261021723233232542e-02,3.156592228238470216e-02,9.202615525182954561e-04,4.411373339832520141e-02
1.363487723847567334e-02,9.973889877137509519e-02,1.829828095437245269e-02,5.746312781795752216e-04,4.658133731189496710e-04,3.677407709964828405e-03,4.936953113929729020e-02,3.522295814333734065e-02,8.748168067267158600e-04,4.307320928217319572e-02
3.967818384597391473e-02,1.011735538086601244e-01,1.947664765583439345e-02,4.528228027844762873e-04,4.295598331731771908e-04,5.067998424742779784e-03,5.758244067889026901e-02,3.175106440651705164e-02,7.848972928277920744e-04,3.885564077610756395e-02
3.536739066663774356e-02,1.005068520731596110e-01,2.060520783049622773e-02,3.360315901783352747e-04,3.831831279339361165e-04,5.093597303097404869e-03,5.314287710827973049e-02,1.871529528384461780e-02,6.525354688711826421e-04,3.072599995118426713e-02
2.080477109527157156e-03,8.938183482173915617e-02,2.109090371989625137e-02,2.029247170006373265e-04,3.282669427254230254e-04,3.003063625015056463e-03,4.641121290753669887e-02,6.281278130431187934e-03,4.924717121440084448e-04,2.026075337006559215e-02
5.364672906542560654e-02,7.228839801850410474e-02,2.168166603621158109e-02,5.182784996927474261e-05,2.648893056103117740e-04,1.180326149604219517e-05,3.938596733512873121e-02,6.365350928928424287e-04,3.080336481484392537e-04,1.444676511580129594e-02
1.075907584646126486e-01,6.055256185872599783e-02,2.361679486513233728e-02,1.024471168417597140e-04,1.941792416243282916e-04,2.075548773040346122e-03,2.527071441499739030e-02,1.400534664067465407e-02,7.811945302639181988e-05,1.889381023937215798e-02
1.690525689491015060e-01,4.810167587093282932e-02,2.486651596227196573e-02,2.538212508517410666e-04,1.182593280460952326e-04,2.643436248784097366e-03,2.847697674083430729e-05,4.659186730964529066e-02,1.918992047430313536e-04,2.794775310599465282e-02
2.343589247581966961e-01,1.751565566983152855e-02,2.048479874877626519e-02,4.038979764598344432e-04,3.899493714414796144e-05,2.548254266561934649e-03,3.175395191092960506e-02,8.895710163741257781e-02,4.413874438689203050e-04,2.975226419791360613e-02
2.755694941656599006e-01,2.418251299674689311e-02,9.909895774439148389e-03,5.502711258501879815e-04,4.205232037619436772e-05,2.528016203927178213e-03,6.107787620974286513e-02,1.150360997436808003e-01,6.628082690625613756e-04,2.209017494564092035e-02
2.638872368952844827e-01,4.635779755078086456e-02,3.433317703294197151e-04,6.870035697378222908e-04,1.231014992168302541e-04,2.607515353226203848e-03,7.817171185775956266e-02,1.092963028391251978e-01,9.664892266847209708e-04,1.496187123477640303e-02
1.953802881705337391e-01,4.045483159462774647e-02,1.271798091313376330e-03,8.102340429746716271e-04,2.021884381442082615e-04,2.729006735389672735e-03,7.174895934896838301e-02,7.790346314558815877e-02,1.351237261910185304e-03,1.579220631780965667e-02
9.368380795827339902e-02,3.231427094063653305e-02,4.153893399513336991e-03,9.181414397305219912e-04,2.774761890863996659e-04,2.926771905269622605e-03,3.689887714441008465e-02,3.827156329919732813e-02,1.560125577406897999e-03,2.037412839829814970e-02
4.878082355522934607e-03,3.820572502849002572e-02,1.177111732115277906e-02,1.008429647135044476e-03,3.473060792286800113e-04,2.619935815848633328e-03,1.398408655838265756e-02,1.014733736122433623e-02,1.569599030486098102e-03,2.049007031976502261e-02
2.699247653567921068e-02,4.276302011615058102e-02,1.839978832128753850e-02,1.078412255463507717e-03,4.101147292206657282e-04,7.275574782190563552e-04,5.719862279179100534e-02,6.979930797095421427e-03,1.922953823791746005e-03,1.205437462291025948e-02
7.014276894094447629e-03,3.565889916302627388e-02,1.972566954294660210e-02,1.126275746653323953e-03,4.644670067035719797e-04,2.777922733900969887e-03,7.850564407653252974e-02,2.020782850700213532e-02,2.656539005867590130e-03,5.586932372992986506e-03
1.174156336666268285e-02,3.769987924670526597e-02,9.154091094585996638e-03,1.151123407068812676e-03,5.091479038657137704e-04,6.100843101372242089e-03,8.275318251738074393e-02,2.500634461380532927e-02,2.244559689170773538e-03,2.874934891653720126e-02
1.709371473249603895e-03,6.912780777908471286e-02,1.326868732011183584e-02,1.152434634718823648e-03,5.431942284279416997e-04,7.353642833663004592e-03,8.068062419213863079e-02,1.552783489627286746e-02,6.365929118790259085e-04,4.654279039325168177e-02
3.624336404745339378e-03,1.151002155378446495e-01,3.576492606362369903e-02,1.130068980493360896e-03,5.658902317025720505e-04,6.602580945106758734e-03,7.062132685077741889e-02,1.374179702531832040e-02,4.235512079926123316e-03,4.849036887468012591e-02
2.458804315007523389e-02,1.423813951980262005e-01,4.560749528800031594e-02,1.084530853822196755e-03,5.767825583031041276e-04,5.219972178244229079e-03,4.175660101526081774e-02,2.983106499462718705e-02,4.917919818941369342e-03,3.649659682814653666e-02
5.360605353129171968e-02,1.359327015350473566e-01,4.153658649471986264e-02,1.016962410453079238e-03,5.757032585294776655e-04,3.869816734327228679e-03,1.556781917675340802e-03,4.183316883974524253e-02,1.869916418787869513e-03,2.254937567037965107e-02
3.719706059154257588e-02,1.077386826157828575e-01,3.096277677957854496e-02,9.289914157598062449e-04,5.627738562613920047e-04,2.527311841026194834e-03,1.327580925946618765e-02,3.075464942189525333e-02,1.706431686745177008e-03,1.565672467319331393e-02
1.260599492925672249e-02,8.140316906680897246e-02,2.019041962044622329e-02,8.226857283945511381e-04,5.383950607413820824e-04,1.880875705212508133e-03,2.416329866132418611e-02,8.570317261906150452e-03,2.953017721514842285e-03,1.792637901316530488e-02
4.739032254587405291e-02,7.290568605200514751e-02,1.208968984764360703e-02,7.005593280912801764e-04,5.032358395256946110e-04,2.815565842984373186e-03,8.915511357366132095e-02,4.921442787739570453e-03,2.509273991021138215e-03,3.127331610949895396e-02
5.922335519032606577e-02,7.734820285202941015e-02,7.664452477124951077e-03,5.655130280543968230e-04,4.582204209852601211e-04,4.502473578826030401e-03,1.289695222065692926e-01,1.094673692939465356e-02,2.177089059690717754e-03,5.690858943015883464e-02
8.457501586536243787e-02,7.593962342902539631e-02,4.654525212585808834e-03,4.207362621325694534e-04,4.045051443428758042e-04,4.772660524192790486e-03,1.214978682711712332e-01,2.109334435093739718e-02,1.944691788080556236e-03,8.562049882816262503e-02
1.286987592839719807e-01,6.215647861926795748e-02,8.487128649930654033e-04,2.696273496096228666e-04,3.434457545868622899e-04,2.800141370354277542e-03,8.812507751700880687e-02,3.221050569242142614e-02,1.104489689424695449e-03,9.953971814240702987e-02
1.422194981717734008e-01,5.192678860214639674e-02,6.990216894389112735e-03,1.157232167163219067e-04,2.765643780425485225e-04,3.860040286005215815e-05,5.807231257832230764e-02,3.166267899378329143e-02,2.911639556691750794e-04,8.916337250051049879e-02
9.737898537056162429e-02,5.960259697385998645e-02,5.398889029994256676e-03,3.738557095419593171e-05,2.055186832511177045e-04,1.836533764893752939e-03,4.089251301934852117e-02,2.319683304761571002e-02,4.103252219977449608e-04,6.236836441770250705e-02
3.411391467564282853e-02,7.560315952153523478e-02,7.259203254860194243e-03,1.861475549732308958e-04,1.320605419405221684e-04,2.511439848208996822e-03,3.168598764578893501e-02,2.290962138999539516e-02,9.439647621446832374e-04,3.594875531913693800e-02
3.870871691387541957e-03,7.947312056147387560e-02,2.220315164206833683e-02,3.271364728603027867e-04,5.798060585641790849e-05,2.218825682906534931e-03,2.870241163802646212e-02,2.521766270712768807e-02,9.081796520092337739e-04,2.345317729626934453e-02
2.672798421726054266e-02,6.592988771094257516e-02,2.827457354219526167e-02,4.571307119061366708e-04,1.493336386770748378e-05,1.052301124570616687e-03,3.480084468549274335e-02,3.377745489134250604e-03,3.779131845293509043e-04,2.705126441980216373e-02
5.635973308889085515e-02,4.644356168929848760e-02,2.396716933974691113e-02,5.731899352436048813e-04,8.491261517177525796e-05,2.023582150077751231e-04,4.243423759859069055e-02,4.489632201927633987e-02,2.128723207584590096e-05,3.541919325578033600e-02
7.696092154311146016e-02,3.119417063517312613e-02,1.545974036677139583e-02,6.727261180605949471e-04,1.502528706830611556e-04,2.575652293875648965e-04,3.402695293792776937e-02,8.467027323273054740e-02,1.885687355033607859e-04,3.382392244343433718e-02
6.249674050895832195e-02,1.980981153485333185e-02,7.728561009820982680e-03,7.535646020582157517e-04,2.094126379552829677e-04,8.759488154544209848e-04,5.910574266624163756e-03,8.922407938677348604e-02,3.865994058769891932e-04,1.861743893653688281e-02
1.537194437646305888e-02,7.515776724921249818e-03,2.043145535221404206e-03,8.139941166945737763e-04,2.610450202529414191e-04,1.788552613140025841e-03,2.375860829596994003e-02,6.829854586482735079e-02,6.617241525225274132e-04,2.469787780213533301e-03
4.521308437358093762e-02,6.989735364577471036e-03,1.373914769465738256e-03,8.528058585882514848e-04,3.039066420090182140e-04,1.740102130629317574e-03,3.912291427654806392e-02,4.282557972872009372e-02,8.851197507438620087e-04,2.140788881843954522e-02
1.039784166125183318e-01,2.032798198943337742e-02,2.519888127300504849e-03,8.693205552485526802e-04,3.368940451062370136e-04,1.371855427545704302e-03,4.251726000740226746e-02,1.987917918010110793e-02,1.026811938901589375e-03,3.407250177556668536e-02
1.456996062861905805e-01,2.814038231285683617e-02,2.423356123460278233e-03,8.634023114462319615e-04,3.593319859759892278e-04,1.312075971507443940e-03,4.140714558637357406e-02,6.337190179828611127e-04,1.141269206441615199e-03,3.741299491798094623e-02
1.544207114850113249e-01,2.947116445162425297e-02,2.444032374784634379e-03,8.354590282098602137e-04,3.709801193349544909e-04,1.407329737997303374e-03,3.882857566392775017e-02,1.802003688272393878e-02,1.239040395264778436e-03,3.146280396399425694e-02
1.284590745012074986e-01,2.754674740288169665e-02,2.959903542923348913e-03,7.864297191565702881e-04,3.714766015683819466e-04,1.377200245682639462e-03,4.240811485680923837e-02,3.646721260961070105e-02,1.291963220802726719e-03,2.340163847900340183e-02
