1.637219759940544391e-03,2.150072293539845043e-04,4.389188859602953627e-04,2.019659405384387459e-05,7.378469528444683487e-05,2.323463702903537462e-03,1.386060621492939517e-03,2.203783606570974829e-02,2.976703211296729913e-05,3.309786793764833701e-03
1.781634755199747394e-03,1.511442225728725961e-04,8.034883083582629575e-05,2.083361657438066516e-05,2.989008199340024768e-04,1.620524645771308963e-03,1.812906644751030322e-03,1.542090241615185278e-02,3.609845910301988202e-05,5.052302674670892339e-04
1.370783537720976237e-03,8.341902684695703940e-05,6.263311485151181086e-04,2.159464800226307165e-05,8.450335497127943528e-05,1.936849987397639978e-04,1.312578611489252688e-03,6.227719497015345163e-03,4.164264176459248296e-05,2.692687070907312172e-03
9.630444929509253361e-04,1.348874896649123684e-05,8.596343003340615107e-04,2.244211891955321029e-05,6.925738040010361420e-04,5.926799526160727574e-04,2.032736395226185377e-03,1.625945882024432175e-03,4.625657023003394659e-05,2.115073972708673890e-03
2.946508981201609030e-04,5.693117222423200796e-05,5.965781808516977189e-04,2.342272011193123651e-05,1.162608308351489612e-03,1.673294252357905327e-04,3.117769161510429432e-03,6.300376265709715408e-03,4.981890378968591637e-05,2.659076732958037814e-03
5.003057917325645339e-04,1.261090365226813178e-04,6.084021235330055143e-04,2.465958610777530183e-05,6.873685897104259406e-04,1.645511810023449466e-03,3.030932549549481513e-03,6.231947015434433079e-03,5.223314477922641491e-05,9.091802984821735836e-03
6.521460201294316096e-05,1.923394562508961431e-04,8.707316552121145128e-04,2.608649953185877634e-05,9.483307159764540637e-05,2.377836152014124738e-03,2.564945020819135810e-03,8.533298029510573163e-04,5.343022295585285122e-05,1.399647288261005387e-02
2.195500745540047635e-03,2.539853876768807524e-04,6.171746837865513171e-04,2.745667984833165555e-05,3.142043383403450552e-04,2.088617558480414336e-03,3.455888220987066595e-03,6.339191771503674411e-03,5.337042192600852786e-05,1.569981388539943429e-02
4.462607039256401460e-03,3.095185850799348046e-04,6.592545220438133840e-05,2.890996705036366670e-05,9.383708753585221342e-05,1.702457525767400422e-03,5.254296451174003853e-03,1.002803411532979076e-02,5.204459494758381167e-05,1.498979684951362579e-02
4.401183443134759274e-03,3.575574787720937940e-04,3.745934551209764382e-04,3.096846625495697848e-05,3.068960840935263290e-06,1.824025340818174849e-03,5.365986017582316352e-03,8.914025065738634054e-03,4.947463461305060754e-05,1.354308426730607695e-02
2.122800059699948318e-03,3.969015392219678719e-04,1.944305191959371860e-04,3.332506618835166459e-05,9.173379072484101626e-05,1.855665382385590038e-03,2.209487697867312545e-03,5.272057532042451027e-03,4.571317911194789659e-05,1.166493017022333760e-02
1.059339554131182254e-04,4.265612734563003529e-04,5.074346244785398906e-05,3.482136754212187049e-05,1.355052239227359963e-04,8.749585604468810771e-04,2.444329565676083092e-03,3.326750571273203393e-04,4.084255652854933214e-05,8.583048478734579129e-03
7.956981571987779313e-04,4.457831051331259979e-04,1.214160266770410060e-04,3.603492852105302167e-05,8.913859803560042396e-05,8.433412376343123488e-04,4.667086758388333881e-03,8.676888136440793348e-03,3.497298749309822770e-05,4.573141410111341773e-03
5.235707945717359927e-04,4.540685135578541374e-04,1.829354363697318622e-04,3.939476111986475482e-05,6.474047264872852573e-05,1.828961073927420000e-03,1.900797563670330106e-03,1.728843011198201787e-02,2.824008500632174554e-05,1.144892433720595681e-03
3.837801616062905393e-04,4.511869464548033237e-04,1.451794750488622811e-04,4.366008463835311466e-05,8.231049626763980553e-05,1.240165272859002424e-03,4.984023215104395853e-03,2.179110280826562773e-02,2.080170793612616664e-05,9.004514962244304990e-04
5.411861989679928302e-04,4.371821731243485595e-04,1.106456704026061860e-04,4.353098713816915775e-05,8.993874657750322045e-05,1.566212843134371225e-05,1.269637169952387949e-02,2.126051576229564741e-02,1.283424109845434475e-05,1.839408571477635455e-03
6.333762173887596105e-04,4.123719050125361843e-04,1.229997038276314499e-04,4.143120548052116521e-05,7.773375429439642983e-05,5.547592128944899524e-04,1.728972140470297694e-02,1.762898153243005681e-02,4.528389565343801220e-06,1.747345199721719606e-03
5.876243559985828502e-04,3.773406757782696492e-04,1.349298177820621965e-04,4.864887780412354372e-05,6.982800263730076079e-05,2.231019837478597206e-04,1.575010465989686720e-02,1.102055720036710339e-02,3.915412485071451571e-06,9.220509326512297881e-04
5.660234531381720842e-04,3.329261386208965984e-04,1.254929035009722503e-04,6.020460533385246256e-05,7.147214737491482583e-05,1.823447794573196260e-04,8.343056447793713304e-03,1.011833229721951491e-03,1.229186777862655091e-05,6.989474137561734217e-04
6.034771752703344287e-04,2.801991008604733666e-04,1.166158933159286968e-04,5.176128990461659006e-05,7.211071545205544118e-05,2.928958871746278631e-04,1.073287406724264753e-03,8.065366217235074575e-03,2.039583859484899855e-05,1.470917946993333114e-03
6.245552646020592841e-04,2.204377705504568597e-04,1.183573559503351845e-04,3.321873033055856129e-05,6.903440146543651399e-05,4.170528070172233428e-04,8.851406299003404532e-03,9.528211669950797935e-03,2.802740308279142979e-05,1.357989212577180018e-03
6.119870219476372100e-04,1.550968334266647789e-04,1.206058485478618466e-04,5.671937358268807657e-05,6.622369919893551814e-05,6.889386697538380519e-04,1.420190813431403132e-02,3.335244588684288611e-03,3.499682052448447955e-05,8.487218165754656461e-04
6.009608488595215119e-04,8.577210720216186591e-05,1.186026913777348348e-04,1.023939540386652956e-04,6.571830918228776023e-05,7.943074079968123974e-04,1.700349000751606374e-02,3.104029661933808883e-03,4.112928215618417830e-05,3.636463435294077628e-03
6.002203710231847735e-04,1.416163090482899575e-05,1.169344529593846970e-04,5.815116508934932204e-05,6.811548212905207576e-05,7.004241143342797293e-04,1.611302233313910426e-02,4.499112299732177869e-03,4.626932854960054409e-05,5.687416402323421799e-03
5.937621997010625015e-04,5.797586314371489479e-05,1.176405854375336615e-04,3.685288792305570460e-05,7.135655630421490535e-05,9.634173190183881446e-04,1.188305715064439522e-02,2.945805933577776842e-03,5.028482192443565910e-05,7.666230111758486586e-03
5.777916073479794426e-04,1.288640802559091146e-04,1.186429960428235037e-04,6.021008729313368055e-05,7.019834238292068827e-05,1.786830450097825216e-03,7.660099275554279122e-03,2.877796660066894111e-03,5.307037194923031157e-05,9.183844436809971909e-03
5.603676686243011995e-04,1.967528406597987339e-04,1.192902492875596345e-04,2.811466728738249853e-04,6.799452119367281459e-05,2.384112605218052187e-03,6.477381940701377842e-03,5.158802216690245267e-03,5.455012635816925310e-05,8.032409681207572025e-03
5.440806611456509845e-04,2.599612303328946439e-04,1.202170325731227382e-04,6.277203721257736775e-05,7.797280530989044638e-05,2.008681220323465209e-03,7.839173031782919673e-03,6.799186735048806142e-03,5.467985276984997027e-05,4.657104782921749585e-03
5.259894571781858607e-04,3.169191626594902397e-04,1.207394644484931847e-04,7.179973220749922766e-04,9.379229638133945962e-05,1.085639818724799767e-03,9.202231743467887901e-03,4.104820013192048492e-03,5.344825508396991134e-05,3.079465625962671867e-03
5.057123258412399075e-04,3.662063243996413150e-04,1.209118088843613693e-04,1.191365568582903201e-03,8.606792340365022995e-05,6.753124466898310268e-04,8.891450264465534936e-03,3.327560718346909106e-03,5.087748634688447154e-05,4.952834362963366537e-03
4.855349561337816088e-04,4.065875410005168208e-04,1.228473228566956811e-04,7.190386320294443745e-04,6.718082251283335939e-05,1.177162809382039299e-03,6.166174360396474777e-03,1.058459155488818138e-02,4.702283956975518713e-05,7.034959177206633399e-03
4.666028688584545193e-04,4.370436817056033403e-04,1.254626609555028528e-04,6.071140208011918118e-05,1.004162319340543144e-04,1.906740461369319786e-03,3.313664983731006396e-04,1.117644162164731225e-02,4.197161817632452338e-05,6.982268023823545375e-03
4.488006674835127020e-04,4.567973321907197533e-04,1.235297947526650078e-04,2.781101843051980347e-04,1.608429814168043130e-04,1.998858481985686230e-03,8.344410965969268137e-03,3.735129875382013631e-03,3.584120805567054949e-05,7.037708926041836253e-03
4.325076412884341914e-04,4.653325890022901880e-04,1.193298368356617288e-04,5.626171995000573539e-05,1.120218983295012579e-04,1.627336807528098053e-03,1.798815363300646994e-02,6.783305445469813705e-03,2.877639309687998490e-05,9.398943242203259066e-03
4.186557641098582680e-04,4.624084728367827300e-04,1.240558967951380727e-04,4.163010385575636470e-05,2.948606095266821950e-06,1.596349363986347518e-03,2.646696054403236895e-02,1.464618575808722400e-02,2.094597509190341763e-05,1.256220200885277416e-02
4.078937825176247463e-04,4.480656132179209271e-04,1.327465146713510214e-04,5.264530918518509908e-05,1.284807641664897871e-04,1.795102411342854552e-03,3.223113870533526881e-02,1.814892017803176189e-02,1.253877653292151607e-05,1.465448822300219160e-02
4.005252969723919814e-04,4.226260216146632406e-04,1.210750437310728828e-04,9.627458207831339899e-05,4.004474042213130073e-04,1.444777619986956259e-03,3.373096821795804057e-02,1.903733361579682329e-02,3.759120654833780161e-06,1.588313983074081392e-02
3.968669296779336539e-04,3.866859394817102565e-04,9.891329186183678854e-05,5.011392821756971427e-05,1.434749950004334613e-04,6.800891017928886121e-04,2.992037291761170947e-02,1.857100854804556028e-02,5.178103322776795710e-06,1.568273536549473490e-02
3.972757422876468697e-04,3.411019179462901731e-04,1.183940455419030854e-04,2.626410333055731108e-05,7.264688839034917113e-04,3.196349867703925660e-04,2.180672622199120517e-02,1.488586326528948400e-02,1.405267076931723024e-05,1.179134881117411410e-02
4.020003742650516895e-04,2.869704527297096226e-04,1.596722475242977422e-04,4.460074619281093029e-05,1.096872781642857248e-03,4.546950964483927526e-04,1.218821287851706674e-02,5.696101621313007408e-03,2.264442088175395358e-05,4.071223689152485628e-03
4.111369121144131753e-04,2.256016572703546490e-04,1.106882167740668040e-04,5.298457216868383753e-05,3.977537574164432426e-04,5.508345434285928611e-04,3.512603930791476439e-03,6.408553470412834546e-03,3.073869235876527283e-05,4.206123441222225402e-03
4.246241666521613826e-04,1.584876049694998858e-04,1.062903709771409579e-05,4.151567372316912295e-05,1.693140051163425969e-04,4.564149340324835571e-04,3.440854771549493266e-03,1.515416556583295757e-02,3.813166143762616498e-05,9.993304524641526132e-03
4.423016345830292238e-04,8.726610434485481977e-05,1.023647577955028325e-04,3.452778499910710256e-05,3.886200727658883154e-04,4.166365190480091226e-04,8.808602211676806737e-03,1.829147104752007133e-02,4.463544968116002032e-05,1.268420048199670608e-02
4.640580390158771662e-04,1.368078534194022990e-05,3.177571752538740218e-04,3.699377680219160489e-05,1.078725609355699142e-03,4.871406565308768113e-04,1.237479000324894635e-02,1.947844925925010240e-02,5.008287365336883920e-05,1.283040509912718348e-02
4.897277344294002389e-04,6.046153174471405930e-05,9.368323056620587520e-05,3.761598387223446833e-05,6.996046383720434239e-04,5.255589247897037714e-04,1.396313907024545643e-02,2.114993189729925255e-02,5.433171657050524922e-05,1.134377598113615535e-02
5.187155054235184637e-04,1.333351437007065498e-04,6.928754724877796102e-04,3.395837743697393022e-05,1.785581141790956966e-04,5.562716511702999736e-04,1.468551674983436216e-02,2.112361274206271677e-02,5.726841298533543140e-05,9.764367238691871315e-03
5.502191274261032097e-04,2.031403629350920104e-04,1.172053610797379629e-03,3.130611116450299214e-05,4.431541844754796709e-04,7.125658829060906507e-04,1.605940116192802053e-02,1.810149206575684816e-02,5.881105130604138205e-05,9.521431288925441203e-03
5.840922474525103367e-04,2.681479042559434993e-04,7.054840711589417321e-04,3.088309662584932578e-05,1.782188113650283662e-04,8.714972760035801739e-04,1.756266207026556045e-02,1.524486378115548664e-02,5.891161514707856506e-05,1.091684259255053073e-02
6.204265048260074796e-04,3.267416664110060439e-04,6.863466854050654449e-05,3.024174607396474789e-05,5.896047125028973141e-05,8.090628894010556656e-04,1.631230954201337222e-02,1.609247135723836444e-02,5.755740277381980117e-05,1.286765719255630880e-02
6.577203305947743051e-04,3.774588512486502399e-04,2.806002086824953192e-04,2.878466242241696228e-05,1.732079560354193252e-04,8.406464146527186428e-04,9.354961119347219786e-03,1.974541120707117015e-02,5.477158379853980556e-05,1.303590693906791186e-02
6.937633531655693986e-04,4.190264257697329155e-04,5.358563289303662621e-05,2.764961532031570530e-05,2.261627187814534319e-04,1.695459066735220937e-03,3.547589981932332184e-03,2.109097701120041593e-02,5.061287333132299260e-05,9.012346658818178036e-03
7.296223538573881357e-04,4.503930193916039324e-04,4.914047582643869621e-05,2.712278573265696307e-05,1.693408487151713045e-04,3.319307379038283472e-03,1.824495608846717076e-02,1.585161923769003861e-02,4.517432547304583805e-05,7.173031934985530907e-04
7.679055325189159406e-04,4.707554583641391805e-04,4.069092060371455594e-05,2.666133398470544593e-05,1.389172269037436630e-04,4.390270640506891385e-03,2.847974566976413727e-02,6.409581095311664076e-03,3.858126982655542221e-05,8.515739924361692692e-03
8.042509738772511468e-04,4.795792688366400124e-04,8.031707332421862840e-05,2.610537228997032762e-05,1.586395979074346329e-04,3.756645825671976399e-03,3.170348960836127244e-02,8.573585565982358306e-04,3.098843605806349337e-05,1.418081192909151876e-02
8.308613529907088327e-04,4.766126264484552401e-04,3.063585831158521094e-05,2.568279423920925435e-05,1.657415482736305005e-04,2.112627760501539081e-03,3.002441333020644185e-02,4.219033149104958920e-03,2.257633193208374991e-05,1.447673475838291875e-02
8.548301741481240893e-04,4.618933899576842575e-04,3.779722031612112147e-06,2.544253710896468695e-05,1.504391376242209530e-04,1.455764636372362157e-03,2.405011604313471441e-02,1.306199758913057646e-02,1.354695915861239331e-05,1.189679930034933525e-02
8.911178918458533254e-04,4.357490254472874301e-04,1.964515818939439995e-05,2.524620052227385315e-05,1.412027900110621236e-04,2.645782729097558104e-03,1.188984665934133579e-02,2.055225033304835386e-02,4.118968352315475139e-06,1.024043518200684275e-02
9.231452423484158565e-04,3.987894019302708377e-04,2.610233866182164769e-05,2.503420128862743327e-05,1.389931974712880895e-04,4.207939608810614719e-03,3.250741280804077173e-03,2.357470028602969697e-02,5.477631023077618989e-06,1.019048010119663616e-02
9.166587176323479601e-04,3.518926144477671600e-04,1.324918337561052490e-05,2.483389235186275921e-05,1.326453768089005166e-04,4.251104548620860887e-03,1.278514531636915780e-02,2.277581813985975201e-02,1.500707804338888716e-05,9.696827967093476358e-03
9.069138552531547234e-04,2.961841627111484374e-04,5.405669333595319538e-06,2.463601392566662564e-05,1.306527197027988849e-04,2.917548897694660203e-03,1.379307201892781588e-02,1.854755775758166331e-02,2.423364863148675454e-05,8.469531388195223123e-03
9.778963866159818673e-04,2.330099777456524316e-04,7.519636905222962269e-06,2.439037252748683669e-05,1.345109319222096062e-04,1.859039754709512814e-03,1.262618345278002964e-02,1.007651735701404865e-02,3.292748295084074164e-05,8.421619185131361610e-03
1.026478213471244526e-03,1.639039417849948990e-04,8.257718018811840925e-06,2.406461846459394545e-05,1.212645874625769123e-04,1.870006177119052076e-03,1.530084669492784953e-02,1.564054015214366494e-03,4.087030810429093423e-05,9.154100240207812059e-03
5.958331903161036280e-04,9.055068405375795207e-05,5.138389091491010739e-06,2.364793175023174776e-05,9.807835599584340501e-05,2.233543335506871577e-03,2.170714949438108318e-02,1.073364187647859493e-02,4.786091395202004851e-05,7.203088207574090580e-03
7.537397444044743834e-04,1.474455363367040887e-05,3.392641571456115865e-06,2.312443257199606642e-05,1.169693024181848117e-04,2.050540800534086504e-03,2.948080519358924761e-02,1.015843971982584651e-02,5.372024498539645151e-05,6.946448474589217350e-04
2.603569983782304340e-03,6.165423262991231177e-05,4.182896499155603671e-06,2.247194081508868549e-05,1.592282620389360963e-04,1.402125191713821410e-03,3.633109721857141067e-02,7.615013005149826215e-04,5.829597974145107111e-05,8.550259510456481929e-03
3.610314723136183630e-03,1.367651967085675214e-04,4.994274270580347831e-06,2.167512533899941123e-05,1.120315882280878601e-04,1.238715536560192152e-03,3.933304836689640455e-02,1.228070561703461724e-02,6.146648102833304859e-05,1.780944861568779444e-02
3.178535266671098525e-03,2.087338435693380351e-04,5.157962641763680567e-06,2.072684659341377840e-05,1.450996234978744894e-05,2.062376656199733753e-03,3.785153974803448507e-02,1.381284345371566399e-02,6.314401498580472891e-05,2.596849404740361397e-02
2.741923429633980579e-03,2.757774069668319779e-04,5.737977051904526820e-06,1.962249035050338543e-05,1.117650498149417204e-04,2.877941326830083576e-03,3.523690592008513894e-02,6.375712218686316844e-03,6.327715438201945411e-05,3.325043566666568279e-02
3.915365999643917634e-03,3.362289696433810437e-04,6.946250560259021093e-06,1.835960678292516642e-05,3.346659335777457038e-04,2.407759410998013602e-03,3.311980912182185127e-02,1.044573204942272058e-04,6.185230113651607659e-05,3.983817603205506291e-02
5.944827094250470893e-03,3.885788672549555047e-04,8.167063540469857223e-06,1.694075129665088215e-05,1.147988137327350785e-04,1.027630188507525641e-03,2.764063112049801665e-02,1.036773547019726556e-03,5.889428439004805292e-05,4.497708624933205446e-02
6.661166839202201269e-03,4.315123487960037963e-04,9.170847688411225726e-06,1.537373124099895562e-05,6.686707249555645530e-04,7.956170793076687044e-05,1.588486627592002737e-02,1.905850485334331049e-03,5.446601299871004219e-05,4.669440406085909046e-02
5.226401437680559640e-03,4.639425552077686599e-04,1.012077009657362902e-05,1.367017210782235267e-05,1.134754144575511907e-03,2.759312550784180889e-05,2.040316868167487471e-03,8.445551469640537323e-03,4.866718456313015985e-05,4.243635073648993616e-02
2.612952043416543347e-03,4.850379901154806090e-04,1.100762889246386876e-05,1.184513121622701928e-05,6.501408931067335396e-04,2.901626594843053318e-04,7.527292851942988042e-03,1.827516073961450369e-02,4.163207644307117628e-05,3.204229994672110060e-02
2.791447557457194190e-04,4.942437895633357238e-04,1.164294301633711332e-05,9.917370773821737026e-06,1.224976166524285588e-04,4.781380623124133352e-04,1.161941759084873793e-02,2.440149681159091075e-02,3.352646707693353740e-05,2.041854716890744575e-02
8.526311300605252455e-04,4.912962479993811292e-04,1.192637877382803806e-05,7.909017812134147812e-06,3.231620353965696749e-04,3.744914830338845002e-04,1.222073777045850317e-02,2.346021605176705147e-02,2.454375775541305533e-05,1.351700254062553411e-02
8.694524145222732193e-04,4.762302219633047910e-04,1.185490864323074099e-05,5.844789816058126619e-06,1.269848336709485613e-04,2.502443108595838080e-03,9.525633215225606798e-03,1.842692181086647008e-02,1.490038524183046734e-05,1.094082772735619283e-02
5.860395685161593924e-04,4.493792069555616509e-04,1.140004385768729044e-05,3.751399429910155254e-06,7.720427443443821569e-05,4.016791446011762703e-03,4.379320964639546974e-03,1.533704000458831034e-02,4.830633776865104909e-06,6.867975728817853412e-03
5.528562729169524993e-04,4.113680625691461625e-04,1.050401647423708958e-05,1.657079703472935281e-06,1.298307043737179035e-04,2.926259131770986982e-03,1.239374832328354143e-03,1.860881773699480171e-02,5.419029410498118771e-06,1.416138087707123627e-03
6.527050792179126719e-04,3.630985417480036203e-04,9.138768410019102324e-06,4.090384236098183649e-07,8.108598824944785182e-05,5.713638367066221435e-04,2.668031035143173489e-03,2.706891928232925057e-02,1.559595834389272998e-05,1.024179333297838695e-02
6.544110729211378031e-04,3.057279575579562622e-04,7.309551620157523263e-06,2.417651176165747491e-06,1.345402619108778015e-04,3.634090474212012733e-04,5.039178642336611044e-03,3.391874030230324077e-02,2.544752622651996212e-05,1.504344954917594818e-02
5.995066101774124785e-04,2.406414907424928550e-04,5.027957242174806934e-06,4.339961293031441907e-06,3.339970980262770310e-04,3.050499199383494009e-03,4.457515166359981781e-03,3.360236330001090815e-02,3.472736521340206333e-05,1.553635357097373805e-02
5.959899358078663131e-04,1.694187993859041608e-04,2.310007391018350263e-06,6.148308524106607641e-06,1.360495991062603000e-04,5.965908319343093437e-03,2.003293003379706845e-03,2.794585792933631727e-02,4.320149412915178221e-05,1.449913420857958102e-02
6.278212319436468842e-04,9.379573429655619612e-05,8.116333016124200468e-07,7.816798211063843234e-06,6.346148851744034267e-04,7.166247290936947865e-03,3.157178678401839113e-04,2.188177490794469479e-02,5.065418196413397996e-05,1.382440764704816021e-02
6.423750091062603845e-04,1.562208670480228075e-05,4.287499616036820854e-06,9.321908151533055709e-06,1.118176895295355669e-03,7.487665254280768436e-03,3.556133026393450743e-03,1.566505077855639971e-02,5.689340048889473178e-05,1.342915640964036095e-02
6.426000265891364987e-04,6.318360454250212610e-05,8.058393884045605152e-06,1.064303077660566947e-05,6.520695061066739519e-04,7.945640828630447586e-03,8.961688493787646828e-03,6.590906150765878622e-03,6.175572849716444229e-05,1.287746301978080592e-02
6.565991172234672676e-04,1.406810834609140463e-04,1.205733107007349959e-05,1.176294021175494853e-05,1.303626563898383395e-04,7.868814381012103829e-03,1.451165119277205394e-02,3.776372740941117984e-03,6.511058281930939330e-05,1.239430146417451473e-02
6.906180915866121485e-04,2.149560934827295664e-04,1.620842473150294332e-05,1.266818705144203498e-05,3.480184898171884513e-04,6.847558448000833596e-03,1.569892178734668201e-02,9.818618636796366816e-03,6.686366705151784956e-05,1.239383094438637270e-02
7.228270875789822572e-04,2.841676078867575242e-04,2.042846649250198407e-05,1.334941100698457071e-05,1.215545520830845524e-04,6.374040109313273798e-03,8.770751784574429971e-03,8.927162636010361335e-03,6.695954755155492609e-05,1.276071043535078123e-02
7.322271972836202208e-04,3.465934100657702601e-04,2.463023953348711365e-05,1.380155796138491167e-05,1.946638847047123109e-05,7.789425994445355918e-03,5.339141001352588553e-03,4.424517869522861038e-03,6.538328721809684766e-05,1.278439810823409767e-02
7.446138753828059368e-04,4.006728964131966845e-04,2.872479065560355112e-05,1.402399686082357093e-05,1.112122949378309449e-04,9.848089583828057922e-03,1.945853944645532796e-02,1.029331377369650368e-03,6.216109039460749274e-05,1.188613014518167220e-02
8.058991573992093380e-04,4.450460392753799259e-04,3.262300151068434821e-05,1.402053688524236548e-05,1.515716042199626132e-04,1.023014702099814786e-02,2.551281110380399647e-02,4.399150378529637431e-04,5.735993636828215102e-05,1.050284048590829737e-02
8.687807576661106101e-04,4.785875384270893082e-04,3.623768526245815211e-05,1.379934456657825525e-05,1.008589699522473477e-04,8.974260566234017536e-03,2.270335328844061071e-02,3.227588663023127271e-03,5.108620378161585456e-05,9.823860166442696662e-03
8.306733103649246042e-04,5.004353047346209215e-04,3.948598546561535283e-05,1.337276154388606935e-05,7.238278744685101027e-05,8.444585050253843733e-03,1.695436542237181016e-02,9.966391350746808125e-03,4.348331322886382302e-05,9.826113020390037783e-03
7.833843877019464269e-04,5.100125563195596554e-04,4.229142200583378003e-05,1.275702736557068597e-05,8.638680517815288025e-05,9.801700790827903159e-03,1.188741795882766565e-02,1.784354419937311809e-02,3.472843975555327825e-05,7.986466907881276459e-03
9.491550166413800348e-04,5.070429623377847384e-04,4.458560583376498505e-05,1.197191455440864740e-05,9.028071943402974807e-05,1.157781617174883509e-02,5.838648569261000419e-03,1.961267601810765329e-02,2.502837030829042157e-05,2.016118828997483410e-03
1.146594827170462029e-03,4.915584386961384562e-04,4.630986067995688339e-05,1.104028449839037915e-05,7.410414142367265262e-05,1.242110413609364382e-02,1.486058947153772250e-03,1.113850235110656200e-02,1.461460281000819466e-05,5.908218755942878410e-03
8.512178914851668615e-04,4.638993795303173145e-04,4.741668113968077885e-05,9.987574236310353744e-06,6.252309934358984338e-05,1.281634848152604297e-02,5.983519080640390710e-03,3.073248573842915672e-03,3.737802916372322665e-06,1.059307056286444212e-02
1.826011616252561835e-04,4.247072936822279213e-04,4.787085713884024518e-05,8.841226081526132189e-06,6.066595887016245920e-05,1.244878335471811918e-02,4.691690781066178845e-03,1.374168554572498951e-02,7.338248851843575111e-06,1.022635219318005460e-02
5.801716615272656366e-05,3.749100022035462649e-04,4.765024988573883670e-05,7.630073459698977919e-06,5.720267352045132374e-05,8.695441570226943723e-03,6.409970774712567612e-04,1.568722644839007363e-02,1.834307343756703590e-05,7.836483914784826005e-03
2.040854745454153958e-04,3.156997364858059492e-04,4.674626866714054642e-05,6.383697170834847610e-06,4.974069541242258764e-05,7.550557047600323698e-04,7.225525870019917224e-03,1.158412617017174837e-02,2.900611693154803508e-05,5.802927044349309206e-03
2.074148155824679653e-04,2.485046524509497445e-04,4.516403296505579147e-05,5.131766862556140663e-06,4.368995124223334664e-05,7.091236221211213303e-03,1.472032733912746229e-02,7.137160342075097447e-03,3.906341935697934685e-05,3.537025630025284178e-03
4.796152445615112551e-05,1.749544399798863515e-04,4.292217439642756987e-05,3.903382870274189315e-06,4.035380406963519259e-05,9.704528080693946776e-03,2.321425790677006037e-02,5.055152008721460442e-03,4.826416412192339897e-05,1.490690436417284716e-03
1.993994447925848774e-04,9.684085434272888745e-05,4.005228477161450814e-05,2.726433566352155067e-06,3.731238276284581018e-05,6.893764692916411890e-03,3.039215542059521893e-02,5.724879017318247956e-03,5.637694557993411302e-05,1.860990021419294373e-03
8.744839167659221920e-04,1.607412413905681767e-05,3.659806764396851520e-05,1.626982934577063619e-06,3.400237732285108221e-05,2.478572230053648073e-03,3.292695431435486292e-02,1.018178774545992586e-02,6.319559804351125890e-05,3.468479511568337177e-03
1.176009036844372600e-03,6.536370504895043314e-05,3.261421951731361795e-05,6.287023369014760049e-07,3.160376783461660326e-05,8.344123165828262311e-04,2.984131269112892670e-02,1.754536541256148177e-02,6.854443941079550978e-05,1.456803035828703723e-03
9.848024198764039443e-04,1.454673530962147915e-04,2.816500186973616609e-05,2.476405997839209078e-07,3.042241196645834042e-05,3.318307853083843090e-03,2.355698040243226626e-02,2.196093400706668197e-02,7.228279607601341525e-05,5.427562658619833509e-03
8.253208911378875955e-04,2.222576244146317725e-04,2.332252965220687371e-05,9.846243895943970306e-07,2.991099639911208677e-05,5.811298155434099083e-03,1.745596019697700368e-02,1.766307421217978152e-02,7.430869268862075772e-05,1.213061249620449311e-02
8.780076010759180812e-04,2.938302520502573175e-04,1.816495440616875155e-05,1.568537416994761514e-06,2.989959356514039767e-05,7.916739257106442801e-03,1.195313977918708442e-02,6.794775150804203620e-03,7.456161020913565525e-05,1.429841776227108903e-02
9.205625385727533297e-04,3.584030627375136202e-04,1.277461632657222304e-05,1.989654860828334198e-06,3.060076826548211392e-05,9.303359237224010161e-03,4.404730061220796591e-03,2.287178184954753724e-03,7.302423810905751995e-05,1.347917820517342477e-02
8.631055028655638299e-04,4.143602960611996009e-04,7.235931458351682168e-06,2.242422700885026278e-06,3.202480097990686889e-05,1.068843383116506451e-02,5.226270969952995400e-03,5.617747266759301472e-03,6.972317094047581420e-05,1.288188318779328462e-02
8.083409060176334785e-04,4.602929769232120345e-04,1.633000804663997839e-06,2.325544848457033635e-06,3.397344108219166027e-05,1.205092746193872980e-02,1.158634773294484749e-02,8.484521360226714853e-03,6.472852526798785876e-05,1.223098388410535572e-02
7.994324362906346819e-04,4.950343338667782898e-04,3.952402023628939627e-06,2.241971685030166631e-06,3.633719244710762846e-05,1.198412920536247664e-02,1.083991354154289176e-02,1.672457794869696215e-02,5.815247948319100715e-05,9.818755836749095550e-03
7.900969624185014530e-04,5.176893742746711477e-04,9.442255021519171479e-06,1.998790569689708667e-06,3.910209493056639781e-05,1.087687258530550642e-02,7.697216864954887008e-03,2.633564481781261804e-02,5.014676565922429255e-05,6.375051604626184691e-03
7.633780981449511454e-04,5.276578682023467734e-04,1.476435537600661994e-05,1.607021132698330626e-06,4.216841369991280081e-05,1.196724500920486045e-02,1.013802958284043369e-02,2.680539806097734928e-02,4.089916869161463477e-05,4.065501884160894683e-03
7.413335420507795315e-04,5.246501522475985205e-04,1.985535004354567877e-05,1.081320359952157971e-06,4.535298831058352722e-05,1.522757446237078122e-02,1.781971630204029836e-02,1.517359490909126786e-02,3.062911286335392438e-05,4.067182212615273393e-03
7.270020027412730590e-04,5.086953395341468724e-04,2.466195611899896250e-05,4.396045410342644421e-07,4.857478475054822798e-05,1.295862830207859459e-02,2.105085048714734272e-02,2.404349297318345360e-03,1.958243904343661264e-05,6.849408703165310239e-03
7.114613015775642828e-04,4.801417073534010142e-04,2.913947598718100214e-05,2.974029456403985106e-07,5.185321847925108171e-05,1.608576463767392994e-03,1.306142839148309413e-02,1.553780064420777571e-03,8.025496396764176735e-06,1.187521853085787144e-02
7.067600055980989863e-04,4.396492257421263992e-04,3.325338157937806824e-05,1.106687347052821693e-06,5.501779844039755721e-05,2.262011599188343616e-02,7.629931339201672779e-04,1.182957688450961276e-02,3.761309777211905714e-06,1.584350919929548851e-02
7.168158173082676008e-04,3.881743835796694114e-04,3.698592379058540853e-05,1.963509644317964909e-06,5.771782387460212257e-05,3.629121058147585094e-02,9.223467524277646420e-03,2.089131543584759471e-02,1.549035810700498281e-05,1.503459423959252993e-02
7.087846963034719755e-04,3.269476589173356913e-04,4.033540162905631919e-05,2.842011790927825760e-06,6.000485878798413633e-05,3.609613862800436362e-02,8.147748946824403399e-03,2.105907139826821914e-02,2.687387255336227108e-05,1.071141512014798375e-02
6.819066636414969265e-04,2.574441625165453163e-04,4.330352959514759760e-05,3.715845962784406436e-06,6.233152091881055223e-05,2.646798943387468697e-02,3.185954531923713799e-03,1.474782479072968625e-02,3.763103205605712180e-05,8.544037288446354461e-03
7.106310465208566995e-04,1.813481534604350189e-04,4.589715556943722657e-05,4.558813176069925769e-06,6.433578185785927134e-05,1.519784336702302910e-02,1.297598786731443948e-03,6.502466443000920818e-03,4.749495302133660736e-05,1.157574008171702480e-02
7.949528821431009994e-04,1.005122789929914994e-04,4.815474506841601465e-05,5.345496440633834442e-06,6.481972397071556152e-05,9.533454784802641510e-03,2.638214156827654432e-03,5.053458584371314181e-04,5.621937126683218333e-05,1.684448934587146410e-02
7.733763120854616297e-04,1.691252360118591762e-05,5.014185378193000838e-05,6.051873769779749369e-06,6.434051600092803179e-05,1.499727345223459719e-02,1.802638181537230848e-03,2.357178731313618308e-03,6.358485635851462449e-05,1.968277726714645279e-02
6.419837823487606950e-04,6.740003855167807009e-05,5.189192930942146392e-05,6.655896858056754087e-06,6.532666197414584586e-05,3.028831585545390878e-02,3.661783470802298674e-03,2.621986190379256391e-03,6.940440176246402432e-05,1.862104886383188218e-02
7.497820545041570996e-04,1.503495111770427586e-04,5.341101118355233527e-05,7.138022055106206237e-06,6.655543698340783514e-05,4.617739843866038030e-02,9.509291336401406308e-03,9.872063884606683409e-03,7.352824866018171067e-05,1.518235725639537938e-02
1.131746586950372517e-03,2.298862328379028220e-04,5.480003818917579745e-05,7.481681386532147505e-06,6.276291555963521996e-05,5.422167628699181563e-02,1.186396673465326887e-02,1.277129826352598786e-02,7.584781930837030089e-05,1.087412194078022504e-02
9.707532148214389383e-04,3.040373689880254671e-04,5.624305388065836128e-05,7.673682775927180677e-06,5.642642034923070878e-05,5.393967704888514431e-02,1.219019069358618680e-02,9.931002819345311622e-03,7.629865703972451456e-05,5.597232274086995883e-03
3.493610867300392928e-04,3.709557916883881473e-04,5.774016648054882170e-05,7.704530273018863961e-06,5.890397519903872465e-05,4.934972215983259025e-02,1.061893747112814361e-02,5.094352320628827216e-03,7.486229389606017376e-05,1.479452695265893927e-03
2.063475956099050136e-03,4.289660373149245054e-04,5.911979995992466493e-05,7.568656953206327138e-06,6.530030439968478135e-05,4.262126622204589349e-02,2.795935089876962903e-03,1.302596784572616993e-04,7.156699288534032314e-05,1.009295519097382597e-02
3.035665045963298163e-03,4.766062001747821560e-04,6.060305457392684833e-05,7.264565180588683854e-06,5.137449769710294458e-05,3.360258026287218924e-02,9.833901494027992921e-03,8.056946905732432357e-03,6.648733933039703537e-05,1.832337932977723058e-02
3.370411905623624076e-03,5.126647158994871757e-04,6.278588410265262178e-05,6.794871073248715493e-06,2.713230608568110362e-05,2.238552484126569986e-02,1.637798601995262004e-02,2.121765325797389176e-02,5.974268405945703321e-05,2.390669772086843892e-02
3.823868000169858283e-03,5.362111105241182656e-04,6.542701660998736103e-05,6.166252226671074417e-06,4.482923998893042838e-05,1.015376980097133092e-02,1.117361817182879573e-02,3.391695183053879126e-02,5.149446958283226630e-05,2.584672079609637643e-02
4.209597703927554953e-03,5.466199363834084533e-04,6.744823510168406052e-05,5.389299987814245430e-06,8.471330042479615155e-05,1.176076522256510031e-03,2.985807662066036153e-03,3.898847443859033979e-02,4.194249820503107560e-05,2.493960036705357430e-02
3.523777613421882806e-03,5.435872808695341174e-04,6.951713210018382449e-05,4.478279777194202402e-06,3.481169284069496111e-05,9.902908689343093221e-03,1.976603322408255863e-03,3.629914441538735492e-02,3.132022754591345882e-05,2.290270226120550215e-02
1.481801501150268024e-03,5.271394147161588030e-04,7.410860298375278874e-05,3.450805078823782377e-06,6.560266622712527954e-05,1.593953366237665925e-02,5.454947947270693230e-03,3.018298034904659533e-02,1.988920352448383513e-05,2.027925207204028801e-02
7.741814920026191807e-04,4.976333384122016198e-04,7.998598579791118429e-05,2.327432709364583637e-06,2.641070236551508606e-05,2.037846069436739099e-02,3.953865440896112138e-03,2.140131562045121186e-02,7.932762874494252506e-06,1.534991898787785129e-02
1.617877581775841031e-03,4.557491839255404099e-04,8.192181670928606007e-05,1.131188792804969998e-06,2.427631206504920721e-04,2.344786016936022816e-02,4.007479309008132873e-03,9.401073578048934481e-03,4.250843848275746337e-06,7.089472699305980619e-03
2.914677435701148295e-04,4.024746292698537227e-04,8.247371560927173122e-05,1.129635361360371864e-07,2.036442763094419511e-05,2.452998341307750102e-02,1.069751970483623013e-02,9.307627473405155529e-04,1.635574252814784966e-05,1.031115992012804567e-03
2.583602608049033814e-03,3.390816806539789004e-04,9.288590948547635346e-05,1.378702334369612806e-06,7.637866367610840956e-04,2.402299690467461432e-02,1.113356742760838319e-02,3.582763139350622281e-03,2.807596151528087575e-05,4.190863319763883307e-03
5.238454283647177821e-03,2.670963661488332365e-04,1.079626827360537618e-04,2.638957535983378431e-06,1.239826473007836754e-03,2.330922421570812489e-02,9.788284654288957609e-03,4.932209929202177774e-04,3.911300895831706248e-05,3.550830231288479300e-03
5.637388650812788331e-03,1.882620613075986946e-04,1.034870765692289375e-04,3.866539950684603821e-06,7.694094182105243492e-04,2.306691069198252633e-02,1.323726222460555255e-02,6.834721632482007939e-03,4.918331455135638368e-05,4.615702961850910724e-03
3.267612052874975699e-03,1.044973265910626375e-04,8.981603394682878235e-05,5.034773983542565069e-06,9.226580696937973112e-06,2.297062004261481161e-02,2.055853545851854189e-02,1.477804565319231628e-02,5.802535097042553405e-05,7.494377070605585597e-03
9.905716587225466289e-05,1.784927479637159588e-05,1.187991923226041572e-04,6.118119399097255991e-06,2.263230141735854092e-04,2.269742859617047970e-02,2.547347170047831177e-02,2.474203044028503926e-02,6.540625702133951781e-05,6.281499728243979293e-03
1.447720541214658372e-03,6.955639951780689478e-05,1.694957449396659454e-04,7.092767705431643057e-06,4.981040558480089161e-06,2.231906561258226521e-02,2.574822358738666078e-02,3.285160181513484268e-02,7.112779570853866248e-05,6.367350508672295177e-04
1.209503027825073419e-03,1.555675102643172189e-04,1.302864229960719994e-04,7.937199318361264915e-06,9.161690937088057057e-05,2.203473717155612910e-02,2.447688878218818795e-02,3.486153571744174395e-02,7.503149581442073660e-05,7.420248720375540417e-03
7.241352909405982105e-04,2.380583146896348952e-04,4.246765057313920918e-05,8.632688569047115243e-06,4.700237037779067770e-06,2.197021954783498141e-02,2.195019724568986197e-02,3.247895422165413687e-02,7.700284479695375167e-05,9.126268904534383039e-03
7.731808190137019580e-04,3.149819923257142062e-04,1.477234829819669426e-04,9.163744819372075405e-06,5.106250450711716731e-05,2.191998904497275205e-02,1.339183580822509746e-02,3.091131458206052007e-02,7.697442341891028378e-05,6.911549978581325686e-03
9.287416698234566463e-04,3.844213738989140793e-04,3.730404157762624243e-04,9.518479420812344299e-06,8.253850846133370069e-06,2.120599429293587232e-02,2.165553246141308039e-03,3.202820619177156047e-02,7.492789797729919093e-05,4.496640366826360619e-03
8.451767940862975857e-04,4.446366643481055973e-04,1.573097992508525750e-04,9.688889960568724708e-06,1.171107483524221740e-05,1.917122968254291945e-02,1.725709767109717685e-02,3.269817503249627944e-02,7.089481369505987456e-05,3.956606477685194884e-03
7.082076204915670669e-04,4.941089734435759025e-04,6.124624410972861165e-04,9.671055144264195034e-06,1.094555871431311062e-05,1.561887443821721559e-02,2.466809359869126528e-02,2.793756848577146762e-02,6.495616209824135723e-05,5.167276872053328148e-03
6.812402922126762055e-04,5.315785663022593163e-04,1.070920948363179815e-03,9.465235723904193816e-06,2.397739852145950627e-05,1.047113219516047911e-02,2.578786791271372655e-02,1.449299393367179355e-02,5.724072531718692078e-05,7.166443096350760475e-03
6.808080013950559232e-04,5.560768720419581417e-04,6.017098509847710079e-04,9.075879045836820173e-06,1.737087676839468050e-05,3.945444122555845888e-03,2.655051579671260931e-02,5.601389866522111030e-03,4.792223048060514792e-05,9.598489144566511519e-03
6.305338284727236538e-04,5.669514389098947570e-04,1.655360216225233879e-04,8.511527016479402343e-06,1.534230634471463384e-05,2.133194920559227520e-03,2.879573898460285886e-02,2.364666185749236121e-02,3.721537697030594534e-05,1.238932809117785153e-02
5.695537101098938331e-04,5.638831948561870075e-04,4.078594094960065475e-04,7.784629512606757953e-06,2.274629835949408860e-05,4.526843108634519795e-03,2.907517236481894224e-02,2.982498968572842510e-02,2.537082753625909148e-05,1.431256736765748779e-02
5.350281102815551562e-04,5.468955595786942955e-04,2.308919357016647191e-04,6.911267446870065546e-06,2.816903066056343768e-05,1.505493961203440301e-03,2.478941956380308065e-02,2.204273707046715963e-02,1.266928043017026244e-05,1.391007423059773852e-02
5.099152926758179338e-04,5.163551530006373590e-04,9.703357590972505110e-05,5.910791787771753080e-06,2.906330708593805450e-05,5.006521931478831455e-03,1.852538188835652425e-02,7.401047298476150053e-03,5.852368584743253239e-07,1.172058820563609896e-02
4.773225281694593622e-04,4.729640511055140605e-04,1.086941140811043856e-04,4.805386778539400617e-06,3.061086376644924883e-05,1.074194659225750220e-02,1.462237122707165868e-02,5.116589691228946857e-03,1.407269158293136283e-05,9.572305449753269052e-03
4.456095643621107234e-04,4.177437480028849885e-04,2.415389457108472158e-04,3.619567356442272955e-06,3.394251004979704296e-05,1.216214105640157223e-02,1.356438534943110209e-02,1.122119704967602591e-02,2.746481050441661317e-05,8.264384808996147469e-03
4.232332811075924088e-04,3.520111879233584081e-04,3.980881481854995165e-04,2.379622302563241608e-06,3.653017817205404631e-05,8.764628590914208192e-03,1.301969692947058631e-02,1.178512841943787394e-02,4.043309653079518853e-05,7.521000616434552616e-03
4.066765543823342766e-04,2.773474274887899717e-04,1.794513405135783125e-04,1.113015916550333510e-06,3.771060429101874382e-05,3.151861501534719730e-03,1.258212306833736589e-02,1.037347253714270348e-02,5.265690093224217877e-05,7.161642282525991499e-03
3.920751706712546111e-04,1.955596722035201577e-04,5.373115826583540252e-04,1.522380178950727900e-07,3.857193048361523443e-05,1.451473393269293432e-03,1.311307641088632278e-02,1.060100665323116149e-02,6.383135225704226698e-05,7.039398180566136358e-03
3.810118576216108281e-04,1.086375970960425823e-04,1.046678783765458021e-03,1.388215555719973871e-06,3.936817008171803031e-05,3.700292964920057909e-03,1.217823761101963914e-02,1.296436311803817777e-02,7.367494538873790193e-05,6.876803002003375673e-03
3.751442498379431380e-04,1.870500565548301750e-05,6.813156841828821612e-04,2.567720456371596404e-06,3.954256122339901380e-05,3.849594373836886380e-03,4.905869894583430105e-03,1.352636172063578258e-02,8.193660137513248147e-05,7.041621918721482215e-03
3.734305361953212240e-04,7.203199997893742546e-05,1.878460206957791869e-04,3.664905863011985133e-06,3.893987008668950661e-05,2.280614634655479898e-03,9.047996898592744475e-03,8.195268272681447211e-03,8.840202057249563672e-05,8.112092610895460520e-03
3.746233364019410064e-04,1.613390742262007420e-04,6.283784606909805556e-04,4.655865419889096384e-06,3.781108833989763355e-05,2.687904058902173578e-04,2.297150084543511314e-02,1.410398860928062121e-03,9.289916801930242973e-05,8.930943501617848168e-03
3.786168475069183448e-04,2.470085856856703765e-04,1.886461580196043420e-04,5.519180138902921217e-06,3.624610487863960499e-05,2.165424915868274010e-03,3.079723833845776637e-02,8.537017954435885403e-03,9.530275040571926947e-05,7.441777366078455858e-03
3.853066596164740447e-04,3.269141268969959300e-04,6.947709221846311116e-04,6.236408329037193379e-06,3.416429035401061031e-05,2.462817922533026924e-03,3.446375654511382031e-02,7.255375582806821572e-03,9.553756805737440418e-05,4.664189554463592235e-03
3.939542722513316299e-04,3.990632318078464751e-04,1.077947155724484846e-03,6.792507198798441884e-06,3.157919886414528148e-05,2.004800264679628633e-03,3.855875431897260591e-02,1.937398323116559448e-03,9.358065243230967044e-05,4.485548429460087944e-03
4.037446162191163585e-04,4.616469954881540047e-04,5.616914419160836010e-04,7.176176302795783020e-06,2.860485094384218363e-05,1.055502043278452699e-03,4.029066110006571805e-02,9.284980799957842992e-03,8.946212908762037237e-05,7.497889006006531847e-03
4.141333361674379219e-04,5.130853618891251505e-04,1.729489834979591777e-04,7.380114793670036576e-06,2.533001467743453672e-05,2.149483630906667830e-03,3.243081647755445551e-02,2.207160640774792713e-03,8.326477719360842801e-05,8.799467947283617919e-03
4.245912736454165895e-04,5.520669473666944610e-04,3.624582827154776746e-04,7.401186418983458653e-06,2.181143497722011783e-05,7.802097032505558166e-03,1.581495395930959322e-02,1.893307917281795635e-02,7.512228869925729352e-05,4.502250127246195527e-03
4.344180916614265504e-04,5.775823978823286338e-04,1.534293307636300382e-04,7.240488324262515800e-06,1.812993617514181141e-05,1.251051144129103690e-02,1.441407823888738284e-03,3.839378629927011483e-02,6.521626239743946360e-05,3.027743492835415981e-03
4.429292593825092327e-04,5.889504331641356137e-04,6.854812896427093854e-05,6.903321939624372236e-06,1.439127354336880495e-05,1.432710676783906581e-02,1.338725170130545964e-03,4.578320702784209606e-02,5.377199960769873640e-05,8.666919735738118358e-03
4.496645925849627719e-04,5.858359079314540228e-04,1.606443883262131066e-04,6.399066487517041981e-06,1.069663370285432152e-05,1.602795401702042377e-02,5.769175047784361188e-03,4.805624289281204553e-02,4.105319820675888887e-05,1.010052393941839738e-02
4.542291338210167721e-04,5.682594142874513449e-04,1.867759072791934242e-04,5.740957901150095330e-06,7.138482671986206239e-06,1.971513264009569499e-02,1.300538224980171687e-02,5.314310994319430825e-02,2.735566954139292083e-05,8.576171187120311054e-03
4.560055913010703315e-04,5.365981558582493764e-04,1.229262273397295697e-04,4.945778135346877917e-06,3.810845630147248775e-06,2.244776396601616195e-02,1.242063701552281220e-02,5.600761107562891861e-02,1.300022765424340699e-05,7.430817141329572328e-03
4.544417381117652117e-04,4.915780381698454330e-04,1.221083033039861243e-04,4.033461933227371898e-06,8.078877930548246356e-07,2.092836106563048318e-02,4.541583896661227984e-03,4.985755820393507343e-02,1.675078392460348674e-06,1.063181704907374334e-02
4.496521115099731138e-04,4.342571358689690836e-04,1.817638735853438622e-04,3.026630035164923838e-06,1.784276269212447092e-06,1.627016857919630355e-02,3.855335450652073049e-03,3.821008956937905349e-02,1.632320104697384440e-05,1.923150624230245825e-02
4.418892514594978610e-04,3.660009103996270563e-04,1.428888564772658231e-04,1.950059536205693419e-06,3.890155580944408545e-06,1.094322624620383891e-02,7.929553799666340733e-03,2.780493148930481342e-02,3.059659888279668300e-05,2.853609317603184731e-02
4.302945030782435705e-04,2.884497563877210955e-04,3.598286294453886044e-05,8.301035745093471125e-07,5.444017558991714059e-06,5.191947392944643545e-03,9.065438138689031061e-03,1.891477897208964157e-02,4.415580069286050453e-05,3.224433060101790371e-02
4.139922030027847919e-04,2.034796461912501749e-04,1.257347269757739714e-04,3.059262682353404301e-07,6.391362513321635545e-06,9.256972341642757084e-04,1.008870055147177355e-02,8.108805959999063062e-03,5.667781772973833315e-05,2.997133939248891946e-02
3.947814696911629436e-04,1.131568150834021385e-04,3.482519925673525788e-04,1.430400581348656324e-06,6.691504039854676730e-06,5.805402575486115664e-03,9.302775672238115107e-03,5.009221444834712801e-03,6.786419523680220197e-05,2.731525045281233896e-02
3.748782973181789585e-04,1.968758001949395809e-05,1.301260198066929278e-04,2.516020917082526941e-06,6.318426766599815623e-06,8.419617578151055576e-03,3.836887942555496957e-03,1.600773271284062702e-02,7.744850207043663852e-05,2.808477864098501281e-02
3.511064765318561392e-04,7.463549089726639191e-05,6.539252514009765045e-04,3.536461699352483040e-06,5.260890052388522807e-06,8.956008496598352395e-03,2.521710847366550549e-03,1.779791458275501240e-02,8.520306988765583359e-05,2.974342679131785142e-02
3.195490899176598788e-04,1.674897464525833875e-04,1.129422685440721261e-03,4.466990313251249960e-06,3.523211739852092185e-06,6.934737508586637060e-03,1.663646450043347168e-03,6.340425277595754770e-03,9.094481078396253969e-05,2.734121433307258250e-02
2.880507233192157023e-04,2.565795833062361553e-04,6.570775313032208714e-04,5.285050909499553909e-06,1.125283481560483981e-06,2.092439304357463902e-03,7.667415765661247419e-03,1.275187264139948130e-02,9.453996401142724119e-05,1.957857410017341260e-02
2.665826146271067136e-04,3.396931362153862623e-04,1.225532292667506212e-04,5.970798263936829261e-06,1.899173240889393362e-06,3.142810033353957404e-03,1.731733775320452515e-02,2.656707417217135658e-02,9.590764797558108473e-05,9.973706968228765110e-03
2.402574472882091164e-04,4.147571290806004022e-04,3.390884564449263739e-04,6.507569156240529921e-06,5.503314585991538640e-06,5.549291526736782262e-03,1.933404029570773980e-02,2.772985399606810522e-02,9.502212249302170656e-05,3.174997616990537369e-03
1.891613669446259979e-04,4.798885281513638268e-04,1.165758187284395377e-04,6.882280149285468778e-06,9.625629835043811639e-06,5.145604592707042971e-03,1.279372855401869277e-02,2.168665511369837276e-02,9.191369759769864062e-05,7.351108894644042303e-04
1.464633805957194878e-04,5.334417120960174103e-04,1.839377179216831321e-05,7.085742329081917725e-06,1.419190947326891896e-05,4.563261062890219821e-03,1.703132066136796123e-03,1.763375248305163595e-02,8.666825825420391505e-05,2.117431599953012097e-04
1.575304276211049394e-04,5.740499789528957222e-04,1.121932839459932249e-04,7.112885467112206477e-06,1.912291479888481401e-05,5.002998737121998676e-03,8.778130315294089756e-03,1.641687529686053013e-02,7.942540836439013370e-05,1.678235690064168711e-03
1.545768757691957072e-04,6.006603447697587885e-04,1.549571155195710959e-04,6.962886148901819896e-06,2.433543333929303433e-05,4.988114945463835784e-03,1.539402114752066661e-02,1.227112741545828729e-02,7.037527160407729869e-05,5.513045852903095644e-03
4.050836927103208644e-05,6.125607498066911859e-04,1.076936361519743602e-04,6.639196627297329363e-06,2.973181346149597517e-05,2.912336272713103580e-03,1.946452948563789226e-02,3.356794794357678344e-03,5.975402005621966264e-05,9.260393066365548917e-03
3.847263715940720571e-05,6.093989716631106847e-04,8.250446585991087723e-05,6.149473455443674277e-06,3.520398168643286288e-05,3.927305560003613001e-04,2.391426101540454832e-02,4.634128559146829911e-03,4.783823348515879061e-05,1.083420571330824533e-02
1.419362566710214639e-04,5.911927461647060187e-04,9.911125910843321624e-05,5.505407280057182337e-06,4.066283118940331397e-05,2.205539727070005181e-03,2.649884721215397046e-02,5.115319559371462460e-03,3.493822162631599645e-05,9.885050494964145451e-03
2.458289144767869571e-04,5.583308114226812188e-04,1.053057970193912633e-04,4.722457476619876081e-06,4.603756474431422668e-05,1.412941607765523695e-03,2.100994166718415587e-02,1.157969777516769296e-03,2.139046830294142885e-05,8.328886052181502797e-03
5.007997994960306995e-04,5.115648129250928520e-04,9.121085543193458659e-05,3.819497531289589619e-06,5.122016007548561644e-05,5.741442772459913121e-04,6.538089527540670402e-03,5.606477191296350623e-03,7.549378854328529179e-06,8.863795584128919547e-03
2.026243819289856064e-03,4.519922323929539119e-04,8.116371626334989615e-05,2.818379167944151533e-06,5.607247359371785955e-05,2.622919178254985891e-03,9.470985406948708579e-03,1.613983963231158504e-03,6.221469314752874995e-06,1.111151838757120161e-02
2.906017286942080662e-03,3.810307249050717631e-04,8.011822406670190023e-05,1.743425133965901225e-06,6.055187895771414470e-05,6.250586471809795909e-03,1.857123397611866455e-02,6.631302750076774506e-03,1.955835975470957827e-05,1.065223285482143172e-02
2.027374903696503670e-03,3.003844619921939608e-04,7.678738964043159540e-05,6.208622501659861891e-07,6.470575868216576815e-05,7.304640972823920643e-03,1.828812623880104321e-02,1.016884612385884727e-02,3.210653194324233054e-05,4.834769650471580291e-03
3.286456200558097790e-04,2.120032777387859319e-04,6.877772723690168922e-05,5.217922413251168071e-07,6.840881129380291682e-05,4.378035698230452362e-03,1.233106118373161753e-02,7.723668553953541398e-03,4.352911370607947378e-05,2.279796129832207651e-03
2.417555095451623219e-04,1.180355954452203969e-04,6.142372575846088154e-05,1.656376866357407537e-06,7.137296880180355797e-05,2.811431627648656876e-04,6.743844846959239428e-03,4.528889628948712040e-03,5.351566922881874258e-05,4.502671467438837394e-03
6.223470428591146774e-04,2.077626957309344731e-05,5.600296254097035997e-05,2.754749674112776563e-06,7.371278936347367577e-05,1.673155101772685503e-03,4.511216506089852502e-03,2.437962402295383753e-03,6.179014894478951554e-05,1.244548393670497945e-03
1.296812118925468483e-03,7.738939244311011381e-05,5.013592724364728854e-05,3.789454125714363682e-06,7.594216172562826320e-05,5.462703437560855130e-04,2.843935157084650969e-03,6.616850821114150707e-04,6.811804105511053804e-05,3.250368952230796825e-03
7.566896736992032545e-04,1.740440646924527185e-04,4.330690569884398835e-05,4.734371578314820086e-06,7.776882098784413256e-05,2.468990278680867345e-03,1.586776709987671981e-03,1.646464850677419175e-03,7.231254293695182109e-05,6.321645882534188826e-03
1.448622577263812756e-04,2.667978637108549397e-04,3.674174452246304880e-05,5.565345082399833170e-06,7.807089032063904775e-05,5.304620624613982406e-03,5.916835862246991318e-03,6.222286278154083583e-03,7.423959379745007190e-05,8.591221197547665306e-03
3.705947900846010110e-04,3.533473748429762692e-04,3.081858082708899607e-05,6.260759821570770709e-06,7.747056076955184895e-05,6.485838709548462366e-03,4.479099212372976251e-03,8.164702940913653659e-03,7.382163708909753833e-05,1.119047547473470301e-02
1.369536406031854217e-04,4.315327878046169938e-04,2.509070179377268062e-05,6.802066478864438002e-06,7.845005069417481964e-05,6.233996306531317151e-03,2.805950711303197530e-03,2.788281076233638418e-03,7.104001177082789437e-05,1.407988335471246910e-02
7.972197178964868843e-05,4.993917258448570548e-04,1.949644304968423152e-05,7.174235090981237570e-06,7.985583111039087684e-05,5.705872571669135494e-03,1.054692236399836815e-02,4.064311543056905139e-03,6.593590474555078803e-05,1.555579395001246631e-02
2.213383766276559431e-04,5.552084285776856705e-04,1.436047746793241438e-05,7.366128523320854281e-06,7.650417220449557494e-05,5.450089872696187859e-03,1.432376801188951776e-02,2.764519966544044458e-03,5.860983192441184030e-05,1.359190975994995811e-02
2.942645094269630973e-04,5.975570575369308114e-04,9.824646182713009412e-06,7.370786529224342139e-06,7.090344239485349301e-05,5.387934827632206297e-03,1.332198680177622795e-02,8.279517824630414427e-03,4.921965149764420796e-05,9.823418500764914338e-03
2.843453126742020976e-04,6.253380332588477381e-04,5.837960455704531581e-06,7.185613404893373478e-06,7.439724739575560072e-05,5.452265369122508143e-03,9.239632415219804079e-03,2.178485695272121270e-02,3.797714924404444939e-05,9.409251522223239031e-03
2.916705671787772017e-04,6.378064798987643754e-04,2.420699804618955874e-06,6.812464470472689773e-06,8.215392483383512218e-05,5.283705791554975731e-03,5.027521217143692857e-03,2.977980110594698540e-02,2.514327120457569658e-05,1.405078774771796948e-02
3.122820072096895404e-04,6.345920440371808149e-04,3.297913986101882740e-07,6.257628946935972035e-06,7.006601876301653416e-05,4.241593134273513414e-03,2.587651994715781806e-03,3.036235087331872612e-02,1.102211290116342315e-05,1.877018523463664171e-02
3.470772381105749829e-04,6.157095638283057500e-04,2.364309888329216975e-06,5.531709203881228032e-06,4.807640589123184441e-05,2.451518263973826058e-03,1.119127108966856080e-03,2.720061723312733673e-02,4.046194375836666043e-06,1.829983287725070462e-02
4.219770045404442217e-04,5.815602879087359775e-04,3.687049132816297032e-06,4.649398769504268350e-06,6.819009994881247380e-05,8.908766893577387252e-04,3.830354223220171954e-04,2.309631137625253391e-02,1.969353165343417039e-05,1.343711048184110558e-02
4.329385341333969166e-04,5.329235750744148797e-04,4.297988278716266533e-06,3.629163864756683028e-06,1.107843462041707748e-04,2.560271478989128774e-04,8.005058294121051524e-05,1.608840489441984087e-02,3.553258210045268995e-05,8.853629506337803295e-03
3.098885027367608838e-04,4.709392399811443029e-04,4.190748637575541623e-06,2.492835493670884382e-06,6.439128416861748425e-05,7.052822335329579466e-04,3.970591686959512590e-03,4.480492487477556567e-03,5.116615044248688240e-05,6.688828101072213927e-03
3.215022913500772961e-04,3.970809412698562339e-04,3.379402229051981279e-06,1.265121237780945348e-06,3.204659381678446554e-05,2.154189616145421506e-03,8.677358457173036874e-03,6.796278529876036492e-03,6.619678550978035049e-05,4.441294084644754891e-03
6.406131293643842770e-04,3.131212308571089550e-04,1.898147096667963658e-06,2.695218546061238559e-08,6.322395063487347400e-05,3.853815051354677907e-03,8.277127631444924569e-03,9.629906379299750172e-03,8.023647077108554855e-05,9.723250251159210739e-04
6.417416164921011098e-04,2.210890911514945794e-04,2.118085905934561207e-07,1.354652877819007146e-06,2.826581997804954540e-04,4.707964939078615463e-03,2.844333599737710553e-03,1.509703956459574996e-03,9.291614460398257239e-05,8.684425024798516496e-03
3.603223668723570350e-04,1.232209754751062382e-04,2.900874223771801838e-06,2.688200133262262050e-06,6.555753155371981875e-05,4.671961570231945512e-03,7.573266963011673382e-04,1.265817914722881452e-02,1.038948145707097579e-04,1.468430693607226077e-02
1.621031275658205238e-03,2.190653126178035285e-05,6.107097345832381339e-06,3.997448082488604790e-06,7.123604727183152196e-04,4.641764859356837906e-03,1.728971108554531837e-03,2.614652917502039917e-02,1.128680386775903638e-04,1.646709672580412218e-02
1.632786759980225239e-03,8.036967847682770119e-05,9.764350393601732204e-06,5.252580760751620607e-06,1.186574360403918867e-03,4.841150031701046963e-03,6.844439580144015198e-03,3.534351658379816796e-02,1.195755614930081009e-04,1.509731572096491108e-02
3.950947713289317919e-04,1.810890358461437349e-04,1.380548826609504197e-05,6.424802415497310683e-06,7.163577260421084185e-04,4.798734018226329980e-03,9.430493153397454323e-03,4.061615737526188402e-02,1.238079124784546685e-04,1.248894261643545070e-02
5.852386521790842525e-04,2.777608218089251614e-04,1.814893629294968226e-05,7.487006911372386002e-06,7.129698103390422160e-05,4.848129556615444341e-03,8.850965750324726530e-03,4.390332140143431844e-02,1.254117970856605192e-04,8.666839102183961779e-03
5.639328972575961916e-04,3.679837407038458641e-04,2.270156464391495928e-05,8.414410508374356231e-06,3.016106661907078578e-04,5.686254384962318061e-03,7.888934036476112285e-03,4.484319055301623502e-02,1.242941402477828420e-04,3.199278076027800653e-03
2.263969989356475984e-04,4.495054974860275793e-04,2.739354430708630786e-05,9.185133076394521340e-06,7.330872033983412434e-05,6.170506828368371374e-03,8.934329390867483747e-03,4.007302780078107057e-02,1.204246771052075666e-04,2.271038899183243018e-03
1.993529513846721318e-04,5.202789512587706420e-04,3.217677679936827657e-05,9.780713949611776219e-06,4.056178099100685115e-05,4.024887331390986263e-03,1.173479923453350955e-02,2.825490299422622059e-02,1.138370205621621359e-04,5.369453288601070719e-03
3.114084783627789647e-04,5.785134468382539070e-04,3.695599522045452372e-05,1.018655009227235225e-05,8.028194974499518622e-05,5.826415237545595326e-04,1.337916341810231266e-02,1.431541340918401732e-02,1.046281665390274841e-04,6.000876445750901074e-03
2.928762335018580054e-04,6.227200390405874956e-04,4.159703403167660092e-05,1.039224601070877264e-05,1.730751541542835685e-04,5.137650935833230903e-03,1.119722415563723442e-02,5.143012131021213601e-03,9.295643701968370177e-05,5.651482816407586707e-03
2.119853596018165425e-04,6.517494694676971090e-04,4.607975407545348456e-05,1.039186686532646001e-05,8.649083967501172503e-05,9.020192551777219195e-03,6.252896454154309620e-03,1.141720590198718605e-03,7.903791222153292632e-05,4.520929910512208084e-03
1.758685832749904581e-04,6.648219293568831271e-04,5.048893121892915185e-05,1.018408846485501551e-05,2.831350004691587344e-05,1.379920863403648681e-02,3.129883501362435046e-03,3.950666673861781726e-03,6.314143921944389355e-05,1.911073793743796496e-03
1.633268228696032275e-04,6.615478403889988018e-04,5.469185929326385185e-05,9.772240212410032533e-06,9.126172704321875286e-05,1.867805878267205996e-02,5.652080945149735684e-03,1.291704786751246559e-02,4.558231290279892507e-05,1.100270925190555225e-03
1.673503222376617405e-04,6.419391034405129990e-04,5.835347184668843889e-05,9.164239563848016260e-06,3.247771229861888846e-04,1.989290064952227780e-02,1.262921365128645210e-02,1.846738218823554267e-02,2.671476114706730545e-05,2.076010923891202353e-03
1.816502279332409637e-04,6.064104978268819749e-04,6.162841059709081928e-05,8.372419095809463652e-06,9.904156541084714583e-05,1.568924268606690722e-02,1.892453779081066170e-02,1.154773310738639591e-02,6.923454282234714354e-06,4.284382576348111154e-04
1.185696339443509487e-04,5.557711549514275998e-04,6.514899525328905045e-05,7.413249804621737697e-06,6.847981289846971891e-04,8.962531281212470988e-03,2.173331842660458299e-02,4.532643259940663007e-03,1.338571993040493818e-05,1.682429854792936996e-03
1.378411088929142919e-05,4.912062745372296462e-04,6.854833351627573530e-05,6.306966708736525500e-06,1.152071122463757839e-03,4.483076991341871341e-03,2.261138248777009793e-02,1.388527339144517668e-02,3.379547892316768894e-05,1.753783888466679212e-03
1.078177783465235465e-04,4.142494927748648558e-04,7.044806461738867005e-05,5.077105148829421962e-06,6.758708986764953809e-04,4.709786198584044702e-03,2.092177500545664218e-02,5.630336068538743799e-03,5.388740737148599855e-05,7.169497250020431377e-04
3.302276455616596790e-04,3.267465438126335338e-04,7.161176578510994155e-05,3.749958316030027400e-06,1.030147532650705310e-04,7.579603502513848970e-03,1.163379122771670930e-02,1.138293202435702173e-02,7.325222415986846526e-05,3.983378965220590179e-03
1.001850008151516339e-04,2.308110732925089804e-04,7.505212494290380040e-05,2.353968438932912241e-06,3.200291526208110578e-04,8.261493186111492498e-03,5.249514123615987501e-03,1.767489712186936374e-02,9.149962257650647436e-05,6.010450518835401372e-03
6.962420381526723389e-04,1.287736596791255023e-04,7.929710931550396525e-05,9.190656782497829511e-07,9.944659186528113329e-05,4.535422727788685111e-03,2.069852096972931224e-02,6.884393394213777009e-03,1.082678253620065627e-04,7.354271151079355522e-03
1.140603205652632526e-03,2.312527100056648987e-05,7.798245748258721295e-05,5.240299252750644277e-07,1.984931259320404017e-06,3.402305206067517324e-04,2.847783499520421813e-02,6.911670214698348476e-03,1.232330073300039717e-04,1.105269494847062328e-02
6.153094171702140364e-04,8.354347302271264311e-05,7.421834942778474846e-05,1.944527160928019492e-06,9.523506291732406620e-05,1.881567940928258707e-03,3.321183415060847965e-02,8.060995168758881488e-03,1.361175354525338181e-04,1.803604383506859227e-02
1.309836134486205578e-04,1.886057542736892982e-04,8.183029383941443718e-05,3.312286161880976647e-06,1.375157506898302582e-04,1.948430466515917604e-04,4.084518735714565835e-02,2.746358666584319819e-03,1.466959611954643040e-04,2.444747658562242132e-02
2.694647031258830044e-04,2.894631725402073853e-04,9.470482290158496090e-05,4.598527696300339021e-06,8.998057163049958361e-05,2.781250956198347800e-03,4.884503048546164072e-02,1.448889631349517711e-02,1.548003260670569221e-04,2.610390930770256634e-02
1.636954547359420139e-04,3.836099371078659486e-04,8.333412940379501051e-05,5.776512436152262104e-06,6.421515373582906074e-05,3.321414361808702320e-03,5.098175782652458743e-02,2.101792050859068242e-02,1.603265164154156616e-04,2.363128443647930996e-02
3.029800470920437005e-04,4.686950496040641670e-04,6.018728043834872950e-05,6.822174027378562317e-06,7.997879943428705114e-05,1.123150931218401712e-03,4.551528976876084015e-02,2.276832894974972765e-02,1.632378885803702771e-04,2.029693065101050367e-02
1.945348621233251266e-04,5.425809367724110247e-04,8.879550289751938314e-05,7.714690792212573577e-06,8.541842950823963086e-05,2.781228920088855971e-03,3.529003326655473505e-02,2.071642549111595011e-02,1.635619693875753399e-04,1.695347753492522716e-02
5.168779390910064600e-04,6.033970727371383439e-04,1.443678542964900305e-04,8.436982263891420436e-06,7.075470504017325045e-05,6.017897824328680319e-03,2.454848054340887445e-02,1.611791975704779042e-02,1.613879158242646013e-04,1.225405846429059378e-02
1.006338668889478162e-03,6.495872475300614162e-04,9.061207634101226655e-05,8.976118455796661642e-06,6.026614417156906040e-05,7.242155434447161526e-03,1.717859255565695048e-02,1.118338010895278574e-02,1.568737357432623762e-04,6.033156577088846784e-03
5.483636917643769631e-04,6.799492894667745566e-04,2.321146409135292803e-05,9.323631763031414016e-06,5.895872425077902619e-05,7.486852871838741395e-03,1.365734853926777771e-02,6.237418056712363754e-03,1.502470610006719886e-04,5.280177337735863629e-04
2.480521784671162644e-04,6.936662298034990473e-04,9.787287331174182516e-05,9.475723639390874851e-06,5.566205106519159554e-05,7.263265974176145653e-03,8.796798917872092338e-03,8.054025588981274155e-04,1.417799173390690175e-04,7.011265867782078866e-03
5.125699936575664299e-04,6.903281046555276605e-04,3.656146827130645209e-04,9.433360635251560104e-06,4.803553304685409645e-05,5.145405596051479472e-03,2.632465671375701192e-03,2.951222317627919499e-03,1.317718120493598121e-04,1.348377703866003238e-02
3.379562536131784059e-04,6.699438164349135914e-04,1.049230852565448640e-04,9.202256965780323628e-06,4.142104380377336828e-05,1.660914418990299801e-03,1.713664787128828249e-02,2.892479928544591794e-03,1.205841337802507487e-04,1.848574560805255410e-02
1.992285693531564966e-04,6.329427195592209629e-04,7.675766372266278666e-04,8.792743444068024526e-06,3.711666305349266021e-05,2.760883912351368066e-04,2.540193223733332867e-02,4.290640463981672606e-04,1.086541363778866518e-04,1.965375013604218207e-02
2.084223526927130249e-04,5.801658469863494368e-04,1.139552532093907186e-03,8.219525298061468234e-06,3.276751122627521366e-05,1.504555965591248970e-03,2.501488072573446880e-02,7.627310368999702314e-03,9.639536345973008741e-05,1.700938701607216524e-02
3.539147910416950244e-04,5.128469490793274594e-04,4.420635400552101052e-04,7.501334030401800731e-06,2.785833799620777710e-05,1.217963595897770439e-03,2.282170317876345764e-02,2.058278053370367691e-02,8.413590442494591241e-05,1.383681815119056253e-02
5.255770133885808793e-04,4.325837681319690572e-04,1.239934501323674458e-04,6.660481014026520563e-06,2.359488366471723707e-05,1.962217589528334610e-03,2.326939906255673374e-02,3.558139851239226770e-02,7.229806138612131564e-05,1.302947177486956515e-02
2.775600913260973927e-04,3.413002143734839185e-04,4.318439080652438809e-04,5.722322883324157325e-06,2.032809385496763707e-05,3.356950506555693263e-03,2.263397089931072984e-02,4.340329871173573273e-02,6.150219100988201914e-05,1.382129009795035612e-02
4.918611256248552575e-04,2.412003364026515115e-04,1.117965048517929319e-03,4.714650923950488599e-06,1.757611248824752308e-05,2.954424519669944646e-04,1.671110317532727846e-02,3.841782514725821523e-02,5.215247694163216874e-05,1.357968764395864857e-02
9.675596829773984832e-04,1.347151851171949700e-04,7.382344070792828733e-04,3.667018532227566934e-06,1.522898047920391749e-05,5.442001680035148982e-03,6.908010688429184337e-03,2.365163379685491715e-02,4.417141183386943731e-05,1.153456562653222897e-02
5.221872513162114596e-04,2.444385013176605270e-05,1.396346155161345601e-04,2.610022361647637695e-06,1.355181737199599387e-05,7.029258857330903353e-03,2.934632493061962305e-03,8.375136403283561098e-03,3.784567516022047730e-05,8.913747709344940068e-03
2.320156351257077166e-04,8.690990312873021165e-05,4.142554914254184084e-04,1.574553960991636711e-06,1.261998372356524861e-05,5.144074703521656078e-03,1.014333711925175137e-02,2.554262801321047563e-03,3.438533175963798076e-05,6.571644406350154663e-03
4.321883393668638374e-04,1.966038528248220479e-04,1.645140927287747361e-04,5.910395057155651569e-07,1.231043413665331573e-05,3.574338978864828424e-03,1.293590094985805870e-02,9.362816181135437746e-03,3.410468540489384906e-05,4.081392888142486297e-03
1.893995575457129744e-04,3.019247766226003404e-04,4.127693787472325290e-05,3.113143897268167234e-07,1.256637841511431199e-05,4.162831261433925373e-03,1.073507857191093387e-02,2.119567604706672909e-02,3.515666672411773506e-05,5.455076163412678246e-04
6.192880096520623633e-05,4.002554866291338216e-04,1.424225681781897315e-04,1.105250827660796087e-06,1.340527874556672146e-05,5.330954509706011500e-03,5.458403570207832033e-03,2.597535477059816078e-02,3.736488937927288185e-05,3.639202276419342078e-03
1.252873807143988849e-04,4.891397889719642381e-04,2.250298113928419293e-04,1.766151261100872986e-06,1.479612470158894647e-05,5.782963931227589303e-03,8.703013090193727815e-04,1.826232397340364633e-02,4.501106660382713545e-05,5.634432037574776606e-03
1.445760825482543305e-04,5.663437575727651215e-04,2.200797097648657277e-04,2.272665992972503250e-06,1.665586734605066949e-05,6.506769894302678707e-03,9.817696923056028853e-05,3.422779693685494388e-03,5.871334969247061001e-05,3.323305112271153668e-03
7.619540339851231905e-05,6.299117954664016587e-04,1.518159363914410804e-04,2.607271203348521284e-06,1.890910532823565027e-05,7.281012355894903726e-03,2.711908669609148798e-03,8.355411858950369253e-03,6.925615794480009053e-05,1.582564963124217811e-04
1.924249824656402885e-05,6.782160788077363101e-04,8.413986103068768236e-05,2.756738813426754134e-06,2.149282239449601910e-05,4.770547234571010167e-03,4.584428245093237139e-03,1.150406288610149493e-02,7.477400833837169979e-05,4.824704635608802542e-04
3.812347330300564841e-07,7.099981356554630873e-04,1.963398664074220352e-04,2.712507474117882081e-06,2.433072343105305795e-05,2.071932993039162473e-03,3.209683188595414526e-03,8.357999594609638941e-03,9.438248110171894767e-05,5.001100844725358749e-03
3.757433085651781124e-06,7.244015000123161163e-04,4.078130495548297832e-04,2.470945235133808555e-06,2.733372630444674153e-05,8.286915193096730178e-03,1.695833751794312890e-03,3.471182748422895013e-03,1.318462501507504533e-04,8.765496123047897617e-03
1.297901923501254642e-05,7.209945969304785464e-04,1.849481528629309097e-04,2.033496957251141421e-06,3.041602876281509533e-05,9.304499467234574744e-03,3.771320335411595080e-03,1.924136611189147372e-03,1.455356510755198541e-04,1.121861053523454284e-02
6.248304847724208202e-05,6.997832515726850385e-04,5.892149034590518338e-04,1.406712217244390787e-06,3.349798060741541268e-05,7.398697540622060226e-03,7.864110616198554532e-03,7.477626839079781589e-03,1.252557300542025628e-04,1.598248694973184239e-02
1.272474917309549826e-04,6.612124682073293501e-04,1.058720792440956144e-03,6.021522557508501884e-07,3.649960018382600942e-05,7.190296744416675538e-03,1.069149914411596063e-02,1.029045727926815659e-02,1.584488203577753883e-04,2.220474620884416508e-02
8.732403582400349211e-05,6.061573880441012635e-04,5.883015279503453921e-04,3.638226306063531900e-07,3.934260158523960802e-05,8.600330368099455211e-03,1.293812240760526533e-02,8.339603614847599170e-03,2.678641750532298146e-04,2.335620438743968297e-02
2.604814333103054852e-05,5.359036011498520199e-04,1.902968559845029058e-04,1.470381009452183850e-06,4.196085640544532352e-05,8.347379486759081216e-03,1.669910939562534516e-02,3.648378021501317084e-03,2.657057155962510697e-04,1.613884022736144022e-02
1.019852616582987405e-04,4.521172508747026120e-04,4.087448976082055387e-04,2.692656540024354706e-06,4.430143952918693301e-05,5.123069984227710677e-03,2.065392683070161120e-02,1.681371349903114810e-03,9.637662958926281769e-05,4.678298761693183358e-03
6.612726751700860389e-04,3.568056227665255468e-04,1.869310403341344052e-04,4.002282903621812092e-06,4.631239242373568448e-05,6.174179750000536628e-04,2.159789787652228316e-02,8.471082029700458677e-03,1.625005438357969990e-04,5.106123301045633472e-03
1.347564888298857528e-03,2.522691475672285172e-04,8.748064987046253382e-05,5.368015452067537154e-06,4.794546237411553992e-05,2.036500719751659430e-03,1.822583884132663798e-02,1.603703870998617054e-02,6.120252978065779913e-04,1.061337277253815090e-02
1.646291245062923543e-03,1.410459636408003094e-04,1.805477741644093679e-04,6.756425447414523418e-06,4.918417290397988630e-05,2.739708347442255726e-04,1.104454004283163780e-02,1.923745618952380637e-02,5.153826414701576921e-04,1.181292604355490237e-02
1.324956797633853461e-03,2.585037266715380756e-05,2.234239332793518226e-04,8.132650931768402943e-06,5.004157132006703816e-05,4.991078972325470493e-03,1.086440555459355310e-03,1.420310516307866575e-02,1.000384531577093103e-03,9.641200072148383565e-03
6.150341006712829219e-04,9.049332111838858262e-05,1.752209259705558397e-04,9.461186862412153663e-06,5.050337071707289180e-05,9.178134248970787681e-03,9.296790206400042111e-03,4.224712136164768955e-03,2.917045797506718705e-03,6.260895878031478082e-03
3.252255696503355328e-05,2.051199774501761902e-04,1.484962035403417221e-04,1.070669617883063166e-05,5.053252918677855461e-05,8.667912300184814345e-03,1.665266620104825096e-02,3.307729377582797198e-03,3.237091789400353779e-03,4.381820682648814025e-03
1.155478132014803398e-04,3.151941003855215960e-04,1.659108664342982386e-04,1.183482279334491833e-05,5.019039817104331558e-05,4.360565508395041617e-03,1.980732385287396757e-02,4.224619646879541890e-03,1.703656886476673758e-03,4.955819270743431343e-03
2.016653923116828561e-05,4.179799006431469391e-04,1.742527074164372351e-04,1.281298719687308822e-05,4.962905269279639019e-05,1.963434393921582649e-04,2.173147971568675785e-02,3.432986516338060699e-04,2.163405576649792233e-05,6.628251725382291494e-03
9.885957118719462550e-07,5.109092106845013496e-04,1.582824551391694221e-04,1.361114581395697366e-05,4.883056906579969609e-05,2.614766363704166315e-03,2.564947727081543644e-02,3.996948268695321368e-03,5.421147626984118128e-04,8.291286734285335802e-03
8.650059626822874999e-05,5.916455685293451477e-04,1.447745771911277855e-04,1.420249629544651233e-05,4.761364586957599467e-05,3.080555797895807597e-03,3.002356798068684177e-02,7.755107516611709807e-03,3.447600273682820647e-04,1.076387898148494296e-02
1.458404560826188012e-04,6.581428732391138466e-04,1.500772493088188217e-04,1.456411181286397540e-05,4.618658958147700436e-05,3.038827402712572946e-03,3.003285565858218945e-02,1.451118574715289100e-02,2.063252863942952834e-04,1.428223544077427028e-02
1.588355894089963478e-04,7.086971416958134972e-04,1.580418017583534881e-04,1.467748834132327820e-05,4.514289308730978306e-05,3.305174824270195634e-03,2.388259891652963832e-02,2.555960077760484686e-02,2.823950197502276670e-04,1.594909355755784117e-02
1.836577292720665026e-04,7.419900598059813368e-04,1.420488039615185939e-04,1.452899151534781456e-05,4.427481865047479216e-05,3.600407378268945160e-03,1.519704900026726084e-02,3.408426070413713566e-02,3.217882594795018936e-04,1.287609990491403282e-02
2.302040348752452362e-04,7.571232177038718109e-04,1.172658961847852321e-04,1.411019337684676245e-05,4.254596433502507520e-05,3.293241237125320384e-03,8.878964747890160866e-03,3.190536022287533691e-02,2.624649746589756655e-04,7.034800274226512065e-03
2.724900781885550923e-04,7.536421432217094542e-04,1.368826562964527659e-04,1.341809059100029199e-05,4.061794393903237421e-05,2.160259640646885245e-03,6.388935740557595382e-03,2.018740485012869915e-02,2.165892397342380452e-04,3.321633795011041859e-03
3.038062246372423450e-04,7.315494954266565800e-04,1.787788517116476491e-04,1.245519538412007875e-05,4.096833537382008278e-05,7.562911266935330246e-04,5.487142838707359180e-03,7.132242970379369315e-03,2.142403936090225001e-04,3.061766879288160565e-03
3.313987226567485702e-04,6.913070443961165032e-04,1.308280544539947140e-04,1.122949612796098836e-05,4.249108404576068396e-05,5.200199635818770593e-05,3.499825594649935440e-03,2.610301209704459294e-03,2.040847402251416188e-04,2.767766605071090517e-03
3.597996330669910839e-04,6.338263381752298840e-04,3.305509966900499079e-05,9.754294238230609376e-06,4.009717024880141774e-05,1.646211473175436838e-04,4.925291341512797252e-04,9.881250604629517736e-03,1.721405660646271266e-04,8.158534944345086993e-04
3.939398636084381769e-04,5.604482363078008671e-04,1.274524891114460999e-04,8.047921445364443791e-06,3.622942309368664023e-05,2.371438659083788161e-04,7.969408308738197208e-04,1.509438237256363266e-02,1.429724701188967459e-04,7.158645272553254210e-03
4.273755143323374286e-04,4.729117646084517613e-04,3.458884453341979368e-04,6.133329985260285636e-06,4.200994799105599992e-05,3.917586587359111680e-04,9.211547894371174394e-04,1.635453897791693673e-02,1.241386117075769357e-04,1.307806508169720092e-02
4.384462540812089767e-04,3.733130111508761837e-04,1.274635560610307941e-04,4.037562793863144491e-06,5.267338049509021709e-05,1.071675369059429082e-04,2.487749991532914404e-03,1.226525440932484112e-02,1.049357266153897210e-04,1.542868875451161755e-02
4.376120350664782963e-04,2.640550322010142264e-04,6.519097634178212504e-04,1.791144690165153005e-06,4.447055079207439080e-05,1.497136347135479472e-03,6.795416221288483067e-04,3.861227596356512411e-03,8.237640695460378968e-05,1.350494737848140572e-02
4.757374468476619021e-04,1.477899628193826568e-04,1.127685013646259702e-03,5.725862264021849435e-07,2.704997000729434769e-05,2.612212808388757017e-03,1.705501025691346728e-03,4.699300818480212430e-03,6.207751982198943068e-05,1.008842281900208630e-02
5.327699511892251437e-04,2.735472442103391815e-05,6.592897261529520820e-04,3.018253046907843245e-06,5.144010351886457087e-05,1.940854906982655967e-03,9.052542032402821105e-04,7.342664693332866428e-03,4.609190342519518433e-05,8.518098019365519594e-03
4.974305446000297721e-04,9.429811428293303566e-05,1.262172335860041374e-04,5.509314982424622968e-06,9.838116685577541780e-05,4.818193697338626967e-04,8.772128801505831019e-03,1.462530291890533525e-03,3.232953776808363265e-05,8.263453765629293069e-03
4.093035880532542789e-04,2.141726400281557404e-04,3.540870299305913169e-04,8.008890891553115671e-06,5.822956056964444916e-05,2.631619904372198629e-03,1.683119888205365441e-02,7.626159774344976570e-03,2.023575078101333944e-05,6.223879675961078647e-03
5.112833494253585112e-04,3.293032928931380484e-04,1.230485890485106843e-04,1.048048129830785878e-05,3.109441480140830014e-05,2.453076589071687911e-03,2.092420097861289602e-02,1.099442412744338314e-02,1.112114198995966703e-05,2.053811905403119670e-03
7.355111861747457578e-04,4.368281484292773319e-04,6.120939643768259775e-06,1.288885116817393680e-05,6.792860767424916757e-05,1.835848037773850729e-04,2.005206274058492569e-02,5.000626867180569743e-03,5.498584356113409843e-06,1.966346894876969294e-03
5.193847599904131713e-04,5.340599751655755994e-04,1.235855320080268556e-04,1.520112494318052769e-05,2.895061799195338369e-04,2.043683268389069347e-03,1.513004435730400978e-02,6.833387948537289307e-03,2.890441491295207230e-06,5.438443955381069665e-03
2.596554504272399061e-04,6.185533052884776423e-04,2.127061566322543463e-04,1.738747258776933774e-05,8.170589465101172548e-05,2.837900971083294477e-03,9.015163567193234737e-03,1.930390593642620709e-02,3.070009918507415954e-06,9.503682242938717162e-03
7.313516431661950916e-04,6.881658466086019305e-04,1.221868049327674789e-04,1.942119932289321186e-05,6.835830469426063547e-04,2.694126823449792974e-03,4.755162584871454497e-03,2.857719382933456009e-02,6.166518393034676972e-06,1.363357267205874031e-02
2.568988679145282027e-04,7.411126958612950606e-04,3.215995384133918009e-06,2.127950261978524656e-05,1.160961459918441289e-03,2.567108818827295268e-03,9.118963422813639898e-04,3.169064449570677816e-02,1.208739369741642680e-05,1.690122331947339560e-02
5.259546706812577360e-04,7.760119838841055429e-04,1.184362777207579058e-04,2.294527542296433720e-05,7.023051404684227741e-04,2.689113775436700882e-03,7.630919997963377631e-03,2.894327435271105281e-02,2.046699591423387351e-05,1.958097189062942348e-02
7.479260419772271358e-04,7.919207882443265751e-04,3.474631361177797574e-04,2.440721848336491968e-05,1.061794133690330554e-04,2.953479572688647980e-03,2.103610257423498345e-02,2.511217031838089073e-02,3.094403669725442766e-05,2.080493084371789342e-02
5.326152923233839868e-04,7.883603835571675747e-04,1.171651011345416801e-04,2.565733930874453502e-05,3.747660626235958803e-04,3.197016681389660848e-03,3.069435981971707292e-02,2.266521826859335675e-02,4.319888248466126281e-05,1.883002415362561299e-02
4.436724125960637500e-04,7.653301583906187014e-04,6.712485152003721048e-04,2.669162518949780313e-05,1.143785023162880468e-04,3.003041804294020838e-03,2.816833556980782513e-02,1.778142098369971807e-02,5.683617037017902679e-05,1.438056366067120249e-02
5.495795199366531030e-04,7.233098040304413974e-04,1.143040268074199672e-03,2.751598614117130233e-05,7.271617919737805957e-05,2.304443051549959383e-03,1.541367159107522727e-02,9.157412082262802663e-03,7.137982913782658879e-05,9.264022514301582453e-03
6.077476159484750118e-04,6.632496677463669676e-04,6.712342435376710860e-04,2.814514664701890876e-05,1.244321248759616260e-04,1.915845159324024681e-03,2.582986464701648478e-03,3.435507058036606741e-03,8.634343183197050139e-05,3.526814265347526581e-03
5.794485138857260586e-04,5.865494545253178938e-04,1.034509763142877638e-04,2.858968256973880482e-05,3.947330686644154383e-04,2.419861479105576973e-03,2.477006398735229643e-03,4.165478308985599495e-03,1.012499872293073965e-04,2.188009853710292871e-03
5.770709756473989737e-04,4.950257493564148761e-04,3.165259150565350029e-04,2.885739497269494989e-05,1.357690531375523220e-04,3.171104643696240084e-03,2.452333013613545738e-04,4.461627675829865289e-03,1.156165874724092327e-04,5.637430295174373357e-03
6.201090061600058635e-04,3.908691099490638112e-04,9.232909141426747564e-05,2.897997677528176686e-05,6.635334007703949568e-04,3.383817309750311673e-03,5.890325707094294649e-03,9.072110225751535504e-04,1.289626250268938916e-04,6.959576041188603179e-03
6.560328134463867160e-04,2.765917403447453837e-04,8.361897784472751053e-06,2.900934574561863437e-05,1.113566388903813745e-03,3.255262483604201909e-03,9.947480619338708654e-03,6.366899459240171581e-03,1.408346437085992281e-04,8.518749548831448110e-03
6.757079955626297315e-04,1.549669927432385601e-04,8.209721235080651841e-05,2.895882714844200747e-05,6.282130055281657860e-04,3.189328652629760084e-03,1.067948376095544973e-02,7.100047821343321436e-03,1.508198143185628375e-04,9.989152126968471601e-03
7.039997954721556681e-04,2.896215205765217336e-05,1.220708784885359867e-04,2.880737696069887922e-05,1.442858583747606664e-04,3.067937715624628314e-03,8.308777535763634675e-03,9.001709712941384847e-03,1.585505192577698979e-04,9.089763369150764480e-03
7.436570301932414603e-04,9.833387000351116345e-05,7.274996631336369459e-05,2.862297742248411052e-05,3.583957338691355046e-04,2.983973681298292529e-03,3.561012339164747187e-03,1.828549848073266967e-02,1.637127930470161255e-04,6.964875608078175198e-03
7.813173619186253999e-04,2.237861715619514011e-04,4.574799925771005915e-05,2.855431291002394982e-05,1.421995800142826136e-04,3.347190611966793534e-03,1.769064617101602337e-03,3.062495471914290432e-02,1.660572443466976056e-04,7.726274128729979790e-03
8.181172500060842354e-04,3.442909779453616525e-04,6.084141137660112797e-05,2.856436303578666693e-05,4.770271355899224669e-05,3.522564629050813773e-03,3.974003699692593185e-03,3.787383684908143811e-02,1.654061481668873371e-04,1.275568675856131838e-02
8.624906149680067928e-04,4.568523448584839962e-04,6.618316981998863746e-05,2.843849119827129805e-05,1.406067449150079753e-04,1.951864571974101532e-03,1.785203880221130756e-04,3.755487459431851305e-02,1.616569980987590631e-04,1.891781050934083705e-02
9.065576673340982466e-04,5.586565539087029074e-04,5.199001734263459357e-05,2.835085592235059868e-05,1.831471913438972019e-04,1.320693362194746371e-03,1.009956946891587062e-02,3.136981385001797601e-02,1.547852569195958168e-04,2.227687940774104175e-02
9.391837877195634158e-04,6.471423552479241411e-04,4.252636843467925564e-05,2.885922946707946866e-05,1.375708220239090103e-04,3.787785387816891992e-03,2.211281898123673012e-02,2.180328657609829912e-02,1.448460446885034829e-04,2.178922400730891329e-02
9.771373901857989194e-04,7.200653060098733500e-04,4.277144022120538288e-05,2.969265649743214051e-05,1.140953721503808085e-04,3.298915750259891026e-03,3.274693162257266699e-02,1.261493586136410057e-02,1.319733862417205375e-04,1.952930912720730883e-02
1.038632552518369001e-03,7.755545907496152634e-04,4.151651787471048863e-05,2.972850943045168769e-05,1.317502337032424990e-04,5.582138416486436862e-04,3.958439316669129515e-02,6.975996676959979326e-03,1.163770992149741140e-04,1.805183185305830537e-02
1.085219847769844457e-03,8.121608880407916488e-04,3.637787636520462199e-05,2.957886873359366826e-05,1.384477666900929072e-04,2.042986781677562629e-03,4.064956525934622367e-02,4.024062583032114032e-03,9.833801403426602433e-05,1.783669081676548737e-02
1.076398207301033005e-03,8.288940615555020651e-04,3.264948283721690313e-05,3.170518249429075882e-05,1.252334998841705006e-04,3.171833912213728804e-03,3.557974034321089579e-02,2.409454290931223666e-05,7.820161002612472636e-05,1.722756224834761166e-02
1.093353489945751321e-03,8.252496992293935829e-04,3.156523844068286809e-05,3.489623188046947581e-05,1.184169061940284524e-04,3.282723653595243443e-03,2.655418388875823224e-02,6.905351833836122222e-03,5.636992461452610591e-05,1.418945642497881909e-02
1.234532205482043914e-03,8.012237945974556462e-04,3.069294832556909724e-05,3.387807215233498617e-05,1.216712576200909850e-04,3.129402123235965148e-03,1.695342292050764851e-02,1.404032621425403173e-02,3.329193602854220902e-05,8.370286157577204109e-03
1.307797083551196426e-03,7.573151535227438296e-04,2.945559499930773623e-05,3.109617721480211334e-05,1.187360007691073624e-04,2.880416064254973530e-03,9.789358698091523564e-03,1.763981616578366024e-02,9.452786713075554410e-06,2.154047956927896378e-03
7.965005669022513866e-04,6.945154102891350646e-04,2.901123313435893558e-05,3.785565689717806047e-05,1.097497061976117230e-04,2.727056993853372267e-03,6.208579291593914473e-03,1.937286717931446800e-02,1.463789503491947253e-05,1.675160236335038102e-03
8.049047113564853848e-04,6.142868420297567045e-04,2.962071227506411929e-05,4.918889678732721603e-05,1.112411452055687207e-04,2.420815378369865593e-03,3.428249014751068822e-03,2.298770979564672412e-02,3.845835630872070435e-05,4.141819570374336880e-03
3.616769075975438327e-03,5.185284722155343411e-04,3.067633708522589804e-05,4.076509724027713025e-05,1.195056767904213827e-04,5.890334661761753766e-05,3.999953951158114612e-03,2.285735130310776256e-02,6.148746248141201561e-05,9.144378482762406321e-03
7.012287025142465227e-03,4.095312449792403234e-04,3.203247611977231852e-05,2.248470197904741747e-05,1.079074006161248638e-04,6.592117702320947695e-03,1.771404571934218422e-02,7.126753520644885272e-03,8.321748012207427249e-05,1.676906769494722338e-02
9.559405775394975643e-03,2.899233251745902528e-04,3.400284014295113676e-05,4.648511641447929983e-05,8.581143569999548706e-05,1.503354303352727635e-02,3.168592806449620908e-02,2.278686406292329894e-02,1.031665858029356681e-04,2.137554686023143691e-02
9.859246674271196498e-03,1.626068274507503687e-04,3.653148108461712318e-05,9.288644988578577486e-05,1.064731855451276650e-04,2.012392828176216494e-02,3.805012878745481913e-02,4.798770535526340059e-02,1.208908063609999612e-04,1.935168393828150604e-02
7.689366419078526652e-03,3.068749502178292964e-05,3.919446556590579168e-05,4.958142379406736271e-05,1.503783399644614512e-04,1.881600988297089591e-02,3.568230481476263038e-02,5.289808898757138167e-02,1.359950950600859166e-04,1.485629391305506516e-02
4.175939890709010928e-03,1.026009702755400078e-04,4.203317429051724223e-05,4.429481090617918665e-05,1.050497553305864920e-04,1.249442361796775612e-02,3.021895258813195317e-02,4.006515685091353862e-02,1.481432611967660332e-04,1.378087157201667370e-02
9.510975443758783914e-04,2.339760852432889603e-04,4.555881922706723949e-05,5.406058529295154326e-05,9.435512517238605053e-06,4.585387767058413111e-03,2.705902395187028547e-02,2.175249423021213477e-02,1.570665040330807114e-04,1.612145674318598079e-02
8.804509922112778355e-04,3.601873334651198690e-04,4.941837212810000230e-05,2.764248353547145410e-04,1.063453559939691250e-04,1.776679477528375541e-03,2.728909872789317057e-02,6.488385306694743546e-03,1.625703384319335568e-04,1.877095412711077271e-02
1.315596026764423183e-03,4.780965001506333771e-04,5.236931229277718862e-05,5.958052808650891803e-05,3.277699624415766292e-04,4.871531092123158185e-03,2.937711613177495726e-02,4.319167383124104115e-03,1.645397351910136226e-04,2.071137920175876793e-02
1.140251698360317820e-03,5.847556104622558945e-04,5.492751059109725938e-05,7.195908752497179577e-04,1.108997060516473608e-04,5.363265763364837360e-03,3.118206714743590804e-02,1.359201033106688036e-02,1.629423405599734369e-04,2.079885093093373008e-02
1.024209856521947218e-03,6.774805379712159131e-04,5.948684679571555802e-05,1.191330208222624899e-03,6.677334344405914642e-04,5.405899700874924538e-03,2.944522289967562226e-02,2.438721150477063046e-02,1.578296873555365930e-04,1.652905557212791879e-02
1.051680325941538232e-03,7.539184476587202201e-04,6.476937837039182426e-05,7.173808411087658540e-04,1.139491734696204553e-03,5.802712181176834620e-03,2.140470782073756323e-02,3.569558434038729022e-02,1.493363597624415930e-04,9.310118751269717483e-03
1.049080779353741243e-03,8.121073813649131281e-04,6.543583327955242775e-05,6.394781179114517261e-05,6.655455721615085186e-04,5.298382184516852236e-03,1.043486782833840006e-02,4.206011955819020237e-02,1.376771233367905453e-04,4.386869347374441550e-03
9.855451153779558847e-04,8.505264794674635568e-04,6.388779383833804830e-05,2.828450645970655912e-04,1.181745817005720668e-04,3.069113839738286768e-03,6.066770746705450051e-03,3.833908171498159184e-02,1.231420813508666840e-04,2.387198531427436876e-03
9.360744084552080884e-04,8.681355564589151013e-04,7.140902387096715383e-05,6.238043632991785751e-05,3.405793563716406186e-04,1.858676268719018686e-04,1.267389605803256533e-02,2.443707088651628223e-02,1.060899676017778426e-04,1.802198667270302462e-03
9.121046703981975203e-04,8.644030046449761601e-04,8.301524716006660062e-05,3.427400751453543910e-05,1.194164674149861749e-04,4.171439504751231139e-03,2.166933571972369868e-02,4.920244180985052299e-03,8.693973217680142217e-05,9.251363004523914524e-03
8.816508752564182223e-04,8.393212832321543873e-04,7.436529197485005607e-05,6.106392406552297453e-05,2.025027485188917733e-05,9.331090971356259534e-03,2.146486935686477485e-02,1.469054696993486557e-02,6.616061908814294991e-05,1.370842185957730532e-02
8.485770432577219389e-04,7.934095527579483739e-04,5.538543630729516270e-05,1.055565359907567732e-04,1.225094729748371137e-04,1.431969221039973254e-02,1.190045040100807215e-02,2.958563766879998211e-02,4.426097245915683364e-05,1.087351189404613984e-02
8.246159698590360774e-04,7.277033297693161380e-04,7.827192073155060962e-05,6.004038473963193922e-05,1.783386189134534454e-04,1.575267985830501247e-02,2.560002430939736177e-03,3.509895126643397534e-02,2.177604020935815774e-05,4.247719645044309260e-03
7.897041704704022393e-04,6.437313561674346636e-04,1.231764467410355096e-04,3.660169354577679564e-05,1.242040956271404483e-04,1.170063253858628048e-02,9.221283741605136933e-05,2.840404343593115263e-02,7.449300346603822013e-07,6.272661140908082199e-04
7.464489986624225394e-04,5.434801938523838461e-04,7.799976867997466244e-05,5.510703450037991507e-05,8.205932254086784256e-05,4.058057647216410137e-03,3.073688634085346930e-03,1.213112881403400484e-02,2.275198948663554428e-05,1.894234487607499148e-03
7.452595116108425184e-04,4.293473604082532168e-04,1.801511678465247076e-05,6.341373336496516119e-05,1.238816113479371738e-04,3.022721098368645609e-03,6.708085863278405274e-03,6.065172730035697443e-03,4.370785690237842736e-05,2.690483391345972796e-04
7.698871091875561555e-04,3.040841079923363032e-04,7.813306611351120991e-05,5.162424609238924322e-05,1.776317777445584061e-04,6.599878284713823692e-03,7.291068734604151322e-03,1.934516921936006717e-02,6.310103002376817125e-05,5.535742773238707184e-03
7.091916863542059666e-04,1.707292081816320331e-04,2.982425490098129209e-04,4.408036223624273555e-05,1.212992219340511930e-04,6.977148632117797199e-03,3.296190746031147506e-03,2.625061108151615849e-02,8.045831727065013534e-05,1.171954997466440572e-02
6.006099805776581296e-04,3.253533373915970013e-05,7.894617616659313985e-05,4.576850295832892888e-05,1.836493359067487965e-05,6.424141411397920470e-03,4.067696161934614141e-03,2.895159421009411635e-02,9.535648005423267984e-05,1.495684973419544352e-02
6.863414715134807465e-04,1.071101816875445490e-04,7.026298602896657560e-04,4.540972013241349747e-05,1.166318721107019213e-04,6.350135733143628079e-03,1.124175139795158089e-02,2.920305773668898514e-02,1.074326966050921834e-04,1.346588742049503219e-02
8.987082137388808850e-04,2.447682778985427990e-04,1.176094164213793095e-03,4.059141730587701986e-05,3.366219998661204018e-04,6.527154999197409130e-03,1.497467314283221565e-02,2.758669023413309884e-02,1.163935859037548698e-04,9.240564581726578089e-03
6.744348065513286689e-04,3.770327682949682993e-04,7.033852226582904075e-04,3.662633136410571496e-05,1.127386090786419639e-04,6.504078548454974087e-03,1.500598143261316214e-02,2.407556483971206099e-02,1.220225645307329159e-04,5.024183562682167127e-03
1.102926699301719996e-04,5.006145270160414044e-04,7.614038644497534390e-05,3.476944444803897180e-05,6.727822414161077234e-04,6.403028687128145893e-03,1.396993016065269100e-02,1.729722223747730964e-02,1.241853492062886053e-04,1.411778709797608528e-03
5.862145063603865043e-04,6.124231846186410817e-04,2.933585673777002346e-04,3.260697976173544595e-05,1.148877132140371750e-03,6.370457595895271871e-03,1.477748423525194338e-02,6.196934247517548421e-03,1.228334625084024885e-04,1.867655667732784830e-03
1.153356029681847875e-04,7.096443055115479693e-04,7.387169983293136329e-05,2.957727899955125357e-05,6.796475290648733118e-04,6.301006608974190140e-03,1.775298516951410305e-02,5.725250936879795402e-03,1.180056476620476829e-04,3.889306095427421534e-03
6.636383914226103931e-04,7.898101222341060313e-04,2.029562173650017570e-05,2.685491972674518987e-05,9.609656368901592490e-05,6.260603234592179885e-03,1.970948553354841259e-02,1.113770766682257822e-02,1.098271492133570605e-04,3.528923124758377456e-03
8.803595654980851453e-04,8.508620514963122867e-04,7.381980555277817496e-05,2.476307568763037433e-05,3.097838801544776735e-04,6.433074534395203867e-03,1.688507092451111552e-02,6.051148269629719710e-03,9.850686860019970919e-05,8.335926733446612485e-04
6.574119241534900600e-04,8.912034112063598953e-04,1.158763793805955692e-04,2.279519620155059934e-05,8.487351724243231488e-05,6.495579232380489440e-03,1.072719804897210444e-02,5.160219768686058125e-03,8.433245582958399022e-05,3.550624900624451807e-03
5.575574222573015815e-04,9.097409919214474597e-04,7.805978575605416830e-05,2.082610699777368523e-05,1.590248574233343870e-05,5.779077571802120929e-03,8.762613583617346116e-03,1.260918892873292077e-02,6.766344939065128429e-05,8.259160903279730293e-03
6.485717707212633075e-04,9.059144046817797996e-04,6.751230461650886997e-05,1.911600591749308646e-05,7.557924760434004221e-05,4.146621300486315158e-03,1.542392198972879214e-02,8.605600963310800627e-03,4.892262491483873813e-05,1.043773005543603520e-02
6.872195245722825113e-04,8.797124235671830057e-04,7.977400620407311567e-05,1.774294940914067435e-05,1.168054744690936569e-04,1.840248992044232843e-03,2.439293070996105539e-02,6.326009130406036289e-03,2.858575774367970719e-05,7.742510611965227815e-03
6.339971386994026252e-04,8.316758583742849898e-04,7.261425024143577445e-05,1.659377205241482602e-05,6.874848719289437121e-05,1.402637085822494925e-03,2.657754273295969902e-02,2.427201487254221357e-02,7.170044367439070188e-06,1.493667161587252865e-03
6.007205503025092987e-04,7.628868228295672318e-04,8.828852098802444242e-05,1.562963582598964627e-05,4.343156242520768205e-05,5.782976118062044084e-03,2.312240142613784105e-02,3.683634907606768427e-02,1.477853834365766339e-05,3.826627474059607521e-03
6.070461126597214785e-04,6.749445986534004195e-04,1.312203642353904998e-04,1.489365171342130475e-05,6.073008508293490894e-05,1.017197500044473776e-02,2.216779975508746670e-02,4.114519480581341204e-02,3.669862993818947492e-05,4.653442134844812221e-03
6.006850356829625519e-04,5.699286273373667692e-04,9.420198372315728285e-05,1.438695381605998585e-05,6.858735681317275736e-05,1.282708886074152704e-02,2.510138673482739322e-02,3.988731359653661240e-02,5.802731318013200671e-05,1.570328158526363652e-03
5.716673591401270210e-04,4.503494815002306991e-04,5.078946352034986050e-06,1.406413090267945280e-05,5.713077797444250715e-05,1.298668594691464694e-02,2.546364985106736034e-02,3.663515804405685639e-02,7.821403287667476475e-05,1.758867354544476572e-03
5.443384227739172252e-04,3.190889682010738713e-04,1.043006761841852104e-04,1.389189207296098172e-05,5.066265303390791818e-05,1.044605797937288999e-02,2.035886375910678919e-02,3.055694113549145552e-02,9.673426508377892840e-05,2.807551738600488206e-03
5.237660056660362702e-04,1.793307901083442623e-04,3.288218752515381042e-04,1.385277938907401484e-05,5.415211970049840708e-05,4.848615008578900307e-03,1.430413883375220366e-02,1.686249602292343858e-02,1.131025997228302099e-04,2.353397904837649379e-03
4.988292211014486773e-04,3.448343007777278775e-05,1.163608013461295802e-04,1.391874315260242008e-05,5.632527083589899616e-05,2.220233794976851117e-03,1.118520858748392119e-02,3.786332575986863999e-03,1.268849126234750688e-04,2.226311660075271266e-03
4.673357131187773914e-04,1.119028755905137224e-04,6.585494635586962298e-04,1.405020056865207742e-05,5.470957023322304110e-05,5.842518920441640111e-03,8.601182505022501867e-03,1.911026202606267571e-02,1.377093240015693271e-04,2.708801234579626821e-03
4.348721000166635639e-04,2.562230552797591532e-04,1.126263877009622003e-03,1.420961150361876877e-05,5.449769050724879516e-05,2.327975736747736092e-03,2.113338525060193002e-03,1.689154309088953046e-02,1.452756689063861939e-04,2.954014468164252189e-03
4.030396544427426210e-04,3.949058860479558457e-04,6.477310375704439576e-04,1.436336486122275346e-05,5.690868090730366276e-05,5.334098837439018095e-03,7.916756449569259044e-03,6.977332819317143796e-04,1.493632405600966496e-04,2.383900624554057338e-03
3.698422726894513152e-04,5.245022642939433256e-04,1.378352414692660751e-04,1.447676045956224254e-05,5.957116720325835558e-05,1.071592303619911361e-02,1.574145018782178301e-02,1.581373345959524376e-02,1.498366089258966103e-04,1.100432514627673738e-03
3.351411110023330936e-04,6.417708837302759728e-04,3.606307160645954983e-04,1.451438521505619529e-05,6.176196101593278719e-05,1.177653795847797419e-02,1.595824665561371841e-02,2.614805295985702174e-02,1.466493632882798822e-04,2.751182376299701217e-05
3.005104334964680862e-04,7.437591948638127811e-04,1.459704204002720352e-04,1.444376245513562052e-05,6.430245510087649434e-05,1.082695195328828471e-02,8.768931963531203383e-03,3.149985557038139511e-02,1.398456779911721429e-04,4.434537075940157272e-04
2.667597862314886447e-04,8.278776264372014575e-04,5.599626794451216283e-05,1.423645914866169157e-05,6.757040436386723813e-05,8.572669523209175413e-03,7.710764565710052747e-04,3.027021638609263959e-02,1.295596535372474964e-04,2.313749646031897610e-03
2.339851722311967288e-04,8.919652058511544704e-04,1.536286877363818412e-04,1.386754404676581149e-05,7.151674563182742420e-05,3.867983597707904623e-03,7.735280925332641000e-03,1.947898373195317695e-02,1.160124397135084970e-04,3.628835626565025518e-03
2.025108342925756549e-04,9.343449188478564552e-04,1.983087505920631257e-04,1.331610331734928541e-05,7.560801145311795281e-05,2.099955081796015845e-03,1.032526806997815030e-02,2.282373200791504384e-03,9.950720194273479982e-05,2.392901249196073728e-03
1.727874231749393559e-04,9.538673939005068913e-04,1.620997446112798827e-04,1.256640386909652960e-05,7.881519436661999064e-05,6.431256560110767441e-03,8.796280093057591218e-03,1.516521197702939104e-02,8.042204532866407745e-05,1.054360683810207523e-03
1.453616771639499336e-04,9.499417779772022360e-04,1.521440209212197793e-04,1.160841040489772845e-05,8.176020403577239813e-05,8.254251596315993755e-03,4.049937560066491429e-03,3.073380816976405833e-02,5.920106155092653061e-05,4.258999917113694307e-03
1.210733151468925480e-04,9.225529808662905193e-04,1.639788943672540109e-04,1.043781431904596445e-05,8.681654867976648746e-05,8.541606269932198320e-03,1.777326838343378955e-03,4.442005963588646633e-02,3.634371061754580572e-05,5.184091982531751318e-03
1.001466820463070865e-04,8.722647975474002828e-04,1.553255263159835742e-04,9.056168365701744053e-06,9.258924966066570735e-05,7.706151762094175586e-03,5.703343082837921893e-03,5.337848929227324152e-02,1.239279133064211943e-05,4.357769908417903452e-03
8.169876831929898684e-05,8.002087640769507508e-04,1.684087752229101076e-04,7.471050826316472320e-06,9.354321827360006321e-05,5.870869765339338693e-03,6.995729823176637108e-03,5.349757200283235259e-02,1.207870988504353520e-05,3.949692017478490316e-03
6.608381620461792815e-05,7.080589536621833104e-04,2.077244603001583462e-04,5.695975286026105238e-06,9.223025900762742808e-05,3.989362578260921555e-03,8.170681396110079583e-03,4.375485704875081705e-02,3.648157330688303119e-05,4.638679666396252135e-03
5.599884317915374406e-05,5.979932673873927232e-04,1.662044384595559175e-04,3.750078178725841308e-06,1.004211888518420620e-04,2.683437846628018014e-03,1.071531838101779516e-02,2.705262067865295619e-02,6.022476377273846626e-05,4.789305745935701006e-03
5.128278758272158879e-05,4.726421098366625573e-04,7.172176208657778985e-05,1.657722126060469927e-06,1.128210003816682038e-04,1.353608387058787650e-03,1.166352085049889714e-02,8.924465931135249983e-03,8.272995956941787531e-05,3.215346189418772770e-03
4.640068307279646240e-05,3.350256552905030378e-04,1.646633951762043195e-04,5.519889039931182308e-07,1.039600876395736046e-04,8.832513253421574477e-05,7.512038732804053077e-03,3.626402042882950153e-03,1.034458355683564722e-04,1.113553104435084044e-03
4.157761955062952062e-05,1.884811973825478064e-04,3.822071667580316133e-04,2.845833406790806245e-06,8.434863704062866240e-05,7.843757418000244256e-04,9.484037719059584294e-04,4.903192085284311524e-03,1.218617482941946380e-04,6.494459744808044402e-04
4.846892997128691272e-05,3.658232686828889502e-05,1.625565936267146317e-04,5.187215802201581568e-06,1.085949239488274515e-04,4.149195626148847668e-03,4.675054855042357765e-04,3.919179213586832314e-03,1.375204837571891714e-04,2.676973532362769345e-03
6.649155566795495159e-05,1.169481078985791153e-04,6.198171177959644349e-04,7.536983667046154981e-06,1.556416066865170329e-04,7.209432100233509853e-03,5.512751815404448585e-03,1.204882863142738535e-02,1.500297504179010598e-04,5.968683683024548180e-03
7.010639875793045277e-05,2.683291404438936417e-04,1.095868431508991141e-03,9.854302065031757816e-06,1.081670714861926127e-04,6.865348085389196865e-03,1.153682686439255582e-02,7.663287475666482294e-03,1.590721290904517453e-04,8.402960205241078590e-03
5.907866655361889222e-05,4.138146969651366244e-04,6.259660216844452991e-04,1.209757838351896359e-05,7.829895605376557211e-06,4.450232576433526058e-03,1.092409689121153632e-02,8.099686521161652067e-03,1.644132282406786621e-04,9.140304728371524690e-03
8.697851671087350337e-05,5.497861929305435276e-04,1.524535168028443195e-04,1.422541546408099030e-05,1.088292540037777661e-04,3.251524723562871071e-03,7.329680597194224503e-03,2.148930192645271894e-02,1.659078361293743920e-04,9.057612828836913640e-03
1.544733406507543187e-04,6.728424292082628910e-04,3.688827064052579204e-04,1.619756449662557502e-05,3.380803540316967967e-04,3.467892106216951230e-03,8.489361223163674128e-03,2.261627658955952733e-02,1.635039095603820457e-04,8.838013541094532494e-03
1.454232815935459732e-04,7.798845570661789954e-04,1.453047800720434627e-04,1.797585569260399624e-05,1.081585907357445993e-04,3.477214442796070816e-03,1.455155121851751943e-02,1.468782542951242720e-02,1.572442914553828460e-04,8.216708886652110758e-03
5.562270077789857744e-05,8.681939922875419159e-04,4.573975848013507351e-05,1.952508789124077744e-05,6.940177026578841406e-04,3.602524147473390448e-03,1.851983875126092874e-02,5.638727740390831605e-03,1.472661048212844470e-04,7.572125750569775465e-03
1.445773795268201088e-04,9.355013223701891777e-04,1.407066896559700181e-04,2.081385609514389774e-05,1.146418722393827659e-03,4.831960982595911482e-03,1.627149082289631316e-02,1.007572802610191181e-03,1.337978275552508412e-04,8.249468517383333477e-03
4.085035407560170606e-04,9.800444635345729322e-04,1.862286272845619197e-04,2.181529592648899550e-05,6.305386642861974872e-04,6.314374977138598535e-03,1.132781924596037298e-02,5.076470659009871440e-03,1.171541095558998306e-04,1.026399389013338097e-02
1.441930364175732213e-05,1.000614581047202254e-03,1.383969735928015606e-04,2.250772713590405642e-05,1.033545053839516340e-04,6.927294638269864552e-03,9.443282550721864704e-03,7.095493694681421354e-03,9.772844937654703813e-05,1.110876820017264559e-02
2.073661756825890233e-03,9.965885810507700733e-04,1.115241447998543424e-04,2.287518134056922608e-05,2.247468515571022368e-04,7.047088396067404531e-03,1.148241105767363462e-02,9.303193075219411828e-03,7.598390079167971283e-05,8.179341237094669981e-03
5.074884019829764559e-03,9.679473075951685549e-04,1.356673894540962109e-04,2.290780144523399913e-05,9.962365047219492466e-05,7.383294611298179926e-03,1.282476027607479079e-02,1.507131418390860768e-02,5.244202883366488383e-05,2.058477887185620938e-03
6.596275711922739045e-03,9.152789270055328294e-04,1.542885279799078788e-04,2.260210253739443971e-05,2.230003506850432326e-04,7.949628431490522382e-03,8.678990122233838644e-03,2.530677304978574613e-02,2.767037886670605830e-05,3.637805102332298483e-03
5.045017125407280645e-03,8.397673446213603640e-04,1.355911585503908983e-04,2.196108688086120757e-05,9.998245970355844239e-05,8.317748812594701405e-03,8.530578722615480940e-04,3.622097312017236170e-02,2.268759994572134889e-06,5.997690844730459159e-03
1.839660623682703262e-03,7.431658674140468983e-04,1.125909660692849304e-04,2.099420977438620867e-05,6.351811764065247662e-04,7.625141038185669247e-03,1.129545191220391459e-02,4.144387556212327656e-02,2.314532540772483709e-05,5.447677457666064496e-03
7.359469492987551274e-05,6.277566909778151518e-04,1.371102933724375019e-04,1.971719779647703702e-05,1.151893371402951116e-03,5.097011130678391101e-03,1.820123581377105365e-02,3.704847038968590855e-02,4.795175177220970555e-05,4.026741372332057894e-03
2.351107258051616221e-04,4.962971418720607932e-04,1.803951615105061376e-04,1.815172304203599608e-05,7.000062636993195208e-04,1.129427021453760548e-03,1.876687103059725484e-02,2.382104097473640436e-02,7.154297189031827897e-05,2.736826897330383104e-03
9.667023267208756706e-04,3.519539375174034006e-04,1.391907937658562672e-04,1.632493731376038858e-05,1.022120065463901558e-04,3.288614896184082273e-03,1.117060405563853262e-02,4.546339790799136180e-03,9.333897691948743708e-05,2.215211104306360340e-03
5.692167261302960753e-04,1.982270275408727243e-04,5.294011261661376591e-05,1.426887624840678176e-05,3.333471112549145202e-04,7.908503888923088671e-03,3.015080597097334961e-03,1.763681403036170686e-02,1.128016460863556596e-04,3.842737288725961257e-03
3.324987751925003333e-04,3.886484504359571251e-05,1.413306801011605051e-04,1.201975307622612913e-05,1.062618224157161131e-04,1.254674297902795381e-02,1.747591103587181616e-02,3.769602099868522155e-02,1.294481306740423584e-04,7.640723460132873082e-03
5.846084848056148399e-04,1.222269829784573846e-04,3.435853857669258203e-04,9.617158783468542308e-06,7.290617889432503610e-06,1.590645272511833838e-02,2.651137028226688633e-02,5.053163635303587614e-02,1.428629390218890565e-04,1.101837126270445444e-02
3.092697151830929060e-04,2.810812455509510742e-04,1.480237726840929536e-04,7.103173347950995239e-06,1.101415047922213301e-04,1.636592516593196253e-02,2.959099127052776043e-02,5.529521605290009523e-02,1.527084196983989617e-04,1.187859392098258859e-02
1.969904918657351223e-04,4.337667401285368344e-04,5.872132125391257883e-04,4.521406371024478356e-06,1.630720371630993936e-04,1.309595966780841177e-02,2.828637543938149548e-02,5.344990934391680160e-02,1.587333780214674947e-04,1.100106108778588741e-02
3.176643766398740739e-04,5.764854494084083354e-04,1.104182141926934174e-03,1.916018166705112992e-06,1.231924313039300120e-04,6.246369072035150294e-03,2.296245235584742916e-02,4.359404044723704658e-02,1.607796057943944659e-04,9.896963957390862709e-03
3.695869166997060341e-04,7.056669030882721082e-04,7.260251828970431479e-04,6.692507893212065311e-07,1.025128665463073360e-04,2.241120621370156375e-03,1.472687648332903290e-02,2.441328447779224017e-02,1.587861544333734590e-04,8.749329811949549396e-03
3.126430155200666584e-04,8.180573829108045902e-04,1.516035280943266422e-04,3.192081055783003499e-06,1.244817644267983531e-04,8.273340783020430300e-03,6.343370195696475602e-03,2.501724258866473705e-03,1.527912363711409437e-04,7.637436149017994176e-03
2.869908616413993857e-04,9.108017451832138914e-04,5.909142072611820676e-04,5.612595348149817170e-06,1.457271244653149357e-04,8.611741998486206057e-03,6.092752770190659403e-05,9.971537756998959112e-03,1.429316974075184852e-04,7.207159816463417149e-03
3.138030970019368418e-04,9.815158062744127644e-04,1.518278585353169982e-04,7.894244316177073911e-06,1.506897242369919317e-04,4.388198123469457153e-03,2.921202135638707644e-03,7.837942490160470024e-03,1.294400621343297256e-04,6.766486156430594548e-03
3.283082696323466436e-04,1.028347459417670341e-03,7.257169731434926028e-04,1.000450543858827552e-05,1.404160303677790163e-04,7.488384193795626954e-04,7.141252886149914141e-04,2.565585025343594845e-03,1.126392142357788466e-04,3.876860989497363588e-03
3.203098840547064603e-04,1.050024960237857206e-03,1.103814751868080870e-03,1.191565788611166014e-05,1.300003479078374832e-04,5.660152819297250594e-03,4.522332747927166816e-03,1.346458694341582524e-02,9.293483189003252888e-05,2.520505264188282503e-03
3.204821476403063650e-04,1.045891127367318913e-03,5.869950823387954904e-04,1.360568743882797511e-05,1.597014729010167887e-04,1.170696662435739832e-02,7.093540842402995192e-03,2.284832503942408125e-02,7.080575423165420704e-05,1.001577539168100120e-02
3.343973435045772169e-04,1.015922545886628484e-03,1.472896369466033628e-04,1.505870473738247863e-05,2.069760962932470222e-04,1.781309279445830729e-02,5.298134598967123646e-03,2.892018731572648660e-02,4.679250649544540637e-05,1.520169580709150592e-02
3.481237617580632991e-04,9.607332268636451303e-04,3.412984351967858596e-04,1.626469591009051488e-05,1.651404816207415328e-04,1.959641987149279146e-02,3.789423896321940811e-03,2.646433709052722905e-02,2.148425776168842418e-05,1.682905614486499002e-02
3.591767197418095593e-04,8.815625570678238499e-04,1.379593471540785940e-04,1.721987719914933621e-05,7.461572270858089025e-05,1.471152440041591583e-02,4.744919900200433513e-03,1.380047910636551800e-02,4.495475001830136165e-06,1.531501291331352835e-02
3.742699372547681987e-04,7.802477596880702353e-04,4.830691486848674162e-05,1.792804210513225559e-05,1.757246126481514350e-04,6.023156171878468919e-03,3.846533513422513775e-03,3.411274172088527186e-03,3.050403066185011173e-05,1.124054241657890946e-02
3.947911537105303829e-04,6.591814700709163312e-04,1.306440207571970321e-04,1.840017475324718182e-05,3.995215471895634750e-04,1.799199442733135333e-03,9.043145288353834996e-04,1.912893205960502011e-02,5.589534558140885268e-05,6.114500725570927268e-03
4.176729966359934683e-04,5.212554006522260048e-04,1.665011123922220725e-04,1.865141882869570877e-05,1.837311328693246395e-04,6.674178174620320168e-03,3.899638364786126195e-03,3.179980016075485694e-02,8.003584849590148506e-05,2.717927972345446103e-03
4.422028599503765255e-04,3.697914171860067797e-04,1.216900517085941482e-04,1.870120211718881268e-05,5.943035871135266511e-04,8.977246659897188466e-03,9.124615910943168753e-04,3.946978740368246863e-02,1.023201183682666005e-04,2.736215296601231164e-03
4.697035177717562683e-04,2.084616653875349013e-04,9.697530430582791748e-05,1.857862551007808107e-05,1.064841983476221216e-03,8.717054538997513410e-03,2.544596110619580867e-03,3.683402797757295843e-02,1.221859190482667669e-04,4.909392262795740300e-03
5.003459624798039943e-04,4.119966523430168212e-05,1.098544061950287257e-04,1.832080850768791065e-05,5.900652069364537271e-04,5.225927768694190768e-03,1.405324259632669427e-03,2.235118497401863968e-02,1.391282381348083949e-04,6.479891248605838816e-03
5.332565713255023885e-04,1.278954776431338880e-04,1.136191251198097199e-04,1.795940056059847607e-05,1.908717935559872886e-04,3.311284572134023160e-04,1.083807591716239895e-02,3.193035766336296821e-03,1.527119802379360504e-04,5.942140562543165964e-03
5.680122119078355805e-04,2.946594137492464108e-04,9.956375887547464886e-05,1.752146247214828847e-05,4.088909514434620174e-04,5.056006925876791076e-03,1.672087309919029555e-02,1.246533412270337676e-02,1.625829963403331092e-04,3.743650677954123238e-03
6.046340473506037422e-04,4.549649912509770556e-04,8.937734674530153380e-05,1.705568548544779476e-05,1.894183855085742902e-04,7.908387854279280357e-03,1.603059560208145232e-02,2.359795365098385500e-02,1.684771704322497949e-04,3.553923499164090552e-04
6.429079890390820406e-04,6.048242800151897546e-04,8.763558584714047702e-05,1.662833219429731894e-05,9.437301753761362670e-05,1.027211517590827933e-02,1.438533376521395658e-02,3.199018607075421183e-02,1.702273311048113831e-04,4.858656376164058495e-03
6.823518472523914949e-04,7.404876589225539577e-04,8.477021418530321785e-05,1.626409191616478577e-05,1.868146124252507479e-04,1.210755422867600128e-02,1.607525537820113717e-02,3.528080302431703397e-02,1.677678082233788023e-04,1.122831898627526213e-02
7.225185682466801892e-04,8.585375073571487351e-04,7.840191008948921346e-05,1.595004922067917643e-05,2.265442030040356106e-04,1.078980008254730796e-02,1.879904266529931756e-02,2.983638829444608745e-02,1.611365119029720073e-04,1.528657177435489151e-02
7.631061408211925381e-04,9.559741628620121306e-04,7.219858611920055322e-05,1.575890343614560346e-05,1.856675900738569737e-04,5.171356415228660700e-03,1.868002816880479783e-02,1.681047758684442103e-02,1.504744713891743271e-04,1.498430611230221025e-02
8.038845528786919825e-04,1.030291986311331889e-03,6.788993470517815250e-05,1.584055130518322792e-05,1.711335943237861921e-04,1.693127363594812461e-03,1.532734178885425402e-02,1.089262217473246138e-03,1.360228336407975805e-04,1.317011098522186639e-02
8.444860743364716350e-04,1.079543609441054779e-03,6.577539861577890714e-05,1.615567190735248007e-05,1.787397400471260893e-04,5.795473779818394525e-03,1.221157577639764118e-02,1.408945650068422345e-02,1.181173838939600720e-04,1.299600180470340642e-02
8.843230628999799395e-04,1.102390721706990578e-03,6.415590662002915742e-05,1.648389225431338685e-05,1.668441243776483754e-04,6.723818289143627773e-03,1.418481450100880260e-02,2.830393742603054888e-02,9.718071172598617203e-05,1.289821042486836121e-02
9.230518690750042724e-04,1.098140077481997651e-03,5.881905461280798297e-05,1.699035904337119416e-05,1.774151940088575848e-04,6.734704626138033126e-03,2.189453138726133938e-02,3.886890942830465573e-02,7.371220462004359408e-05,1.051722054168691828e-02
9.609014485396916161e-04,1.066763762773690651e-03,5.249918315226388324e-05,1.822079720127713775e-05,2.138847799214060636e-04,6.436620289111262376e-03,2.866035359421982565e-02,3.830694919172733526e-02,4.827610530681891878e-05,7.871069870441138941e-03
9.977136310864859192e-04,1.008903144273435660e-03,5.604686853022587353e-05,1.988948227113517933e-05,1.699212165428493136e-04,4.724628685588946539e-03,2.767125870794663947e-02,2.297000214640469717e-02,2.148791787364177702e-05,7.630816780026737113e-03
1.032176530375527885e-03,9.258563232977596235e-04,6.438364882542646083e-05,2.085667573050625336e-05,7.583075779969658027e-05,2.207359430926431575e-03,2.037848365721342883e-02,1.860078234197250170e-03,6.000510439392742754e-06,7.618827776670378076e-03
1.063865378487139626e-03,8.195493232727635215e-04,5.341077861659509975e-05,2.171544238728628971e-05,1.706007790396719915e-04,4.461444441251837759e-04,1.235009700131282050e-02,1.190938465781654632e-02,3.351687075512292224e-05,3.999267736242506990e-03
1.094969640666271227e-03,6.924916418543231034e-04,3.309447696910606238e-05,2.490679367706349524e-05,3.862439133341394196e-04,1.437497522605691181e-03,5.191991876620518330e-03,1.619884742251295751e-02,6.038485102604934407e-05,2.266359980874850868e-03
1.125988213023144989e-03,5.477171876263171261e-04,5.546585744549456900e-05,2.919817188416046986e-05,1.638199791590839712e-04,4.609436069100684985e-03,1.796883280332539721e-03,1.711097640247855392e-02,8.594076911781393198e-05,6.211863156394181219e-03
1.151920154521014978e-03,3.887119869167215492e-04,1.006053055334190976e-04,2.929393245769298425e-05,6.111548594813896338e-04,6.251248608119796754e-03,7.476971126614553702e-03,1.553994753141775889e-02,1.095499720241641659e-04,4.999815001245177908e-03
1.171358376998032349e-03,2.193303794841336266e-04,5.643850628508211302e-05,2.761803929519335266e-05,1.075558227969677537e-03,2.871600493584066174e-03,1.064132645102610145e-02,7.701509536701266374e-03,1.306225965965247837e-04,5.110562352137436315e-04
1.194865026711029905e-03,4.370171427597298395e-05,3.790473777329342103e-05,3.545482888175478748e-05,6.136623282658254996e-04,3.179440175601158138e-03,1.085847171043248342e-02,3.672805965352414232e-03,1.486283010104515775e-04,3.573212948949481150e-03
1.225763776618656259e-03,1.338701992706147837e-04,6.033134616749988646e-05,4.781718002016786004e-05,1.489112345526724755e-04,5.920906660287477558e-03,6.935869741677109374e-03,9.413708173597750556e-03,1.631095997071246851e-04,5.390398904175164665e-03
1.241740187355313630e-03,3.090124390861819122e-04,2.828881206520325467e-04,4.035655291342098530e-05,3.927629976769809106e-04,4.035659194322519482e-03,3.385064442074908059e-04,6.083228926203401721e-03,1.736934672072764393e-04,5.865867806524853283e-03
1.235370879360908050e-03,4.773905417504964140e-04,6.652691199864078431e-05,2.295787553689685565e-05,2.156910664814243751e-04,2.081536236019065553e-03,6.355459172650865761e-03,8.943889846023667361e-04,1.801009172368064058e-04,7.056932738983117022e-03
1.254469647815988813e-03,6.348156539315200986e-04,7.119010457195347388e-04,4.774566622944181101e-05,7.148670968641259577e-05,3.310204715139097864e-03,8.657549027789895879e-03,1.867390559551367936e-03,1.821543120573690042e-04,9.387165348676651186e-03
1.316568600405923495e-03,7.773486180615064595e-04,1.182676501433155324e-03,9.483011742126655605e-05,7.882657252291985425e-05,5.824020777538422601e-03,1.093580373881966258e-02,8.083869132976767222e-03,1.797822116041555244e-04,1.087100135934478302e-02
1.320369968585928750e-03,9.013984089400384940e-04,7.075800886375819458e-04,5.209727404040180018e-05,2.325317052547236124e-04,6.759796887596273597e-03,1.676038272790874445e-02,1.354563056263571874e-02,1.730216316804109229e-04,9.813777827912869428e-03
1.225909995742816179e-03,1.003812464605016328e-03,7.504615898100887186e-05,4.132095811704224495e-05,4.008680582880118663e-04,6.310396456486032368e-03,2.377541883293697242e-02,1.645544633595712181e-02,1.620176435997846361e-04,6.920246081232910712e-03
1.251117511963880519e-03,1.081956642696211592e-03,2.953590153825292101e-04,5.737855308989304993e-05,1.427479148510469491e-04,6.022324257316069400e-03,2.812734086373815112e-02,1.957131153247754565e-02,1.470203127665614684e-04,3.557374272352522779e-03
1.498821410070846861e-03,1.133782778319091964e-03,7.639526939021582604e-05,2.799768832057521629e-04,5.930291947070608213e-04,6.067924323157737262e-03,3.058673262371723947e-02,2.429086278753431194e-02,1.283790391479561698e-04,7.663507365830702061e-06
1.475180943196363441e-03,1.157882115341259599e-03,1.870258273538417606e-05,6.326397081208136666e-05,1.009036637781237592e-03,5.969344135928963957e-03,3.373521351813899699e-02,2.881802153704242711e-02,1.065344268133439250e-04,3.570527145848044134e-03
6.623196847113303580e-04,1.153523223072111395e-03,7.822339687659770691e-05,7.158680287586854669e-04,5.889301919891589332e-04,6.015481008851505072e-03,3.501111258184833736e-02,3.008308786943312066e-02,8.200787110692150288e-05,6.439396642760924355e-03
5.115133649720279754e-04,1.120673386217781479e-03,1.243156512720147841e-04,1.187646151269284526e-03,9.295231339456163147e-05,6.235902578454173215e-03,2.724252282407021303e-02,2.540252642178494891e-02,5.538910905938368347e-05,8.336004493385684028e-03
1.180992878497194544e-03,1.060002858771107170e-03,8.039278179214863615e-05,7.137971747287118153e-04,4.142487670829007613e-04,5.372730827388740027e-03,7.626908318367951745e-03,1.530639228108183862e-02,2.732202990718384306e-05,9.216352401139285555e-03
1.326251656704461506e-03,9.728717922865647407e-04,5.852631304612857194e-05,6.738850443409033616e-05,4.173281900848016990e-04,2.605477137124537993e-03,1.638245102940125153e-02,5.036191403485715083e-03,1.510913213356349067e-06,8.935812294293878771e-03
