1.589637749167542580e-02,1.794514526899797235e-02,1.529905899766285590e-02,6.208499037912394714e-03,2.802773210889843939e-04,7.203958877612201730e-07,3.666560184636910059e-03,2.663548467397295824e-02,7.323061133005196767e-03,4.183124778490456865e-03
8.348491538579062843e-03,1.790101663320542436e-02,4.035780950506262336e-03,3.353123995502805578e-03,5.249668112647134762e-04,2.427460122672949914e-06,4.954836242442896277e-03,3.419510202608648519e-02,1.013093895646996132e-02,1.064394082275844748e-02
4.033860411226042157e-03,1.755557162581670647e-02,8.998150027992771194e-03,2.215861023278534007e-03,2.381406401951240116e-04,4.148483751948368788e-06,6.343222407922096198e-03,4.213628167981887246e-02,1.483914241603760675e-02,1.397949590032566795e-02
3.519528062167514258e-03,2.024258913288304318e-02,4.381968741103431202e-03,7.359956573067095260e-04,6.636068838870942286e-04,5.845327217561115826e-06,5.730424291820349590e-03,4.716565584022317653e-02,1.072762175496134833e-02,1.297208454170665527e-02
2.044539576454187501e-04,3.061328363722749801e-02,5.540267260396017010e-04,7.182183353388825985e-04,1.067081004639453424e-03,7.480307309236795178e-06,2.839038128514257721e-03,4.140885667359289063e-02,4.305301537266963650e-03,1.038846003941100958e-02
1.019801851775857006e-02,4.693883507325122967e-02,1.765206961869499481e-03,3.400602736624581610e-03,4.015744200441031522e-04,9.017113811784852943e-06,1.237203203032574022e-04,2.656055670323162476e-02,3.718767351309080343e-03,1.059881713395741804e-02
2.050811313964510593e-02,6.249041212689113167e-02,7.547884021696561578e-03,4.181445062044957493e-03,1.320786665379432658e-04,1.042168901419690113e-05,1.574718982998651786e-03,1.220470191036654092e-02,9.975538186510500560e-03,1.437439104695313954e-02
2.331174584588537047e-02,6.901007545351398043e-02,1.337170857669107982e-02,1.966196421696630222e-03,4.583564409635044676e-04,1.166304858622014030e-05,1.879195174381126897e-03,6.920377678603228423e-03,9.188617918832365714e-03,1.782093273514610138e-02
1.927697021528711543e-02,5.882175777320545335e-02,8.959928777087334401e-03,1.295683155657985537e-02,1.179369151201020444e-03,1.271402385956911974e-05,1.031300039724532226e-03,1.405067482509423163e-02,3.356336458263993721e-03,1.791099861116617759e-02
1.713610983473664445e-02,3.419837508492640926e-02,7.094215011752979735e-03,2.207131054857190688e-02,8.288780536866578903e-04,1.355190756722552743e-05,2.086306010147372537e-03,2.931070960779887102e-02,2.722836541862921032e-03,1.569853526969693450e-02
2.115307868267982117e-02,1.283221846571940342e-02,2.220770826358709274e-02,2.536104039266008289e-02,2.359580138617379088e-05,1.415898754386626960e-05,7.045060768401210406e-03,4.095070453991354192e-02,9.456466284206637568e-03,1.244097059139377681e-02
2.487784662692762647e-02,1.025955157389350086e-02,2.281197865912451897e-02,2.279618957273567975e-02,2.659483730002093417e-04,1.452295571138533019e-05,1.083699236462832248e-02,3.974370504947738469e-02,1.471872950158261556e-02,6.958680818223242706e-03
2.163211999167823779e-02,2.046123808778423092e-02,8.989800197405748913e-03,1.493277806867627719e-02,1.744497088275580061e-05,1.463718279488393761e-05,1.107289258371095542e-02,3.000127183309890533e-02,9.397193036458474993e-03,5.886011200472947074e-04
1.477039342572201638e-02,2.810673988929367206e-02,4.604017981061951474e-03,3.976461026650905152e-03,1.509436337611552714e-04,1.450085255844364240e-05,9.276952957029472799e-03,2.223800497469096207e-02,5.638394283079865670e-03,6.486965516829141902e-03
1.139871307965089481e-02,3.155813741851962867e-02,4.009795491641295409e-03,3.195755199096836884e-03,4.621372555697360524e-05,1.411895283335937930e-05,9.369797723302535075e-03,1.632590698365883608e-02,1.152197651613022858e-02,8.309024089351909476e-03
1.076391438246292187e-02,3.631188947374930365e-02,6.940386528952503103e-03,2.239958364857173347e-05,1.944674194595478114e-06,1.350212414808833347e-05,1.230683063922541690e-02,5.195752835382571808e-03,3.621232695499903599e-03,8.719004127574547097e-03
6.344236356572848998e-03,3.713469072337665516e-02,1.077974986103681816e-02,1.057350557955373700e-02,5.545894870668354848e-05,1.266637027179110486e-05,1.387059514146444031e-02,6.184529317869449754e-03,2.521502913364450857e-02,1.146388975872112900e-02
2.030900995564089914e-03,2.837927493546944097e-02,1.039767416027483548e-03,1.774031598166252860e-02,8.203833615049824115e-05,1.163263836601292473e-05,9.915576867429068408e-03,3.380173629962330336e-03,3.340963663950671098e-02,1.638720301560597087e-02
5.375707917359600144e-03,2.168547124359877440e-02,1.820667303337691889e-02,1.537893366941362090e-02,5.309421444298639559e-05,1.042627961907421056e-05,2.547756099356236759e-03,1.319124840457520931e-02,2.901033822437532397e-02,2.056973128600710771e-02
3.273531478196219265e-03,3.064858795263677299e-02,2.413030762940879259e-02,9.449983000113517176e-03,3.231082153565895327e-05,9.076404137715621831e-06,1.986840859711392054e-03,2.295498709005609761e-02,2.453215044638860573e-02,2.155293944786813159e-02
1.919749149215992101e-02,4.554405297982824785e-02,1.023563973664004534e-02,1.051015361404088189e-02,3.236400215590413477e-05,7.615146420262722923e-06,1.041202460614574664e-03,1.028459177966157580e-02,2.588529643707804251e-02,1.830732706009447625e-02
2.978596181086374042e-02,4.359619892815779635e-02,1.858955809659528294e-02,2.092349806063272324e-02,2.405965425122437857e-05,6.076859873717613748e-06,1.865101555905857673e-03,1.648444945766953940e-02,3.463506865544720148e-02,1.185491342062111424e-02
2.667450534391078640e-02,1.799547158044491682e-02,4.439117786743989463e-02,3.239734622984728057e-02,1.700771166119967496e-06,4.497260512786686114e-06,2.311770363826716902e-03,3.690715805848984038e-02,5.138186022849897117e-02,5.141738395064398594e-03
1.343955748525659140e-02,1.793597039219209030e-02,4.762682220652345033e-02,3.616076971142054980e-02,2.040445873800417681e-05,2.912541152517056284e-06,1.560955141885585142e-04,4.104040747430346553e-02,6.699579831284771525e-02,3.230499537287410592e-04
8.681771791359016747e-04,4.460077548557417337e-02,2.656194105971404831e-02,3.171027012453006555e-02,3.861001033400818325e-05,1.358478051030472324e-06,1.233207669438270062e-03,3.405828091696130183e-02,6.596464294324631827e-02,2.754672834381162796e-03
5.694101359759898978e-03,4.529507210793302929e-02,1.474286258039945964e-03,2.413797923691097386e-02,5.869137710571834031e-05,1.304479389887539385e-07,8.069780966527981486e-04,2.363303546430853969e-02,4.641090307239244261e-02,4.388307484036317249e-03
1.150709268125194723e-02,2.376460168542702395e-02,4.429653839511001057e-03,1.718880872216042160e-02,8.149220931049890385e-05,1.521894092286933627e-06,5.063392443317350604e-03,1.142978998487993725e-02,2.432944154278826251e-02,3.793754853023517150e-03
2.253632153228238288e-02,1.973960138025349087e-02,1.482854971107707039e-02,1.112584874464351767e-02,1.033530461327112016e-04,2.786441759766729655e-06,6.688360767471538543e-03,1.339083470047979950e-03,1.252903544371154754e-02,1.395089285335083867e-03
3.448453449307591762e-02,7.221991392045939984e-02,4.517385224437795582e-02,4.184674155435145863e-03,1.228616029534380070e-04,3.898306372421671047e-06,2.050938511166857520e-03,7.665569391094091689e-03,6.397768683724029508e-03,6.649620545720147206e-05
3.706908118586624973e-02,1.586726912449915594e-01,6.566353494533409829e-02,5.059345545733889317e-03,1.407590093018031008e-04,4.835954270179391705e-06,5.804763228631687477e-03,1.913013528260321854e-03,4.606219958433695194e-03,9.038205871030985080e-04
2.749833466368831192e-02,2.115300344786524844e-01,6.855662386874258885e-02,1.479928082941221745e-02,1.568021528991403370e-04,5.582611483064927582e-06,9.447528828862723424e-03,8.914233860253903408e-03,2.187063590959010748e-02,1.264982426460828022e-03
1.548665180898813575e-02,1.996668965771371818e-01,6.550680154831346746e-02,2.049948862911594658e-02,1.697926870876945095e-04,6.126652306738886884e-06,6.092553772784262481e-03,8.629045919184933147e-03,4.009170633972263670e-02,2.680434216146408699e-03
1.448021136333600689e-02,1.505132353562499414e-01,6.645812773319342837e-02,2.023783130418043558e-02,1.790685856844695379e-04,6.461858517938639661e-06,1.020775231870195811e-03,1.138350573076923368e-02,5.500540988670726134e-02,8.312272710366018502e-03
2.756082064505835372e-02,9.641692234362482516e-02,6.205554947603200006e-02,1.741351094588756629e-02,1.845288467038430711e-04,6.587543292716063816e-06,4.891155199731960466e-05,4.182709538847008413e-02,6.142932582276775660e-02,8.639444806687881021e-03
4.139069592308761841e-02,4.535764936988797430e-02,4.008379599841628560e-02,1.686528017059325119e-02,1.859530002987585357e-04,6.508537241720114712e-06,1.539268640475432558e-03,6.333241366059420840e-02,5.284022800568163869e-02,2.811763967834416452e-03
3.746459539686450291e-02,1.752560168251374867e-03,5.897568381712519833e-03,2.103736376298443594e-02,1.829958535780940086e-04,6.235037379226758959e-06,4.084983484898994585e-04,6.260413643895970659e-02,3.122973602157691486e-02,8.091602888194619021e-04
1.168785009723101800e-02,4.218687776639327980e-02,2.683588482163893132e-02,2.890012814849531389e-02,1.755172920657953296e-04,5.782323212341674056e-06,6.037243343730426363e-03,3.928282041221573678e-02,1.003613655246623527e-02,4.709137650416491024e-03
1.999503963707308790e-02,7.280312515183613720e-02,5.126261052614832642e-02,3.398507045970879104e-02,1.635965175015397595e-04,5.170347391087353592e-06,8.317186711303142105e-03,3.930802010355012588e-03,2.571822900597426687e-04,1.582114610459820284e-02
3.601034449934722992e-02,8.289890139469927033e-02,6.319553483861271859e-02,2.685054401706786151e-02,1.473819006133193581e-04,4.423211419385363866e-06,1.499179941595649114e-03,2.193098176718599052e-02,1.393173367975860440e-04,2.353182292543829629e-02
2.695425333121435202e-02,6.266324495710856590e-02,5.763665066203599308e-02,6.666017800318340888e-03,1.270823542517087379e-04,3.568539716801708088e-06,1.344552856341250067e-02,1.417947168109854640e-02,3.486502986185072671e-03,2.371174756375455522e-02
9.828684559078722412e-04,2.529532168886630336e-02,4.011211666777583090e-02,1.370258612239302030e-02,1.030330215619649424e-04,2.636767773787913211e-06,3.080546172563118981e-02,2.832546198183038752e-02,9.386556194221884128e-03,1.925107635237961051e-02
2.609676493173582884e-02,1.364580081628133726e-03,2.800720791124767725e-02,2.145325810065208672e-02,7.569229387556127562e-05,1.660362200009116946e-06,4.307757532436220366e-02,7.490673756096048741e-02,1.649941059393483095e-02,1.441115424858161777e-02
4.560328954544982938e-02,7.792867738410699102e-03,2.860643713771705496e-02,1.734209074062735903e-02,4.560035147731869587e-05,6.729920771447075423e-07,4.467108483273502656e-02,9.506783048315591012e-02,1.638237488669213107e-02,9.887515281687124513e-03
5.768347474267807029e-02,7.727072123648086321e-03,2.776108120622254941e-02,9.212515031572617030e-03,1.336467947231449591e-05,2.913278436543812982e-07,3.636803311103604247e-02,8.788866791384286614e-02,2.820818680326245536e-03,3.517016570184343296e-03
6.061228871753861214e-02,1.144596762657421572e-02,1.427032557840165507e-02,5.015107284833367381e-04,2.034112909545318309e-05,1.199100939579808878e-06,2.404456744393548492e-02,6.886332900426593573e-02,1.755182511429845271e-02,5.420667452107855167e-03
4.977926104687768055e-02,1.467508530309729470e-02,9.149488865989176094e-04,6.529297444744330652e-03,5.479113319122418785e-05,2.018198251523938279e-06,1.271538210127687828e-02,4.555281422801289726e-02,3.289397252627376117e-02,1.447644980081752922e-02
2.850118257898484261e-02,1.465492683788620701e-02,2.093269614902945434e-03,5.069556008400802859e-03,8.922516110950167584e-05,2.718672924278516659e-06,4.018965444075204771e-03,1.847176831963475915e-02,3.974786673220253447e-02,2.111171969218455721e-02
8.275355875055035240e-03,1.503235707767934005e-02,7.242896427101408463e-03,7.666452741187690899e-03,1.228681676168409426e-04,3.273519654150539793e-06,1.885273773090951959e-03,9.448470713257758891e-03,4.165640151684795595e-02,2.524684575558040073e-02
3.730326267375942521e-03,1.234583786926527794e-02,2.726567349854238948e-04,2.209206480503818695e-02,1.549577324669166288e-04,3.659360667171419779e-06,3.877129421305464899e-03,3.439000959667357082e-02,3.942951030729147099e-02,2.736221971548128892e-02
9.912837719913525358e-03,9.845259497363863070e-04,1.482496603627564066e-02,2.605835718804914991e-02,1.847601173776223106e-04,3.857041620284100224e-06,1.695027785642158960e-04,5.421181573464492476e-02,3.040109920305296420e-02,2.633013424874483532e-02
1.590653689109427019e-02,8.877143662141824543e-03,2.186751864052400088e-02,1.840312131165953297e-02,2.115623361392318918e-04,3.852123088164532588e-06,9.325128890921397656e-03,6.775213834643638300e-02,1.397083644065741891e-02,2.133067187264210685e-02
2.448208933457088690e-02,3.044826214811069149e-03,2.283031998450545108e-02,6.367091226049077964e-03,2.346921678963756442e-04,3.635255912320393073e-06,1.688021777230555923e-02,7.629618324733772328e-02,7.437821539576761586e-03,1.445794832346568130e-02
3.395081139488424077e-02,1.041557434091119200e-02,2.568443106379853305e-02,5.201550395135396722e-03,2.535911405309916882e-04,3.202431581117664451e-06,1.606934666643451692e-02,8.060437350098431653e-02,2.897668127926339085e-02,9.045772219153126736e-03
3.980104811887084926e-02,7.311217985392750099e-03,2.390268323281568436e-02,1.687801330207365849e-02,2.678233647494951885e-04,2.555101907409927245e-06,6.815959668695186803e-03,7.517598263401452374e-02,4.177537183114658770e-02,6.026182260848801479e-03
4.026435376212195161e-02,2.540345147275506477e-02,3.765225948805404985e-03,2.976137119554078669e-02,2.769632319124825694e-04,1.700165497946558611e-06,7.567513396189968523e-03,5.629751776335339963e-02,3.795389310586772674e-02,3.563952256401006768e-03
4.021310801575420785e-02,7.699700669512618556e-02,3.193799210495965740e-02,3.998499880770067794e-02,2.806120940535399835e-04,6.498217856970522590e-07,2.557190304743829981e-02,3.448576614036882176e-02,2.132231764661548720e-02,4.145908561658569061e-04
4.443573433085295371e-02,1.165415558576721189e-01,6.022249373928324073e-02,3.888264344517579352e-02,2.786708460552794514e-04,5.787033588516112320e-07,4.271052855126453163e-02,2.410009428663390657e-02,5.573593006775075243e-03,6.122650942053817213e-03
4.734093908422420949e-02,1.112541050386582353e-01,6.083174434776447703e-02,2.163926066904186749e-02,2.713355130316439582e-04,1.963553287659053244e-06,4.792798543480054907e-02,2.273182113645907595e-02,4.708418532505119665e-04,1.139783470274062169e-02
3.770403308363245998e-02,5.998997190021423259e-02,3.879283872775910608e-02,4.212784432403263168e-03,2.585303818781237747e-04,3.478747408987575049e-06,3.526391798532626382e-02,1.725956678970955518e-02,2.033160702980693624e-03,1.336647051398343750e-02
1.578493186242856117e-02,3.088170547468368707e-03,1.911722169437774996e-02,2.330157432035417919e-02,2.399094377958303596e-04,5.094786408937453445e-06,1.527786191726666735e-02,9.100241763912846407e-03,9.439770520547910437e-03,1.162177439656378493e-02
2.980387933138900058e-03,2.138034155126825042e-02,1.810924804744002900e-02,2.625086516310301196e-02,2.160649730488347275e-04,6.779340713121606219e-06,4.020562232172649256e-03,1.611288552167773960e-02,1.714093104335400602e-02,9.087427194391263854e-03
4.408397377306546780e-03,2.070202003122849702e-02,2.706669720597704165e-02,1.632780798057574187e-02,1.885448865773905113e-04,8.498005062058295071e-06,3.345120748308208838e-03,4.435596730254365294e-02,1.696945682158870414e-02,8.889467569098117444e-03
1.158433618794641427e-02,2.424049154243947818e-02,2.941613143219359849e-02,3.328918975400343115e-03,1.572519548092584751e-04,1.021510051677603592e-05,3.267553124056114637e-03,7.180840772874905187e-02,5.233615703017243867e-03,1.129706810872448293e-02
3.555930762199686901e-02,3.347500589138720922e-02,2.354107083777609924e-02,5.338632806780056229e-03,1.203106762212872093e-04,1.189450411631219803e-05,7.209083776738235607e-04,7.285165007034490048e-02,9.722114099978819077e-03,1.453269385875097762e-02
5.823303631426929999e-02,2.605597056571232195e-02,1.656293472138531744e-02,7.562382524220068701e-03,7.958197562357420692e-05,1.350048581826803994e-05,1.984283581445644550e-03,5.149805028185776290e-02,1.737178259752936507e-02,1.754252785843189721e-02
7.444572765690653238e-02,3.314440645796334038e-03,5.785301384467278832e-03,4.984608056603966053e-03,4.104859237202250499e-05,1.499853227231438371e-05,7.520412171467587281e-03,3.332144330340144206e-02,1.659526521274341804e-02,2.045375655842673196e-02
8.308217795635938763e-02,3.804627057383708905e-02,1.422778912280099790e-02,1.481582534988344808e-03,2.999055536250650042e-06,1.635613736841462772e-05,9.888014267256415440e-03,2.853987634539259868e-02,1.016703432780464295e-02,2.250653756129443461e-02
8.374731461215655093e-02,6.574559802483449789e-02,3.183316315416142434e-02,1.423724329664739427e-03,4.515706873637052621e-05,1.754354037055139680e-05,8.620590815126753445e-03,2.406194627526061017e-02,2.122517584940087666e-03,2.144680546514114716e-02
7.353888119261325906e-02,8.097427982681448810e-02,2.810939321487947867e-02,6.760476866825990833e-03,9.774215997390170668e-05,1.853439384744426388e-05,1.200098730568220813e-02,1.165441988557231780e-02,1.626820968323675412e-02,1.585102123797047305e-02
5.223362277934463088e-02,7.478565705941650488e-02,5.386584123658623956e-03,1.549323714695451625e-02,1.296826634893568763e-04,1.930634547679171357e-05,1.965418733506148208e-02,2.588447154863808206e-03,2.127876846747729644e-02,6.746750848506857801e-03
2.931205302256894782e-02,4.997990192133278109e-02,1.520169906975017346e-02,2.332684467307159087e-02,1.501920243835292682e-04,1.984151991463264946e-05,1.789817629215924993e-02,9.758729577884272394e-03,1.377363324731465180e-02,3.505800110272013197e-03
1.726445398937821035e-02,3.188876717248047971e-02,2.386293407188945503e-02,2.717699872002137321e-02,2.109154628693247330e-04,2.012688929519932906e-05,7.822007019162103615e-05,3.009260509373148929e-02,6.114609317788172529e-03,1.245755466419687200e-02
1.781020835632051574e-02,3.399153292193181353e-02,2.855825041080574389e-02,2.768430943073346001e-02,2.915444000779340242e-04,2.015452385745395412e-05,1.993714549532461799e-02,4.914433685523044576e-02,1.012770745650421952e-02,1.828274500119466545e-02
1.958575414805829515e-02,2.989197168654884190e-02,3.226500924404735599e-02,2.733372782276620450e-02,2.793559116591171868e-04,1.992171748587996812e-05,2.330443212052272714e-02,5.268947795283432378e-02,2.052749944110394617e-02,2.163116917349889104e-02
7.964900982746214719e-03,6.470522174264644634e-03,2.680956738698665742e-02,2.635267751588642876e-02,2.130010066870434860e-04,1.943098575568400459e-05,8.092220339306351040e-03,3.232766788538642133e-02,2.525792238348970042e-02,2.521393499528028215e-02
2.225098923540788295e-02,4.956910003602200965e-02,1.237069986587954924e-02,2.379866126288876851e-02,3.355110910551649069e-04,1.868993656045166935e-05,1.110683450568535763e-02,5.484255095469113897e-03,2.560343111149951389e-02,2.868663090686236761e-02
5.946054694408210717e-02,5.192428726905427144e-02,3.028444318874884324e-03,2.127573136950667437e-02,5.789702048701679711e-04,1.771101715787947410e-05,2.142790696655140839e-02,3.280208381830442693e-02,3.139940910057995027e-02,2.736653701259739169e-02
8.473511249455488448e-02,1.578222187602289911e-02,6.022025466126714778e-03,1.986758237290131568e-02,3.793103706964989948e-04,1.651114592705458072e-05,2.389667911621020172e-02,2.539687877005218988e-02,3.940482629052540625e-02,1.978133584981315099e-02
9.294266351612150145e-02,9.217034866766818726e-03,1.051191576185168432e-02,1.613416700195682493e-02,3.872589642320128900e-04,1.511123865236813267e-05,2.645540692181347006e-02,1.992984525007503345e-03,3.483914151604532161e-02,1.214997171367922756e-02
9.516005902836292829e-02,9.509701368292738065e-04,7.186599822098378200e-03,7.974599882476538643e-03,8.487945044351805210e-04,1.353563862455301508e-05,2.939185020839138809e-02,8.154359415860889040e-03,1.652913905894765403e-02,1.148329710546594322e-02
9.708702324678553097e-02,1.001476519115424881e-02,5.775975691377153477e-03,2.189987626688412545e-04,3.647881603792610915e-04,1.181146484931004474e-05,2.477361418766810611e-02,5.195316108225418034e-02,1.694060303551796600e-03,1.753760802572250019e-02
9.136148572743135743e-02,1.386873557023500514e-03,1.461997629109581739e-02,1.969906046396801766e-03,4.229632900309229391e-04,9.967901274464418911e-06,9.371973965676766438e-03,9.209327930003965990e-02,8.663427136860746280e-04,2.354025803456669813e-02
7.504887247834846065e-02,5.112910878604666476e-03,1.556740136887022757e-02,5.905142378934186056e-04,6.412031606226334867e-04,8.035445791374823041e-06,1.046638078313611928e-02,9.714673058635846237e-02,6.427159162617003194e-03,2.296423984903620680e-02
5.539028642639835104e-02,8.870141113824853846e-03,1.063571167595981325e-02,5.651704320690258652e-03,4.221141804253581028e-04,6.045124322754308963e-06,2.628159465088775876e-02,7.730004190434744404e-02,1.111926594946264189e-02,1.569513561669805268e-02
3.575153132592986949e-02,2.201581299499619573e-02,4.388331756111429199e-02,1.184589209121951481e-02,3.384825037382861940e-04,4.027687563751424405e-06,3.178461001935407176e-02,5.388903192702007572e-02,1.788968440852893235e-02,7.752106464633257144e-03
1.413019250691849478e-02,1.233290735363159682e-02,4.656779790179224610e-02,1.338923649453828760e-02,4.415094219978366627e-04,2.012839274220782503e-06,2.320028551145728382e-02,3.364954328369958864e-02,2.443583088329867939e-02,3.971880700031682476e-03
7.278058361493983629e-03,4.256951898567904249e-03,1.891939508974591413e-02,2.768986970542336792e-03,4.697735222264477848e-04,2.852048487213942936e-08,4.387126131541593463e-03,1.449380573652269376e-02,1.860542585078732089e-02,3.072570655892366623e-03
2.801188671947451789e-02,5.904761810346164860e-05,3.500865373142443299e-03,1.808106611845305620e-02,4.223919609184361725e-04,1.899794250262098363e-06,1.263638202952560054e-02,7.929313264037765943e-03,1.809523151597336411e-03,1.297799981666399949e-03
5.595935697163067352e-02,2.599577592283197972e-02,2.583382296987805395e-03,3.760422340937313174e-02,4.546856924415934587e-04,3.749783958720543521e-06,1.994369051365760606e-02,3.752673724776921238e-02,2.239599002965268412e-02,2.887921369881731037e-03
9.079905882198865963e-02,5.211509442869296377e-02,2.110751194451289392e-03,4.600645477221878415e-02,5.082937452997619496e-04,5.502803707679429759e-06,2.188197846385231751e-02,6.908394597913616875e-02,3.108800371030262175e-02,9.170579347094094669e-03
1.133376750722690229e-01,6.056886904319731812e-02,1.513480650519123151e-02,3.999198622930284081e-02,4.387322933466482420e-04,7.144199065262976233e-06,2.611577782936262693e-02,8.730870996864030509e-02,2.730310496607141549e-02,1.649826974787906367e-02
1.093676633774242485e-01,4.832865358340481671e-02,5.227428325639463247e-02,2.088533670922621682e-02,4.051320334758831947e-04,8.663684306647632269e-06,3.171450908261156526e-02,8.020524335422035689e-02,1.182768700997675719e-02,2.299928804851430336e-02
8.841020733212190397e-02,2.815748832905338311e-02,7.842111283004002398e-02,1.718835931412618194e-03,6.469008954910161410e-04,1.005584796634178803e-05,2.990435446934027949e-02,4.861738361674243503e-02,1.243471165753513678e-02,2.748271126015827334e-02
5.946460282256444546e-02,2.415505328043387329e-02,6.362944402780863762e-02,1.015930600321560649e-02,7.843517037933306606e-04,1.132017899558317518e-05,1.384061909801844424e-02,1.270350534337509954e-03,2.925877417224035174e-02,3.031356254518665846e-02
1.068911482435700236e-02,5.428264715862136242e-02,1.108419878853812018e-02,4.593998469270735296e-03,5.077476941238930909e-05,1.246044247442746182e-05,1.356323196401544931e-02,5.276516749665245698e-02,2.017282847267313356e-02,3.107614037426902759e-02
6.012466668906082251e-02,1.103786432777581761e-01,4.521638560078246327e-02,3.043008819689555638e-02,1.379752671783072027e-03,1.348468592117409566e-05,4.066386705096522447e-02,1.029084503688697388e-01,8.625166044321298450e-03,2.751110696261859292e-02
1.194118897515612371e-01,1.579897701425629353e-01,7.567623859246162821e-02,4.833413112564644010e-02,2.114182076128898365e-03,1.440627400719627350e-05,5.670144008879721836e-02,1.341140791945943100e-01,2.795346518852766943e-02,1.893832263132632851e-02
1.341706515086080187e-01,1.616729207567395854e-01,7.855258945273821403e-02,5.298088381655088885e-02,1.265943372361906342e-03,1.524323465084421585e-05,5.995794546671544267e-02,1.336204897168159489e-01,2.111499292285498597e-02,8.876044750481064047e-03
1.131812466139204693e-01,1.151139595771030616e-01,6.938503707414357680e-02,5.117139057570684046e-02,2.873119813288175237e-04,1.601501355091470855e-05,5.518232226669185503e-02,1.031742712393941830e-01,4.697368846344931147e-03,1.628347842532109442e-03
8.495898613716909575e-02,4.173452064683814966e-02,5.971858367564500392e-02,4.779591561358132595e-02,1.126318578897469959e-03,1.674244232523086572e-05,4.627880365220456843e-02,6.056476843821877870e-02,4.693456897908366947e-03,2.732696982360050680e-03
5.859763902193395463e-02,3.493370245987829220e-02,5.034316227501027530e-02,4.128752785648597684e-02,1.078525794531894804e-03,1.745303422118185793e-05,3.547308902837219974e-02,2.411077484102729443e-02,1.980356930402168286e-02,7.230949825131911118e-03
3.197220290340595239e-02,1.008750043345832681e-01,4.165070472978022603e-02,2.874888219880178050e-02,9.693444212646651001e-04,1.817930614942413388e-05,2.641377460643346692e-02,2.623844662494151728e-03,2.261009493652121893e-02,1.251792904868659351e-02
1.661696008836740027e-02,1.274832676155992217e-01,4.312354545432128122e-02,1.101148696213803159e-02,1.167822603253227103e-03,1.894533874092600440e-05,2.301344475679477711e-02,2.309641844731400925e-02,4.732100027816406448e-04,1.552148854199783892e-02
2.693085308990517818e-02,8.205273904427407006e-02,5.981179245398845351e-02,7.197263994038778992e-03,1.316635834140524475e-03,1.976777257633785043e-05,2.630127687084462748e-02,2.980705132138209562e-02,2.587268078612695379e-02,1.353510899146129383e-02
5.300260349334561666e-02,1.257979556414317440e-02,7.276709658562453831e-02,2.134760800402711947e-02,1.254765252668096649e-03,2.068220602125214443e-05,3.367063027947240356e-02,1.276983282849479713e-02,2.256717046234284554e-02,7.802001304691728693e-03
6.558938944826078754e-02,7.873270377623464711e-02,5.928256420806866933e-02,2.882089260241489301e-02,1.128424557555137960e-03,2.173938934065270797e-05,3.829048070744365401e-02,1.701881316052632556e-02,8.279414712042156704e-03,3.123953364479929370e-03
5.041570309396533472e-02,7.983967126183741381e-02,3.591365647904067038e-02,2.574818948344325190e-02,3.017278585092890019e-04,2.294640485459279965e-05,3.080584785682679780e-02,3.785195494379385572e-02,4.328430423784090930e-02,3.851406477713812011e-03
2.282998350874764285e-02,6.658420255431893309e-02,4.635558985340068605e-02,8.699126019153669703e-03,2.533094509410116577e-03,2.427099606836990515e-05,8.682926202331386553e-03,4.773206261329279027e-02,7.219721228687860093e-02,8.799185312130778855e-03
3.451865851124702542e-03,9.295385459205998679e-02,9.735434473666125521e-02,1.619312663477351366e-02,7.075127879317745852e-03,2.576517048423694508e-05,1.667885371171810155e-02,5.712310634611362375e-02,9.653672902552502821e-02,1.121320801576782163e-02
6.733790849909799571e-03,1.360257942286724475e-01,1.436969431389819862e-01,3.277821167418174669e-02,1.045846678388553594e-02,2.755724119577471478e-05,3.091786102914855297e-02,5.714182637138800341e-02,1.055099733533087364e-01,6.615461470077080124e-03
2.021673650962281521e-02,1.358505042860423673e-01,1.462147127793569368e-01,2.989603641289683908e-02,1.003356379651040159e-02,2.958594839511342135e-05,3.478010090955196976e-02,2.399748787645885825e-02,8.393092781481070741e-02,8.210231513267648561e-04
4.289763439473862766e-02,7.953339480921710336e-02,1.111014892742627908e-01,1.283532536107692343e-02,6.222003742187530440e-03,3.160909516676047373e-05,4.070496437346857871e-02,4.248168602160477120e-02,4.103733696636882589e-02,3.391166380235951378e-03
6.585821526593559072e-02,1.460711109643253632e-02,6.805752979226828425e-02,3.739879567790811970e-03,1.663705499341323847e-03,3.377048100570705661e-05,5.052865343294197370e-02,1.031599149711838054e-01,9.173988635080789281e-03,7.286913358093854596e-04
7.295934494000935744e-02,7.354476417390737840e-03,3.684128121843207454e-02,1.060638833855970589e-02,1.443002843534404740e-03,3.659548406386354164e-05,4.966560685442261702e-02,1.148762154687755915e-01,1.018430074236617924e-02,7.345277362616107163e-03
5.666126857791280863e-02,1.477198026023760630e-02,1.556232183980242600e-02,9.756594645339539129e-03,2.567177918804480329e-03,3.977977864787053897e-05,2.829121116988392304e-02,7.982512076512493504e-02,3.300898692863186989e-02,1.266520540279446501e-02
2.766446468088862992e-02,3.489268585611618456e-02,1.160174547014515556e-02,9.061933180041004121e-03,2.465459687429135890e-03,4.216712348535888555e-05,3.189043810461744937e-03,4.366241786951810533e-02,4.839187655610032585e-02,1.517197977713713626e-02
6.591021621273515999e-03,1.409688529580928676e-02,5.131136468170408721e-02,1.462363042931299172e-02,2.258925161566689450e-03,4.433595981304887230e-05,2.534901499401095298e-02,3.931736863837313745e-02,3.991299694412277915e-02,1.407378713608470333e-02
4.679793358883135683e-03,4.204082691087150658e-02,8.855181352966157160e-02,2.777067655430343063e-02,2.508712552806235431e-03,4.871503328379403242e-05,2.676652708366777933e-02,5.356359988727024679e-02,1.358815250565050328e-02,1.041188817824791231e-02
1.327723877994742979e-02,1.039226235486592209e-01,1.082694538943218820e-01,4.544571519128529774e-02,2.826755439727163775e-03,5.406343951084223806e-05,8.562729342068746419e-03,5.486965925854849629e-02,1.837132522706109994e-02,6.990923772995256795e-03
1.536294763461604380e-02,1.539468189832463862e-01,1.170557544907704361e-01,6.079593423648225331e-02,2.548356992778964391e-03,5.508101830122955376e-05,1.549527390590564602e-02,3.055023484951505802e-02,4.975426660385623423e-02,3.867030506891000127e-03
8.552709838963229103e-03,1.920100764518765379e-01,1.258039518197399675e-01,6.599016059377264820e-02,1.869764740358374321e-03,5.418839306786089020e-05,2.500349829254363068e-02,7.618827763933776372e-03,7.478681549526805528e-02,2.481559969928822957e-03
8.797156719433082972e-03,2.182344777357621002e-01,1.247059265881464429e-01,5.717239443796153647e-02,1.661589225036432622e-03,6.266830177675894052e-05,1.339265197981051592e-02,3.603411813074074155e-02,8.369363590381878604e-02,1.272250386432168846e-02
2.576392290348946193e-02,2.194096725636294765e-01,9.740935707231190843e-02,3.646515371590498822e-02,1.983128532161943219e-03,7.553965379455929944e-05,2.070696618496304861e-03,3.768972667632569662e-02,7.180273023387971632e-02,2.191794957076059411e-02
4.508900861465613835e-02,1.791693682723941305e-01,5.257874422876356035e-02,1.142423449929432303e-02,2.034651986963006282e-03,6.846645610979762713e-05,3.713725988925092609e-03,1.451360561509026231e-02,4.824942697708357181e-02,2.573727661497273930e-02
4.564584519366455401e-02,1.060869948748578012e-01,1.961945675896995672e-02,6.365042630066836821e-03,1.785014302502827823e-03,5.133978326318435089e-05,2.947911468066576057e-03,2.109975690017889399e-02,2.999514714801771592e-02,2.493366623864286952e-02
2.606252971761006260e-02,3.812666234979936869e-02,1.162733878859283088e-02,8.564829411304687723e-03,2.027426960649867087e-03,7.628537029233117296e-05,2.266828940176913564e-03,5.491818051606919826e-02,2.744948363200398755e-02,2.193158346315025875e-02
2.342313670770211458e-03,8.293109759540931783e-03,1.116484494266067884e-02,1.222865762656904273e-03,2.786285134669902724e-03,1.234365064578277584e-04,6.966095863476283803e-03,6.552141719161055922e-02,3.733693794119737064e-02,1.723372415075867178e-02
1.385672766763530912e-02,1.724058040993198954e-02,1.294163354114289191e-03,1.259082050153599412e-02,3.220999042650173321e-03,8.072073337298319080e-05,1.342305727731851403e-02,3.740294728463570278e-02,4.941694461082562356e-02,1.065135693582733994e-02
2.181831135219863479e-02,4.627579900380654476e-02,5.660466924797237336e-03,2.227761990957457736e-02,2.986160036532081903e-03,1.272873673767939365e-05,1.016356165183942943e-02,1.053979192955767710e-02,5.853738169836612826e-02,3.105675933237104797e-03
2.214226140845744137e-02,8.074261205927081575e-02,1.174836907556832052e-02,3.371576388330153884e-02,2.675161175086445027e-03,8.585683041597430565e-05,2.905688038344670342e-04,3.577014892598260470e-02,6.515830667378526286e-02,3.794908604944589262e-03
1.414234418154384013e-02,1.071733715872521669e-01,4.454526704973935797e-02,4.329371024237586851e-02,2.975815529102875806e-03,3.083120933050298657e-04,1.039489140984753944e-02,1.713884461269091219e-02,6.340818306359422007e-02,8.431019517356688406e-03
1.145603328892786515e-03,1.060367181404503339e-01,5.978675720263230270e-02,4.001506618376677454e-02,3.528366935438954390e-03,9.156053973676076224e-05,1.100125350699457903e-02,2.866396936089459641e-02,4.191526475395541268e-02,9.625881337962436876e-03
1.109330501067200270e-02,7.535203323661536501e-02,4.803763777475904273e-02,2.250790564350886591e-02,2.806003899487553507e-03,6.875582368353393235e-04,2.874600087257025548e-03,6.914950716254206209e-02,4.533839777762123380e-03,8.002916361602415221e-03
1.904246989181724442e-02,5.029391973043198516e-02,3.611349898695917493e-02,5.110970144646488633e-03,1.235398305859956630e-05,1.159501513477025287e-03,2.481033957366897066e-02,7.881199169439294383e-02,2.484873780682931091e-02,6.065540239988511176e-03
1.853238696176949529e-02,6.765033129635929232e-02,4.443984523544294851e-02,1.351420088551572637e-03,3.317507634928123887e-03,6.858372416403541155e-04,4.020666207169181633e-02,5.184458953291916361e-02,2.831913012078558431e-02,4.824341820035635969e-03
2.723018973442093652e-03,1.150235693385536356e-01,6.068711950157780477e-02,8.889696472095431207e-03,4.686448668225280841e-03,9.568721492173507925e-05,3.991597852432799548e-02,6.459511794913841594e-03,1.114832962380848773e-02,1.418586293110810689e-03
2.916415817420873330e-02,1.382016145237936755e-01,6.580838996368228166e-02,1.410747281089803559e-02,3.852937318164540142e-03,3.149973880900235708e-04,2.722037429292029076e-02,3.223474081897997889e-02,1.169127365833896870e-02,7.207780918659168271e-03
6.365268105445802405e-02,9.685947862442141620e-02,5.885725170864452432e-02,5.226393389233893565e-03,2.354192737629072583e-03,9.405004375942090078e-05,1.034998953596460991e-02,5.854929434809540145e-02,2.954568145250663358e-02,1.915914635846011418e-02
8.114096482284414991e-02,3.676387864396333735e-03,4.744956291659202519e-02,1.980123531331037801e-02,8.750037277235965093e-04,3.358354584470689755e-06,6.661948946325587338e-03,8.354921964749936758e-02,3.337399606550254388e-02,2.904898967803360571e-02
7.394857207675797905e-02,8.511491736062774816e-02,3.662454206900693510e-02,5.141473628541279317e-02,9.862257408691074614e-04,9.343027655712610896e-05,2.337195305005189405e-02,1.061390871353435628e-01,1.750027377811106538e-02,3.392819598110620449e-02
5.176315058512546974e-02,1.138465410344006307e-01,3.303913216402469544e-02,7.330720239467597432e-02,2.878294485026637768e-03,1.403832288407227122e-04,3.812612357584199696e-02,1.055517881690838378e-01,8.293036101967479756e-03,3.465945947409120043e-02
2.813807881522364940e-02,7.356990830373036361e-02,4.288149774758670540e-02,7.440442162401633697e-02,3.776677752566068910e-03,9.308067493007428231e-05,4.744325924888050106e-02,7.009428029433348306e-02,2.098622957666478397e-02,3.178711698801792163e-02
7.886239265609301663e-03,1.253847772465255771e-02,6.060434508063838877e-02,5.780954429563881641e-02,3.676192619983777426e-03,6.607279275019572952e-05,4.837252171120406952e-02,1.906173544065873499e-02,7.610981053498402926e-03,2.412998435785069368e-02
1.019476951638294444e-02,8.337022000150309808e-03,7.011979520005891253e-02,3.662673813466496564e-02,3.532616579771051188e-03,9.055021069118245590e-05,4.142289676558012779e-02,1.490854260759454965e-02,1.896664063027436731e-02,1.305010302373851676e-02
2.580106439750861486e-02,2.359256111927761704e-02,6.000248337958970224e-02,2.155138104217852596e-02,3.706292217857190974e-03,1.094215907614995556e-04,3.333694425981988813e-02,1.813578433385282240e-02,3.499965707128989412e-02,4.013855521301860386e-03
3.729410105819808835e-02,6.331998626272219988e-02,3.322868536704178671e-02,1.316192326947075719e-02,3.762318148310930550e-03,8.847708674541599904e-05,3.349333831553377716e-02,1.602721583995395972e-03,3.436234450432205934e-02,2.097217931512479743e-04
4.638727732421878136e-02,5.731136995157034425e-02,5.887415031201248192e-03,5.225712984612400705e-03,3.669101702022459829e-03,6.197653418492031464e-05,4.235208584884230659e-02,2.033278884258321595e-02,3.152581944011617621e-02,2.450805717518045324e-03
5.852220641082119673e-02,1.173087011164097165e-04,2.868790792934849260e-03,5.607200876029672099e-03,3.931839294179000945e-03,8.706005075420853107e-05,4.739358588054277954e-02,4.318179491247482044e-02,3.435935682083883502e-02,9.736804203170556712e-03
7.542962824504671759e-02,4.971872210484608312e-02,7.809931340965120712e-03,1.471310893076959933e-02,4.272915433163826382e-03,1.325833977061565013e-04,3.745314936479765544e-02,6.075333124576200172e-02,2.908471079011053922e-02,2.046356472499329809e-02
8.848684911160518973e-02,2.256947148895819058e-02,1.140027174279344656e-02,1.457776103455135815e-02,3.482864918791588830e-03,8.403927411180512599e-05,1.736245343591638277e-02,5.839401835289486503e-02,1.083904526687765133e-03,2.770275664800772586e-02
8.753617132239752130e-02,6.884677271514198782e-02,1.518815447301444937e-02,2.245550369322547608e-03,1.362915374395229796e-03,1.411416601570711281e-05,7.990023864381558261e-04,3.583707806138395485e-02,5.630026213290831999e-02,2.801777695747422608e-02
7.723302778510550415e-02,1.325324923309475489e-01,5.851328062474340369e-02,1.975507570232048690e-02,6.998345185454655538e-04,8.218863438294709959e-05,7.250820707684384886e-03,2.094346202613054167e-02,1.221388631260996449e-01,2.533217730156854530e-02
7.213929917648427559e-02,1.136069710165725083e-01,8.672321206854205489e-02,4.566599582358621401e-02,2.331935069229529485e-03,3.023161673908333555e-04,1.216707396113541478e-02,3.364851398765797419e-02,1.772979149696071455e-01,2.435287714988216765e-02
7.285649182505046784e-02,5.703472830425282414e-02,9.077747051855553084e-02,6.698120920671574163e-02,5.238145119342826027e-03,8.249162850603917151e-05,1.742975235838852693e-02,5.133382794153527884e-02,2.017017793487275168e-01,2.398588029449030476e-02
6.233958262700926151e-02,2.979858794991492241e-02,8.706405712929465857e-02,7.473259983621387270e-02,9.726338465595681104e-03,6.992294819599852640e-04,2.017818644156370300e-02,4.106147248204067290e-02,1.906664840231060143e-01,2.032621583453854061e-02
3.086188054959497842e-02,3.325987132034493449e-02,8.484820838789863817e-02,6.561294509758446025e-02,1.260928064507076292e-02,1.172768119817157312e-03,1.809009464761845640e-02,7.515802603346749544e-03,1.577024975901802906e-01,1.329948475522743818e-02
8.771414161967725637e-03,2.244419000528303024e-02,7.084761474378833968e-02,4.648576301872524297e-02,1.103859678602603367e-02,7.003801466975560254e-04,1.312961901668041956e-02,2.445860870406069143e-02,1.180635078654059533e-01,6.790867584659761487e-03
3.537758795928205857e-02,1.587991027398372515e-02,3.631350278944413257e-02,3.105649382525074026e-02,6.400147158388773579e-03,7.949143944993670107e-05,8.013414049861011107e-03,4.923629373753964089e-02,7.936039540596144526e-02,3.763737895747666651e-03
4.041962896848437514e-02,3.459101930465810493e-02,8.486224482187365234e-03,2.861511551642740778e-02,2.489176073519111868e-03,2.972855066363644773e-04,4.546809753131944576e-03,6.529266663174086716e-02,4.961598173051095378e-02,3.299861643700404031e-03
3.404314682153990190e-02,1.345905017388188823e-02,2.735803659015415695e-02,3.540094153144198591e-02,1.570501419281581865e-03,7.613703762869445117e-05,4.993251552604045622e-03,5.367315860592820204e-02,3.796397380589505710e-02,1.752447169212878811e-03
3.342440249180705231e-02,1.039033836956166634e-01,8.721215891690380084e-02,4.011514286393218914e-02,3.342996406624194807e-03,2.090927910909466799e-05,8.465317210132165121e-03,1.323269207779794246e-02,4.147658349783196058e-02,2.705540067707683845e-03
4.322968829964349974e-02,1.672802785176023821e-01,1.345442341965713273e-01,3.680900283600092859e-02,6.161273895434690902e-03,7.427444406924029689e-05,7.362114183690351456e-03,1.853677813736366933e-02,4.470635309928294721e-02,6.448692599125504209e-03
5.091387965477803951e-02,1.785125625132879257e-01,1.332703098026730704e-01,2.807471619735636345e-02,8.278246049905292961e-03,1.188772950750337096e-04,3.095849342868566348e-03,1.967814327766577789e-02,3.770127213054427773e-02,4.144933210369011224e-03
4.584504490417236344e-02,1.694779696564861771e-01,9.863453570063063225e-02,1.795441782200895078e-02,8.569953111945308871e-03,7.372018077101898201e-05,1.271203836177889172e-02,1.811273790290393940e-02,2.416268147493625534e-02,3.561029697397887980e-03
3.378183306844832756e-02,1.606343559665502907e-01,6.033171528433067810e-02,7.526385014722724795e-03,6.726728488097170715e-03,5.082708622805101210e-05,5.205342556873013803e-03,3.703986733461080844e-02,1.002181324667066400e-02,9.731457448099178204e-03
2.530343902143006307e-02,1.385531298648322862e-01,2.611377205560239459e-02,3.376221574799366954e-03,3.235525105530418551e-03,7.001483025267411721e-05,2.006471533404986796e-02,5.211992970864789271e-02,4.976071425064845614e-03,8.975226420518907233e-03
2.119852640991272408e-02,9.940967239232623154e-02,8.501035236134962814e-03,1.455262958660134137e-02,5.451957242266665393e-04,7.910757575074794023e-05,4.564826627101708362e-02,3.591523310934728597e-02,2.217747973402003220e-02,2.805473442612287267e-03
1.686918532237261653e-02,6.334821812489890847e-02,3.890078439799533883e-02,2.575152883120269964e-02,2.982252492645714927e-03,6.816514998581214976e-05,5.506578577661154494e-02,2.242536707685338117e-03,3.911283047357122511e-02,2.950554195143569904e-03
1.095450039874889918e-02,4.066604937487114380e-02,5.453280836206435278e-02,3.644303738654684766e-02,3.526825342231018623e-03,6.147664175029181582e-05,4.529004266993832961e-02,2.237898504195400678e-02,5.224284994783366665e-02,3.977031130312957269e-03
2.969795301564693256e-03,1.720582509699174201e-02,5.658184932081049279e-02,4.539631862885096236e-02,3.072430972147818101e-03,6.397956888867339757e-05,2.376816276694592583e-02,3.911617867564594342e-02,6.051207905227704020e-02,4.618369802653976910e-04
9.635187035955289012e-03,2.188806603196118833e-02,5.920139113278215931e-02,5.160737279691651747e-02,2.741525886356408273e-03,6.435200933441999284e-05,3.296693743718020174e-03,6.778561723369803949e-02,6.535926565072590344e-02,4.174357368249392852e-03
2.525832608613522157e-02,7.262066406739578484e-02,6.841755612685385124e-02,5.514033080729913855e-02,2.858735197696195621e-03,6.013949571931071473e-05,4.174452723733058229e-03,1.159580230446391608e-01,6.906840774983914744e-02,6.680887430417134162e-03
3.245441251155310736e-02,1.159146460006609952e-01,7.038406783901973718e-02,5.627162586865377264e-02,3.026378704799889165e-03,5.661450702142452335e-05,2.449160561098570523e-03,1.644556460475561921e-01,7.282034463864485441e-02,6.547692467395116456e-03
1.751845142675042405e-02,1.283966294941148722e-01,5.042583826723642804e-02,5.507768677115965072e-02,2.689382907466383865e-03,5.499710293041783975e-05,1.331220921483602590e-02,1.752093454956547836e-01,7.597076214972671437e-02,5.870017378741838182e-03
1.916470825671989439e-02,9.558060786630850902e-02,1.569628923506578497e-02,5.291729354457500034e-02,1.834156790230566728e-03,5.284503820473044884e-05,2.143375312136875169e-02,1.236537241410620436e-01,7.801164997750879848e-02,6.956109750656195440e-03
5.901801808406176991e-02,2.777787378045417505e-02,1.358633984593544605e-02,5.176241816529618400e-02,1.229906471424383916e-03,4.957404814675780394e-05,2.895446107394324467e-02,3.411261932010604264e-02,7.940086239138226254e-02,9.888256997514733790e-03
8.331292552719006539e-02,4.121530306001931765e-02,2.955281560129170357e-02,5.016847418934582137e-02,1.543721664519403331e-03,4.634237204526598492e-05,3.564138348001855139e-02,3.240551236959924447e-02,7.869841124233323271e-02,1.235806470651696146e-02
8.990282575079658334e-02,7.925073325986388417e-02,3.836640883212050906e-02,4.369643937659532101e-02,2.399892521085760302e-03,4.346411115141829261e-05,3.122168660724534972e-02,3.816414891552617067e-02,7.284649462621071991e-02,1.247170211350281943e-02
8.521551556547234119e-02,7.615294592256437178e-02,4.135208202384794279e-02,3.202619497031126972e-02,2.761318408407062962e-03,4.043120814915328152e-05,9.019246620918585505e-03,4.896715824232240888e-03,6.307401902654909132e-02,1.134218844925239354e-02
6.971760406916745201e-02,3.958419126138151140e-02,3.124612834497253813e-02,2.144980909606418462e-02,2.121384306250925257e-03,3.712431457699695775e-05,1.769548867816785748e-02,1.879535114946231239e-02,5.607944361771805691e-02,1.120128427417988771e-02
4.260311487991640805e-02,1.564544293638970435e-02,4.803362477044607198e-03,1.765044542684066770e-02,1.189225095716234118e-03,3.381662061686488180e-05,2.600390866723719177e-02,1.354453022098083166e-02,5.668356720459435255e-02,1.147825087481136284e-02
1.268933862161683405e-02,6.509900673650652336e-02,3.021313987449574315e-02,1.954174124473486568e-02,1.073755447727793230e-03,3.060617484431015037e-05,1.121106907246135695e-02,4.195439673899074157e-03,6.223353648665255755e-02,9.485279193926086233e-03
7.044264228325434682e-03,7.669198458441270350e-02,5.522872884728667608e-02,2.189355288817604328e-02,1.539080741430349803e-03,2.740636090010854973e-05,8.734148003085161205e-03,2.211886361609037566e-02,6.600635330777347709e-02,4.898708779071531995e-03
1.405772210334548140e-02,4.046996640522852740e-02,5.158410999871163027e-02,2.157061539878230016e-02,1.222624990659222470e-03,2.421076902439123245e-05,1.951237653805226388e-02,4.582198662140930800e-02,6.632232436604969250e-02,7.279258949486175270e-04
1.888512772643066717e-02,8.461977331178921827e-03,2.348600312146926355e-02,2.017790645623446580e-02,1.240010511485418305e-04,2.110005235918407411e-05,2.508542011705871058e-02,6.927167599387337726e-02,7.007871217955953524e-02,6.738615984091917647e-04
3.147456477289966442e-02,2.581914334792748469e-02,3.344955808076883769e-03,2.139692001382438938e-02,1.072764436631215481e-04,1.811715348494586240e-05,3.078312339894456393e-02,6.922464978565272264e-02,8.020090734754423134e-02,9.899283807747981390e-06
4.872634124014051799e-02,1.412347807737030295e-02,1.893085464614564783e-02,2.599814748796519179e-02,1.009095786771241690e-03,1.526176436104387200e-05,2.897526894777792406e-02,4.067311644813247778e-02,8.118767749857062899e-02,1.564888435545943885e-03
5.924082592558855415e-02,1.221594790204471107e-02,4.006680620619235134e-02,2.920161140277298395e-02,2.021994987354505929e-03,1.254792422769891533e-05,1.153454758690199838e-02,6.804312596605128875e-03,5.274998849631823417e-02,3.839986847834429493e-03
5.729597576734964115e-02,3.432222457580081515e-02,7.216803090395447484e-02,2.352498316805172116e-02,2.031979405382649487e-03,1.000662208796032637e-05,1.403240409422748525e-02,1.452715980711546256e-02,7.788665754799766264e-04,5.143741795362521789e-03
4.878073486152247756e-02,5.338476043456091835e-02,9.224192467127131922e-02,6.621980939105980013e-03,1.693811200335662050e-03,7.658243133046143265e-06,3.087699738752243059e-02,3.038474171508859234e-02,4.302544958413507398e-02,2.319766703855084041e-03
4.619814464401067466e-02,4.227956555865933913e-02,8.212375419277857802e-02,1.320151293610648952e-02,1.595406275009627435e-03,5.510492432712860050e-06,3.252900379830248045e-02,5.542236158721130374e-02,5.654433640600364103e-02,4.559125401746933273e-03
5.772392223799263644e-02,2.866097716281336069e-03,4.987458097265581869e-02,2.285279380392721965e-02,1.566963565883931287e-03,3.570856644428541751e-06,2.843630966911228630e-02,9.117327216143114588e-02,4.599258535774600892e-02,1.197964543809918944e-02
7.632507585554453022e-02,4.422969455471752187e-02,1.069239975843469352e-02,1.706493110539915314e-02,1.587969417781143287e-03,1.847429337967942133e-06,2.743644294371552078e-02,1.235980603274427492e-01,2.811293488692981346e-02,1.777467914527718421e-02
8.258335996240889765e-02,7.845146828400739736e-02,2.895628356530273104e-02,2.415785889499064837e-03,1.767316343333716171e-03,3.429089634348058760e-07,2.485112499367955405e-02,1.332157780640412514e-01,1.025726039886551942e-02,2.160014622258031938e-02
6.573327407926043975e-02,8.961112910084979843e-02,6.281909901214642600e-02,1.097174870137404210e-02,1.565550153137943486e-03,9.459120810214712358e-07,1.468786326461759412e-02,1.104539698285795513e-01,8.637398591081341115e-03,2.275943479410449596e-02
3.754858550977723669e-02,8.081417856266663591e-02,7.896826476904479641e-02,1.865308589266982675e-02,5.453828491546195215e-04,2.025267980619704770e-06,5.105091036609947681e-03,6.586919133088482703e-02,2.842451011478048725e-02,2.227139612034158972e-02
1.648600526053124390e-02,5.977088664514288580e-02,7.037157574662598891e-02,2.210905990750282671e-02,4.683598399266824652e-04,2.903945795424917942e-06,7.677026271750569952e-03,2.075995488505516517e-02,4.364838897293164821e-02,2.363182394550399079e-02
5.081574691842723895e-03,2.804135316693908905e-02,4.526561629156255345e-02,2.155282952577207076e-02,5.767971625263374272e-04,3.594310052501225056e-06,1.904126599888712051e-02,1.275781915955589117e-02,4.668807382869236133e-02,2.721630383805234699e-02
6.312459181708223420e-03,1.181659222907686067e-02,2.125037420309221561e-02,1.235634660900386886e-02,3.800191855415042475e-04,4.112108690476226440e-06,2.840295678415658345e-02,3.409237917718094257e-02,3.349349440631196884e-02,2.798431879536067771e-02
2.275708616062802753e-02,4.516674610550327346e-02,6.794272186323741664e-03,7.484997801554805347e-03,6.640205544109472474e-04,4.475462842899281606e-06,3.472313357361594272e-02,4.330900974745573173e-02,5.458649219087240850e-03,2.265087225035742474e-02
4.141627013360662385e-02,5.743235686133327245e-02,5.523937521229299770e-03,2.895015365679980482e-02,7.944597302087315523e-04,4.704330672819403885e-06,4.020488167286546954e-02,4.260849093916883185e-02,3.110063826929297323e-02,1.509670235102879288e-02
5.415941156862658090e-02,4.811005279216906683e-02,1.892756139887431105e-02,3.775468412187425044e-02,4.328878177164367357e-05,4.820287652048615382e-06,3.715170466600603572e-02,3.792365176831061224e-02,6.316542548068319884e-02,1.089364697836592115e-02
5.198444010604456184e-02,1.923739390974329999e-02,1.778908441040993882e-02,2.900138569252745657e-02,9.627064917326702293e-04,4.846033941274320983e-06,1.923221771189349838e-02,2.926454944371911435e-02,7.530793676377713075e-02,9.935365393953926594e-03
4.220532531356437772e-02,2.874675810206872573e-02,6.401046989369256306e-03,1.178040318005831207e-02,1.234380051918115839e-03,4.804713406377600150e-06,4.186356656525269497e-03,2.176695405571133640e-02,6.406021050022998875e-02,8.172493606495091420e-03
5.151582286541601940e-02,7.415162682602528810e-02,2.895669796402943613e-02,1.039747234439251586e-03,6.125861131134446424e-04,4.719339980827330583e-06,1.974287069934883149e-02,4.543499625031753586e-02,4.192956310468794190e-02,3.897412384360421367e-03
9.001052887678108461e-02,7.955316947354895696e-02,2.321822979369392304e-02,4.797846873451879109e-03,3.213660258698361255e-04,4.612314450672854580e-06,2.507648141899593286e-02,1.224095636782693286e-01,2.116638521166365472e-02,1.612190213422594158e-03
1.272266417378320191e-01,4.256255306131907779e-02,4.076268645327963888e-03,4.461723465440276502e-03,7.431196332321474748e-04,4.504911906343118273e-06,2.285206077879945938e-02,2.155918893148191517e-01,3.579735635929687070e-03,7.584623655226958167e-03
1.252206964744577433e-01,8.944400539940139394e-03,3.479140129004441601e-03,6.152733703955689387e-03,3.255782435958005732e-04,4.416764654403272922e-06,1.286181472845142337e-02,2.555358093853135060e-01,7.963613361552004943e-03,1.319666780623470100e-02
7.996837097577291775e-02,1.377545276407865157e-02,1.680567610448928384e-02,9.582756356146080942e-03,3.152299854384757070e-04,4.365414278209164701e-06,3.516880774139406664e-03,2.168963718610669444e-01,3.164520278628485828e-03,1.499485842446045790e-02
1.812516459667219693e-02,4.094982054492259105e-02,1.444862399441268833e-02,9.533847068237484915e-03,4.519130608268142561e-04,4.365938017676698159e-06,2.023658996580830760e-02,1.323995637678033466e-01,1.949624360393457240e-02,1.044104185777128269e-02
3.008132858207110405e-02,5.947355169691790483e-02,4.885239525224838002e-03,3.482073779789547196e-03,1.813179100239075336e-04,4.430629100445451749e-06,3.003124199749573203e-02,4.476864928222230172e-02,4.221759425718512454e-02,3.320166112954702712e-03
4.899228617655394802e-02,6.686353800102434741e-02,1.298973443610161073e-02,4.272653648196939220e-03,8.510772759240912977e-06,4.568740294289894308e-06,2.890084776965544042e-02,1.947718362391016519e-02,4.527450899508467241e-02,2.142792515456037362e-04
4.245503060715037635e-02,7.400595721582467479e-02,1.089506252505343959e-03,8.088102297308240318e-03,5.493452911485381191e-05,4.786309861120545819e-06,2.126941461997388164e-02,4.515069650782438382e-02,2.849592470665088945e-02,5.219251664164948571e-04
2.400905317552022231e-02,7.421141385310942029e-02,1.725974121109821041e-02,9.166889800630528135e-03,9.103536670166873022e-05,5.086072710323196219e-06,1.708450599090288388e-02,3.343084968028774140e-02,8.229637389908730019e-03,3.354419036386657553e-03
8.630937300372759635e-04,5.352582974353509160e-02,1.837863623443423272e-02,1.283760285752251484e-02,3.394579615961912226e-05,5.467451930394831351e-06,1.678694003002845908e-02,4.802683536566907524e-03,3.351312951907201021e-03,1.012755931642970834e-02
2.437590474250196301e-02,1.781587315571079091e-02,1.232447281488408333e-02,1.793009650093007473e-02,1.847339230234628597e-04,5.926630593252955007e-06,9.314511506947039179e-03,2.121896530687871624e-02,1.087975182521245393e-02,1.551988604923728622e-02
3.947592153228090400e-02,1.003167946957500209e-02,1.332577134230904410e-02,1.677103023902638129e-02,9.869180349715822023e-05,6.456704472827738883e-06,6.671653256795794310e-03,3.858600315135377046e-02,2.543270724359585414e-02,1.525185942351800494e-02
2.987646882311799021e-02,1.397320000632464032e-02,1.846475086218641454e-02,7.936240406743861470e-03,1.133259994957098332e-04,7.047911296846410590e-06,1.601213913015145027e-02,4.343417985086611699e-02,4.234230285864747090e-02,1.110420825498291582e-02
2.669243825286990619e-03,4.871685757905794278e-03,1.533449440454641086e-02,1.808305374301040535e-03,1.220039709134710038e-04,7.687929037236263636e-06,1.083092108362904496e-02,3.065542147480262991e-02,3.902006369571790756e-02,7.326936910018193652e-03
1.748789281956205852e-02,3.651035076551048530e-02,6.247905111767060662e-03,8.503199303175154600e-03,9.124986052267047756e-04,8.362235542156355218e-06,1.858837413285165975e-03,3.606082157457687117e-03,3.796206072365634204e-03,5.196689787673749138e-03
2.055188278906024818e-02,7.001373172469088635e-02,9.775164676597695654e-03,2.404174913456990845e-02,1.383699195710656185e-03,9.054520997389493828e-06,2.033140765985423214e-03,2.853446871076816341e-02,4.261632813468942821e-02,1.711427990240686715e-03
1.869909370555404571e-02,9.333608619803714090e-02,3.537054353087040054e-02,3.472650602847735662e-02,8.961462298192971734e-04,9.747142817880258685e-06,5.053440832135052893e-03,5.828568934931692425e-02,6.840809025637359375e-02,6.962455178072318382e-03
2.027787270858739596e-02,9.769677598112200267e-02,6.930212594802423465e-02,3.352570051068968354e-02,9.161481278996846153e-05,1.042161130196655830e-05,9.018649050449644572e-03,7.682761343043796598e-02,6.549790193724402965e-02,1.966674894907219015e-02
2.084701860380610075e-02,9.152379592623405280e-02,9.251860549235638165e-02,2.492224382716299799e-02,1.391741582064697543e-04,1.105909400420433016e-05,7.368961519018984302e-03,7.971947686549052392e-02,4.871470307044899889e-02,2.849440455649584689e-02
2.261726540291454646e-02,9.996950230637191570e-02,1.007540873366393891e-01,1.558154948102310339e-02,8.028097911282831411e-05,1.164092653747037246e-05,1.586032277849695965e-04,8.097597061746492075e-02,2.968295477690021181e-02,2.606413483166635306e-02
3.570322076693419056e-02,1.333784748283451949e-01,9.814879332359374708e-02,8.813842459636855170e-03,1.373826305433993610e-04,1.214911728220457802e-05,3.896730611020836083e-03,9.781920269934427092e-02,9.744392330948266345e-03,1.463643743035822689e-02
5.516017238727402572e-02,1.622805987227271818e-01,8.348645385808782515e-02,5.746772890354398533e-03,3.787850101436915774e-05,1.256683362234685311e-05,4.690275851643318193e-03,1.186823830407054553e-01,6.779855888356823429e-03,4.408074754408363577e-03
6.277812606292750008e-02,1.462813327829670940e-01,5.634767664725459646e-02,4.078951847514365042e-03,9.921976859673226588e-05,1.287885790102951922e-05,1.225026156259863448e-02,1.147187411472499197e-01,1.138566193710485036e-02,2.546094880692185460e-03
5.613293532494589844e-02,8.615001891950177515e-02,2.743102555509234486e-02,3.256854627626212285e-04,4.122694238329878500e-05,1.307200211227432389e-05,2.700999590048081336e-02,8.353453237970545620e-02,4.193452930418159474e-03,7.445490842284806059e-03
5.095338724682686726e-02,2.375614350941035111e-02,7.262156269413927445e-03,4.809153057645315643e-03,2.866343609159271565e-04,1.313547136547671443e-05,3.503162972722832780e-02,5.216762933864658308e-02,5.294809955710490929e-03,1.358229745870903095e-02
5.262392727154299038e-02,9.038747311033726306e-03,9.690882661976199172e-03,8.239674606537201323e-05,9.203675863291196479e-04,1.306116742928511626e-05,2.707746702611038905e-02,3.766327295247529766e-02,1.063133646865058006e-02,1.777525897392182724e-02
5.020674186136620670e-02,1.963754181754236855e-02,3.555149737150922057e-02,1.635531178811101480e-02,2.161295489405994606e-03,1.284392516446698386e-05,9.485648605468483680e-03,3.114617162297896383e-02,1.150923152961143107e-02,1.940564154170238559e-02
3.950547834678574260e-02,3.527262030297019513e-02,6.730030279542242866e-02,3.236251813045575715e-02,3.076540520473935222e-03,1.248167631815606172e-05,6.300172539177129744e-03,2.075087882186090610e-02,6.974448552076496777e-03,1.772860397960658932e-02
2.920563010717287453e-02,7.239203255658074876e-02,8.779499042528915442e-02,3.657823727007686321e-02,2.391432993646139954e-03,1.197553692600037805e-05,1.549851948769969713e-02,9.400356268547587282e-03,2.716249664654196705e-03,1.235587043571757457e-02
2.394214119521999307e-02,1.225509916098905111e-01,8.825616073091062386e-02,3.040372699008292781e-02,5.911872699143561278e-04,1.132981642779206550e-05,1.967852505998734028e-02,5.786860485142461367e-03,9.825485829810579747e-03,5.880441852444224723e-03
1.947350387013596987e-02,1.592565487142151293e-01,7.710173732353385601e-02,2.230107862786587930e-02,5.326935657530589745e-04,1.055194850489771126e-05,2.030184597482016101e-02,9.542552721696776277e-03,8.023002599419201339e-03,2.113366812979886305e-03
1.361354050501376554e-02,1.629822538139870380e-01,6.215143956209694120e-02,1.551703751666297718e-02,4.172062040131485953e-04,9.652345540459555528e-06,1.612609110076490895e-02,1.183941269148436858e-02,6.509355145282007434e-03,8.103109630428267582e-04
8.264892426151911747e-03,1.383281048495466070e-01,3.701947510809484865e-02,6.830982262071997116e-03,5.160873287131162229e-05,8.644180438572475421e-06,7.123426632617546432e-03,5.926852325431024825e-03,1.923042705188111184e-02,1.723160013439984208e-03
1.439167378486253500e-03,1.006155570918038505e-01,2.700795090674801627e-03,5.153911229018491406e-03,9.482301325270642398e-05,7.543101276264132623e-06,3.159744042618006267e-03,9.084651434995380873e-03,3.695245566039773166e-02,5.743831352032749762e-03
1.290839649055393161e-02,5.867607245014951761e-02,3.857514058030200171e-02,1.362612283529889695e-02,2.488884870865755070e-04,6.366885861747638117e-06,1.177665939431734102e-02,3.046611650983769085e-02,2.944223099847530917e-02,6.557770967630631963e-03
3.441583048847649678e-02,2.493961240575585589e-02,4.193808985559308727e-02,7.609516555754231026e-03,2.137546587859305927e-04,5.135044694592879537e-06,1.850010542032395899e-02,5.063753010301477037e-02,1.354500830873898477e-02,1.709821600600896748e-03
4.997996145994527961e-02,2.515785112824800787e-02,6.813689992511247177e-03,1.487663637776057493e-02,1.193069801811557902e-04,3.868382034375387996e-06,2.233603941474806773e-02,5.939167946015251609e-02,6.174620908415193871e-02,4.404033984243922381e-03
4.470911027081360400e-02,7.163204302251414968e-02,4.345677731216177758e-02,4.055103739029709831e-02,1.074096124830763426e-04,2.588525756685258670e-06,2.232472607931628925e-02,5.396381804108348751e-02,8.019453606020957026e-02,5.394529340077958320e-03
2.150154070885430813e-02,1.343021114240453007e-01,8.537896740798442408e-02,5.365914408120053825e-02,1.200531963041825826e-04,1.317437387079315392e-06,2.279751152050869811e-02,4.130924719994900907e-02,6.959631460340121034e-02,3.930360671485607282e-04
1.352468562179916234e-03,1.667157261376017163e-01,1.193186069313104669e-01,5.195642626384142787e-02,9.110078052154158294e-05,7.691413837114219711e-08,3.010873107561685968e-02,2.862952552941435899e-02,5.544843285359338236e-02,9.709718649991913586e-03
1.137152290246222454e-03,1.584983421570653195e-01,1.547642668815039646e-01,4.377573305372903234e-02,4.792816482000877561e-05,1.111905074714243043e-06,4.271292980914347809e-02,1.746465370460929811e-02,5.158418871299381980e-02,1.808442519976176388e-02
7.316974371250370250e-03,1.332071040822351837e-01,1.805713381160366782e-01,3.418520265583193524e-02,2.292290391492205376e-05,2.229017809141716954e-06,5.213278947113780121e-02,5.299312271457521858e-03,5.111695463280779839e-02,2.139934765392177002e-02
1.390047538076233033e-02,1.008529611896108458e-01,1.718277074093557677e-01,2.172949785414432511e-02,4.780699538821297167e-06,3.256009044263979536e-06,5.448228781909743995e-02,1.068839772226938198e-02,4.409617374533738449e-02,1.691315686659977321e-02
1.782308335225425006e-02,5.598656775383510642e-02,1.299582973248120943e-01,5.538654564182028846e-03,2.068220770715254646e-05,4.176464193898985476e-06,5.289173157087700972e-02,2.812457520906627359e-02,2.935152247350533358e-02,6.604490758020603071e-03
2.525807934468476956e-02,2.173982709985727499e-02,9.099724171647295690e-02,1.082735493737745254e-02,4.725646879481105848e-05,4.976334413856795326e-06,4.869402752235554160e-02,3.770148368732643973e-02,1.232655456123353532e-02,2.462640994237406695e-03
3.552000665757002601e-02,4.017597778287733401e-02,8.105319334827820743e-02,2.241989605779268202e-02,6.719313663430614243e-05,5.644245619158235592e-06,3.860210027323041082e-02,3.118716826911348272e-02,1.817555972764730958e-04,4.945247456587572275e-03
4.096623487083053683e-02,1.062855791451634280e-01,8.660613772665107235e-02,2.772763210251751043e-02,8.235322321715140312e-05,6.171744006399018052e-06,2.068249783380475548e-02,1.030527638006163357e-02,3.070748181961150455e-03,2.499331078404619638e-03
3.634781063575037025e-02,1.613000281733616148e-01,8.398620616085419877e-02,2.977088438080634225e-02,9.554091259124042009e-05,6.553472424968244994e-06,1.655838863805979841e-03,1.366923142785083159e-02,8.685645799422214708e-04,1.020739842829568181e-03
2.289309948345045337e-02,1.652618977282107882e-01,7.455055509123519053e-02,3.107740468947150711e-02,1.052082460883033670e-04,6.787273618276995043e-06,1.957147929980802489e-02,2.781943206909901628e-02,4.812733317808826593e-04,5.872801281018706979e-03
7.188920419938855944e-03,1.356047787627379098e-01,7.183393245099779778e-02,2.918008828566203208e-02,1.094651982948766767e-04,6.874218121997358593e-06,2.288752133937329777e-02,2.872012990058343124e-02,4.274416529713331858e-03,1.292719680223258782e-02
1.399099477997598970e-03,1.062057481415025206e-01,7.250209914056895966e-02,2.148188327523544577e-02,1.086012290486212419e-04,6.818556417836566172e-06,1.103602296515820980e-02,2.711101800707090351e-02,1.036601633102800582e-02,1.795332731087368947e-02
2.658505986748659587e-04,8.340391542608248387e-02,5.956527496643532205e-02,1.261035408059729343e-02,1.032510726468164236e-04,6.627596754970278523e-06,2.202861558904488197e-03,3.239733536980182044e-02,2.067752846047836435e-02,1.609358646218359348e-02
1.068682545519277806e-03,5.206587348840090168e-02,2.596936375070566655e-02,1.016840862095980819e-02,9.324274545001188510e-05,6.311511823474690661e-06,3.720960586278861983e-03,3.358030343860479716e-02,3.699314317773063493e-02,9.444111205004709214e-03
1.241743131717487278e-02,5.974717243143775128e-03,1.671013000153857841e-02,1.421599067747581976e-02,7.843935979676348088e-05,5.883079152650867128e-06,3.013489477655187376e-03,1.391611383314086438e-02,4.763048349404494508e-02,4.325669056958382323e-03
3.553959458746971251e-02,3.680208210439821215e-02,4.938796626343298218e-02,1.781116471890587319e-02,5.918870302177464161e-05,5.357361671947699561e-06,6.588497249110559020e-03,1.644837070556035702e-02,3.358464104770283315e-02,3.013988506101730400e-03
5.058426441755672215e-02,5.137985983548695734e-02,6.203443511389608589e-02,1.758017127064443255e-02,3.593364815478023014e-05,4.751336276332933524e-06,6.072468060143915158e-03,2.874207033979895437e-02,4.560842989571501846e-03,2.674083259675691816e-03
5.085083237420694180e-02,4.035922427574686194e-02,6.313465568889359281e-02,1.761279874929278649e-02,9.192445394916812782e-06,4.083479448516285154e-06,9.296452641420292068e-03,1.756797142700023545e-02,3.984996509980179291e-02,7.903293177299894421e-04
4.452190783364927407e-02,3.700400662511165589e-02,7.160849026021717800e-02,2.220124872060818405e-02,2.028335854902241751e-05,3.373319979255176415e-06,1.891684358290662490e-02,6.150812556321246308e-03,4.819813246657662920e-02,1.974562446838715787e-03
3.708402912817315017e-02,6.346967878579271027e-02,9.513216860922740770e-02,2.947111928438646972e-02,5.195957073077376632e-05,2.640969571367615313e-06,3.185568988881690849e-02,8.473842369587982273e-03,3.267343066260609136e-02,3.746002380748727698e-03
2.520378049661087250e-02,1.000739573975605312e-01,1.204968152302647449e-01,3.424261566268870655e-02,8.561363269188684583e-05,1.906642596287410375e-06,4.517059424622425767e-02,1.298538385541407082e-02,1.173269720481517897e-02,3.913108919238900488e-03
6.671609463687428951e-03,1.106591678693581438e-01,1.309943463216154680e-01,3.453027661876471865e-02,1.202031600848764404e-04,1.190176483596206144e-06,5.172808172724886050e-02,5.649695269428312711e-03,4.310960167366784460e-03,3.586616803065007224e-03
1.392732543419316661e-02,8.903755094077096810e-02,1.273735317671195189e-01,3.269248960084116667e-02,1.538245502741347130e-04,5.105641600697259950e-07,4.148089064638665197e-02,1.006355854725615381e-02,1.729061718842070383e-02,4.702611067270446796e-03
2.844420557907005598e-02,6.464388673408764940e-02,1.230755849244711542e-01,3.124232378113235217e-02,1.862893983822250948e-04,1.144903818948440070e-07,1.847953638054431955e-02,1.819886665570955020e-02,3.100734523451962807e-02,8.131826570803220647e-03
3.086399973096344909e-02,6.509906443818180843e-02,1.251917371173719429e-01,3.002202913266584575e-02,2.192761027058192378e-04,6.689829068124152455e-07,2.951061203084588257e-03,7.532849213674767432e-03,4.521145741281842878e-02,1.211595541036640002e-02
2.174727508613513022e-02,8.920991582278793575e-02,1.310210889639220055e-01,2.767671445514026385e-02,2.508409685139532312e-04,1.138976518198934549e-06,6.503449187864959388e-03,1.740936386451156018e-02,5.720162824381224559e-02,1.415123987695400196e-02
7.002840258551881920e-03,1.195413246978060673e-01,1.363482468028802963e-01,2.408725912387105900e-02,2.750381759126778892e-04,1.512917443747002816e-06,2.020616530316460963e-02,4.296410827263547061e-02,6.597360801668708530e-02,1.454542974434760126e-02
5.404734553773187476e-03,1.431909998056973277e-01,1.347805902622128404e-01,2.006246376299074263e-02,2.937116917648633220e-04,1.781891742058062781e-06,3.301103084574118912e-02,5.830035877412037548e-02,7.374576260525811389e-02,1.554787014115347615e-02
3.935237082506583446e-03,1.493702068440316555e-01,1.166973194447844531e-01,1.504236074883094632e-02,3.176536996667365920e-04,1.939817092997899893e-06,4.370929439211956175e-02,5.220637735360744713e-02,8.084493288909894160e-02,1.740739086305133701e-02
2.138176293655808316e-02,1.251517063775310634e-01,8.237378774496492695e-02,7.326903940809314196e-03,3.414877513129796222e-04,1.983565410758612494e-06,5.054529668212555393e-02,1.154082078862384356e-02,7.974664129226920195e-02,1.846694330803954134e-02
6.110014666696443608e-02,7.415376241739525531e-02,5.010230597961117666e-02,2.068163725078802154e-03,3.405864248123818675e-04,1.913013690871562645e-06,4.864743289204655208e-02,5.636387685315774609e-02,6.121003967039714833e-02,1.798851697794899909e-02
8.537566886113621967e-02,2.709895994894629540e-02,3.938645946315461055e-02,8.191090073872557206e-03,3.246712506632240189e-04,1.731022229345303871e-06,4.115133690057028171e-02,1.135131584267600052e-01,2.881587515672573430e-02,1.567807245177596509e-02
7.554153622364070952e-02,1.305512314917211397e-02,5.063458348909734286e-02,6.928035462411499638e-03,3.458232664399468054e-04,1.443341092293917465e-06,3.496260593587201260e-02,1.283947546102330306e-01,1.276727651723635198e-04,1.065320251560447455e-02
4.672637559452186978e-02,3.024334006878842337e-02,7.066016456247249666e-02,6.083130166185659812e-04,3.842305307723278894e-04,1.058447426229170043e-06,2.592732890991510109e-02,1.109823928133690518e-01,1.204834326232918397e-02,3.903499336248563226e-03
2.690309647222188794e-02,5.944231413265591013e-02,9.175971169805668959e-02,9.023593232683757570e-03,3.279756983459218241e-04,5.873178418261175838e-07,6.009318163364219326e-03,8.985774533738999370e-02,8.864123064454366985e-03,1.412570294441209840e-03
2.349694534311712671e-02,8.796091339168733703e-02,1.118128396848656475e-01,1.248719312299453529e-02,2.165005320327844773e-04,4.314163848098269654e-08,1.700342667482558634e-02,7.130100050732449124e-02,2.883383343535092513e-05,4.572592762264129744e-03
2.189814029013393420e-02,1.052110292505709782e-01,1.180401124702932514e-01,8.876344358885381036e-03,2.930235234377835717e-04,5.590179728393047652e-07,2.319865232139827621e-02,4.294291472494240341e-02,9.131049945658477329e-03,8.174872334401311891e-03
9.944534652550388390e-03,9.670537037766752109e-02,9.006821743160674243e-02,1.529706898307295554e-03,4.898363260976178798e-04,1.202606277706618113e-06,4.936493245051574649e-03,3.377807881387033702e-03,1.663904048004881744e-02,1.279724185571953950e-02
7.378046978330826157e-03,6.117759507944255798e-02,2.880656225518285832e-02,4.612438303632369202e-03,2.443218553884248401e-04,1.869993718469661735e-06,2.050861492518590151e-02,3.282596663392738784e-02,2.060820603467814968e-02,1.573403782801461800e-02
1.795364432399691040e-02,1.878969941370406405e-02,3.229698867363893500e-02,8.095073898713344568e-03,5.659671592133398970e-04,2.542916648092389774e-06,2.662415273929785720e-02,5.304958772573811765e-02,2.066815946870846979e-02,1.634677032444455114e-02
1.940417334637771496e-02,8.837831652546278283e-03,5.856263615931246724e-02,9.852362594898174050e-03,1.070545818639189644e-03,3.202931485415323165e-06,6.597649923722965874e-03,5.745201755409364008e-02,1.979457652974605728e-02,1.728955791786014606e-02
1.987615131996014334e-02,1.588960203738130905e-02,4.854282246015924340e-02,9.181455354231361082e-03,6.303949769555035245e-04,3.831871303779417995e-06,2.047921114447694493e-02,5.571445898702767630e-02,2.093879087447250362e-02,1.932021687623685507e-02
2.441977433495275823e-02,8.668819312001783267e-03,2.881667637753610942e-02,4.676543351493231242e-03,1.169566215650444526e-04,4.412293872348875814e-06,3.705567069722836421e-02,5.743836839632531638e-02,2.453252840090983794e-02,2.008586666634888315e-02
2.744970133711063451e-02,2.650890587539716028e-03,2.247426141571937791e-02,2.085362680720962130e-03,3.024780148080612576e-04,4.927910419351128685e-06,4.677410758430849969e-02,6.146086147035792480e-02,3.079947638186150000e-02,1.860421291284236611e-02
2.098944196662127018e-02,8.961806724433155069e-03,2.925669050551158931e-02,7.513624910938715082e-03,4.999870384701023433e-05,5.363984891768445389e-06,5.766667769646612735e-02,5.525014453448032908e-02,3.958206446478153284e-02,1.615728666834650995e-02
6.920233121572996055e-03,8.523784615743551160e-03,3.313692621669837857e-02,1.018366948804150587e-02,7.658698580046465745e-05,5.707694233650318169e-06,6.315793573735924149e-02,3.190725760534449118e-02,4.509207869511484140e-02,1.302985153991474861e-02
2.827484307422077712e-03,8.192824606126542647e-03,2.575485081266170109e-02,1.050236509045000821e-02,8.429659253330321934e-06,5.948441176323871469e-06,5.245534084247422540e-02,5.010793006245411671e-03,3.724002733052889785e-02,8.777178462936890274e-03
2.043825134484106992e-03,1.363734585662816287e-02,1.852895417916190085e-02,6.696357510851967502e-03,1.222870791603474427e-05,6.078112204264093117e-06,2.805552476111942278e-02,3.629663854691258292e-03,1.362894623739533718e-02,4.828833990847393974e-03
2.102207439984984244e-02,2.051364055814778806e-02,2.725148914839820025e-02,3.634417045358707705e-03,5.326494778066948196e-05,6.091274701497190601e-06,3.908151338306105685e-03,1.125285361077072582e-02,1.378918529854303993e-02,3.058593804001278390e-03
4.385977454773812290e-02,1.987283369203531047e-02,4.931367605280089633e-02,1.693936045231067208e-02,9.240992097801938162e-05,5.985308762449563922e-06,8.442099710361921847e-03,3.620051273942120201e-02,2.852009756400568363e-02,2.800596038759299404e-03
5.737139621592209082e-02,9.910302804201116464e-03,6.650040648501123752e-02,2.454243998484609626e-02,8.503076430265629748e-05,5.760470732266632710e-06,8.489211051632441357e-03,5.715858686684321954e-02,2.491880459860884578e-02,1.703619506856307760e-03
5.317976415888744229e-02,3.847638218710222689e-03,6.937796936515763790e-02,2.243994328200613758e-02,8.307643436122860074e-05,5.419887186667097187e-06,3.187946021206531418e-03,6.635244502928314136e-02,1.273753754841247185e-02,1.715571946862485707e-03
3.291027198539897558e-02,1.763164675351331853e-02,6.565417165763218210e-02,1.531585499995056707e-02,9.636935944766148029e-05,4.969479730860091205e-06,3.107702002008618045e-03,5.561305375502338666e-02,5.780418196459035513e-03,7.407031875922588486e-03
6.366763215854871413e-03,2.876970772682505006e-02,6.090064554234141114e-02,8.818927488553656574e-03,1.006063917120582216e-04,4.417822651008102271e-06,1.027557008678477157e-02,2.084567958666999621e-02,5.947361499709221018e-03,1.394500596765469065e-02
1.517703697589103083e-02,2.861088564908404949e-02,4.813835358627103350e-02,3.484308606790452283e-03,9.095268439380422177e-05,3.775937050771508169e-06,1.372557590215212064e-02,2.509071254384916128e-02,4.167999339304077379e-03,1.858775552473884707e-02
2.417224902431918884e-02,1.319747480881879390e-02,2.847190802201621240e-02,4.151330408279205100e-04,7.895975241286224029e-05,3.057026611689166533e-06,5.325901488400830268e-03,5.814967718097820149e-02,2.542526246729728042e-04,1.849472317732882634e-02
2.029741487321408064e-02,9.597534381192013297e-04,2.415491368042399153e-02,1.953788055134940589e-03,6.742463918852677077e-05,2.276161493967044689e-06,1.083023264551296119e-02,6.617571598595035909e-02,6.861231011958167716e-03,1.309587223598039120e-02
1.201715293369708115e-02,1.651046453904109548e-02,4.999665806126576267e-02,1.354761107871309093e-02,5.149389848785735339e-05,1.449918111304339394e-06,1.594458168838431070e-02,5.867698248854882892e-02,3.311010042811260434e-02,5.554433192566967693e-03
9.611033446821914267e-03,5.314790117250680485e-02,8.522312771305347312e-02,2.779831740684305177e-02,3.043761233203970808e-05,5.959835412852974264e-07,4.788145722691393436e-05,5.101148148511810282e-02,6.346462044331635521e-02,9.988433069579210136e-04
1.311507819054274875e-02,7.725908780678111820e-02,9.761634524462059481e-02,3.417580169112512112e-02,7.304431418911835352e-06,2.672658521793325169e-07,2.216068766200143814e-02,4.537457067951544687e-02,7.668991073280463644e-02,2.034581017893765612e-03
1.290288286706873198e-02,7.481570643485169203e-02,8.490730407598516549e-02,2.963434334422290414e-02,1.661997177563119107e-05,1.121201424483590206e-06,2.958810371365812666e-02,3.385939971533330484e-02,6.842892996523740334e-02,6.185266098190702125e-03
5.145242956700984450e-03,6.564103562927270374e-02,6.895165961210213135e-02,1.952522035784132887e-02,4.183811476351864970e-05,1.947384385347193918e-06,2.082438425383185271e-02,1.652302411089607431e-02,4.890356140369775395e-02,8.633479875379983237e-03
1.444493278139522517e-03,6.503519526187932775e-02,5.892034166209050156e-02,9.538725446287459747e-03,6.806326558842066990e-05,2.728002477474047450e-06,1.209733153816209758e-02,4.761853287623087592e-03,2.716431252978159655e-02,7.156335428902969344e-03
7.310450956342461190e-04,6.071331821232308495e-02,4.477168310138826546e-02,1.710989512204261426e-03,9.399360848562144700e-05,3.446290778892248143e-06,1.416826084139281156e-02,4.215779079277681002e-03,7.626108679691203859e-03,3.521244525180296150e-03
5.706780172569986785e-03,4.095158988278690265e-02,2.403083471184603789e-02,3.416611678825977588e-03,1.185502005499492281e-04,4.086926622784452463e-06,2.066218807794396178e-02,5.034173603089484896e-03,4.839507252380499149e-03,5.517699707002980507e-04
2.264841079402180220e-03,2.114326900954901362e-02,1.346419116199829361e-02,5.489526058653102988e-03,1.414655543809454621e-04,4.636389279571308429e-06,1.977536595479379919e-02,5.253424737107477080e-03,7.481642879199898802e-03,4.585817559508519980e-04
1.055370848141721357e-02,2.280763410310215206e-02,2.629356362000864061e-02,5.224190870463470485e-03,1.627281447386428692e-04,5.083275917766828125e-06,9.631019369945936076e-03,2.638254520859157834e-02,5.922977300640301125e-03,5.720263334434954727e-04
2.297177540729474290e-02,4.004742559628268056e-02,4.925544495786777360e-02,4.284325344918200190e-03,1.813768089859899523e-04,5.418566431101588028e-06,3.447659265735445854e-03,4.767119010094938991e-02,9.830969264270881386e-03,3.015043069103986225e-03
2.657381693219929356e-02,4.677362479766063175e-02,5.566232448090924212e-02,4.217630568914489293e-03,1.957572812537067828e-04,5.635830963368100277e-06,1.529588435599590901e-02,6.057519724797411770e-02,1.989504168999749190e-02,5.000696480542471054e-03
2.170281951781345350e-02,3.177139490522958021e-02,3.846490338125005404e-02,5.333836821068575762e-03,2.061278666106993666e-04,5.731375349129624129e-06,2.380308627041825484e-02,6.453404420079361659e-02,2.364353147739038652e-02,4.387712211811769722e-03
1.353738772580612669e-02,9.188694888156191676e-03,1.620594421496308196e-02,5.620589203199761325e-03,2.146595921045750793e-04,5.704321184312301407e-06,2.440683703185510950e-02,6.244012943176224101e-02,9.842447202382659938e-03,9.117711284907820558e-04
4.462375432043318851e-03,5.421037811448052059e-03,4.854312293410922678e-03,2.540417436980559052e-03,2.199166185820769048e-04,5.556618809757241761e-06,1.567301210729189764e-02,5.485871980134943149e-02,1.468654966437758433e-02,3.821836228986809011e-03
6.449586633160252734e-03,1.332342583693807946e-02,1.127600985958307489e-03,2.573216068589097641e-03,2.165287046192184795e-04,5.292993095425269006e-06,4.866170316668841714e-03,4.165733617640723224e-02,3.113526175151996866e-02,8.200440297696832276e-03
1.683362288305507298e-02,1.994506289976693408e-02,1.274299181168285153e-02,5.314608222377595684e-03,2.069775107035336692e-04,4.920823514800826376e-06,4.525559195036176624e-04,2.587222062525382921e-02,3.195452660197017902e-02,1.127471750344056362e-02
1.990967822486092859e-02,1.712609457702867627e-02,2.417595037073215491e-02,5.015707541445543240e-03,2.027086964094978701e-04,4.449961560016890749e-06,3.574751077563812288e-03,1.020069377034837736e-02,2.747170674290721690e-02,1.235272666355724178e-02
1.310940277277075280e-02,5.890805380079423489e-03,1.944138886738546942e-02,5.805676583468360498e-03,1.989952336759238949e-04,3.892490031312728319e-06,1.119487831893128948e-02,6.342296951082570210e-03,2.760457359800111421e-02,1.136141192221870426e-02
3.455350671483705706e-03,3.929987683708227597e-02,3.445028761551627468e-03,9.145619758653638839e-03,1.718528501005246495e-04,3.262430104620905039e-06,2.133834076446953706e-02,2.359104401557402322e-02,2.928808556058834500e-02,9.158401870609973044e-03
1.099308612827367207e-03,5.911194346903370783e-02,2.705590398849744976e-02,1.091386806741828121e-02,1.316236677741302458e-04,2.575403306150131370e-06,3.064021424039898092e-02,3.916197181472445832e-02,2.574542980816604126e-02,6.573048637895177390e-03
8.623985648314713356e-03,5.514689949282435000e-02,3.345191624968724131e-02,7.822478521272741014e-03,1.309652722437546434e-04,1.848256574142523002e-06,3.233292576382496702e-02,5.306549562550803151e-02,1.592210971483645765e-02,3.427873910553863764e-03
1.758130880579956284e-02,3.630907898587555638e-02,2.030189634975120005e-02,1.960923690059959094e-03,1.505886539017083905e-04,1.098659441127275491e-06,2.252407372165277435e-02,6.348742944365547147e-02,6.687867346723145104e-04,1.045150152887925959e-03
1.662294287891947012e-02,1.230445336658943754e-02,1.883637620566294604e-03,2.506893988241766253e-03,7.903507829463197229e-05,3.446830053537106174e-07,6.135900550511688006e-03,6.230607365945253773e-02,1.744308863966089265e-02,6.700166837654755042e-03
3.952627598126135650e-03,1.174864173160979422e-02,2.169925149456490565e-02,3.748480636676891110e-03,4.388259883640290753e-05,3.956292367056824557e-07,7.282724136260130751e-03,4.632600741053089638e-02,2.704296186760484291e-02,1.166870599434007352e-02
1.009936035889899900e-02,2.655622486468463966e-02,3.493276459742068046e-02,2.776824109207754170e-03,2.532886085724505898e-05,1.104688462643922977e-06,1.182619602186259916e-02,2.655512647013593200e-02,1.611187657392528644e-02,1.406313146724289150e-02
1.401281597834689793e-02,2.363273641228360103e-02,4.461273984106828294e-02,1.956651050349876835e-03,2.191594349940878084e-04,1.765775348823651912e-06,7.730061765000247054e-03,1.629126154669291449e-02,8.462868482433390238e-03,1.446051595266536344e-02
7.063057152914785190e-03,9.366427751966012114e-03,5.419462575989487246e-02,2.867375850460098744e-03,2.489298981510881106e-05,2.363432818130970285e-06,2.841409795646654933e-04,1.547494087630567859e-02,2.533583803717024546e-02,1.496689428078869059e-02
3.934040025991166444e-04,5.850993433092832943e-04,6.173182445280385455e-02,4.145388892644908362e-03,8.293040827376448607e-04,2.883827437193252396e-06,5.475223390991896394e-03,1.372274668155080805e-02,2.634618095785305411e-02,1.559603662332238391e-02
1.426832693226802624e-03,5.788115030764092589e-03,6.310016757841975521e-02,2.589586084192641632e-03,1.323755608378775987e-03,3.315070964052223765e-06,4.758278752699486407e-03,4.691646691417653003e-03,2.368407475430852477e-02,1.382821402857309541e-02
1.058049224777633975e-02,1.891399338284379880e-02,5.758896807879788221e-02,2.127243526351076022e-03,8.694063352649159578e-04,3.647494521534788805e-06,3.085422868772016124e-03,8.596964922365245287e-03,2.681570684399975368e-02,8.742402569704332133e-03
1.689036066600870314e-02,2.926992753343425277e-02,4.551777573049185788e-02,5.747637405157554093e-03,1.039761281026339103e-04,3.873869021683340066e-06,7.247767679140574085e-03,2.069306800096485169e-02,2.898948537749953397e-02,3.364455224584658732e-03
1.663608931626190876e-02,3.181862796660776121e-02,2.588403661874157796e-02,4.529711552536442448e-03,1.030419732904114461e-04,3.989566764695555528e-06,1.581997176209126374e-02,2.948391774009395672e-02,2.171161233228676227e-02,7.568777009621880172e-04
1.760836793803971859e-02,3.119187853825201515e-02,2.762128202515166074e-03,1.447371696192865324e-04,1.252370305672471592e-04,3.992660550570514121e-06,2.124996697119097347e-02,3.456041617780856307e-02,8.902370155310443053e-03,5.937815194446022802e-04
2.583325082838258333e-02,3.745814899850465063e-02,1.293974863503922351e-02,2.963434619331422552e-03,2.253072743531354277e-04,3.883958139086288389e-06,2.023533360465903583e-02,3.494993824736707805e-02,5.895654021893382678e-04,4.219448454797892697e-03
3.292633307276222193e-02,5.031332050337143647e-02,1.526621053524082963e-02,3.271985423272671945e-03,1.283730158575735946e-04,3.666971438009137945e-06,1.443668633525835299e-02,2.998417447505135822e-02,5.920241023194896222e-03,9.472699525495171038e-03
2.495341368413791019e-02,4.893477511799314283e-02,1.079215222180206907e-02,2.629746815592401855e-03,7.759182229072331518e-05,3.347821353727123795e-06,3.393485146626551516e-03,2.125570185337894227e-02,1.230644222910151631e-02,1.213069410028642416e-02
2.962112633670652660e-03,1.370326662815471094e-02,8.706888339794464568e-03,2.569501054038881953e-03,1.134016461716643467e-04,2.935080765870741893e-06,1.332676392489248567e-02,1.334382994765890250e-02,2.123881462399500666e-02,1.086458612202142668e-02
1.562017976325199946e-02,4.134221494568615651e-02,8.477193778930549456e-03,2.820183306608232271e-03,1.233547610856668185e-04,2.439559551748124302e-06,2.872043249147102073e-02,9.487499955681020364e-03,3.000427156857114752e-02,8.630537747163677040e-03
1.958472626874777078e-02,7.826495300324756710e-02,3.277643122056675320e-03,2.818889130038190489e-03,8.546573310638336143e-05,1.874036953008637912e-06,3.358938400191020801e-02,5.703230125655500866e-03,3.748045884692090268e-02,8.008401198537445226e-03
1.694769547858069811e-02,7.918098826054527362e-02,7.212807296392561435e-03,2.687315281854279515e-03,5.351413631250671567e-05,1.252947813708214425e-06,2.808582085897160657e-02,4.117081311667501568e-03,4.192866026997116302e-02,9.202806819460604415e-03
1.895616682594729319e-02,5.981006522734043374e-02,1.464105264310747861e-02,2.681688710192399894e-03,4.316932597561379741e-05,5.920302969184937320e-07,1.962019564020657872e-02,1.598003582216326116e-02,3.625720688108524659e-02,1.158317396508625960e-02
2.241054253438020186e-02,3.994962879673669143e-02,1.363639255874329534e-02,2.745618250080398247e-03,2.820145928268906257e-05,9.205641890640344014e-08,1.199469047772324000e-02,1.814568100076181106e-02,1.663904293848038687e-02,1.400175687813677919e-02
1.704016878449625752e-02,2.243437586473685796e-02,9.343119206967804430e-03,2.756548381843984541e-03,7.078056116711201572e-06,7.821352730866824332e-07,3.950806820854765519e-03,7.783642353828076552e-03,6.720208630096946925e-03,1.527081941831131932e-02
2.035467622703466921e-03,3.272464433239328195e-03,1.040045143874517367e-02,2.737010923622926629e-03,4.578928553093103014e-05,1.460925625497201516e-06,4.557934516506463932e-03,4.952238287283144622e-03,1.957204652100434997e-02,1.610399899761367354e-02
1.255285494375322011e-02,1.505275184950480988e-02,1.889617889843180770e-02,2.742034953759490620e-03,6.054077466322667269e-05,2.111458830697610380e-06,1.043982952277453316e-02,1.097178711032882094e-02,2.082951885454496777e-02,1.805609610936662404e-02
1.557848015428156194e-02,2.624216512428922260e-02,2.982742949852472750e-02,2.759183465005062789e-03,6.589897932351775913e-05,2.717485182551240211e-06,1.021216332135565889e-02,9.353691700979653578e-03,1.858089368959667254e-02,1.987215581592074315e-02
3.299513542967231518e-03,2.849042028861848569e-02,3.784363842543603945e-02,2.760181641663957651e-03,1.146268067509670661e-04,3.263862561046133468e-06,2.967077351836051001e-03,7.356733088776376073e-04,1.554289432019485481e-02,1.851733887472966494e-02
1.636149989052800360e-02,2.628933243406441148e-02,4.252258373776324207e-02,2.747985399591050017e-03,1.838337645172406114e-04,3.736917574574164428e-06,7.600195461738608847e-03,1.305500029935974249e-02,9.317737088437708093e-03,1.431180800370712367e-02
