7.097893208967655763e-03,6.174996207928845453e-03,2.985558798892355703e-02,1.346462959931631238e-03,1.459913815677149488e-03,4.473092739566451393e-04,3.561769594137696292e-03,9.129334927891963325e-02,4.347974282607190363e-03,3.099219787776688780e-03
1.637670584461650355e-02,1.741399119830216525e-03,3.066619762999243590e-02,1.537326738579842351e-03,1.027632034859893729e-03,5.318098291936392647e-04,4.220689813628012745e-03,9.100421876883207917e-02,4.157423239364914543e-03,9.970370296117846923e-04
1.944926275630556173e-02,2.838011320140424679e-04,3.112936146643473928e-02,1.679751102282240564e-03,2.803443328253745989e-04,6.031565496242617761e-04,4.666448204469797120e-03,9.415468032175927648e-02,3.701277913401646632e-03,8.577156485391049245e-03
1.537295180470455401e-02,2.682676441049451459e-03,3.091675198951131590e-02,1.772644982513745361e-03,8.699401412183490083e-05,6.595257838833122090e-04,4.811901915830539382e-03,9.298665590001718717e-02,3.015312330059691411e-03,1.062232304540416949e-02
8.006241775184348014e-03,5.126944754238894897e-03,3.080789204662881531e-02,1.816247778843244239e-03,3.238486943686741111e-04,6.994560782572781460e-04,4.841576697212478936e-03,8.588617175712029428e-02,2.107769141197059042e-03,5.351405824997018668e-03
3.625719771120877559e-03,4.786162595972918640e-03,3.155676936963517504e-02,1.812114625026360398e-03,4.272952947614968482e-04,7.218861804512286462e-04,4.811411076072785037e-03,7.859435851781602922e-02,9.509772111770993389e-04,4.236540031604201471e-04
3.296394003231053679e-03,2.843095377932337246e-03,3.265457175307894672e-02,1.763069346137061209e-03,3.289444584750483044e-04,7.261833615373156385e-04,4.721485989145885083e-03,7.354870142335095951e-02,4.542594461439088604e-04,2.297099973271200541e-03
1.690680189653220389e-03,1.313414492961473669e-03,3.333132444580360482e-02,1.673126350013968587e-03,2.716668942004096788e-04,7.121613066091804283e-04,4.516016330024468992e-03,6.832187278758405924e-02,2.061790380614818719e-03,5.907038579529925656e-03
2.960560169204932285e-03,2.690445014137328754e-04,3.369048005748302710e-02,1.547383437419969868e-03,2.948997210041038567e-04,6.800870781169237461e-04,4.010659103383902753e-03,6.177202134134415767e-02,3.853206150240553150e-03,1.800007925466435427e-02
4.553339862113960079e-03,1.029326359231506850e-03,3.416303519045899018e-02,1.391888209118971684e-03,2.870656423591157452e-04,6.306769228635058198e-04,3.292873746733420304e-03,5.499512233679453022e-02,5.874709503518997858e-03,3.146000145902252965e-02
2.042498557481931074e-03,2.580642707201660259e-03,3.499218028547560616e-02,1.213481373470599693e-03,2.290310601771600315e-04,5.650809676890882882e-04,2.913680632881814753e-03,4.879026916789808155e-02,8.113344334909660532e-03,3.015190628975424753e-02
1.467028295107664082e-02,4.005679930260381584e-03,3.645015169950472506e-02,1.019620794373857437e-03,1.738789156133258853e-04,4.848571232309612389e-04,3.005756890938264189e-03,4.371382831539084857e-02,1.041770398792530444e-02,1.233875271957438936e-02
2.749643878691620733e-02,5.260926217867947612e-03,3.834507558722725223e-02,8.181905638336248610e-04,1.326323875023986720e-04,3.919347830565635257e-04,2.727230560164167848e-03,3.978113208468930795e-02,1.274771566324679403e-02,3.829226796474321636e-03
3.400558666931316476e-02,6.483883381756811240e-03,3.984571093367909878e-02,6.172997390824176353e-04,8.223410170808047401e-05,2.885691602829015562e-04,1.460794956448680307e-03,3.465060926675742059e-02,1.535156125647760272e-02,5.389068221185422738e-03
2.758392855131557367e-02,7.659085158219032866e-03,4.144203817485070385e-02,4.250756222974678609e-04,1.911020893063609252e-05,1.772873391630523643e-04,1.405411232357756915e-04,2.530979518554751090e-02,1.824475922328799501e-02,1.566511888797737697e-03
7.975522787578695483e-03,8.688475841244689551e-03,4.534810585082785228e-02,2.494565475159751626e-04,4.395354785359745984e-05,6.082732913176012762e-05,1.187782661452128387e-03,1.271109286763278182e-02,2.081955990487664027e-02,6.198387558007302338e-03
1.291087951062362509e-02,9.549240806239804591e-03,5.077702579500089491e-02,9.798911630443839704e-05,1.029799840846088907e-04,5.792841185543928437e-05,1.781218139997443536e-03,2.390863734513185533e-03,2.295776249589888407e-02,1.513905601389320225e-02
2.059446140062438230e-02,1.026061114848653665e-02,5.160162404844736289e-02,2.236524521469939646e-05,1.616975030072158835e-04,1.760233737655177003e-04,2.462465795205801434e-03,9.505497859287285328e-04,2.594600657593047754e-02,1.263866447921254722e-02
1.416390892183267552e-02,1.081039011560688476e-02,4.365957100307985700e-02,1.054097392963227755e-04,2.197957512491010732e-04,2.904995946909001464e-04,3.279756034806409048e-03,1.238007925228324681e-03,2.993773224402981881e-02,6.431100981432911860e-03
4.433004027358533779e-03,1.117620651045485823e-02,3.028325250300905463e-02,1.458734604014287096e-04,2.733531094414990456e-04,3.984706854770544569e-04,3.972399422635973683e-03,2.640269662870206417e-03,3.059706991259729392e-02,2.988662328964236323e-02
3.264669524351577774e-03,1.136013027690906813e-02,1.496321063484079214e-02,1.395508031554274495e-04,3.203948703094818668e-04,4.971934796932999962e-04,4.486089582681927410e-03,1.576545300970046137e-03,2.226410830114950237e-02,4.102594153835812524e-02
1.319327508327602927e-02,1.136616463328949875e-02,3.983880663953236548e-03,8.341563377881142799e-05,3.608125426210444654e-04,5.841365343985700656e-04,4.916601447531021400e-03,1.088833556232454355e-02,6.505406664454447228e-03,3.292540552854454627e-02
2.579843724095269228e-02,1.118420614194575238e-02,2.392052975492583305e-02,2.429272215243770622e-05,3.938084138391400885e-04,6.570437755917142835e-04,5.266320034017583571e-03,2.146116854698953275e-02,6.232433120549302208e-03,1.164440991056720810e-02
3.413383879954227235e-02,1.082832747965289076e-02,3.225092417066404565e-02,1.840134105899876430e-04,4.179456431240994099e-04,7.139916931184619054e-04,5.475990234693551943e-03,3.065131468461888484e-02,7.320641891928345545e-03,1.060204981223097052e-02
3.708989572756758724e-02,1.034427023397286455e-02,2.021664658777808099e-02,3.948385112213247160e-04,4.323832642409869984e-04,7.534386406196617479e-04,5.540359301979070131e-03,3.882047649960033986e-02,1.966534697205473727e-04,2.403506462017503467e-02
4.223666638948572055e-02,9.731191820466028597e-03,2.313167473930193355e-03,6.545190311684614742e-04,4.368989611202914983e-04,7.742649833349559817e-04,5.475486666410199488e-03,4.633449097558778318e-02,4.106118552983446107e-03,2.561024885365663015e-02
5.158670489467574033e-02,8.935470947981579565e-03,1.346594105808501633e-02,9.595035624094665509e-04,4.313347378020102019e-04,7.758030557930164052e-04,5.262169315761608401e-03,5.048941261495647898e-02,4.571696993969462820e-04,1.864636094783538034e-02
5.827921203232321740e-02,8.014647899316919288e-03,2.089842397501474620e-03,1.305007588210271461e-03,4.155950737282023029e-04,7.578561373820116940e-04,4.902522685624576514e-03,4.873242961138517931e-02,6.049363592795148348e-03,8.831143224760796412e-03
5.948773280994328061e-02,7.147348842798087812e-03,1.932357543411392098e-02,1.685108744533617749e-03,3.899135225839969418e-04,7.207059205731109917e-04,4.453050380893159958e-03,4.351923777336068333e-02,9.674208088719611631e-03,3.761265158713814841e-04
5.906352223059558454e-02,6.282393527368371026e-03,2.982841008238665270e-02,2.092867741031346953e-03,3.548551328425593844e-04,6.651082276921868033e-04,3.909161928745455081e-03,3.950938067099636630e-02,1.243838046433452457e-02,7.782330428602977392e-03
5.785045333006377105e-02,5.109351320094144590e-03,2.656022699470091120e-02,2.520478347446313949e-03,3.111812253281485562e-04,5.922770207394807652e-04,3.172958282054526031e-03,3.730216500768086807e-02,1.931623052588531120e-02,1.185734351416661662e-02
5.369250353900797273e-02,3.805358484836155603e-03,2.774815938764940010e-02,2.959438585475769861e-03,2.598276888286201380e-04,5.038570377625865935e-04,2.296764860131052504e-03,3.427126622179069160e-02,2.992110368534242615e-02,1.207540179377974976e-02
4.945098665482585559e-02,3.115317452886312913e-03,5.264966521498411212e-02,3.400725312644331706e-03,2.019409269702760726e-04,4.018856715666476072e-04,1.540710017663683056e-03,3.007165385127791302e-02,4.125188849403398084e-02,1.066895535189846950e-02
5.232528631902656768e-02,2.746856742807391762e-03,1.079292892768493051e-01,3.834976683771077442e-03,1.388537652254565481e-04,2.887449750980053366e-04,8.575039744036283334e-04,2.723682055204193833e-02,5.407462017665823351e-02,7.648609887330441552e-03
6.426125055078343862e-02,1.115484402833859289e-03,1.845528907220564119e-01,4.252707602840878447e-03,7.202706725044052049e-05,1.671049259667091295e-04,2.945899977223297161e-04,2.707425437088233078e-02,6.829696445654490078e-02,2.830827332591573375e-03
7.308605176559321293e-02,1.063626374769032455e-03,2.557893057490616684e-01,4.644535299104675038e-03,3.013513364419821521e-06,3.985930405136225914e-05,2.017156622946140402e-03,2.805560808505735623e-02,7.638682953605968606e-02,2.325170213840827352e-02
5.695320782367631340e-02,9.582521172862920470e-04,2.896894733275189315e-01,5.001346299208941741e-03,6.656717503734465961e-05,8.994427464610653487e-05,3.418174306665262147e-03,2.807731781917503777e-02,6.990017870481318729e-02,4.180696034524505195e-02
8.449125367695793989e-03,9.648960996350644179e-03,2.752743932417781036e-01,5.314437126264242965e-03,1.350670175424072237e-04,2.191784725942383144e-04,3.836935423831641309e-03,2.618225586530440255e-02,4.913965020527664290e-02,4.038681675782698766e-02
4.696169511013896514e-02,1.863810667146276884e-02,2.282772830631576155e-01,5.575761780659735899e-03,2.008555259548941126e-04,3.447126873755078607e-04,3.890222172262833809e-03,2.212322578107644988e-02,2.188258118325733109e-02,1.601648144527627327e-02
7.061578223767239759e-02,1.830696333679344284e-02,1.699584350083375162e-01,5.778206351049901095e-03,2.623587348880557614e-04,4.634899768741131566e-04,4.427782125130475324e-03,1.614013643707545506e-02,1.281416237065602240e-03,1.237872815904798689e-02
5.198797152118317388e-02,8.144738377724928050e-03,1.129293114357078354e-01,5.915591268854060100e-03,3.180953596075275763e-04,5.726025582717011835e-04,5.308182966030283376e-03,9.898094123127702121e-03,8.545699809969324601e-03,2.330247454015077838e-02
2.169998578806434097e-02,1.381496227990720773e-03,6.408235297388986673e-02,5.982551381400229989e-03,3.667158342225315367e-04,6.693640115213922220e-04,5.952042647746640450e-03,6.289043339475664830e-03,5.477984378302339086e-03,1.462045496805312352e-02
1.849828339129918481e-02,3.981152194641457420e-04,2.640483760022917584e-02,5.974926658833017851e-03,4.070366148797063387e-04,7.513763896307116977e-04,6.277653889317271960e-03,6.556287298295992994e-03,2.989239043492971509e-02,6.036708101480438640e-04
4.813932558889252172e-02,1.027282579447747445e-02,2.618844813617907802e-03,5.890350304155623357e-03,4.380640848295646499e-04,8.165905544702819303e-04,6.517364380747567472e-03,7.847532669222565330e-03,4.565581339838774982e-02,7.989881036467919723e-03
8.269104663251274079e-02,2.162020596972970624e-02,4.965019674527258037e-03,5.727667489442375172e-03,4.590200280809282954e-04,8.633582152983934220e-04,6.703097584630250336e-03,5.726083883741572844e-03,4.654772372529963204e-02,1.230735098899423535e-02
9.498888126044986724e-02,2.583562597180405138e-02,4.446354651034216399e-02,5.485812891683149693e-03,4.693741180672838641e-04,8.904743440607430435e-04,6.718968093714640724e-03,2.469163317921855422e-04,4.142380038431502792e-02,1.792528943933420840e-02
8.095023355504123164e-02,2.146890569432590920e-02,1.014822673500859473e-01,5.165079392726510538e-03,4.688565481442742993e-04,8.972088721319808162e-04,6.544887759119622297e-03,5.608448446188176936e-03,3.514214080357726255e-02,2.752402995831969290e-02
5.464031447642869743e-02,1.260892859934445095e-02,1.311906332975915079e-01,4.769512178021058889e-03,4.574388778999689278e-04,8.833268319968670505e-04,6.236379269662503493e-03,6.927829147143444929e-03,2.148097677396867966e-02,3.828623986653935385e-02
3.631196293078529230e-02,5.617492122975854298e-03,1.102113130852423045e-01,4.304134255178335318e-03,4.353385830448118781e-04,8.490963881843005979e-04,5.810242695679994698e-03,6.323254661904993863e-03,1.725116568851185837e-03,4.207809354951146802e-02
3.801539210354656223e-02,4.231577255879854886e-03,5.707668596298768465e-02,3.769546024494500967e-03,4.030723495372227666e-04,7.952844977527905338e-04,5.252406470751089414e-03,7.886298656809251004e-03,2.404832782198201152e-02,3.257673076191289208e-02
4.916168603677372601e-02,5.947888800914635093e-03,8.615463351143055892e-05,3.167412581419194132e-03,3.614399775819909094e-04,7.231402445568728453e-04,4.571290097048138178e-03,1.159334868164890384e-02,3.565835835709747770e-02,1.425665625963234984e-02
4.707123571747237611e-02,5.535345451701371294e-03,5.332902994539983482e-02,2.511768937495367088e-03,3.113828876091306397e-04,6.343661959425614697e-04,3.794398038263516095e-03,1.381873470786540783e-02,3.933538885333078688e-02,1.343257510470997548e-03
3.154610377572999308e-02,3.351176654006922818e-03,1.061558445331505368e-01,1.817160109245330403e-03,2.539685732986383579e-04,5.310784279173177231e-04,2.942797223569032679e-03,1.290311366088938219e-02,4.300289007296394239e-02,9.109744716968001810e-03
3.158274618066237577e-02,6.264566322466419944e-03,1.497005738220152371e-01,1.073697949881194727e-03,1.906279869743492431e-04,4.157561478414665895e-04,2.031807601228184483e-03,1.080212909705008037e-02,4.944016158363689906e-02,1.479530973036221990e-02
6.367517549733103799e-02,1.716507761451910655e-02,1.715785931123266217e-01,2.712070460499403169e-04,1.231138973324104151e-04,2.911821052354701504e-04,1.082284945551272026e-03,9.208792183294057382e-03,5.962838685618292167e-02,2.709497476478787276e-02
1.040929874451915343e-01,2.825258315970449394e-02,1.794467858929611470e-01,5.474356629929500156e-04,5.289715058268563540e-05,1.603752148255318025e-04,1.196911446770215054e-04,7.524816162073262073e-03,7.567256895494768598e-02,4.895054412906469504e-02
1.201835791759522515e-01,2.982032003280584223e-02,1.945381690318948309e-01,1.337051540222232958e-03,1.886821907269338263e-05,2.651701555029771371e-05,8.319942916154895313e-04,5.306833335828131312e-03,9.328434056711096267e-02,7.203433086911192884e-02
1.080421753687858533e-01,2.116889865493415401e-02,2.196608627824044313e-01,2.165985945763798486e-03,9.017444874930404062e-05,1.071262501780806484e-04,1.750737707926377932e-03,3.425836932323046268e-03,1.016683108291093485e-01,7.915966598732765425e-02
8.263846324689572143e-02,8.328385904380690777e-03,2.340947069813837655e-01,3.111306908579379148e-03,1.581798953438099341e-04,2.372840352901754994e-04,2.614440672514268225e-03,1.929697716863373316e-03,9.675222448957450372e-02,6.265386394701204231e-02
5.174350320535024694e-02,3.817963216846525717e-03,2.269795616237497426e-01,4.008980585682811806e-03,2.218382330544122209e-04,3.607623922263262194e-04,3.401522622894542942e-03,6.149187527668405033e-04,8.538074179990248758e-02,3.830842061794462183e-02
1.549468842073839156e-02,1.329129583902129152e-02,2.188254781960754236e-01,4.671369448001366775e-03,2.820543055695579450e-04,4.745233869818454094e-04,4.092662842651427317e-03,4.781841331873093459e-03,7.417115141779469234e-02,2.493633294216921273e-02
2.293100612639943289e-02,1.946538978338935300e-02,2.343122574787363799e-01,5.432302811093827483e-03,3.362004661107227048e-04,5.757610539368594738e-04,4.671291648058920921e-03,8.751165275549522421e-03,6.449177840921140048e-02,1.516942162864625201e-02
5.824862085176047560e-02,2.297663360757287720e-02,2.607345888544617685e-01,6.710505381016440042e-03,3.777623842542907322e-04,6.619719974871471563e-04,5.123454095471829603e-03,9.923602611078616645e-03,5.824564304951129756e-02,1.136417252257668903e-02
8.817836958653740842e-02,2.544719509629411736e-02,2.577170573558675293e-01,7.732973768977764034e-03,4.081540465243777569e-04,7.310188687340094795e-04,5.438165278287835497e-03,7.974617429061015700e-03,5.600126780646936392e-02,5.128127925621193267e-02
1.124948079215316032e-01,2.833958133844148575e-02,2.123027293524845371e-01,7.014842440165426109e-03,4.378842968667785393e-04,7.811851120943924661e-04,5.607963980394281914e-03,5.549919868933811569e-03,4.993039376375603411e-02,7.937876690981983396e-02
1.307167939185862326e-01,3.217648624561417203e-02,1.550635410514744628e-01,4.936824426644937508e-03,4.614426717484547175e-04,8.112195837778839571e-04,5.629124479100248296e-03,5.056836936591159112e-03,3.258616344117461205e-02,8.413403701266101986e-02
1.442992712403035893e-01,3.638357886487308263e-02,1.147218252409687722e-01,4.226842396848310909e-03,4.542242523758735972e-04,8.203698867463773275e-04,5.501647323247531307e-03,5.968337802944864018e-03,1.246339975690197513e-02,7.652204371974145880e-02
1.590144688855052446e-01,4.052097339756087491e-02,9.387213356196166814e-02,6.550228617135895291e-03,4.261382261257505078e-04,8.084035392231413630e-04,5.229276639487081060e-03,6.911848057591739487e-03,6.097842450983299335e-03,6.525421434800697529e-02
1.775432113009140778e-01,4.558568758489967010e-02,9.516693065211030700e-02,1.019187565892044726e-02,4.296140011516573118e-04,7.756163894836655024e-04,4.819486736913949562e-03,8.300866145000118310e-03,1.323331679565327088e-02,4.678917209698584684e-02
1.863323276663859662e-01,5.131795281077919380e-02,1.242368774292002959e-01,1.251423302874099010e-02,4.453287298303654565e-04,7.228280013667261888e-04,4.283321020382453194e-03,1.020337120405112943e-02,1.438826318915608499e-02,2.063002398426368525e-02
1.603656552092065368e-01,5.208408255962371919e-02,1.566756505748038986e-01,1.290315503720185913e-02,3.619866590215357611e-04,6.513640550832122764e-04,3.635111535682493053e-03,9.824290690500234527e-03,2.847649935785969387e-03,4.333474232106922577e-03
9.052278742107017218e-02,4.026371558545098484e-02,1.507477727029366277e-01,1.173933925499931127e-02,2.197972610022991833e-04,5.630261286171367972e-04,2.892140506850202509e-03,4.421852315770785809e-03,2.838319636461609716e-02,1.972253358198336817e-02
1.157713394417244192e-03,1.644944797752537213e-02,1.114485314126221760e-01,8.859553007735023605e-03,2.628724788239886916e-04,4.600495383974433539e-04,2.074240738729717787e-03,4.411485052454155315e-03,4.470578836579917198e-02,2.256431008300848265e-02
7.986896023012952928e-02,6.731751908711299144e-03,1.032132173256955221e-01,5.412244265825062566e-03,4.244448299687202737e-04,3.450502161998442803e-04,1.203318432622916320e-03,1.170337818024938699e-02,4.408503314188285532e-02,1.394143101585688244e-02
1.238523565265151061e-01,1.493297129634247808e-02,1.655175483538730286e-01,4.670283598076139728e-03,1.428680823896565815e-04,2.209618749762503221e-04,3.028146266631650358e-04,1.379315648476276204e-02,2.867632234234053501e-02,4.489259548373938057e-04
1.300284177037789868e-01,6.589116879181201696e-03,2.309447747951749730e-01,7.677541546262207743e-03,7.032043124003172288e-04,9.096496258399850376e-05,6.028695991427167940e-04,1.110785336525978162e-02,8.541402061929430356e-03,8.585312475581636030e-03
1.068664389807642140e-01,6.082793607176589790e-03,1.791397589515281163e-01,1.029252403252006731e-02,1.242090134617156345e-03,4.159088703243994526e-05,1.488972290201737939e-03,7.003172822325830910e-03,2.256657690832158426e-04,9.592671926570914276e-03
6.985811973112701634e-02,1.206721162996829584e-02,7.552132753455616070e-03,8.201001251851715995e-03,8.337684101741580159e-04,1.732690261505826054e-04,2.330985216162475768e-03,4.659060637202359911e-03,9.540122433849974881e-03,5.203833084278029590e-03
3.695776376430950222e-02,1.310790601033394454e-02,2.030494988421290836e-01,2.800571611355006079e-03,1.149792138027564353e-04,3.006305859825143291e-04,3.105267925898535456e-03,5.035249038534111987e-03,2.468102660503960696e-02,2.716512928314328973e-03
1.817164098120375992e-02,1.720335443216153282e-02,2.954965741011281732e-01,1.422781935571985467e-03,4.636316519250732038e-05,4.203198114439710966e-04,3.789643445304810912e-03,7.221342254601700351e-03,2.741736724784962775e-02,1.246670616865087552e-02
9.007846980716193927e-03,2.637941096130260246e-02,3.171501607670131895e-01,3.067799506639292545e-03,2.244964259177798047e-04,5.291478352561152431e-04,4.363961083066264339e-03,9.792858670350327102e-03,1.723378685413370914e-02,1.777615567759823975e-02
9.689856522160803041e-04,3.664883143757032002e-02,3.566706657502985434e-01,3.907166963980349648e-03,3.631844062893180639e-04,6.241728160291548253e-04,4.810613368149907303e-03,1.138528992518999215e-02,7.106315820910549808e-03,1.445809313857360223e-02
1.412079714065602593e-02,4.599860221968778140e-02,4.085605106128884501e-01,4.633699045677923921e-03,3.013512818716399563e-04,7.027744436945215301e-04,5.114994124625914934e-03,1.083213759276950398e-02,4.275448533258561709e-03,1.068667782616351293e-02
2.411369654953816888e-02,5.626198009667374850e-02,3.874850029753496017e-01,3.378069445223609753e-03,2.801490167670373475e-04,7.627209440402386029e-04,5.265885719507732571e-03,8.057835696725025934e-03,2.830730796075505915e-03,2.003521524253059488e-02
2.864479283470110216e-02,6.795348864357275698e-02,2.665975249424629157e-01,1.612181199340687911e-03,3.354501375173389826e-04,8.022268892538031481e-04,5.255765075905948977e-03,4.827947178368882132e-03,7.178487714652718836e-03,4.303993714078627880e-02
3.506825723893296914e-02,7.728828721313747707e-02,1.337949068676364539e-01,8.522646820366665266e-03,3.558153004247738651e-04,8.200003392107959362e-04,5.081020006182013563e-03,3.521584903133014033e-03,2.589297862356433610e-02,6.332004397155616138e-02
4.607607442618336796e-02,7.993525857855367234e-02,8.531927714039469479e-02,1.248127661326830541e-02,3.263688207204879389e-04,8.152780936134942447e-04,4.742070956061064657e-03,5.038499509624731407e-03,4.066266199601942938e-02,6.515067901095993042e-02
4.619585241313028945e-02,7.670591975723864420e-02,1.028641676523554260e-01,1.119507926921110320e-02,2.968179747124300729e-04,7.878481218769842632e-04,4.243395898460717783e-03,8.388559266826349503e-03,4.059583441744289700e-02,5.197365902898578444e-02
1.915518952070652953e-02,7.325062869934223508e-02,9.524078773122318653e-02,8.373165107356273298e-03,2.660598752985859666e-04,7.380585489683402821e-04,3.593455050235242355e-03,1.163388978641910834e-02,2.858046961431165434e-02,4.301888113725545887e-02
2.252308837971986680e-02,7.292424899619999457e-02,4.081595482238838113e-02,8.499536791747464709e-03,2.153085095892093910e-04,6.668129036741077915e-04,2.804513545963927077e-03,1.264917664167550075e-02,1.001912247240568411e-02,4.937381425228826171e-02
4.520750792670755885e-02,7.143796329643420373e-02,3.278639434039354664e-03,1.011099122186321850e-02,1.647686563448009698e-04,5.755516729914454416e-04,1.892370274964408870e-03,9.879440440864716011e-03,2.064628548691770094e-02,5.911026974462466749e-02
3.432428370601486867e-02,6.023691873594402835e-02,8.775479973706909465e-03,8.484835039628416467e-03,1.169451920570312208e-04,4.662205442350656967e-04,8.760058472480408351e-04,3.450771604267148084e-03,6.652709912027066075e-02,5.414669190308402796e-02
1.046349861181071310e-02,3.417580566308497936e-02,2.913113063836594158e-03,3.620278283712290851e-03,2.347849074191950757e-05,3.412260466919590307e-04,2.228514812786239804e-04,3.994963050253179035e-03,1.107943329374025676e-01,3.642617521322275009e-02
1.037523181488643823e-03,4.829965064012111883e-03,4.849267047198537600e-02,1.038220767686252394e-04,9.951880154340435423e-05,2.033796190506638175e-04,1.380246658725106483e-03,8.230816914004830329e-03,1.327316101845355811e-01,2.393354798053447946e-02
6.802996309324483085e-03,4.852618882422338187e-02,9.495227281325631374e-02,9.400961543380929441e-04,1.395018098815544436e-04,5.583141954173691707e-05,2.570573568528472606e-03,7.234801864424315020e-03,1.354906579484864149e-01,2.360118477095914449e-02
6.727006600841643584e-03,8.486591461265556580e-02,7.587176935097431074e-02,3.429231311743732857e-03,1.313343042808593386e-04,9.800454454514970042e-05,3.767159370528641582e-03,4.212016181386292121e-03,1.375587217217505986e-01,2.424760110535729637e-02
4.531495335300875574e-03,1.044221676182417041e-01,1.077303490432910543e-02,8.266639191893404917e-03,3.152834628895712608e-04,2.545321691242123782e-04,4.942884101819870930e-03,4.185550895157354179e-03,1.411121624008569997e-01,1.629948050966199824e-02
2.082909001138347638e-03,1.071257779677042832e-01,2.573306386189696052e-02,1.022899371121498667e-02,6.223813601686482453e-04,4.100599095639000536e-04,6.070890820130065216e-03,7.535737507077266278e-03,1.307067390832222786e-01,2.565159579212830058e-03
3.273793094835750206e-02,9.918436308603344187e-02,3.170329846219621661e-03,6.053173231622419395e-03,4.879079024216432603e-04,5.608902320510152084e-04,7.125283659332462376e-03,9.968687725680986170e-03,1.019602815234235405e-01,1.184806264367749620e-02
8.061506289474414111e-02,8.409176966681447540e-02,5.893296881768458895e-02,9.147481785392669795e-05,2.137139376562493349e-04,7.034096714662086986e-04,8.081644124983763597e-03,8.685288228453220960e-03,6.949517848696015743e-02,2.526045045400028555e-02
1.083547510760725918e-01,6.259758552797256570e-02,7.460080144834428661e-02,2.054560066710056730e-03,6.148739340396773556e-04,8.341772810258339709e-04,8.917530887624059224e-03,5.647294176539651572e-03,4.338476702213131531e-02,3.243754982830882733e-02
1.055366594468339636e-01,3.882734893676938887e-02,2.695559408842251176e-02,1.490065658221241020e-03,7.853766114340076559e-05,9.500092873123478811e-04,9.613280899115107109e-03,4.709472202997175630e-03,1.688585713900842694e-02,2.620471195933626180e-02
8.053448659345129046e-02,1.867822664882897235e-02,3.219221842628723629e-02,3.302459978611200532e-03,7.561586619397235674e-04,1.048057846775723567e-03,1.015272021071412893e-02,7.541754767914565609e-03,1.588249783295692802e-02,1.239139128331604237e-02
4.522428313694486224e-02,6.314281808347361850e-03,2.869145218795070285e-02,8.166990654026236654e-03,1.017781930383237186e-03,1.125881934587916406e-03,1.052305156217883328e-02,1.249176410380870537e-02,4.509344752520194621e-02,1.104162009829241439e-02
2.140093681774466253e-02,8.901868331870281537e-03,3.232553433645397184e-02,1.089150279257913162e-02,8.272552295845198456e-04,1.181508580816819720e-03,1.071469615338072577e-02,1.607277887298751845e-02,5.751211863161930643e-02,3.169350017231114397e-02
3.352004007771063748e-02,3.452466069220860162e-02,5.403313535438896559e-02,6.974775794293052236e-03,7.477108896397767317e-04,1.213482897968728557e-03,1.072264047144114857e-02,1.563097468699502224e-02,5.501306646658678939e-02,5.546908148658027948e-02
7.431426755033890275e-02,7.622067474574734103e-02,2.428637598652753915e-02,2.599285102823817827e-03,8.494105443402315140e-04,1.220905612609639876e-03,1.054763972831860609e-02,1.201335595993422573e-02,5.150760505326296146e-02,5.588030140065532170e-02
1.034089074887046544e-01,1.111407300513929941e-01,1.415915812568573073e-01,1.387656157460571797e-02,8.881730892296838854e-04,1.203457115591347049e-03,1.019390092556062347e-02,9.185841265745113560e-03,5.376323540384033567e-02,3.485351997398648122e-02
9.508981053573280218e-02,1.242784321597054792e-01,2.115189673999992304e-01,2.456688375675901079e-02,8.197310514348322801e-04,1.161407373102136360e-03,9.666663356472390486e-03,9.789882536282061912e-03,5.297093456265933309e-02,2.277432359748523052e-02
6.221314178036140702e-02,1.191444059345673906e-01,2.331860822376071452e-01,3.365245059917143511e-02,7.591420756002223479e-04,1.095611386381273138e-03,8.976970918287257781e-03,1.259016093789165104e-02,3.937140307123179056e-02,3.791755727140813659e-02
2.671267244848523834e-02,1.014348628530865742e-01,2.376241092689856949e-01,3.801999300851032632e-02,7.384421775177707351e-04,1.007490243044828829e-03,8.146528578114587554e-03,1.545829435560852096e-02,1.994931169159596535e-02,6.053187312877247872e-02
4.987925937195053158e-03,7.111011970466853127e-02,2.019406725475841324e-01,3.392722219991366889e-02,7.015861533381743259e-04,8.989981588529852644e-04,7.196888620425865440e-03,1.777103274651196246e-02,1.088286814781792150e-02,6.171434675603919978e-02
3.232621259765744437e-02,3.478194966408774957e-02,1.014829450909877778e-01,2.258946755052747626e-02,6.155501445374422093e-04,7.725762566264471679e-04,6.137751834282147156e-03,1.870370342763861410e-02,1.314845668412156776e-02,4.687931153911922139e-02
5.110742271413826199e-02,6.550522447873962338e-03,9.421634897260515798e-03,1.049365310113035965e-02,5.161377759107350308e-04,6.310941602643520406e-04,4.988439275332969859e-03,1.690124039757370106e-02,1.050392373907159914e-02,4.669970967668199413e-02
6.004649097970284066e-02,9.807353984994429327e-03,4.856624482390381470e-02,2.786349548943359983e-03,4.624574242055542496e-04,4.777807881659246929e-04,3.801878854895257738e-03,1.287623669827820880e-02,4.256416147019292419e-03,6.828156401875730419e-02
6.384817744109895499e-02,2.484852243298403540e-02,7.982622069191272485e-03,7.047659205479187006e-04,4.251875502352056449e-04,3.161460041221249013e-04,2.617613745696276400e-03,8.929399646094481058e-03,1.666168516263757948e-02,8.224853272432050555e-02
6.824517041389040195e-02,4.540046966038286530e-02,4.732323066362358055e-02,2.432385399768781462e-03,2.912075984242546811e-04,1.498950179947225881e-04,1.407426987355551301e-03,6.951177599556623322e-03,1.076073486238052733e-02,6.307228178012620756e-02
7.794141805571051795e-02,6.458595453795362706e-02,6.002799874672975350e-02,3.740802937485682069e-03,1.069998747032251444e-04,1.716238274936408631e-05,1.722494091600999767e-04,7.987350960613336104e-03,1.113495726031788965e-02,2.077069725600780986e-02
9.493378033768144764e-02,7.223930079877846633e-02,2.811597614753442997e-02,5.041916269585099489e-03,1.197998204895173342e-04,1.812055512273904581e-04,9.412694309412515453e-04,1.173298849407058281e-02,3.463800609134656122e-02,1.494341759876229025e-02
1.132198434829307376e-01,6.534710404316777799e-02,9.414867589172332824e-03,6.156089414838809143e-03,2.608630788948488374e-04,3.384973453547940737e-04,1.846918062334251820e-03,1.487406533680680001e-02,4.950746441236530959e-02,2.841783879377818983e-02
1.228839636683824038e-01,4.964714995487128774e-02,1.665435515161245786e-02,6.422151162310927794e-03,3.428554474525694046e-05,4.854768065452401936e-04,2.775869007639021613e-03,1.337879766038153201e-02,5.495980204603700958e-02,2.869540420785083104e-02
1.258592558161572006e-01,3.928428164758721725e-02,7.249782926496868563e-05,6.605039716056247331e-03,8.858721509599030031e-04,6.188478509389690879e-04,3.843020506199860183e-03,8.249194473851844539e-03,5.425408299792183753e-02,3.194378960003338430e-02
1.340485774016732801e-01,4.492794249520528499e-02,3.990185467596466147e-03,9.220994002829888819e-03,1.416912688802738794e-03,7.356617577736337477e-04,4.474339532743324202e-03,5.113151686983235730e-03,4.997965357591901969e-02,3.982824818944045997e-02
1.411012824317019188e-01,5.172937933716337949e-02,5.573154592493125697e-02,1.461710241447005190e-02,9.883168601031652734e-04,8.333913812364093614e-04,4.346636507150763301e-03,6.116900712971350129e-03,4.576171412173164060e-02,3.949171098738401414e-02
1.179983650851614829e-01,2.876082747769503553e-02,1.252882042057577028e-01,1.874280133306699056e-02,2.490585950128008843e-04,9.099952058043167622e-04,4.985999168874842569e-03,6.478688366787358974e-03,4.682609356980002580e-02,2.409554772699692635e-02
5.675373887937369688e-02,2.469231205524874059e-02,1.667930098307539022e-01,1.833242506944461267e-02,6.843003646067282635e-05,9.639696061835916711e-04,8.600286176866950294e-03,1.767071497556071697e-03,5.365787590560135156e-02,5.684952347934185864e-03
5.896994014920839758e-03,6.794388162892740779e-02,1.919597936599763965e-01,1.682066659494208319e-02,2.982297838659638987e-04,9.943879557964511052e-04,1.459744118712595802e-02,5.456702440076024140e-03,5.916189535469378730e-02,3.307352604837077506e-03
3.167855402318926067e-02,7.100243358226779322e-02,2.431326787192900629e-01,1.951647337141892632e-02,3.736808568629119368e-04,1.000925545572873285e-03,1.925391434942062135e-02,9.464233158551918837e-03,5.576738694097974763e-02,2.273387329901961976e-02
2.243774462613662424e-02,5.026496682996021981e-02,2.845279757210634197e-01,2.307277126808919554e-02,2.794517627417879746e-04,9.838696199255842368e-04,1.976960954765496006e-02,8.431395682507593359e-03,4.147632960279373782e-02,5.096624957138365386e-02
3.734088952641999998e-04,3.569648201470708437e-02,2.210252085371435804e-01,1.815454601662787673e-02,2.637212237459452381e-04,9.441142008436984642e-04,1.679457108589699557e-02,4.880644500177158326e-03,2.057523863870109812e-02,6.867971950319226582e-02
2.105951810530770629e-02,3.047732565107722641e-02,6.935338221406717185e-02,4.834926036323241964e-03,2.543117373452095323e-04,8.831397451486087393e-04,1.246893130387101249e-02,2.299869086131555839e-03,4.355731079036298178e-03,6.823530190388764349e-02
2.762871994549920621e-02,2.254096734589901979e-02,1.233161802886281050e-02,4.657599670097879209e-03,1.270334075819819740e-04,8.029780549345775934e-04,8.083169347572319308e-03,3.459208467486042573e-03,4.060635896225525156e-03,6.036924544769067813e-02
1.548988854888139720e-03,1.252359635678360408e-02,6.261924541445658410e-02,2.551026349563465488e-03,1.029357332227646521e-04,7.061632278159928446e-04,4.179313053329839281e-03,8.661693745962630031e-03,1.564177890563151624e-02,5.936053261810624038e-02
4.830714586959954787e-02,7.340266148554743832e-03,1.897744389828815992e-01,5.618434844769386663e-03,2.710714743230378853e-04,5.956697827313128758e-04,1.198189914633701787e-03,1.419209265481112189e-02,2.364303337844871067e-02,6.164574170849883988e-02
8.242339441239598941e-02,1.163942421799403189e-03,2.411941332834336704e-01,1.262583761144806839e-02,1.280084812562221682e-04,4.748394200021684186e-04,5.540539406032264809e-04,1.597172751868035021e-02,2.570148820246928242e-02,4.907505841620428411e-02
7.599519792325656886e-02,1.406162289259688114e-02,2.202717870086406959e-01,1.748210145796955800e-02,4.578315983290208923e-04,3.472981630079868907e-04,8.196518226218617049e-04,1.491400208820294927e-02,3.095524782362022581e-02,1.642855430734909208e-02
4.521487343389166136e-02,2.698363311501284986e-02,1.649524422499022147e-01,1.673742441916173732e-02,3.173650181710819434e-04,2.168658759075727687e-04,6.740447754154845882e-04,1.451103752521550744e-02,2.852915755996488986e-02,1.765037620967131390e-02
1.734581943888298047e-02,1.828161598962278409e-02,4.309887106460470740e-02,2.278058963568144017e-03,1.367199868905934331e-03,8.746035100127716271e-05,3.638457829600394346e-03,1.430163672074453302e-02,7.167398989469082361e-03,3.339622261907976980e-02
3.025506075441819313e-03,7.622328949947682411e-03,1.434049637420617418e-01,2.422028700362326842e-02,3.018646350807261541e-03,3.700169458617922941e-05,6.595492301978776728e-03,1.131686463280211913e-02,6.832511628787775460e-02,3.110684550951886562e-02
2.483979989668197094e-02,2.375762162251716242e-02,2.884034893141015909e-01,4.732933117260797184e-02,2.512846631716479911e-03,1.527042840918178129e-04,7.238454073153101700e-03,6.548879666738686468e-03,1.110988586029745262e-01,2.407457362606639853e-02
4.164226856755056522e-02,1.673095293873199177e-02,3.259798322805789184e-01,5.588797765045148969e-02,4.631971370129199343e-04,2.560300496841261438e-04,4.174390324025565105e-03,3.693772843697195555e-03,1.141161341910116728e-01,2.112068905875204294e-02
3.167496621719962518e-02,1.231583763961538198e-03,3.162320730413528680e-01,5.400322970150593649e-02,7.830817174673961826e-04,3.436538767654053112e-04,1.256475524506974265e-03,2.828625618123933524e-03,1.008292131438487810e-01,2.115542415004092666e-02
8.613232854532588967e-03,7.096469875630637657e-03,3.137266784820814669e-01,4.951488629239272216e-02,5.953616755038663652e-04,4.126299872567987422e-04,5.742261671252670875e-03,1.457326586925522180e-03,9.611786623572125821e-02,1.954888388644005631e-02
4.934725514072493130e-02,1.250743168892789678e-02,2.926634874872366399e-01,4.298119588398358060e-02,2.004674668118279252e-04,4.604702741384043472e-04,7.282275161820298860e-03,3.838157312943936634e-04,9.920242902007612995e-02,1.609026338145164506e-02
6.095806226694505670e-02,2.407332669542775958e-02,2.466504001472768492e-01,3.227896769470500749e-02,2.945650481614680823e-04,4.852119032888683862e-04,6.852584842438315393e-03,2.598649728760755485e-03,1.037589305979173954e-01,1.498182181072950717e-02
4.814808731437437983e-02,3.857782193038386542e-02,2.134851264418238248e-01,1.878504364805210283e-02,4.686998127432713849e-04,4.854724524899340071e-04,6.182517615151250472e-03,7.574538169352897608e-03,1.097529010745536410e-01,1.820916783897407257e-02
3.426429699625328784e-02,4.908427255326553579e-02,1.756858263018528377e-01,5.526681740138954767e-03,4.027985017592980660e-04,4.604911553337368599e-04,4.846321061511791109e-03,1.230818481642019860e-02,1.115395551171798616e-01,2.516011213734098070e-02
2.858545142421991397e-02,5.482414882783062660e-02,8.099816025147242582e-02,4.899025381255629058e-03,2.776280562134221335e-04,4.101551524922488010e-04,7.363018081460689142e-04,1.674684550243422596e-02,1.002730232014064637e-01,3.738346185194054566e-02
2.557889010025519647e-02,5.286120796436150071e-02,2.800459956378591880e-02,9.507494101422864913e-03,2.446087169406496427e-04,3.350100163085628505e-04,6.350147372952310958e-03,2.270936945439381432e-02,7.857531338141895971e-02,5.368338896854524950e-02
2.222335168181429829e-02,3.506893858055013663e-02,4.642640498032456209e-02,7.140169359509252259e-03,2.219447864202522304e-04,2.362541983110037183e-04,1.269157843520493829e-02,2.906083423024780760e-02,5.418954107596146708e-02,6.294504275359073808e-02
2.074894052432941019e-02,4.046658451732368378e-03,2.204853573193565203e-02,2.069230056481114952e-03,1.390276945798651497e-04,1.157174436912653995e-04,1.414595658663506117e-02,3.309610043726662204e-02,2.360672294307433056e-02,5.397538860743102823e-02
1.941937138857661310e-02,2.067989980609321460e-02,5.895019482913878284e-02,6.341089422092940735e-04,3.498730116298254825e-05,2.417638803017311435e-05,1.163236869927795035e-02,3.458310659923788388e-02,1.892767063791903764e-02,3.115284976694240177e-02
9.031882716482950851e-03,2.406973626534746405e-02,1.108195080095617305e-02,3.088397158435271950e-03,5.451023029807077288e-05,1.804612707959415573e-04,1.032240540493639842e-02,3.436400586105100435e-02,5.966834687728833631e-02,1.217361856720306813e-02
1.520033280733598148e-02,1.557145017312983395e-02,4.035508938465594969e-02,3.125446469489730119e-03,1.448389944957959876e-04,3.496945345802308881e-04,1.266199712543518083e-02,3.207858919691946448e-02,7.488958459136185741e-02,1.162269790817526544e-02
3.575484765863849723e-02,1.675490586615384359e-02,2.193956959851370292e-02,2.496333798395186220e-03,2.500463070730556472e-04,5.280344275931503741e-04,1.550106354356971423e-02,2.858719539778307658e-02,6.506329741931884958e-02,2.779628404070326117e-02
2.316009660901347661e-02,3.252738034912455029e-02,1.399161489086749206e-02,8.213529730109244559e-03,3.599986081619428887e-04,7.113278786889835415e-04,1.536279460888983865e-02,2.690890005927560474e-02,5.734766830379851854e-02,4.211943835742903985e-02
2.250905643329920852e-02,4.634885598699804016e-02,2.871166596289514983e-02,7.202740187341784457e-03,4.646927714048585041e-04,8.952063614266075626e-04,1.300961433592230480e-02,2.781345689388671147e-02,6.705298193864699108e-02,3.513800745622411292e-02
6.265003908253574672e-02,4.425367903359789246e-02,1.398066536475647548e-01,1.314121364780660665e-03,5.653296264275898620e-04,1.075187550202107633e-03,1.092904732119942199e-02,2.827643084095258705e-02,7.895003026603727991e-02,8.886257673339881952e-03
6.851255535136359376e-02,3.040058180725052281e-02,2.046159661285577580e-01,1.506768935949602886e-03,6.631440476275649292e-04,1.246780300648544755e-03,9.313519727201196099e-03,2.683144977917748322e-02,7.548481013628813296e-02,1.136189884537409586e-02
5.065852324648534993e-02,1.437405875769536684e-02,1.551416866229557157e-01,1.663618168620909074e-03,7.541632426749384898e-04,1.405590393150749334e-03,6.972743684247768685e-03,2.637349529182314925e-02,6.120229328583446510e-02,5.496814432469404946e-03
2.826146811101241940e-02,3.793306260032477083e-03,6.085875396448021946e-02,5.293265985681917286e-03,8.344523782476766282e-04,1.547424454287587951e-03,4.633852636990131585e-03,2.927976985448211417e-02,4.990955326290245908e-02,1.587374673733717850e-02
6.050841229807485920e-03,2.666357840928173031e-02,3.285202787897686938e-02,3.658118608665362603e-03,9.027100476285701775e-04,1.668389500422153091e-03,4.877436064553114341e-03,3.409282118069546785e-02,4.661742560758495857e-02,2.669463577232087867e-02
6.492150638026905965e-03,4.667323393010102545e-02,7.264421659047556878e-02,1.805371202806523804e-03,9.579163694962496318e-04,1.764985625790111302e-03,8.709953343793409852e-03,3.900038885338363848e-02,4.841208533814585907e-02,2.230523148207923939e-02
6.680226061197693660e-03,5.269025423817295939e-02,7.920021913046243478e-02,5.122036367294570576e-03,9.981554265049419599e-04,1.834189518420564248e-03,1.397154684553048726e-02,4.380104093076191835e-02,4.722334395750499292e-02,2.147585729956434306e-02
3.830584829076166126e-02,4.581564788490319340e-02,4.639697694296131790e-04,2.568669258505738504e-03,1.021760859143321619e-03,1.873526737575838871e-03,1.820425771064529408e-02,4.703954976244324737e-02,2.986738164636818654e-02,3.334472452693944960e-02
5.983357907419885324e-02,3.676009591961754142e-02,9.394063573370717291e-02,4.390906813447665105e-03,1.027930756112661447e-03,1.881130944188319498e-03,2.156421775971052029e-02,4.638321121347335763e-02,7.840691127012952566e-03,4.600779184090775936e-02
5.802646872144023166e-02,2.917576284186520347e-02,1.102786380720357645e-01,1.017990330709533757e-02,1.016237777969708966e-03,1.855788511210963027e-03,2.484533453384916296e-02,4.272933307298119182e-02,4.590420304270834140e-02,4.808769192731975756e-02
4.228560066239567955e-02,1.882352664016917129e-02,4.199830652629106542e-02,8.898730372987327317e-03,9.863627214795260383e-04,1.796967310104903353e-03,2.629702312369572997e-02,3.939965720298913010e-02,5.689419441047263021e-02,3.913315316069028438e-02
2.145773729717653441e-02,8.697462358825428994e-03,4.453141369568622276e-02,1.724604210597735672e-04,9.383358679713999341e-04,1.704829018792210346e-03,2.366755222398810032e-02,3.761859104297580331e-02,3.903270186402989228e-02,1.946541398979293944e-02
2.183140424838173402e-03,9.831765497958477526e-03,9.513519033926913504e-02,1.123484143840568564e-02,8.726674309276094988e-04,1.580224667813248576e-03,1.789685369475836271e-02,3.636622693158087644e-02,1.513908279889672817e-02,9.864416896899213735e-03
2.543413610894687538e-02,2.541233169684577187e-02,1.080011613465373388e-01,1.817606090906161501e-02,7.902262199868119626e-04,1.424673199985615523e-03,1.153277625229502321e-02,3.483681171423242545e-02,4.503048859565480372e-04,3.731348670930911826e-02
4.730081293499842354e-02,4.731447682053464138e-02,1.105903247481494350e-01,2.075873900734105312e-02,6.921542761618818288e-04,1.240323294748660581e-03,5.648541038721772295e-03,3.210416823942099929e-02,9.822795980221224119e-03,4.906665944637905730e-02
6.618804842299762237e-02,6.838637076487337485e-02,1.272230118888724171e-01,2.280677003683442144e-02,5.798875931593549258e-04,1.029899878252246020e-03,8.858131512620003728e-04,2.697431393577349665e-02,2.391181238691745745e-02,4.859177899125512179e-02
6.635378168543486221e-02,8.551315673408713125e-02,1.652767289796251426e-01,2.614677001896254308e-02,4.551507379179443912e-04,7.966370203530861831e-04,1.806345477066720329e-03,2.033992104337870033e-02,4.260573225180916412e-02,5.143322151047863278e-02
3.019453175065146822e-02,9.242792808836165774e-02,2.069626377264962291e-01,2.896699452302928940e-02,3.198917618071369490e-04,5.441976465207064989e-04,3.713502409629376028e-03,1.473323282189099859e-02,6.323807664903323411e-02,5.839114925966056718e-02
2.746561504030459178e-02,8.312775082551497607e-02,2.065354749614931873e-01,2.909286112038765929e-02,1.762183123896982149e-04,2.765810009197026010e-04,8.310406740206461446e-03,1.010422733519134031e-02,8.061935563061267684e-02,5.327088760852569799e-02
6.328803081002365438e-02,6.196183008971871409e-02,1.194343677644395668e-01,2.579955731333999358e-02,2.635346427621861558e-05,1.977437916023401629e-06,1.697054365156084807e-02,3.283850037537376469e-03,8.551735064875601311e-02,3.182078756160710425e-02
5.379544661667695626e-02,3.855968107189487737e-02,4.333862470343605167e-02,1.866494134722911091e-02,1.274111775368151817e-04,2.871089745722807353e-04,2.686956393691609934e-02,7.065865570644983690e-03,7.357953132070943481e-02,1.228100607797654592e-02
1.855784111292315547e-02,1.373337800254765401e-02,2.021128618303351110e-01,8.172215602757592137e-03,2.827730636478862757e-04,5.744203320895691339e-04,3.385248063831118592e-02,1.786581467876096826e-02,5.535645936081004526e-02,1.134599489981977065e-02
1.114454866552546698e-02,1.771893780390072781e-02,2.721774595137217423e-01,2.094035926059610673e-03,4.374833520901944689e-04,8.596100247412689476e-04,3.591228858514834699e-02,2.490129257595403295e-02,4.753136007327958545e-02,2.739298070365086754e-02
2.793079901177641933e-02,5.232593044277936839e-02,2.369792909250575397e-01,7.420374041202493220e-03,5.894111032898243646e-04,1.138578605826992855e-03,3.346290712862833722e-02,2.612808214148626754e-02,5.328855996561116665e-02,4.946884584242049188e-02
4.267440933989417873e-02,8.023932527465843512e-02,1.472886583837757779e-01,6.914008276496968683e-03,7.365877879825530414e-04,1.407519538567737804e-03,2.790402397261651166e-02,2.136192726041534484e-02,6.030235473421564907e-02,6.676176222986929254e-02
5.334516377672102183e-02,9.943116726117084969e-02,5.568559451749879874e-02,3.387982225221130694e-03,8.772365690387993586e-04,1.663011612178638991e-03,2.141661462764267790e-02,1.189845053331683826e-02,5.910264061645925660e-02,7.134714642002584761e-02
3.951808426875373648e-02,1.117470419866354453e-01,3.160185696120274695e-02,1.643582784622844330e-03,1.009833748855331823e-03,1.902133645599759061e-03,1.672570032379156607e-02,1.890414561238670538e-03,5.209529753172050665e-02,6.547744974567373810e-02
2.606623470348793953e-03,1.093626382409993991e-01,1.280276986489582158e-01,8.920881381301176694e-03,1.133193425077511172e-03,2.122549667719260576e-03,1.507521031678969552e-02,2.338831065831688608e-03,4.021281009191580297e-02,6.048527728568078854e-02
4.118878968678511832e-02,8.352619386699619564e-02,2.085862246719195900e-01,1.710334851442660287e-02,1.246465453240628175e-03,2.322511878939274854e-03,1.535374100299333536e-02,3.340564267871888159e-03,1.438822293067800774e-02,5.933008728141450638e-02
4.654988463518052594e-02,4.330776063462658809e-02,2.219058089265278644e-01,2.163622960920320165e-02,1.349058182514134866e-03,2.500884426300081700e-03,1.563728473962453652e-02,1.732647863272616939e-02,2.937936054864976471e-02,5.196756942511759209e-02
2.816965459934223440e-02,8.308690783653354534e-03,1.666713980999841305e-01,1.956327094857401513e-02,1.440720533064604545e-03,2.657297937015441237e-03,1.397579182508711451e-02,3.377590245871908009e-02,7.685029871116808020e-02,3.550345988939976327e-02
1.024722936725796021e-02,1.435910620503101989e-02,1.036789787295129966e-01,1.356585869567343387e-02,1.521763722429843790e-03,2.792213456830133170e-03,9.019284627511040334e-03,4.780121284067793269e-02,1.074571882651703392e-01,2.313742909255372265e-02
6.669975303099939107e-03,3.055694500489341409e-02,8.163956426134058586e-02,1.010302134219289577e-02,1.592918666036332665e-03,2.906652237736410439e-03,2.631556344000376968e-03,5.924246037358814332e-02,1.127395603651686617e-01,2.356480396543593828e-02
3.129906278995918389e-02,4.090873188906031521e-02,1.059962425712289991e-01,1.350268910913704490e-02,1.654856785296884934e-03,3.002056055586800696e-03,5.424625860973040017e-05,7.110478980403818483e-02,9.752478472721008707e-02,2.680732647328257570e-02
4.912989483517127970e-02,3.859219720176814555e-02,1.761802584451335474e-01,2.203069785857304785e-02,1.708451633754298976e-03,3.080809967508733611e-03,4.400060412148111555e-03,8.443384367638713528e-02,6.856149136185755999e-02,2.226081474356890119e-02
3.672081429818589704e-02,2.245183934219014549e-02,2.824392047137996298e-01,3.047814244008810458e-02,1.755751013756492096e-03,3.146449995280203686e-03,1.228205377003356927e-02,9.584841233940802341e-02,2.886055693205171954e-02,1.731724468415739640e-02
7.982930114101794913e-05,2.310478018585260425e-03,3.669780383209331753e-01,3.571505667714767324e-02,1.799358918645424955e-03,3.202396589746938933e-03,1.777034322077611361e-02,1.013427370459514115e-01,1.449538350328087415e-02,2.413490255993024081e-02
2.619590757843383647e-02,3.151588430538732055e-02,3.542626130503838122e-01,3.728656500818985919e-02,1.840233908281762231e-03,3.251274839178999905e-03,1.998318107454307227e-02,1.022247270559865778e-01,4.361961360996079867e-02,3.799900836494637252e-02
1.740130981820043471e-02,5.739655761793783367e-02,2.260918474802963707e-01,3.388265948116371551e-02,1.878820135121457005e-03,3.297355504128054917e-03,2.331654236290863283e-02,1.046330645375601748e-01,4.224544230663049293e-02,4.328903602586109400e-02
1.558907562668217228e-02,6.584858616421297717e-02,3.341279495893883372e-02,2.392120216614961048e-02,1.919628371685189400e-03,3.347787444950511403e-03,2.994969545646860784e-02,1.115052257964702087e-01,1.412183014870592446e-02,3.562197674917377821e-02
3.816640805671535353e-02,5.169298548099338780e-02,1.517466341558225962e-01,9.808398831798426434e-03,1.968774470732690199e-03,3.407103452955788196e-03,3.660201755368632653e-02,1.184037372368890173e-01,2.008281315671342146e-02,2.522002544609364474e-02
2.696689302584956427e-02,2.903374425402030154e-02,2.731129761640271880e-01,2.843037471969506527e-03,2.023954849833932510e-03,3.474109173289928812e-03,4.020568890086120839e-02,1.206860661324076905e-01,4.288063443208128822e-02,2.046783926839548795e-02
4.980278102462185746e-03,1.583281873400676706e-02,3.039003821566868546e-01,1.068382814107550829e-02,2.079257978287700134e-03,3.553185410350895128e-03,4.229260380504031025e-02,1.213267256182496284e-01,5.105537555699943275e-02,2.067313228803768776e-02
2.182121968383646249e-02,1.325190716357087760e-02,2.544550412985306931e-01,1.388408884913787389e-02,2.146512276822691231e-03,3.660871462659102439e-03,4.578062795269455254e-02,1.270314204193437602e-01,4.994705400228367786e-02,2.559335315529254196e-02
4.933084549657074970e-03,7.701502238681379175e-03,1.682742507238035590e-01,1.306451482296826228e-02,2.245383448211763812e-03,3.801546752951471403e-03,5.093574754108912833e-02,1.387554225081323589e-01,4.329307801749585072e-02,3.810446161035555002e-02
3.152496074818584432e-02,9.922757321145388859e-03,9.673770604188768052e-02,9.204850234471199932e-03,2.357346981959460106e-03,3.952395498309495270e-03,5.570498104560725472e-02,1.504275813530834005e-01,3.146681946787933948e-02,5.190101859365648523e-02
6.858366003087836005e-02,3.417851651032239452e-02,5.784397103434801152e-02,5.316962759876933675e-03,2.445469574595698740e-03,4.114629534766425442e-03,5.773929738417949570e-02,1.570245757075691695e-01,1.780119686637694418e-02,5.068568604097617447e-02
1.061220899302490472e-01,5.508297480275591018e-02,1.877750399716978866e-02,3.634565192451343248e-03,2.553084490845519781e-03,4.346654695492528295e-03,5.644834963431909214e-02,1.609124474422052586e-01,9.721353319838354004e-03,3.053547650815425368e-02
1.422760890788103416e-01,7.137352250177746160e-02,5.520226159068905569e-02,2.183860360117980282e-03,2.763998961009925866e-03,4.655291146836528816e-03,5.433527234427342617e-02,1.679033742152629405e-01,9.724974434339034302e-03,9.902677831720337054e-03
1.501633957965756716e-01,8.646340533557175800e-02,1.375002024302839909e-01,1.409622150468084305e-03,2.990352309928679449e-03,4.921637336348577002e-03,5.472685701630138760e-02,1.783501092216754347e-01,1.078845210633287005e-02,4.730617499053895759e-03
1.081518405950278316e-01,9.568089912385678575e-02,1.642373690123535290e-01,4.195526704481612572e-03,3.051429727684446588e-03,5.130880225487833256e-03,5.827276926051389722e-02,1.871819736514971355e-01,5.111190860135063699e-03,8.044288532400944644e-03
4.292471050870370897e-02,9.017413878543917294e-02,1.202105856330421552e-01,1.479483503166908066e-03,3.133715422413684351e-03,5.541520469595425345e-03,6.384399284928293783e-02,1.939376783861189724e-01,7.811816385752359815e-03,4.888082470550051371e-03
6.845246798967950103e-03,7.195436369126348430e-02,6.111351552408529619e-02,4.886526845142275151e-03,3.652873601201215171e-03,6.214080693204077771e-03,7.094519415384106797e-02,2.048717010734447674e-01,2.469824178589838382e-02,9.166671824107878661e-03
1.797681596504153989e-02,5.251446853036644685e-02,5.017457372547479144e-02,8.310590678445374177e-03,4.181723731295462591e-03,6.547055554599685162e-03,7.829672613487177746e-02,2.186966225273551390e-01,4.162391410791512619e-02,3.071257610710171476e-02
5.067052349555598023e-02,4.005148118121275996e-02,9.836728922758432303e-02,7.726523854109631877e-03,3.208111788597774790e-03,5.826279868282415765e-03,8.163862910405589313e-02,2.163803059340430324e-01,4.982887735887734509e-02,5.396749109573228953e-02
7.282731249167076482e-02,3.866847649032480877e-02,1.539403923416118314e-01,9.482392808257409864e-03,1.965556764559798044e-04,3.793292675846788881e-03,7.394335166456394992e-02,1.739818280028160025e-01,4.043653262490216893e-02,7.311412083251306315e-02
6.714094370163081749e-02,4.973833551764789140e-02,1.343146925314760709e-01,1.764360124822383219e-02,4.842369805177220050e-03,1.958706190559437478e-04,4.743365665518407132e-02,8.492122021409360955e-02,1.974813214305574591e-02,8.738028817277992966e-02
3.302920534468338498e-02,6.044961398048166040e-02,9.307822186866727271e-04,2.799783753646118215e-02,7.977060959338883733e-03,4.906927270378278090e-03,7.084310701292008752e-04,3.101702712225322400e-02,5.666975702595557565e-03,9.650279948163749399e-02
9.538350072124224255e-03,4.487445796042294210e-02,1.923236710678102868e-01,3.412180784995559601e-02,7.302408118592828082e-03,9.791444888302178184e-03,5.256513387675884608e-02,1.363006665549414409e-01,1.884420750205693723e-03,9.433259140996338998e-02
3.400686100683872337e-02,5.059164946369328932e-03,3.336821498980270251e-01,3.595148463610314121e-02,3.259961515241843136e-03,1.222946842230660663e-02,9.138688769107108922e-02,2.006761620834118520e-01,8.220952693476201931e-03,8.199733030092710984e-02
3.698441652932148854e-02,5.987935831085296201e-02,3.868513026667430577e-01,3.932712426195986849e-02,3.499537784674919272e-04,1.271537242144317112e-02,1.102615255370263947e-01,2.293442130257810074e-01,3.598899001477976617e-02,7.497564964937551701e-02
3.454968098511924934e-02,8.060820652939727771e-02,3.906229526948008512e-01,4.760591996088761602e-02,1.912877321517125208e-04,1.383071250489254118e-02,1.222150412203035913e-01,2.545847070997863115e-01,7.152931853351160441e-02,7.854693165380950692e-02
2.966908380149494567e-02,5.900365006118575562e-02,3.710599238911607145e-01,5.619448031761569567e-02,3.995702357586022706e-03,1.574900938199333758e-02,1.326566104642547816e-01,2.867170491849293512e-01,9.560061081202358979e-02,7.383865860638372247e-02
1.493514607291350146e-02,2.030952762428133579e-02,3.294489545577682366e-01,5.736884477251755904e-02,6.595725467046304608e-03,1.547478292630377270e-02,1.290289237916124876e-01,2.961003329748724267e-01,9.525568595755827539e-02,4.751926391607353556e-02
3.754890736096081101e-03,3.340941326737893301e-03,3.061994323730718448e-01,4.929485147133783052e-02,5.491552910099306919e-03,1.173572677853481142e-02,1.077917343326170591e-01,2.661046855764401808e-01,7.143284218555519260e-02,1.852465364706475104e-02
1.890058962793061265e-02,3.399079920085656265e-03,3.453306337355739331e-01,3.667987251216032335e-02,2.398681739752414437e-03,7.715095653982588508e-03,9.054254730672228746e-02,2.365361687003671998e-01,4.007213597640024716e-02,1.495387851719424607e-02
5.129445959301050934e-02,3.128890253892074869e-02,3.919881463858176929e-01,2.320768817104463394e-02,2.493387133824414344e-04,6.821967363529740994e-03,9.519994192651207165e-02,2.537288880956166670e-01,2.008456933828831406e-02,3.353011811871521586e-02
6.891813121459963720e-02,6.026920601336276800e-02,3.414657113100930119e-01,9.268344696728339493e-03,1.373856381006466083e-04,7.970792948943946840e-03,1.078613596413448422e-01,2.947564224292915092e-01,1.573060505583927932e-02,4.413601259876133442e-02
6.524014981712329686e-02,8.328317513069918854e-02,2.062755270155912368e-01,1.997260819554543855e-03,1.335143836070561314e-03,7.817306845773955640e-03,1.044978712903718299e-01,2.971855472122154618e-01,1.528859131145520085e-02,3.668333386472254903e-02
6.226487235628522243e-02,1.050572131396752262e-01,1.220206122020315448e-01,3.914851537688888647e-03,2.770551377906135208e-03,6.027058711303559524e-03,8.902516330352347462e-02,2.603113197851132932e-01,7.100865294033018027e-03,3.820254018355054293e-02
6.915723537992035652e-02,1.183849084463276524e-01,1.604462499805639764e-01,4.785893729599003006e-03,3.990975547553327236e-03,5.143294883619214768e-03,8.620283957149595111e-02,2.486503995207860196e-01,6.767385447148456176e-03,6.774721829751610691e-02
7.702922127671191221e-02,1.075711161981045133e-01,2.388253542147847630e-01,1.619162813150389763e-02,5.442226857433255134e-03,6.201016343136900137e-03,1.018494094812822937e-01,2.849969350681849090e-01,1.316078355365253583e-02,9.884603768124022860e-02
9.163533278769157853e-02,7.848351064709789549e-02,2.501697147106086705e-01,2.242031160586466232e-02,7.825295077598682161e-03,7.363128857427101576e-03,1.136319865899366455e-01,3.121288960136324175e-01,3.571436383684457351e-03,9.323916705658910620e-02
1.285276604394127997e-01,5.415034681077888351e-02,1.937570725559011053e-01,2.345639770230995014e-02,1.043857667144255409e-02,6.555501452521952238e-03,1.025824355102655100e-01,2.815003978718328415e-01,1.455086263776425755e-02,5.437584225912791419e-02
1.749084843109015297e-01,3.658951908806159364e-02,1.303044503056235981e-01,2.222104063084287887e-02,1.096709017696204450e-02,3.706300672705990350e-03,7.459427434565410464e-02,2.162596792708551263e-01,2.602559584355792002e-02,1.866087490299511709e-02
1.937015658766989279e-01,6.288268491184491153e-03,7.833679442998325859e-02,1.797516913640933092e-02,8.238503360679189091e-03,6.528280470539852111e-04,4.758854477337592925e-02,1.630972481165205157e-01,2.553035746710809878e-02,5.520596940335719890e-03
1.665451169021534006e-01,3.467047434184555854e-02,1.290099275374416085e-02,9.701495383898809527e-03,4.068190086299009779e-03,5.728227029574478515e-04,3.287131394493349179e-02,1.329096095733589278e-01,1.939567375421687861e-02,5.281311931617085897e-03
1.097193829864880621e-01,5.013038357972889048e-02,7.126102119178451266e-02,1.007687752873047925e-03,1.035610931385988693e-03,3.641885242275924237e-04,3.261028031239330410e-02,1.115933184755484864e-01,1.116128265788620191e-02,9.494458598413954564e-03
5.506799420081288227e-02,1.345982753425177189e-02,1.485908781444070237e-01,4.073168008021214176e-03,1.703714345440087395e-04,2.193570442167647270e-03,4.258024292453072707e-02,9.096163687905375883e-02,3.124309045149091524e-03,2.277322911346699522e-02
2.722214758367666465e-02,5.329745282391606942e-02,2.023251931593585962e-01,7.261992991347289081e-03,2.304492350417073178e-04,3.833190685224795516e-03,5.210163294751148783e-02,6.723105865557681138e-02,2.316265247922057180e-02,4.268399941359634492e-02
2.656606894958970372e-02,9.872536952255688003e-02,2.376230240370939550e-01,1.299614840344074512e-02,2.302150163396841399e-04,4.803899920717467041e-03,4.977899254556004266e-02,3.478400696308428519e-02,3.918322915226996744e-02,5.169479579937463071e-02
3.075431613203304798e-02,9.742770342536100081e-02,2.628280612398073979e-01,2.110614816303104171e-02,6.965000324248166999e-04,4.368500475177856252e-03,3.408611288223424574e-02,5.649825522945906009e-04,4.280838221015734191e-02,3.684901417480217906e-02
2.315534854136722109e-02,7.321949961658158479e-02,2.853662230840885994e-01,2.753908266673286281e-02,7.836153558943213760e-04,2.224687855474878802e-03,1.419189016378213583e-02,1.922703273558669726e-02,3.681563410011942650e-02,8.302402298829159727e-03
1.076207622992071504e-02,6.357268536387930546e-02,3.051906651686674965e-01,3.083672626216701559e-02,6.547023274930801337e-04,4.860752490370641747e-04,8.748790506854326951e-04,1.231649076915338273e-02,3.152228407481770522e-02,7.263008984417833325e-03
1.985346195092239918e-03,7.489586567333242351e-02,2.856873269863907105e-01,3.206790481220804512e-02,5.654787463405968641e-04,2.674624098619208298e-03,1.017840183622345171e-02,3.087378801471800382e-03,3.386802844289946157e-02,3.888382751098681638e-03
1.636529288886807293e-02,8.340366406699160906e-02,1.792359296904311172e-01,3.004575982079587398e-02,9.906687148310744286e-05,4.876734948810859498e-03,1.835555232333908882e-02,2.689197425767907851e-03,4.234733548000915726e-02,2.168929608658029876e-02
5.849451229965035859e-02,6.839728955472917926e-02,1.771363769776270955e-02,2.351722926365824862e-02,1.333075590805649167e-03,7.668021655291209007e-03,2.910176347712004064e-02,2.160960568421679828e-02,5.397345994150075377e-02,1.687569193293901593e-02
1.057450128707002474e-01,3.032815383942954676e-02,9.312201270253228635e-02,1.613700480609065943e-02,3.251613644182472108e-03,9.745002273508086843e-03,4.116973649724949003e-02,6.429303626968607688e-02,6.965371352130610150e-02,3.374155171691072160e-03
1.187543109189487800e-01,1.494755274582056787e-02,1.088651779191051050e-01,1.245724178888843806e-02,4.300324336255371103e-03,9.404995788878503515e-03,4.812269598594201558e-02,1.153323051868131305e-01,8.432893692386556062e-02,1.549342606394247526e-03
8.526095382041799786e-02,4.491896739062759686e-02,9.018987853043859693e-02,1.167284919844785961e-02,4.176215017104871821e-03,7.038264822756374120e-03,4.367325909357598623e-02,1.543904296831483391e-01,8.187771874320455556e-02,3.331551861936839221e-02
3.468842114407979377e-02,4.176556815887078750e-02,8.232868284418685956e-02,1.065078128547713131e-02,4.189805579962960908e-03,4.479786303350699952e-03,3.057584137161901278e-02,1.570856392700492599e-01,5.486371182312504285e-02,6.734026086963319779e-02
1.478243522089062699e-03,9.663665961154721887e-03,5.495463600059236065e-02,8.976625078275329156e-03,4.847724167065906552e-03,2.613461731303558157e-03,2.139442920042085305e-02,1.260602154631303984e-01,1.928474122095182042e-02,6.995195919412208752e-02
5.859414203723347508e-03,2.433331029286806002e-02,7.953686964763773820e-03,7.208879611378151732e-03,4.549919437317802122e-03,1.365156986880320701e-03,2.656771785113321363e-02,9.819226869428317184e-02,5.278224379291882387e-03,4.893149475848648788e-02
2.874300415822290001e-03,3.536625113815795168e-02,6.027535509611074011e-02,5.183513429542108315e-03,2.307083117565835242e-03,1.389855211779957890e-03,4.412209393722642259e-02,1.029095658600494567e-01,1.753387173655768586e-02,2.683018089674589143e-02
1.561729892782900454e-02,2.056251139217702209e-02,6.952250260007286631e-02,4.576778727272790698e-03,2.447895206082068844e-05,3.650683429799685478e-03,6.219355307841220593e-02,1.264567112799357407e-01,2.391156172557210025e-02,9.054144379506825352e-03
2.187548322479447929e-02,8.729768585998418789e-03,6.558138806289420808e-02,8.205735531028353694e-03,6.410931222138301707e-05,7.434596232802730999e-03,6.820695598531893722e-02,1.322391655413402145e-01,2.415552366609828236e-02,1.347965009492321613e-02
1.740360602401363338e-02,4.130161519600674541e-02,8.649450851254261718e-02,1.504010643836103771e-02,2.620631632913535385e-03,1.035778635506450635e-02,5.748826525957266564e-02,1.081404950363907963e-01,2.148842787897714546e-02,4.460106382140668901e-02
8.962261705568378908e-03,6.776145199651913142e-02,1.220413158110575103e-01,2.015633799827670075e-02,5.438871952694776871e-03,1.048025089943005299e-02,3.757820429983974031e-02,7.781914427893520114e-02,2.820730584482786241e-02,7.385348080904698131e-02
7.952140458113640675e-03,8.177017029548575011e-02,1.370339955040399682e-01,2.120442028151000788e-02,6.643108784690711713e-03,7.997297416150989102e-03,2.275367606174967527e-02,6.465009524501319493e-02,4.653170707654052940e-02,8.726591467635132215e-02
2.241863596060762395e-02,8.607738651702587229e-02,1.295351786854397336e-01,2.145735647705832028e-02,6.715484070372036186e-03,5.314892803696869353e-03,2.299228580616095516e-02,6.391552028696592669e-02,6.071204792714550436e-02,8.480885094945339597e-02
5.469419685534417791e-02,8.824701436600146387e-02,1.317132476881193726e-01,2.447391473869193340e-02,7.896920092689968529e-03,5.213238993172831549e-03,3.770359222675504635e-02,6.306547396893451285e-02,6.017239922248320688e-02,7.737563144455526787e-02
9.523374298971186425e-02,8.931199789125246480e-02,1.516523424574867107e-01,2.814201039047219827e-02,1.076518547392906963e-02,7.511487886378685579e-03,5.360541537815992352e-02,6.714419037825419823e-02,5.395437960981279424e-02,6.820420496393361787e-02
1.198432369362399663e-01,8.642039703372633719e-02,1.579553897247291949e-01,2.664499210170333601e-02,1.208491568052804874e-02,7.799821821846435708e-03,4.957210344630055832e-02,8.054170189526570212e-02,5.195447618573926368e-02,5.300866659344391496e-02
1.089912446080725517e-01,8.570400302028259587e-02,1.385884109989538315e-01,1.818266522867002799e-02,8.353024895753360934e-03,1.822949574095558125e-03,1.741632094174541678e-02,8.572980844689077895e-02,4.837387415611846958e-02,3.483683442342144776e-02
7.170035609952464528e-02,9.770374826117722566e-02,1.312599884869011801e-01,8.760749134215229175e-03,9.599765968157721215e-04,8.468365851435653152e-03,2.215994305865682384e-02,6.872818207677530711e-02,3.466413505333860307e-02,2.342559735912942351e-02
3.617790753436646300e-02,1.145405351295320090e-01,1.743807986038796165e-01,6.045282744757470017e-03,5.280194555417774480e-03,1.584428889152183009e-02,3.917578705157230556e-02,4.406948449347674462e-02,1.544659225103054041e-02,2.547782888936143963e-02
1.641952196847430365e-02,1.092938072911069369e-01,2.567963016343250970e-01,9.818796736948603998e-03,8.277575809621047845e-03,1.569095393020707163e-02,2.660248975508411329e-02,2.752848486224811903e-02,9.493694155444184655e-04,4.316817847652506396e-02
3.635542991144984082e-03,7.247455918433422239e-02,3.281672772182763764e-01,1.258789311355850218e-02,9.551904412791360072e-03,1.028283863108270767e-02,4.556111350839907315e-04,9.545315290983395762e-03,7.432553209782010936e-03,7.227589838302725389e-02
8.405098916911126622e-03,3.136970470766014402e-02,3.493603557974146456e-01,1.040919358399895571e-02,9.507616231572407067e-03,4.268695059463002532e-03,2.798341842664055917e-02,1.574635881363504672e-02,1.548163489739978749e-02,9.991390926581228404e-02
8.256054357794176748e-03,1.469702371433528193e-02,3.306914135322454595e-01,7.269168931661550322e-03,6.739315484117576818e-03,4.703085904074490696e-04,4.965505746678723631e-02,2.145936844394527587e-02,2.565771489120080573e-02,1.143845752342883410e-01
1.502183972742800536e-02,1.756118480819814434e-02,3.150154060074544793e-01,7.110331220616382050e-03,2.299113522409618367e-03,3.737594587125641840e-03,6.077130984088924964e-02,1.847960096961920318e-02,3.470536720167442801e-02,1.149977677550700766e-01
4.993825873666287579e-02,1.982709126942017869e-02,3.255162834300726060e-01,8.620037565900375703e-03,2.889284534977469327e-04,4.531014718787638659e-03,6.236385290682845695e-02,8.497832339103936206e-02,3.846088371746568535e-02,1.042957072404142593e-01
6.722000656352780656e-02,1.813936905642587680e-02,3.429985801593837813e-01,1.016468806226589021e-02,2.467942965109433710e-06,2.429253023605444130e-03,6.530021353791078120e-02,1.354977153749045982e-01,3.441366792339502212e-02,7.818316293198279698e-02
4.673470295587692225e-02,2.396745170878151684e-02,3.193903716261042858e-01,1.226374025363560077e-02,6.453312782312789096e-04,4.247962724746907220e-04,7.793910723313204891e-02,1.586410049591436833e-01,2.243695309174969024e-02,3.524776293576079023e-02
1.567561389782969224e-03,4.585993580646299805e-02,2.050392241822973638e-01,1.249928480932979528e-02,1.505583821646992639e-04,9.285772686247707394e-04,9.368705565161573878e-02,1.760758693372403705e-01,7.899718649419476546e-03,8.809584057968534998e-03
2.922323250196157476e-02,7.963410759395309069e-02,4.626981594615711332e-03,5.824407222713597759e-03,1.553932750466234134e-03,1.882777868479627598e-03,9.992438011548779309e-02,1.951562780647091433e-01,2.120198888909521299e-03,2.798720512736400934e-02
2.037252783198989156e-02,1.075366491509328615e-01,1.853187550543486661e-01,6.620552016505278949e-03,2.684120548239282873e-03,6.358106021301412544e-03,9.674394462124280558e-02,1.922549270947602196e-01,1.402346996191807492e-02,9.247590818737974963e-03
1.446033799758466090e-02,1.137253061445554492e-01,2.509145922491090586e-01,1.630649557842176259e-02,4.095308272102794918e-03,1.020798763650145567e-02,9.806332910085932553e-02,1.526423502884870775e-01,3.999168854373020415e-02,3.507647875078596933e-02
4.691815667134423967e-02,1.039179549318531015e-01,1.788210829966995763e-01,1.823552718146205856e-02,5.659647020362755174e-03,1.202115790004443935e-02,1.117314487022331021e-01,1.006267409382394507e-01,6.558648455975805980e-02,7.898135893235519456e-02
6.782651550182862421e-02,9.448203734935606279e-02,5.007797652091169199e-02,1.588134920243299691e-02,5.712264336043667602e-03,1.168207945578281053e-02,1.250419407907755187e-01,7.060783378316853875e-02,8.009477988117102987e-02,1.056584299684608236e-01
8.128811757442948316e-02,8.350558858453031863e-02,6.638899676971968256e-02,1.269051186171671688e-02,4.080415580487447604e-03,1.044665571378933060e-02,1.185652726925789102e-01,6.918056016119207563e-02,8.642472927050207088e-02,1.168296118010388185e-01
8.166810822458640817e-02,5.628218189166291768e-02,1.521983979909249940e-01,6.986926805024482046e-03,3.259846748008345639e-03,9.900456045316224918e-03,9.330736042163807753e-02,8.735716520474978708e-02,9.253637870026969192e-02,1.196712862467532029e-01
5.776141430485084299e-02,1.985861222163896531e-02,1.922902775785315654e-01,1.281234865589762212e-03,4.327038504242483770e-03,1.012129495191888690e-02,7.232045860133957949e-02,1.243017973137095777e-01,9.710202846268792265e-02,1.132585620320513409e-01
1.404679485915715821e-02,3.620164763210829972e-03,1.651195490826017076e-01,6.545675679418484078e-03,4.813274040621753555e-03,9.780295678736465950e-03,7.184255990485691190e-02,1.730737710501036586e-01,9.039433800815287190e-02,9.663669036206308516e-02
2.527228002869616116e-02,1.890841015423891380e-02,8.060085341670469861e-02,4.357587813470824994e-03,3.180243368448770758e-03,8.420658230636070274e-03,8.339977973518593324e-02,2.107965146162268932e-01,6.705878293045088034e-02,8.271473176267216121e-02
3.398507882679577957e-02,4.468936238758867280e-02,2.916896316186712995e-02,3.336899688625387123e-03,1.886328564609091952e-03,7.489746438435216334e-03,9.060583728574171658e-02,2.299244828658199846e-01,3.227727088461629368e-02,8.834035938551297595e-02
6.616318407255868290e-03,5.984053496489680907e-02,1.483835324734393002e-01,1.199637687784743667e-02,3.421503653704599784e-03,8.704963690702458359e-03,9.189844549571875298e-02,2.539167513217414074e-01,3.407983076081429630e-03,1.093910627408975766e-01
3.230653114476893240e-02,6.234082040786517731e-02,2.579359608997272568e-01,1.902944377653154051e-02,6.590419445714626803e-03,1.220057753461380352e-02,9.756520212403313463e-02,2.974795979356640863e-01,3.106667588513153597e-02,1.197938086315861739e-01
4.710328381890402372e-02,5.177325049694905812e-02,3.057196335892239936e-01,2.320495636556474395e-02,8.782126704438219036e-03,1.628040664138239585e-02,1.101625294617272627e-01,3.323884046999543984e-01,4.520838993269665762e-02,1.014122317258788208e-01
2.504356419408257026e-02,2.249470599342758351e-02,2.594538534373428407e-01,2.374078302191962725e-02,8.976319748303788690e-03,1.818671620558544311e-02,1.148473538933908744e-01,3.142891142432387430e-01,4.317086578909390404e-02,6.243761011662522786e-02
1.460799855351221747e-02,1.946455242658278253e-02,1.726341627152536140e-01,2.198106089576245398e-02,6.985945053824479944e-03,1.556410548140671826e-02,8.971962132180771876e-02,2.315095329968505644e-01,2.769942280940916601e-02,1.948214396373448148e-02
4.678280022945018046e-02,5.780945102150154835e-02,1.370648420590697691e-01,2.100070874536046420e-02,2.618258586303406910e-03,8.471854455016299829e-03,2.810803246224451504e-02,1.165605046443105031e-01,9.301275913340286555e-03,2.155574885852309594e-02
6.279759963706368908e-02,8.844671922860475322e-02,1.648684135683295415e-01,2.117708068258025364e-02,2.637743596141092772e-03,8.574475805023327318e-05,4.890695039812543998e-02,1.477113281784385793e-02,1.249818876370788635e-03,5.636493778199187094e-02
6.527596181088511640e-02,1.210027741563440562e-01,1.679619360666700367e-01,1.877850255498382526e-02,5.452937371368799142e-03,6.328537296012902956e-03,1.092537886017945770e-01,5.633471424305102476e-02,4.798210410195910026e-03,7.231694153538253955e-02
5.935925496898822318e-02,1.574188085220770139e-01,8.440291177316323890e-02,1.189503342120298846e-02,4.104811353726952119e-03,8.295542201050417133e-03,1.392365385838558733e-01,1.111107724636725830e-01,1.007337385544214599e-02,6.215882743068804062e-02
5.519887416523737433e-02,1.852195087973046439e-01,1.411237963114059246e-02,4.514734191433695566e-03,6.462392633846169090e-04,6.666265442518996484e-03,1.478639017931424049e-01,1.577084642016073901e-01,1.602378100266268340e-02,3.783236939594086801e-02
6.224926094532114845e-02,1.911449630527644605e-01,1.699162323418206000e-03,9.362640424366011280e-04,1.590375235536632291e-03,3.905907280207319716e-03,1.461025163267897220e-01,1.787940694646122097e-01,1.006372685196003577e-02,2.156658523853024340e-02
7.361714758942107528e-02,1.706711813022322444e-01,1.294754906350437940e-01,2.547629990394565877e-04,1.595310905314149992e-03,2.097768363186671564e-03,1.333513568360927548e-01,1.600544424136241539e-01,1.015828401505686727e-02,2.619613617971309344e-02
7.245304455707836377e-02,1.297439754403412471e-01,2.479802376536033026e-01,9.007850744006083710e-05,8.614732766593280119e-04,1.216686482723320977e-03,1.042783679143154257e-01,1.162392684844134327e-01,2.606766407721244905e-02,4.669430996662005812e-02
5.916636946148041282e-02,8.576444218752680981e-02,2.384119357599397138e-01,3.276218656857029718e-04,2.946410246939229591e-04,9.184395826187588541e-04,6.550861517580928994e-02,8.696109768705236054e-02,1.983768247374136789e-02,7.043259113476461886e-02
5.250291577368665363e-02,5.884806897542940729e-02,1.218089251686952229e-01,5.413724950959529839e-04,1.952967687287313764e-03,3.614059489500344533e-03,4.320349271319709472e-02,1.187190312327861541e-01,1.106740790225637684e-03,9.353816846598624057e-02
5.979861342913132122e-02,5.448304628857752324e-02,1.982449220126401845e-02,2.998992869330703581e-04,8.077636085762259291e-03,1.205550182937496426e-02,6.138582258075028081e-02,2.296466729377682203e-01,1.189356097187799916e-02,1.228285677209938753e-01
6.845379948953279892e-02,5.849768658052647424e-02,3.224760905858065074e-02,2.343869175803790089e-03,1.633767132055721771e-02,2.301127155862019852e-02,1.058949774562318868e-01,3.730356445092877227e-01,7.422100035185546802e-04,1.616846668588146074e-01
6.882440315958042454e-02,5.091986175493878886e-02,1.419912773624397995e-01,8.206752387194283030e-03,2.176211601151581063e-02,2.821138536190544513e-02,1.286427929811773951e-01,4.603492539988438548e-01,2.609805115566669539e-02,1.995486323287462560e-01
6.366488036156472963e-02,2.539731025677240475e-02,2.331323306390700734e-01,1.298673509764954569e-02,2.180707478085974413e-02,2.430846968754516238e-02,1.034223265456030161e-01,4.434532110186368281e-01,4.569987645995618464e-02,2.175640292301142253e-01
5.698042514288794574e-02,6.803112559873175647e-04,2.203013681658899103e-01,1.162726848341921228e-02,1.869812990215098669e-02,1.739208968974290115e-02,6.205762936131752061e-02,3.619112349500266390e-01,5.299004701005598228e-02,2.032591364356942654e-01
5.342741769253818440e-02,6.582442491047078847e-04,1.454404013120596806e-01,6.351047632422141855e-03,1.542532960380105581e-02,1.441991706754597660e-02,5.620521897305769121e-02,2.948670197494941969e-01,5.331805877906716645e-02,1.613538351327165610e-01
6.097277123277121402e-02,3.519344925319853323e-02,1.110621669841612147e-01,1.847062187599610985e-03,1.226680863630784032e-02,1.487971802597004393e-02,9.320967047301141617e-02,2.765817798400777017e-01,5.204828953479188891e-02,1.115703239346393788e-01
7.617925691458182769e-02,7.372589784831985738e-02,1.414268017489561380e-01,1.339956205965243128e-03,8.492050790735347979e-03,1.442935907134472624e-02,1.310874315539184154e-01,2.766791585858656699e-01,5.057213531308210608e-02,7.310013632384126936e-02
7.907091053721966578e-02,8.540588537844634454e-02,1.718956028081949083e-01,3.129845086033928268e-03,4.942756035438899617e-03,1.202860248867899939e-02,1.348581743414816181e-01,2.591205929862218094e-01,5.109223124298033908e-02,5.038815499430688433e-02
5.810822712863899370e-02,7.281352494300717682e-02,1.633871124809424535e-01,2.351948991233868396e-04,2.916001848042923308e-03,9.723682888297882285e-03,1.148284590326785065e-01,2.329059610116150369e-01,5.704663895911539495e-02,3.657192651228399760e-02
2.631837588147681664e-02,5.517327041743771282e-02,1.467795486416798856e-01,7.835244509560183868e-03,1.921865081104754021e-03,8.983753008895015504e-03,1.018048357817581406e-01,2.284680726744350854e-01,6.748464454167538151e-02,2.833637513083963472e-02
9.378843104711695466e-04,3.256044101240907623e-02,1.459142260187383244e-01,1.522847732438545494e-02,5.830231349969513394e-04,9.881586412562008356e-03,1.053224685630634594e-01,2.455569971412320252e-01,7.649519763427743702e-02,3.023112142694084348e-02
1.575553586931865979e-02,1.449535114935739805e-03,1.388736751150635440e-01,1.768603442358568020e-02,1.012785528808812915e-03,1.136588423494335962e-02,1.115498070409968179e-01,2.530364213011019880e-01,8.028666839327135152e-02,4.413364413804234804e-02
2.221587459939364934e-02,2.049244980842330338e-02,1.210363388762060455e-01,1.829530282291727192e-02,1.636445439246265923e-03,1.161947851186802792e-02,1.100281692518657595e-01,2.328210364588051140e-01,8.120872252895137977e-02,6.268257451066544528e-02
4.737142160465043772e-03,1.863428845051443711e-02,1.316816449574752246e-01,2.075323200942855162e-02,9.842642971759874796e-04,1.036718863892088435e-02,1.066426975889898932e-01,1.993245669240051310e-01,8.239603898509967328e-02,7.634732017657065717e-02
3.906845221142208474e-02,1.125209248575035348e-01,1.792575408734120856e-01,2.263196020081776130e-02,1.167890261892375828e-04,9.922210297368011175e-03,1.115111716756350957e-01,1.752415219772427424e-01,8.127759522484898080e-02,8.081900327953753238e-02
8.008330252353811074e-02,2.016438475629056259e-01,2.071251105348631827e-01,2.002801497529520247e-02,1.093823861156129106e-03,1.159814694572525173e-02,1.221036790685563755e-01,1.636462298687578476e-01,7.293678029656361361e-02,7.478939917519587810e-02
8.621514127324410304e-02,2.374927184010911518e-01,1.819638182953741967e-01,1.459638239991201299e-02,1.864312999129591041e-03,1.295051645680182426e-02,1.231771730823687933e-01,1.485567221605156307e-01,5.904120358372053068e-02,5.823047133178267665e-02
5.976840767167208857e-02,2.276129068092554719e-01,1.555034443726038274e-01,1.173007167821792790e-02,2.004847660270859394e-03,1.126358352112189279e-02,1.046629445639464945e-01,1.175875279149310587e-01,4.769959323442193172e-02,3.826735719034155686e-02
2.692592207494867024e-02,2.057766312976029022e-01,1.858060248878311005e-01,1.385866796556401576e-02,1.086975220300397289e-03,7.898338138799084612e-03,7.547428667187927598e-02,7.734376396696905631e-02,4.373108661263867131e-02,2.732226947412063484e-02
2.592600240836366067e-03,1.874972473201953205e-01,2.522729839150415487e-01,1.809130285205131500e-02,2.621541997069306911e-04,6.493270712980594474e-03,5.467654779801844889e-02,4.547945550085129296e-02,4.348410200752637206e-02,2.716470713548028645e-02
1.803505001692345261e-02,1.647308363359151206e-01,2.978107650676831142e-01,1.973246572950714678e-02,1.100886267040191314e-03,8.230569043439165539e-03,5.133558904858003674e-02,3.478679382550076138e-02,3.910969647738059274e-02,2.777659858439141330e-02
4.254652179925724753e-02,1.264903750182915787e-01,3.028319947285548208e-01,1.669628214068412039e-02,1.826629962209019029e-03,1.093838679107994247e-02,5.816039537483898292e-02,4.614506763929198535e-02,2.543883785091704056e-02,2.925612562810096101e-02
6.804146357830052894e-02,7.561758375099848772e-02,2.740451794035264066e-01,1.011369744223285759e-02,3.472837495952514619e-03,1.167952422096054516e-02,6.262349201246703023e-02,6.760480060369104816e-02,5.025345955822842388e-03,4.179730086672073242e-02
8.134580557125553613e-02,2.662294535083962674e-02,2.095282243282702572e-01,1.849575999543578335e-03,5.602498329458092778e-03,8.938137596221336703e-03,5.777683593893633007e-02,7.958825146306587606e-02,1.215437810489904992e-02,5.735399515522134756e-02
7.046349513508498585e-02,1.163594350010307456e-02,1.148144321851435612e-01,6.903572487798744287e-03,6.668104810770501302e-03,3.440842114208654198e-03,4.319134242907586574e-02,7.064844678733850358e-02,1.789786362524699651e-02,5.281320375062212302e-02
4.106091239203246701e-02,4.558915204206911986e-02,1.654339227856461286e-02,1.527955018642375602e-02,6.293614570570175634e-03,2.553728152391259668e-03,2.218401971987994312e-02,4.782296744699880697e-02,1.553558829526657629e-02,2.555629346848576830e-02
1.856031296499565525e-02,8.624582522230929416e-02,6.720751237318232929e-02,2.270745161496842343e-02,5.569795011633546337e-03,7.498190410055565955e-03,1.162938844905834178e-03,2.336902681477000254e-02,1.647293914528656644e-02,6.877133740685163060e-03
2.478841699252770300e-02,1.352462186764040453e-01,1.437400786169332478e-01,2.883479254387728494e-02,5.266345291234847403e-03,1.156063159868922496e-02,2.619284335239608838e-02,3.993572517580952844e-03,2.749791583598156300e-02,3.954472883476235767e-02
5.437987746413181639e-02,1.851543515334949097e-01,2.218785017732055054e-01,3.283788396427834988e-02,5.140057545352971075e-03,1.492448646640158298e-02,5.527966827082189671e-02,4.330357812068940521e-02,4.629113440427778947e-02,7.981673125680097125e-02
8.173647308545201051e-02,2.276827920819879392e-01,2.964394923808957305e-01,3.384498143542478965e-02,4.856110698188042391e-03,1.672895249663501269e-02,8.629865205411968443e-02,9.190836977349094161e-02,6.818754041090829832e-02,1.203368931547122850e-01
8.871090762783795380e-02,2.583684468135586387e-01,3.607658039718308340e-01,3.233950730674279433e-02,4.514142539590013797e-03,1.657170250835024103e-02,1.101615909682664707e-01,1.357317739187552941e-01,9.042854231038847945e-02,1.415416819053151587e-01
7.929729095617801815e-02,2.777375215873317260e-01,4.108317893587001279e-01,2.996913916518225557e-02,4.269726441079046281e-03,1.549458406212264258e-02,1.208150030063211561e-01,1.671176834684229562e-01,1.084736966598338487e-01,1.378387503976173656e-01
7.044269757980604896e-02,2.893758780052805291e-01,4.348890406382756035e-01,2.791277867106753408e-02,4.077402103801003319e-03,1.465302430378536726e-02,1.235254919428334652e-01,1.901931142631184124e-01,1.148620053324472118e-01,1.207285304157582062e-01
7.517715001001820663e-02,2.923007712651319312e-01,4.222745900618827264e-01,2.631640980248275627e-02,3.862347253667266361e-03,1.413754635314532805e-02,1.275360637589133816e-01,2.088061786717342327e-01,1.063817341770363079e-01,9.882494846279554768e-02
9.438998770290099594e-02,2.764980521786263301e-01,3.839241013405579883e-01,2.481103152755527799e-02,3.642989198491120365e-03,1.355705858402837631e-02,1.332759582971776158e-01,2.197557559508576397e-01,8.911160171264816132e-02,7.051577346604935570e-02
1.208223375592095417e-01,2.343322126559192753e-01,3.419191173462809985e-01,2.257454569770033295e-02,3.452304066464053668e-03,1.286422419663997042e-02,1.329990397705202998e-01,2.200349840152386049e-01,7.151842392293696060e-02,3.706701932859530341e-02
1.464674654643930707e-01,1.767598520243659210e-01,3.009779893982950094e-01,1.851206402560024583e-02,3.279515666566236876e-03,1.223096823970581427e-02,1.232799794823684486e-01,2.134432346585994345e-01,5.415936442877857665e-02,1.133074879014117110e-02
1.616685094266127887e-01,1.281975514331519517e-01,2.546070369445920800e-01,1.262959108011986638e-02,3.106306421272197766e-03,1.167665611079622343e-02,1.103019463147200951e-01,2.070517460773313445e-01,3.231560397390113859e-02,6.814384573040186202e-03
1.534395059277418594e-01,1.012136771898699966e-01,2.132550234476109086e-01,7.169159869151899359e-03,2.934639631109112624e-03,1.111658883802344767e-02,1.012810925179003646e-01,2.044706930912384146e-01,8.806150534696740445e-03,2.206089751584672590e-02
1.190868487425421479e-01,8.409442347547352314e-02,1.966012735233326481e-01,5.199869466084033540e-03,2.770226345983394043e-03,1.053581095974621268e-02,9.661058081080327320e-02,2.036882766460732519e-01,4.635111834730066237e-03,4.169825945825387375e-02
7.673578598104259518e-02,5.959831810812211972e-02,2.002731940796264598e-01,7.373518802207491320e-03,2.609377496501165232e-03,9.968874374343225653e-03,9.284163642518385162e-02,2.000812661839784234e-01,2.250284293306804156e-03,5.109213623246956770e-02
4.544413910003708423e-02,3.050452002673535029e-02,1.985745040531594618e-01,1.084697189836008810e-02,2.446664057379339431e-03,9.418424160324697855e-03,8.840356802520020485e-02,1.917859711616617668e-01,8.304638771555628018e-03,4.512716392463379106e-02
2.313920885783658440e-02,1.696392184299937850e-02,1.813523879135242045e-01,1.232383711780936364e-02,2.281241849621710484e-03,8.863827537101709800e-03,8.362186081409681004e-02,1.818091280654616781e-01,1.814035465206370948e-02,2.563632704902142623e-02
5.521366498387296484e-04,2.835513586703389613e-02,1.630100775043817618e-01,1.136223455080838211e-02,2.113410479437666679e-03,8.299541889514190293e-03,7.777939059669862487e-02,1.737705359238256309e-01,2.768725587976329783e-02,6.313423761545059951e-04
2.616751339007600957e-02,4.775525508457579421e-02,1.526046175021524565e-01,9.719146760817583969e-03,1.941670354246097458e-03,7.731673610146840708e-03,6.890056124319050845e-02,1.678024909099028461e-01,3.886778764497483829e-02,1.918650064928158205e-02
5.366348752353180401e-02,5.052179189613464211e-02,1.397195171977390349e-01,8.550684240546099768e-03,1.764349323705782790e-03,7.160084584899736003e-03,5.726066512823527188e-02,1.626944039529469033e-01,4.528803234512429610e-02,1.319103509840606307e-02
8.837150075947014516e-02,3.176987426441036516e-02,1.155280368347347125e-01,7.632508330555898279e-03,1.581041462807164380e-03,6.579879825843453801e-03,4.736669221500260096e-02,1.588881911695722848e-01,3.948269784578287145e-02,1.948916938833046564e-02
1.224567955184949902e-01,6.841506946308906906e-03,8.713534410021936405e-02,6.584094282715117347e-03,1.391892470710112423e-03,5.989877750333215053e-03,4.353653619674729969e-02,1.567606289101594885e-01,2.546274255505986267e-02,6.103463118724253983e-02
1.308165004650168883e-01,1.078579355483252726e-02,6.526378551389934446e-02,5.497622224358620843e-03,1.196934720997702272e-03,5.392067483153496765e-03,4.460374021559875002e-02,1.548753086504262022e-01,1.506449857518101648e-02,9.355479993042117859e-02
1.038018594821909363e-01,2.006349537795656252e-02,5.301429101282608553e-02,4.511665825468099029e-03,9.964189052032899289e-04,4.787662148842351459e-03,4.613167066030915420e-02,1.524584011419028440e-01,1.368932255882083539e-02,1.167962887994801330e-01
6.844352283426888284e-02,2.180049465513157064e-02,5.036805266471217069e-02,3.593839588552569242e-03,7.911222522776937497e-04,4.177306043249643004e-03,4.626735514679661265e-02,1.511840704317372053e-01,1.714269552780544464e-02,1.373695367430322889e-01
5.495870230273546680e-02,1.183278203799907613e-02,5.667202859509333501e-02,2.739281927422563753e-03,5.821777366654800473e-04,3.562901727550030033e-03,4.605698109377862060e-02,1.509867310817571140e-01,2.087591162412243823e-02,1.491425129496012081e-01
5.542772188510498854e-02,8.236337939405709296e-03,6.365733476038268335e-02,1.931648003556944021e-03,3.708968978614483923e-04,2.947487818606792098e-03,4.568677842083324059e-02,1.457290486009398256e-01,2.430710786971828491e-02,1.383904887715994847e-01
4.339771620986853512e-02,2.328024661386558086e-02,5.784831829552584959e-02,1.030924747148740349e-03,1.588062185313691044e-04,2.334311664632073707e-03,4.402047978677012252e-02,1.298442408980260976e-01,2.569499162990444840e-02,1.059084665464780362e-01
2.095245370530115017e-02,1.860556013606749076e-02,3.817246062736635165e-02,9.622532082324396913e-05,5.232045757662618030e-05,1.726784003141019867e-03,4.066429153783837624e-02,1.096290893184855703e-01,2.049750658556022398e-02,6.815208326355097490e-02
1.084986497463610172e-02,2.443422311187709930e-03,2.059909294756029352e-02,4.971301139835143917e-04,2.605377932475063394e-04,1.128802799695102603e-03,3.540282737492783660e-02,9.664542955255529810e-02,8.068946391161704174e-03,3.309659359886314017e-02
1.232292300380432096e-02,2.338831825164827682e-02,1.633384508268306487e-02,8.963706612776112942e-04,4.638110212940391858e-04,5.446528206051333941e-04,2.730949593609266132e-02,8.690793344507954932e-02,5.506506405543018859e-03,7.262612267560728668e-03
5.589556544058979157e-03,3.328097164187879264e-02,1.686587363222630254e-02,2.289988083880012057e-03,6.600524429067045323e-04,2.128546363817603905e-05,1.745696723619257623e-02,6.264320438946499592e-02,1.496172114022995686e-02,5.396969475222953422e-02
3.974007295535345215e-03,3.438102243222968674e-02,9.512332497373456736e-03,5.567966354027719181e-03,8.471577576487515377e-04,5.646397897779358932e-04,1.004133358672907109e-02,2.099363407536983944e-02,2.150540960873885757e-02,9.200738661765736626e-02
1.070481127338934225e-02,3.579601614284278616e-02,4.338689590316151604e-03,9.687072251498301048e-03,1.023065176429983772e-03,1.081063909669182591e-03,7.513858413888661186e-03,1.796410375880198515e-02,2.771220113194697299e-02,1.110660036105489828e-01
4.810747196220292732e-02,4.423650928442033475e-02,1.549091603222232938e-02,1.228870753031153021e-02,1.185814479483257231e-03,1.566343656461070171e-03,6.943447876525274398e-03,4.023034809649011362e-02,3.233610096347024065e-02,1.122135010435854341e-01
7.336220617163388691e-02,5.927594658650998244e-02,2.093874279031283925e-02,1.190621165859497704e-02,1.333593155890600013e-03,2.016542240171862940e-03,3.688787460893285138e-03,5.497887268532963834e-02,3.370289019962292160e-02,9.314186701564122761e-02
7.068955559475594008e-02,7.655384808040686939e-02,2.403558861090620419e-02,9.285888824114078149e-03,1.464778392003788284e-03,2.428098769085325435e-03,3.657106698388713426e-03,7.288986244844833373e-02,3.283199854899888220e-02,5.656010876484024452e-02
5.930706464955923934e-02,9.337163379523820417e-02,2.930758481668478688e-02,6.713711831846811730e-03,1.577979380321754312e-03,2.797898303356426836e-03,1.316519906016681146e-02,8.618593903268846612e-02,3.070444694669453162e-02,3.101059969140933931e-02
4.805589626947992521e-02,1.058046488217648934e-01,4.113196831738798187e-02,5.913212391081668941e-03,1.672074389006481931e-03,3.123350582079115808e-03,2.179749543357896446e-02,8.287836871660017590e-02,2.741598164102576618e-02,4.804178482834750574e-02
1.867562495710700307e-02,1.040342454896965169e-01,5.849012178429729286e-02,6.593838546647736061e-03,1.746239106028657983e-03,3.402466280381024211e-03,2.726498949177958570e-02,6.826927018217988918e-02,2.433147497521318328e-02,9.647213271557189551e-02
2.863100001990636495e-02,8.273434497728621162e-02,7.164163966535086470e-02,7.402372036486216771e-03,1.799967709793004076e-03,3.633910644168599283e-03,2.957009104474602953e-02,5.917315042942575265e-02,2.225161851987872419e-02,1.286405035969795108e-01
5.399126034239987854e-02,5.492113458317985503e-02,7.601895712618596257e-02,7.758713185982085182e-03,1.833087447743100363e-03,3.817037311825763682e-03,3.035254989794909306e-02,6.270036507197378206e-02,1.946012467894483663e-02,1.148595413886778771e-01
2.655978873209463229e-02,4.081410774800991320e-02,8.394649945032883753e-02,8.007178567983296025e-03,1.845765443477815964e-03,3.951910144339199765e-03,3.035862709587297883e-02,7.228211990978973545e-02,1.607487772435829687e-02,7.078989568446082681e-02
3.288436570917023516e-02,4.255514729045464795e-02,1.058590785232760567e-01,8.387156358951403101e-03,1.838507013531414996e-03,4.039310745852052811e-03,2.920902189309647692e-02,8.197873856120244107e-02,1.560402460048093166e-02,2.891385081073899119e-02
7.507266027863250535e-02,4.469248314437930525e-02,1.286876387028914326e-01,8.751451048312947761e-03,1.812146024675122995e-03,4.080727461005836942e-03,2.686159902521597156e-02,9.261298823349921328e-02,1.762457865369506868e-02,8.837454323070174575e-05
6.865198403616372402e-02,3.918842783971988875e-02,1.335592209904897520e-01,9.002779935943382508e-03,1.767827852348071273e-03,4.078326945192068884e-03,2.349431849691404825e-02,1.029410775983520543e-01,1.645782086871403621e-02,2.629900426693574864e-02
2.022555436478767898e-02,3.440516442237320088e-02,1.249684989815186137e-01,9.196647475599232374e-03,1.706985185477844511e-03,4.034910937113981091e-03,2.015942545521031207e-02,1.066332845709159621e-01,1.233207777846878801e-02,4.783696653651563213e-02
3.092003241437967301e-02,3.895141066230270455e-02,1.209318361031654909e-01,9.334888641412752291e-03,1.631307160620039864e-03,3.953858957803093113e-03,2.051884794376156521e-02,1.020731255961479095e-01,1.421990944772648022e-02,4.168102548005395147e-02
4.268727137868273680e-02,4.979489737524178672e-02,1.245228265116487126e-01,9.404136904577380454e-03,1.542702694397237373e-03,3.839057449222025350e-03,2.784372357274456089e-02,9.595047508629624133e-02,2.554531535577502649e-02,2.034791480227367624e-03
1.407606048509881143e-02,5.703959912734706678e-02,1.249812947340786934e-01,9.488002776943596853e-03,1.443258986777029226e-03,3.694817240448990993e-03,3.951178323594084496e-02,9.259993488648594895e-02,3.702399969275130265e-02,5.792551417487629833e-02
1.411191974194618906e-02,5.246204506694772396e-02,1.176392797245571498e-01,9.560326792600328319e-03,1.335196168012274098e-03,3.525781773784053292e-03,4.882778414955660923e-02,8.625837612267928112e-02,3.957033603302131247e-02,9.516883614265661540e-02
1.482339228909706520e-02,3.656802678429146858e-02,1.073783300081305320e-01,9.390245853160712405e-03,1.220819158729009044e-03,3.336828248170009299e-03,5.235623066667949299e-02,6.816233691810279216e-02,3.545870442376197751e-02,1.098780572406189426e-01
1.114265355161605771e-03,2.341498377262313246e-02,1.012317214778997720e-01,9.039208478660232943e-03,1.102467921342700470e-03,3.132963866381368451e-03,5.170335653015022820e-02,3.923250611573540075e-02,3.223137461341599869e-02,1.110095884550674206e-01
1.279798063172012286e-02,3.131352257549995660e-02,1.063645487568053716e-01,9.064650365160242806e-03,9.824673054371624303e-04,2.919219707037452698e-03,4.922923721018124948e-02,1.374688762192305402e-02,3.318266034374421636e-02,9.601983981969616777e-02
3.126972712884956013e-02,6.224097085544610247e-02,1.243634659864349679e-01,9.593532420369558708e-03,8.630776663080265117e-04,2.700544851756592375e-03,4.535769581798598793e-02,7.595067888397470657e-03,3.684888546515732027e-02,5.973738472271501732e-02
4.500442168757258499e-02,9.858849747966633159e-02,1.436194836551573095e-01,9.760545921804891778e-03,7.464474087071291388e-04,2.481703272766294828e-03,3.883839307311289651e-02,1.987894434541394306e-02,3.976979233194760655e-02,1.137736487134681854e-02
2.911637227970014299e-02,1.230257199782280736e-01,1.489360417463918285e-01,8.928192259891630511e-03,6.345685625908414939e-04,2.267175876015577098e-03,2.830085153397348535e-02,3.057755082947656924e-02,3.809946238246272182e-02,3.217662866283074047e-02
1.124639164969454611e-02,1.298983417127031470e-01,1.374548810690028600e-01,7.735820115729049630e-03,5.292364175866179398e-04,2.061070006913018685e-03,1.549638829030011364e-02,2.243423839271685774e-02,3.059024118460627190e-02,6.196603865813936352e-02
3.628055393541591844e-02,1.175143394771426264e-01,1.153583314870385707e-01,7.056912965580210660e-03,4.320141340773381408e-04,1.867038546048936654e-03,5.806114833062794335e-03,3.189299992866420630e-04,2.028310511229189372e-02,8.134163795876407643e-02
2.373899811876400978e-02,8.506234611262815382e-02,8.624947514315509101e-02,6.773220653941161573e-03,3.442031175205005037e-04,1.688210454904733341e-03,1.869189668188480508e-03,2.233222894457950053e-02,1.144434499890530609e-02,9.990075527816154322e-02
7.234021829553400132e-03,3.924741893218717387e-02,5.164776402100353103e-02,6.325669814266936773e-03,2.668197965505289949e-04,1.527134341721527464e-03,5.324230869453751291e-04,3.783141946669003886e-02,5.963075805717056414e-03,1.208334628978345732e-01
2.797807698735156612e-02,7.027454457518010275e-03,1.455088819588696084e-02,5.649181168252069042e-03,2.005792977345331458e-04,1.385736306978849501e-03,4.974136168596536567e-03,4.947258909688102835e-02,3.200691515487266020e-03,1.333232020260292361e-01
2.996287560041508910e-02,4.454428914972692610e-02,2.231776128617843705e-02,4.990898241750827379e-03,1.458863494629877009e-04,1.265292968605834754e-03,6.652510294108519157e-03,5.458900115387065044e-02,1.644585169284593779e-03,1.264692247504133893e-01
2.477952024408662177e-02,7.396541274564877311e-02,5.513300270188545293e-02,4.397417919729229227e-03,1.028335497042062361e-04,1.166420184198036641e-03,6.615862413807977599e-04,4.772183488530813700e-02,3.102743226629485832e-04,1.095486949817399969e-01
3.356235438441739632e-02,1.034350738873230369e-01,7.724537797158609331e-02,3.763086642260908207e-03,7.120693543944160101e-05,1.089077625047470740e-03,1.346644713858098641e-02,3.294235673158322358e-02,8.128560627476424071e-04,1.039624958293334372e-01
6.702124541877775565e-02,1.350652688210825514e-01,8.417569086113052546e-02,3.068290908792165213e-03,5.049866592958093185e-05,1.032588987125906054e-03,2.208201732986836766e-02,1.972099942285948301e-02,1.537978994084900075e-03,1.147376156443441209e-01
1.031281843443198620e-01,1.514487889169865986e-01,7.580261403161830946e-02,2.367279844466730829e-03,3.992650973172194345e-05,9.956772012143259507e-04,2.266034719570210465e-02,7.797442075870930980e-03,2.193994335585239611e-03,1.249095860362618993e-01
1.048013537763287373e-01,1.311851540941879057e-01,5.371962287458649510e-02,1.685209046705862281e-03,3.845956559885523236e-05,9.765136163813926832e-04,1.915064212915068217e-02,1.209638179927230092e-02,3.148418338447805422e-03,1.194186342130080375e-01
6.961722370064793441e-02,8.402121387351570159e-02,2.593421110107074073e-02,1.009167078472636425e-03,4.484940416306148819e-05,9.727798978715482747e-04,1.588916041077011523e-02,4.221241465039299312e-02,4.294649131410799119e-03,1.027053683134456497e-01
3.243866944949697073e-02,4.651836707805644122e-02,9.853758011510140719e-03,3.167608057762767802e-04,5.766590822144963694e-05,9.817411431762958565e-04,1.356606885895904162e-02,7.235038395579222736e-02,5.533583271808507897e-03,9.290080577924395011e-02
1.400535762916622212e-02,3.373147164768437734e-02,1.611994561853462293e-02,3.917283409248684557e-04,7.533720403894741372e-05,1.000328248079350880e-03,1.088052115831486706e-02,9.083922657406706680e-02,7.136720664630882491e-03,1.050165843625181783e-01
4.250604387278414907e-03,2.410509806161991939e-02,3.222717563222671916e-02,1.064338254939801217e-03,9.619253686042069209e-05,1.025227204662882211e-03,6.686302541183546631e-03,9.348635861052215223e-02,9.042601018678030414e-03,1.324993823267529569e-01
5.777375467370643447e-03,4.083788245862190070e-04,3.519013618319925124e-02,1.670343352635789841e-03,1.185064040393447535e-04,1.052973305190198867e-03,1.261180256623930206e-03,8.469977132823983124e-02,1.036730479405160305e-02,1.411870684877994664e-01
1.617912248741745079e-02,2.616418641784697824e-02,1.943685495941689656e-02,2.306273307810185504e-03,1.405431890251660702e-04,1.080048427011804724e-03,3.104099570878921313e-03,7.655128710090561284e-02,1.041350914761881956e-02,9.685932198918220659e-02
3.232042324809124983e-02,3.933280696115437625e-02,2.107488309636629947e-03,3.041404240578950580e-03,1.606025863822901955e-04,1.102978568991070957e-03,3.483078200887767921e-03,7.990758517493518065e-02,9.641002594726923169e-03,4.916766081992638739e-03
4.963573226671261912e-02,3.594694487083505835e-02,1.432362259120908282e-04,3.667504371755790464e-03,1.770640992619827996e-04,1.118428143056546297e-03,1.037211783818442999e-03,9.027618568283596323e-02,8.648365811757378202e-03,9.367385274106429516e-02
4.410622175307236936e-02,1.789358112781486501e-02,1.123511070725190589e-02,4.022639278422635370e-03,1.884266324623258397e-04,1.123289620934150423e-03,7.951082065539901572e-03,9.099363852276648457e-02,7.068243477670098883e-03,1.667083663327268706e-01
1.086917870966635710e-02,9.348761515485410137e-03,2.053278674266493381e-02,4.548873753666796659e-03,1.933435440269663883e-04,1.114768762198823943e-03,1.254065957308468648e-02,7.459065698105819819e-02,5.055642271854272549e-03,2.083173574513531856e-01
1.519115135897913978e-02,3.010323827577870287e-02,1.704661569338523919e-02,5.628465402958365491e-03,1.906586386666911642e-04,1.090461536581970297e-03,1.158706214492593971e-02,5.158060187779289069e-02,4.595342665128977593e-03,2.155738938458409693e-01
8.988268622676109237e-03,3.126392276079355964e-02,1.600367762735997734e-03,6.266854043718625596e-03,1.794397061800642821e-04,1.048415760638224739e-03,6.930242510574165932e-03,3.569212307715000088e-02,7.017965919189964735e-03,1.829405610838313323e-01
7.071209354446508777e-03,2.125305682357070403e-02,3.100098736837798852e-02,5.052698559680671164e-03,1.589953592298351602e-04,9.871798123377898380e-04,4.433511852271219966e-03,3.028988692288697021e-02,1.068431285813973945e-02,1.270756144824408407e-01
8.023784045445778168e-03,2.002605864455455839e-02,5.910364863995602736e-02,2.892182425592556942e-03,1.288799796469301839e-04,9.058484121917777850e-04,8.228590739286089847e-03,3.034583132106647221e-02,1.337562077634187746e-02,8.435337263907084770e-02
1.073148614535183662e-02,3.108313441151562898e-02,7.036147335923444157e-02,2.622233419440512126e-03,8.891566780076134275e-05,8.040965969850248033e-04,1.619416263373968379e-02,2.738444946164136917e-02,1.471206933847596376e-02,7.172256699454576667e-02
3.326318986884427287e-02,3.764630680732514167e-02,5.813174881726214382e-02,5.109485931660439316e-03,3.922047855972429938e-05,6.821772225492726957e-04,2.200233595313602630e-02,1.485731772107803418e-02,1.439744037805501531e-02,7.332129266926688815e-02
5.053179041671904126e-02,2.745860951192963251e-02,3.098810775945686630e-02,8.037272413423043882e-03,1.981976495271875011e-05,5.408982596671497046e-04,2.202293291519962642e-02,8.935810044806806463e-04,1.164618184999527406e-02,7.136834949738263267e-02
3.668965144029295161e-02,8.969849501500388317e-03,2.721814752066651060e-03,9.321289756513233965e-03,8.761505981605919051e-05,3.816320356839439940e-04,1.861707924858461635e-02,6.637492893865944849e-03,8.224870101745593298e-03,6.643955040004237422e-02
1.427283933716069764e-02,2.521813431988926754e-04,2.303792446355318671e-02,9.446737232450593685e-03,1.633354812702061357e-04,2.063232208171247135e-04,1.481648871054118931e-02,3.381064995298259379e-02,8.389229832058463579e-03,6.085917636914686679e-02
1.456632039142567378e-02,7.939559782456806492e-03,5.263705355350933174e-02,9.748342847562234056e-03,2.458167430617115459e-04,1.738459183079493764e-05,8.504679451320221878e-03,4.808060725052050455e-02,1.464173041441087925e-02,4.379182966110822806e-02
2.180149438528194983e-02,2.712032162740152588e-02,8.363641933555157615e-02,1.043612149642128735e-02,3.336946587495561996e-04,1.824490725153265895e-04,3.910347287026220281e-03,2.001204010598484073e-02,2.611605527789271491e-02,3.884216486662188210e-03
5.009714285165284796e-03,4.155478989095673370e-02,9.550659365985074423e-02,1.109081435818243949e-02,4.256876062977795654e-04,3.900667945926555641e-04,1.985761544126134898e-02,3.098521694737393223e-02,3.957982463919421101e-02,5.311924199155915877e-02
1.844740447418020610e-02,3.730436517839066241e-02,7.233573819672822758e-02,1.164681269282047231e-02,5.204086743050024416e-04,6.018665657339975720e-04,3.115445491232000236e-02,6.182792008660738942e-02,4.954061619500380043e-02,1.048812573717937263e-01
4.594800680402385054e-03,1.679745027162357629e-02,2.901255790454563416e-02,1.219300243788580193e-02,6.158617848552593336e-04,8.140956344870988511e-04,3.193283624997898806e-02,6.351679841669721771e-02,5.158308693102146847e-02,1.286224536979204414e-01
4.163031844600158932e-02,2.553008305136938126e-04,2.678370598086626461e-03,1.270752930951566002e-02,7.099437139356561339e-04,1.023355347148723494e-03,2.369275234937540803e-02,6.353206130912218697e-02,4.877832688922170007e-02,1.203472105603583947e-01
6.707191354316019427e-02,3.437501194104325853e-03,1.076724437874214575e-02,1.337235829290601107e-02,8.016541707067278933e-04,1.226155210934218916e-03,1.358780394692635576e-02,7.715070730069274740e-02,4.974926986021700748e-02,9.996898405611689964e-02
4.714170661413356195e-02,1.681140187822207852e-02,8.795967617966100188e-03,1.433596033096158455e-02,8.901800807762405869e-04,1.418100957606207918e-03,9.490604866000812434e-03,8.802832291274841070e-02,5.769855829063511715e-02,9.075472407401281860e-02
1.142052248739522206e-02,1.786011829567568307e-02,9.669063396475822969e-03,1.501091235927392784e-02,9.724131808302313110e-04,1.595106916490480944e-03,1.436866417656788852e-02,7.975833381652314147e-02,6.681439397245245160e-02,9.000295303679771430e-02
9.537749648324135576e-03,1.931267837273845274e-03,1.197087713960299366e-02,1.472544926073552501e-02,1.044964557267679490e-03,1.755439279079785454e-03,2.237736349678474262e-02,6.134531759784984245e-02,7.152398718821673107e-02,6.626812631370976314e-02
1.562097458420886979e-02,1.276135935507264826e-02,8.541844607210679133e-03,1.420731870059902674e-02,1.109637372310037524e-03,1.897447508623169429e-03,2.294647331829387585e-02,5.363416717088401175e-02,7.338705324241164007e-02,4.735564602168359713e-03
1.208197733412952508e-02,1.021810413204245552e-02,6.625890518379649700e-03,1.494628242974395220e-02,1.169378229469718181e-03,2.015391887201668092e-03,1.262043917218387198e-02,6.505003233985078015e-02,7.654825936826696597e-02,1.007014580724227421e-01
4.441588584501346415e-03,7.515595016471208860e-03,3.475850359036704307e-02,1.693636813297596383e-02,1.216584315133254065e-03,2.104406957634754553e-03,1.285161830885117324e-04,8.709321859479488004e-02,8.190853237530740238e-02,1.630585266623940932e-01
2.691694294016278022e-02,2.815521100482792916e-02,6.361058624859242117e-02,1.868688330143225898e-02,1.241532468190975841e-03,2.169740885828165024e-03,4.010812433921335379e-03,1.066377512589443827e-01,8.828225159321573257e-02,1.567869344638854745e-01
3.430033136253936299e-02,3.930140329155674961e-02,7.274587244709507239e-02,1.946680463759320467e-02,1.257643867032432307e-03,2.216562380491354182e-03,7.174191672904939136e-04,1.167094202366180528e-01,9.376858453441536123e-02,1.086995646289942857e-01
1.294522260250347868e-02,3.508238840770693673e-02,6.057679215385648047e-02,1.991522245599797875e-02,1.284198737635430885e-03,2.230091652213710574e-03,6.774949937937566752e-03,1.174580287552450808e-01,9.317453306785043743e-02,7.420655453737488860e-02
3.234803591456563571e-02,2.548374802528632563e-02,5.307308188203588989e-02,2.061893724162773903e-02,1.291968210229486273e-03,2.196939093878441229e-03,8.240007315244768371e-03,1.148556355707181925e-01,8.085339762780743844e-02,7.490754122104331669e-02
8.205763062957223408e-02,3.131761167269573459e-02,6.951247637132029755e-02,2.148744376521961527e-02,1.238732213211173744e-03,2.148142236895576526e-03,5.342199083471135118e-03,1.176989313199642562e-01,6.098902425139570566e-02,8.293397315104319989e-02
1.071108063920616638e-01,5.548311754048706329e-02,9.212875772927797691e-02,2.198366052671153759e-02,1.186331196001481642e-03,2.114726303487887531e-03,2.098628023461810571e-03,1.214336620083573681e-01,4.787624265386942329e-02,6.558697404495550387e-02
8.655661169542393230e-02,6.830714959373247741e-02,8.935273108928781793e-02,2.047600207476426779e-02,1.227855445884265843e-03,2.034587280000245673e-03,1.888363379904198919e-03,9.587623646528607713e-02,4.801766378194500390e-02,2.975312213637478637e-02
3.279887020937703734e-02,4.016228008783850195e-02,6.054295174361974674e-02,1.454334735592691108e-02,1.235466545435531978e-03,1.844760105002503196e-03,5.132601089032431257e-03,1.254062417416954359e-02,4.825644035151473166e-02,7.689702105643369569e-03
1.468690497552638079e-02,1.749469799403204073e-02,3.589480260505308051e-02,4.976968004558561011e-03,1.008837722759210612e-03,1.682563216255015832e-03,1.045640776027800985e-02,1.116593813654851025e-01,3.326421974853481511e-02,8.479818840926812637e-03
2.859523920141131617e-02,6.349967636912148827e-02,3.472165827221043027e-02,1.489226015275968169e-03,8.227867020156871651e-04,1.696405270627374898e-03,1.582211288355039186e-02,2.204880478792173304e-01,1.004669936326225976e-02,1.216765942958064964e-02
1.381044987496894694e-02,7.438619579643117319e-02,4.379045998793879013e-02,7.547012864082850922e-04,1.140419134040168009e-03,1.614706017797225106e-03,1.726951745924970236e-02,2.717580523604075093e-01,1.591323880449381327e-03,1.234823010496231138e-02
1.208402993917270449e-02,6.162121555034623388e-02,3.807439426402718652e-02,5.504510145806266151e-03,1.341182312284394532e-03,1.082650714492783836e-03,1.061443085992031486e-02,2.668923951684776252e-01,2.626062713287092773e-03,2.676454068070298342e-02
4.020105459472447101e-02,4.826391732059528983e-02,6.858165238317510091e-03,8.174282988345697547e-04,1.682152417217660449e-04,4.416462649833288647e-04,2.046200957217525485e-03,2.316217650257966776e-01,1.956240288768313490e-02,5.383717082575818769e-02
6.607563123509875569e-02,4.724843561870275405e-02,4.312697348849207218e-02,2.067746093895541856e-02,3.603450014333186777e-03,1.176726260427127680e-04,1.187847509371693644e-02,1.905756874386291544e-01,6.960590196301302823e-02,6.006567432961055358e-02
7.517785019787359690e-02,5.832440747891165511e-02,9.637750581913141767e-02,4.015494303724630176e-02,6.673586790995371214e-03,5.715926329260144403e-04,1.385427613691687758e-02,1.605596452819769149e-01,1.358961192385073902e-01,3.402156852933028303e-02
4.753574976371020833e-02,7.211483351353496773e-02,1.345283846784536275e-01,4.652486117626760537e-02,6.968575427660555696e-03,2.209832490848600162e-03,1.319292473353441894e-02,1.463026100436621013e-01,1.853026396029761325e-01,1.382586351683536864e-02
1.452518301272216414e-02,7.829881098935301265e-02,1.450245448625631373e-01,4.218007011501296449e-02,4.609981486090111713e-03,3.381353692633260345e-03,1.679553449969148002e-02,1.367533771216293270e-01,2.018031028309407726e-01,3.005521785541780122e-02
7.292725742573470671e-02,7.605626374273637136e-02,1.333019889596463725e-01,3.671386786835674487e-02,1.698242047975327251e-03,2.445105780623989863e-03,2.346371264763034634e-02,1.172110148429101467e-01,1.944376375262477086e-01,5.562893827650397527e-02
8.601060272963673148e-02,7.487106515569183496e-02,1.195433962187417709e-01,3.411828870081671378e-02,4.870968730142827860e-05,4.496372262032240306e-04,2.764020487366032619e-02,8.533690992222926763e-02,1.777303552791529295e-01,4.646736216605592412e-02
5.287649256041521834e-02,8.332333920217810386e-02,1.160468696610233441e-01,3.276984638514358894e-02,4.538425225103297992e-04,3.826522052045030564e-04,2.835149782724983789e-02,4.925008258072219314e-02,1.561988974398527963e-01,5.247908743856313264e-03
1.362142429159847110e-02,9.988204469085160131e-02,1.139627520189036847e-01,3.100423733236267604e-02,2.823397852351631826e-04,2.739782764754993666e-05,2.903275990119888808e-02,1.746424516690901416e-02,1.302368821160905521e-01,2.839777314222198187e-02
8.003063433403821009e-03,1.153162606447058480e-01,9.796800931799896917e-02,2.788807087521151529e-02,1.679953784284450948e-04,8.350020375748307784e-05,3.113300888733652044e-02,3.397102864979185434e-03,1.047596257662929131e-01,3.508951696606653348e-02
4.194645482295167316e-02,1.204326335624340549e-01,6.828600172356201481e-02,2.305092025725690580e-02,1.929360552507141031e-04,1.458053928261505050e-05,3.306168801935112367e-02,9.004761003328734872e-03,8.417943964843736804e-02,3.126808992589250741e-02
9.083300134817705318e-02,1.103357189942102551e-01,4.228950215169881288e-02,1.915300707386966353e-02,2.042226827874982502e-04,8.789966405506309272e-04,3.393185279155482015e-02,3.105414237748998357e-05,6.783298102725993095e-02,3.033639443252817217e-02
1.260581416642342634e-01,8.608572895581990958e-02,3.617142501106838243e-02,2.083688233917951188e-02,1.703888048362203972e-04,2.190088077505097583e-03,3.317059013500918419e-02,1.680670444682495768e-02,5.719969556107240560e-02,2.171977084774307648e-02
1.349411061233159737e-01,5.570287923504724237e-02,4.874627376198543971e-02,2.847212860571076559e-02,1.564834269784299474e-04,2.250240844418884782e-03,2.789087529282071459e-02,2.822191340245191332e-02,5.785266220553270805e-02,1.641992207644331738e-03
1.196023156042226587e-01,2.950605727232411338e-02,6.387314140448649424e-02,3.600860402527234633e-02,1.767863581346914561e-04,9.377232459997127947e-04,1.598540340381831085e-02,1.915434039644020592e-02,6.716265030711791872e-02,8.097503544806870443e-03
8.560601798928643702e-02,1.041631900817677897e-02,6.682806824463896622e-02,3.755569008482303323e-02,2.004232772747776572e-04,1.501586950650578994e-04,2.218398831266994156e-04,1.371061551965287520e-02,7.205617386780031886e-02,6.559217601002053678e-03
3.813125170112822288e-02,8.277314136391031307e-03,5.533587045155203415e-02,3.364541162656495971e-02,2.192613165639657421e-04,2.057930715189889052e-04,1.521988782170271420e-02,5.796962663398135679e-02,6.817749312179639809e-02,3.071189823895118659e-02
1.319429634913292688e-02,3.332072146830362264e-02,3.477178823224082171e-02,2.855860130504387501e-02,2.462690502914594969e-04,4.697116816186981323e-05,2.961039563850599576e-02,9.974912131364008228e-02,6.736933297556953193e-02,5.062835765768503721e-02
5.509867031508759033e-02,6.366734687936201342e-02,8.789146511521933602e-03,2.381477731141366100e-02,2.838019040606473914e-04,4.827506634550118332e-05,4.284154511817298006e-02,1.334031959601544304e-01,7.548796177884976866e-02,7.138179559428363408e-02
7.951879718818033460e-02,9.390150680055711629e-02,2.156706171158088645e-02,1.758474205032290252e-02,3.240219871782480752e-04,2.952678232427147112e-04,5.124046763045529695e-02,1.563765252068637646e-01,7.878016162048150084e-02,9.150292498436048139e-02
8.459399204018130947e-02,1.203496484500833630e-01,5.469752103510042152e-02,8.853542376753427770e-03,3.637965255533940419e-04,3.954144761728687328e-04,5.133937237309284946e-02,1.652089333413367667e-01,6.384605317782235390e-02,9.611494883836191327e-02
6.797866789801539078e-02,1.412836132362448593e-01,8.773573710808911519e-02,1.178455619092227263e-03,4.047318199412651375e-04,4.267835909953286537e-04,4.533503541763655303e-02,1.571288418929857045e-01,3.602765742214041056e-02,8.509299579488380227e-02
3.208728307734413226e-02,1.551328057614079492e-01,1.149492252361750261e-01,1.049630234896829425e-02,4.462475133546187816e-04,5.243364436385848822e-04,3.825521849882633496e-02,1.320332774964265155e-01,8.560613919510236952e-03,7.571730393478402765e-02
5.085547792980409793e-03,1.598633183729129270e-01,1.277156578380863883e-01,1.687547778823952904e-02,4.855270285919863378e-04,6.486677042143221793e-04,3.187851733081593225e-02,9.702335796446348581e-02,1.358177929272937415e-02,7.315853752009487954e-02
2.030359489424203578e-02,1.507285230415676969e-01,1.220988998596192754e-01,1.900029440394581173e-02,5.208110316274840905e-04,7.316696820238606774e-04,2.502556615042082072e-02,6.661711241752715784e-02,3.210102277398799858e-02,6.658718683338130107e-02
8.645128609789507271e-03,1.206554450539543827e-01,1.045006099909669556e-01,1.818290624926024307e-02,5.515088653264380329e-04,7.867765893482056442e-04,1.727321895457252857e-02,5.105776664379661073e-02,4.716788791751361926e-02,5.429476982119776224e-02
1.435670542459805028e-02,7.098779695239605669e-02,8.566468738898228019e-02,1.711316455182209512e-02,5.767007866309995737e-04,8.422733873990076664e-04,9.253780663541214674e-03,4.871228550723370743e-02,5.692320078207709078e-02,4.743965839288744046e-02
3.589184632555398463e-02,2.237836682502284888e-02,7.311254478495232689e-02,1.687617955653601329e-02,5.951090437719285973e-04,8.889520089468756119e-04,1.563532324011311560e-03,5.503315371670739614e-02,6.170509877689774048e-02,4.964779531795011913e-02
6.036783141828706151e-02,3.050024473593762435e-03,6.953652647666605513e-02,1.678503353163716613e-02,6.058395907032447254e-04,9.107756101232947210e-04,4.464362721794056313e-03,7.084904178034458211e-02,6.486868147680076302e-02,5.263030364843972880e-02
9.214651427052031329e-02,1.790582824348457835e-02,7.058299728419106800e-02,1.635433986671475798e-02,6.084341828811825649e-04,9.098269041096807572e-04,6.941355393026833048e-03,9.637518118807390788e-02,6.856711492898537319e-02,5.067396049840875577e-02
1.120745680112078396e-01,3.802326873485672304e-02,6.551276202322856013e-02,1.587068154976723627e-02,6.025376042651924566e-04,8.923024869313657620e-04,5.824719500145108392e-03,1.245657566196489013e-01,7.040800670426168584e-02,4.575533356735584506e-02
9.096758049407079050e-02,3.233636655144411093e-02,4.862616487356267309e-02,1.555545467719935543e-02,5.878874771911512219e-04,8.566902199492841671e-04,3.586750041756875396e-03,1.448613066522404236e-01,6.691915503862212733e-02,4.084944806358828395e-02
2.901238397919617823e-02,3.849604625673895900e-03,2.760301550965514952e-02,1.527094712501911658e-02,5.645006400951704502e-04,8.001953572071168232e-04,2.588257048876823219e-03,1.494464505159517065e-01,5.968347187368271134e-02,3.757385692954036405e-02
3.723199722934560779e-02,1.835633407055875521e-02,1.343039057500886035e-02,1.490434128360694846e-02,5.326796201212101196e-04,7.243492414557974133e-04,3.023284291617052769e-03,1.363643542910101536e-01,5.439249955798087371e-02,3.754040868687309046e-02
7.200082010624506146e-02,1.837264104331404885e-02,6.074473622892420308e-03,1.451077487701910029e-02,4.928745992625300316e-04,6.320451453126689316e-04,4.111403233248924968e-03,1.098321824083152154e-01,5.354307647293351374e-02,3.861658387453269226e-02
6.866427420551485250e-02,8.440373838121420502e-03,1.771638558267295965e-03,1.413577098108142333e-02,4.456702082415333992e-04,5.248348453253746503e-04,5.719817580261825005e-03,7.547842486624688207e-02,5.424559822041365859e-02,3.191674903455264667e-02
4.194902547799099490e-02,3.841015798077271511e-03,9.524353338368382951e-03,1.374632281540036360e-02,3.919272704945844983e-04,4.042264018899993498e-04,7.258128653282975434e-03,3.743567032029895825e-02,5.426146444113154332e-02,1.055064731912305764e-02
1.080700562777257845e-02,3.270586665622774586e-05,8.449858466694434161e-03,1.331343335520003557e-02,3.327580112549492850e-04,2.728940281703780106e-04,6.279612446715137491e-03,4.979935299350290653e-03,5.503742072807832342e-02,1.776766893639850423e-02
1.309013021606556491e-02,1.494964720906648281e-02,1.725192688007403177e-03,1.284562874309919285e-02,2.692203264484609561e-04,1.340004507146739480e-04,7.754373390172117873e-04,7.790338204966391900e-03,5.631795821928316931e-02,3.559436465376199232e-02
3.482094596619798171e-02,3.627593947674825903e-02,8.965194303893784383e-03,1.235093837131475553e-02,2.022976600630270406e-04,9.473379012915808105e-06,7.063957206870133052e-03,7.594758933264569856e-04,5.362881548472412524e-02,3.759858449350804432e-02
6.421048637143095261e-02,4.443953440402705068e-02,7.142979745727156063e-03,1.182093423702287871e-02,1.334440111266288931e-04,1.545230327740662818e-04,1.186315900453204647e-02,3.761152176666379687e-03,4.528059223077605944e-02,3.843794761997051251e-02
8.490246358646842684e-02,2.775678462315350759e-02,4.367093069661754506e-03,1.124850722988751488e-02,6.454916037310122760e-05,2.979138939730847056e-04,1.130496507118787346e-02,1.399383833547605989e-02,3.624828378977121984e-02,5.061439193971758316e-02
6.314556077598519612e-02,6.661300396457526737e-03,7.192131476702515180e-03,1.063569418501331479e-02,3.308589401391838242e-06,4.363874923987070349e-04,9.653985557929687170e-03,4.419168609828889871e-02,3.057641165055349775e-02,6.423456570233579410e-02
