3.052556440612924074e-04,1.768634564259265879e-02,1.341637782024897307e-02,6.227431445666261126e-03,2.674834846143108662e-04,3.270581648169098091e-03,2.338997147500484694e-03,5.211673975085484578e-02,1.627313778677069896e-03,9.939330516806378635e-02
3.576780992074180508e-04,1.028818041596130800e-02,1.433909131754029613e-02,2.524497225618062279e-02,2.057616570599266471e-04,3.191327049385839047e-03,2.253661249176796416e-02,7.563314998737549755e-02,5.530958584642217332e-03,7.897414112437252387e-02
7.926758084215056914e-04,5.971990742858710247e-03,1.035655739405190630e-02,3.249271303669978156e-02,1.394049696166340898e-04,3.344750471493313209e-03,4.547833265630853161e-02,7.782234207921262525e-02,1.700590576209966287e-02,5.841704652340549281e-02
7.444668636408203685e-04,5.711089864847612718e-03,6.874856385886607760e-03,2.832907940293873453e-02,7.272615371885698737e-05,3.256200966316963406e-03,5.449848932103525112e-02,6.516790684474642326e-02,3.283005033666604872e-02,3.716592177554650656e-02
7.441445754462971355e-04,2.336199532277729446e-02,8.750606847632588434e-03,2.117596033807375711e-02,6.808833718908041823e-06,1.979218652118449554e-03,4.384865830345430204e-02,5.077423836363759851e-02,5.245462249603446286e-02,2.565308473250836260e-02
3.018520933662083208e-03,5.875607461609599208e-02,1.274188935710891812e-02,1.340949864053348969e-02,6.213631535781458538e-05,7.082593077611375751e-04,1.728672442456434533e-02,3.793116691483153918e-02,7.085138035682433943e-02,2.343848682064327352e-02
4.310552470727205092e-03,6.959923280549426550e-02,1.153200148261476765e-02,2.030966099474546590e-03,1.310288565574593399e-04,3.778415576177208621e-03,9.494401051936926517e-03,2.450618726321853943e-02,7.979473714402796070e-02,1.347750272624304892e-02
3.748790297957464799e-03,5.497490050840813519e-02,4.950357632147769742e-03,8.836202459244702628e-03,1.862379559440688977e-04,5.853520322843796912e-03,2.126325223438225304e-02,1.280332985129368530e-02,7.625919937745422039e-02,1.378620722888277035e-02
2.014079430526105000e-03,3.891586824035985631e-02,5.480743617692867935e-04,8.275683941412172867e-03,2.286998742451292117e-04,6.170629809814811087e-03,1.900572557394909767e-02,6.388105206600888132e-03,6.610671191954767267e-02,4.663881033878540527e-02
5.202633194701115817e-04,3.484660173159861291e-02,1.636542187908054079e-03,5.276353402221126317e-03,2.825651795716288637e-04,4.762723128049087783e-03,1.528481209037115506e-02,4.131445537560304512e-03,5.691817028495095576e-02,6.910693066059112044e-02
1.660134401418932124e-04,3.209431507035411663e-02,2.193953246519694637e-03,1.921616027933673032e-02,3.419056949233541991e-04,2.487579004274074329e-03,1.655598705036622972e-02,3.398762936410722451e-03,5.023230179164932252e-02,7.942680166864828084e-02
4.255901307495631907e-04,1.652660494321401413e-02,2.194952385371998650e-03,2.375089773147216754e-02,3.509639199590892478e-04,8.749828807004889422e-04,2.018848679823644771e-02,1.769243522318890384e-03,4.291730750251831344e-02,8.610932069156711222e-02
1.984241055399855471e-04,7.815118326611424776e-03,5.643556019707818804e-03,2.339384397199351789e-02,3.175585964618363676e-04,9.921125781342647089e-04,2.602634992845210063e-02,7.240398289561577293e-03,3.358917622629006838e-02,9.307179113667682357e-02
4.966886459343562536e-04,2.258504865177167822e-02,7.556838654377284747e-04,2.543672031871912001e-02,3.584412328156223368e-04,2.347688410575777488e-03,3.747847166241715516e-02,2.835704368196656153e-02,2.530309878789457900e-02,9.388564124196414895e-02
8.238902049438884398e-04,1.724729007747582629e-02,9.576814372162938821e-03,2.733852926551691084e-02,4.583634409917534112e-04,3.564011772521298409e-03,5.065328159250782197e-02,5.129955397661994237e-02,2.221231863284819225e-02,8.057875836142777692e-02
6.498936597690522371e-04,2.019074152357636098e-03,1.577318208316653633e-02,2.286460878544771883e-02,3.640628118136912065e-04,3.750135787027267503e-03,5.485367293870541117e-02,5.731145222101032000e-02,2.458455751761628658e-02,5.706368994519389615e-02
5.099698964758170652e-04,3.851449697253254978e-03,1.295196809610992157e-02,1.277738990210777921e-02,9.216227951954199618e-05,2.753765269221337530e-03,4.677747998887672731e-02,4.312580875853815748e-02,2.824207396133485148e-02,4.085906964948809311e-02
5.903211384146143936e-04,7.328523677921838439e-03,4.020393597226445091e-03,2.302357797269411182e-03,2.274223149379637208e-04,9.371665875002325096e-04,3.695853384549842302e-02,2.736928212448283201e-02,2.899167945007112210e-02,4.618618585393934051e-02
6.633506037675586777e-04,2.773350946670962575e-02,5.183125519933157524e-03,7.121903796028614293e-03,1.005258533756409056e-03,8.752649468478369528e-04,4.109492544158298982e-02,3.151889889880833684e-02,2.584130064553628522e-02,6.452323446807807505e-02
6.351867627921667109e-04,4.694670697852845742e-02,1.058008602912185493e-02,1.690754913317413233e-02,1.515330952229502559e-03,1.900823760239229261e-03,6.683988031736641522e-02,6.220673111795885224e-02,1.983087785893589139e-02,7.046392519038766067e-02
6.100996277661322777e-04,6.177125735375750548e-02,1.204923544973899273e-02,2.374102202389499067e-02,8.789927946773979858e-04,1.861224404036368029e-03,1.054303324462853436e-01,1.105538771300774575e-01,1.233544756609898131e-02,5.223488992808898029e-02
6.336959566898518878e-04,7.374530209260632407e-02,1.246468053020429595e-02,1.945725912150958470e-02,1.905341171183365834e-04,8.559986789135048003e-04,1.358503175216779213e-01,1.609473801393903891e-01,5.210692113163733000e-03,2.701398102153573441e-02
6.584345558452807780e-04,8.328320504182522288e-02,1.320055229126639376e-02,1.241356536821549769e-03,2.610646978604942519e-04,5.035207732671646320e-04,1.414024457249283828e-01,1.981643403313793628e-01,7.233994971768513416e-04,1.992670930294310194e-02
6.623924055562244910e-04,8.881854638574136762e-02,1.163042634282932669e-02,2.196057471802043137e-02,6.577699815812858676e-04,1.051840005631718682e-03,1.214875495002234601e-01,2.100721857119474401e-01,1.455612356720827581e-04,3.778226717498650578e-02
6.665095508271662392e-04,8.797360859112614284e-02,5.324253684016378406e-03,3.714275832305358183e-02,1.139593959667545894e-03,2.315486217615057927e-04,8.638310924528443124e-02,1.900492257573555555e-01,2.334093645564305763e-03,6.703034621439590834e-02
6.814316583924743577e-04,7.663230348635018119e-02,3.444220208213364526e-03,3.935507943034310951e-02,5.040756393488585651e-04,1.111731000535956613e-03,4.624628661264428703e-02,1.404363940258797627e-01,4.136836160627752057e-03,8.763936363320522227e-02
6.997215252255743409e-04,4.993438489361282095e-02,1.035177997004896842e-02,3.320606696587091039e-02,3.755680112440185265e-04,1.996059470340337105e-03,9.287840743109641861e-03,7.574087756393158011e-02,2.837919804126582974e-03,8.765675606969289269e-02
7.158919994954376616e-04,8.446073593689464032e-03,1.354993655858262140e-02,2.478820958581083936e-02,6.409501962388524732e-04,2.369221277171575102e-03,1.354371960018765225e-02,2.493151683168887481e-02,1.856496575866660795e-03,7.082021336131798239e-02
7.281711709261198340e-04,3.729814462963911698e-02,1.306506299091780843e-02,1.634769121301385755e-02,5.063744774251185098e-04,1.922886630724248173e-03,1.130611823738118631e-02,2.023677090549399343e-02,8.182686044717399701e-03,4.932146678147705104e-02
7.392656105146936133e-04,7.245696688741445901e-02,1.002226891888536794e-02,8.113273207982283144e-03,4.411969958222241965e-04,5.925979803838306954e-04,1.449551312114552570e-02,6.628022504242885027e-02,1.373544201838826535e-02,2.843014117327572615e-02
7.603603937998766778e-04,9.065543133862478953e-02,8.990940851292504588e-03,5.487785234809224380e-04,4.981666217112769432e-04,5.264702560763265260e-03,4.576981358779604742e-02,1.262442257809326118e-01,1.648825798994150299e-02,4.111168718462603761e-03
7.893351261636553191e-04,9.988294471572362054e-02,1.529926056464542099e-02,6.643266688270990650e-03,6.666992904497047413e-04,9.480240531897070680e-03,6.314019486520619506e-02,1.561008854087383435e-01,1.581515581756130773e-02,2.359126672536285968e-02
7.977966579624900774e-04,1.124176371215505343e-01,2.720167703499350165e-02,1.355273940563477691e-02,8.655673196025844441e-04,1.021127580085695423e-02,6.296097932775128470e-02,1.458539867893771658e-01,1.326036408906731967e-02,4.345971692675592440e-02
7.867316254205526270e-04,1.285557612221915058e-01,3.625519501285709434e-02,1.637444081270772456e-02,6.474056141327412832e-04,7.221533290959742876e-03,5.490189575922249654e-02,1.152347096665553849e-01,1.130170047595139247e-02,4.463577493155909681e-02
8.176051729781230390e-04,1.354113631513510496e-01,3.696034865087207549e-02,9.914894418505560553e-03,1.081358491412087166e-04,2.899285308297603302e-03,4.594430148806250697e-02,8.181267151440925478e-02,1.058563394040180211e-02,2.976057957289694050e-02
8.898113255267111731e-04,1.241440057423436327e-01,3.093270905719855066e-02,3.769314959877760780e-03,5.845081648344615860e-04,4.238747032738204466e-04,3.288671577909602073e-02,4.697902294599168305e-02,9.499266454925704012e-03,1.069995039113064150e-02
8.698432544434517950e-04,9.963574927449206364e-02,2.176306308898075248e-02,1.487815573165721106e-02,1.358620810864446821e-04,2.049915115605322000e-03,1.137046541240308711e-02,5.966441306582314502e-03,6.972984247023288756e-03,3.747229035309304450e-03
7.557200924026797814e-04,6.775219622343878201e-02,1.114318589482368553e-02,1.642853042848700651e-02,6.230797984613609553e-04,2.459760921196128998e-03,1.406769457843794549e-02,3.707925117201288367e-02,3.708646110882972847e-03,9.205049111888961508e-03
8.449460118438907336e-04,2.731935851169180196e-02,5.301575252334462130e-04,1.027512945689014814e-02,8.003799533858513195e-04,2.368159725089641430e-03,3.334215666812961887e-02,6.457375328069718534e-02,5.995470518380336192e-05,1.625055643388133818e-04
1.130755722748979586e-03,1.314117634310947580e-02,7.329184707569541893e-03,1.811331758551131856e-03,5.130549464584616094e-04,2.235520590176709541e-03,3.972994607001720246e-02,6.008013007321105770e-02,5.493494527875471441e-03,2.720004861346067560e-02
6.705525096527809557e-04,2.739160978882049235e-02,1.022729077754116513e-02,5.818992625920292421e-03,3.788097710368883869e-04,2.173135903390293212e-03,3.279113194610481369e-02,2.947217815737034757e-02,1.274363996714286858e-02,6.567354683099425883e-02
1.480314378042810533e-03,2.228236621300266201e-04,8.635070859850397379e-03,1.131802333836142913e-02,4.640802679230669942e-04,2.104986653479477225e-03,1.770269907303313739e-02,1.603609490659019254e-03,1.946927327594029020e-02,9.732721602179469911e-02
4.453964732826783991e-03,4.761506955023776799e-02,5.060670396561700764e-03,1.381529765939121940e-02,4.114306042767992356e-04,1.987931124238542270e-03,3.159360255363843732e-03,1.454513884797501225e-02,2.255730288750013718e-02,1.074213233060063027e-01
5.833313982612607293e-03,8.125439114463457735e-02,1.908235305424763051e-03,1.372062093623720516e-02,1.961829812186443266e-04,1.852401588829146947e-03,3.386209811797746046e-03,1.078891708864532749e-02,2.065959473619155551e-02,9.445277467415166828e-02
4.398233094969723582e-03,8.657309970911014618e-02,4.703829604158970765e-04,1.276429918676636258e-02,1.842838806913372237e-04,1.720605256819311311e-03,1.387089725405019677e-03,2.532225057177319664e-03,1.518031647559128956e-02,6.601384958537119541e-02
1.575805555229123312e-03,7.041238727087929805e-02,7.025318326062001848e-04,1.217955279327147082e-02,3.813977688861431301e-04,1.584333423786827080e-03,1.560212841021516549e-02,2.323336415728741167e-02,9.097275080791994775e-03,3.330056469550285447e-02
5.291196727300210905e-04,4.234106783642967858e-02,1.156278053499130857e-03,1.187245597881099284e-02,1.548402345879014333e-04,1.437572579252191811e-03,3.046412297793136062e-02,4.722505147318537683e-02,4.540880727067108519e-03,8.435861498819488546e-03
1.293093102986225601e-03,9.105881587319560738e-03,6.070546014733894241e-04,1.142413993827115504e-02,7.369255069879291058e-04,1.282754902671216519e-03,3.647133234630326598e-02,6.642011875143553901e-02,1.497216762486543520e-03,4.829759558369390096e-03
1.023007629252880310e-03,2.371858664951293286e-02,4.131219768694727006e-05,1.087201520160469177e-02,1.360390709286459594e-03,1.124465228888899427e-03,3.551960147668867251e-02,7.691484268935440405e-02,1.266759050967727332e-03,1.312113132697138862e-02
7.153459883036213844e-05,5.204876663914530244e-02,6.901575626563045225e-04,1.040591702481570568e-02,8.330998363959602089e-04,9.763570465783996287e-04,3.790763877251224212e-02,7.954230368119218075e-02,4.776514970896245278e-03,1.576981730084650243e-02
1.249620017213536050e-03,7.309107329157249477e-02,2.225049887131821339e-03,1.001043861476845660e-02,1.308571533755568950e-04,8.452694314254784050e-04,4.602216705775653144e-02,7.501136347442483032e-02,9.309874319339973836e-03,1.366839301888462047e-03
1.249358728342429663e-03,8.828548229016949800e-02,3.165992524521397955e-03,9.596428649111433604e-03,1.082309576428312845e-04,7.058186192535577039e-04,5.216198810772734729e-02,6.664779445350121900e-02,1.443178106839251157e-02,2.487904711226234661e-02
2.938467079790935076e-05,1.052906438452429205e-01,3.719454939540539629e-03,9.169201881666351125e-03,8.999421671534950764e-04,5.470478305805005857e-04,5.249055639560783887e-02,6.155503901199509825e-02,1.973477229638077174e-02,3.542499367072241001e-02
9.498184532086861344e-04,1.262020453451749846e-01,4.650710916247396270e-03,8.769308356090440085e-03,1.483251730435109633e-03,4.325802180539107113e-04,5.173346131924427826e-02,6.299607053801981049e-02,2.545152001061858765e-02,1.781597530938137247e-02
8.504935371582467195e-04,1.364548505052131377e-01,5.532029415877215417e-03,8.393169578145096704e-03,9.275409315052812482e-04,3.960768316808730219e-04,5.314088884330699092e-02,6.819939650363308903e-02,3.105464724184765768e-02,9.193743840417097773e-03
4.699443356926302946e-04,1.215405671887021533e-01,5.809654829372816118e-03,8.019926918249167813e-03,6.247175224955900906e-05,3.073903078246207699e-04,5.347169471145316044e-02,7.401863067015036768e-02,3.455669168515974887e-02,2.750936712298505255e-02
6.523595925457361441e-04,9.347673871741937757e-02,5.925546715841830542e-03,7.648992908082416844e-03,1.839239714412813467e-04,9.497483480342533684e-05,5.086537518408393993e-02,7.739487124093499815e-02,3.575650402956892515e-02,3.717827743151455588e-02
8.625613057290714781e-04,8.176484131958164370e-02,6.206676474042658806e-03,7.287968746140164114e-03,6.559113957241483983e-05,4.145522088529855222e-05,4.998651156389151418e-02,7.448980190568191273e-02,3.747936142227900613e-02,3.647855945681595380e-02
6.531056144915201836e-05,9.356770514047124676e-02,6.270742133486635964e-03,6.935011127458081889e-03,1.902283155965185050e-04,3.217161608375030324e-04,5.365512612061313497e-02,6.660209840457707864e-02,4.040036737973343867e-02,1.723393595534063530e-02
1.495687553213856770e-03,9.821181705301115783e-02,6.175618140906625683e-03,6.584451943664551728e-03,6.760395261882024898e-05,3.043317314539676233e-04,5.445500574480765382e-02,6.077159752527176717e-02,4.092143070595861271e-02,1.437929745300255482e-02
2.303919665441067459e-03,6.131750155390070650e-02,6.371036428501264913e-03,6.235158570981056032e-03,3.858748670961566749e-04,6.974772320715882414e-04,4.254010451384088176e-02,5.987339230217126468e-02,3.735386504847058864e-02,3.762303654611177245e-02
1.515684861215430565e-03,1.299187496960433133e-02,6.297190163953584469e-03,5.887858477718829059e-03,1.851149954133566168e-04,1.937909346822064153e-03,2.063761166693514268e-02,5.973124127868687655e-02,3.316850197727629068e-02,4.088891161012966902e-02
6.238460571342255225e-05,8.488322767975435557e-02,5.267877958136172635e-03,5.541333375473564415e-03,5.424876705168159242e-04,1.910087726641901580e-03,3.844954463418655266e-03,5.813836748764133339e-02,3.227612058924803767e-02,3.056952834772312319e-02
6.826198527281554258e-04,1.206640537839092919e-01,4.605713609109894462e-03,5.194143786092675352e-03,9.203821819964996560e-04,6.157007488074473130e-04,2.772488106697200590e-03,5.856580722897834074e-02,3.589849409926520324e-02,1.737482366703704470e-02
5.648983277503410658e-04,1.186461323880017849e-01,6.146753125967677721e-03,4.846323747800052387e-03,3.666402474701281567e-04,4.350111311543580035e-04,1.311484624213809722e-02,6.371969209780285748e-02,4.310684409964203601e-02,3.673402912500848844e-03
3.338531510552619438e-04,9.312092668642399373e-02,8.924323967608385408e-03,4.497637924974434362e-03,4.740134229693963408e-04,4.932991987587121742e-04,2.452145531620956651e-02,7.103544036971760900e-02,4.960472009226951640e-02,1.453071681945973179e-02
3.643026613335913471e-04,5.246448742641390828e-02,1.022082581465277688e-02,4.147096946166893387e-03,7.555171183343759728e-04,2.435773270455206859e-04,3.202927681708705315e-02,7.467234744746098496e-02,4.929706878245024987e-02,3.701029682613136279e-02
4.445318088447251553e-04,7.066274210863436080e-03,9.584627114552704205e-03,3.795908507182591679e-03,6.017514149160681702e-04,3.144076693651575403e-04,3.384012132065117306e-02,7.064207811083531019e-02,4.167181377143846371e-02,5.401862494816237620e-02
4.109019786117330190e-04,1.765942201568768480e-02,9.131601893125456879e-03,3.447146494255493195e-03,5.624157402395751773e-04,5.274103038635717493e-04,2.743684204055141587e-02,6.164879984494967685e-02,3.371014745647100269e-02,5.415939605349588681e-02
3.550526586240292993e-04,3.073533736160589773e-03,1.007244117383114361e-02,3.099796470156780843e-03,7.029623909093297637e-04,5.985745348320000228e-04,1.600743806306921882e-02,5.505882019812362999e-02,3.185974386515364604e-02,3.796613054398099291e-02
3.535293284881367527e-04,3.321739471149147416e-02,1.134867980401623941e-02,2.749969387097198591e-03,7.848785655627740516e-04,6.007118572126932728e-04,9.882334929229618162e-03,5.422991522553644722e-02,3.645597101981559035e-02,2.041196366813546534e-02
3.642839981359896270e-04,5.544120607723150573e-02,1.181871875286890673e-02,2.403437390826775044e-03,7.686684000629110964e-04,6.621056243045321879e-04,1.404981978163937460e-02,5.630253447845277176e-02,4.426813256497724031e-02,1.746001381624990439e-02
3.507250339616176712e-04,5.211958574876383865e-02,1.177727346912224062e-02,2.072967854413655924e-03,7.630421743133045847e-04,7.429210953712075786e-04,2.241027424075948613e-02,5.931473724464550457e-02,5.157436151975196281e-02,3.303781677592632082e-02
3.317756448263115693e-04,3.665691023565596784e-02,1.193053090138731197e-02,1.751456008687103313e-03,7.869752783290151965e-04,7.815077467132310399e-04,2.867013169666033159e-02,6.388006780258358164e-02,5.617304870904014924e-02,5.917346459277994519e-02
3.244723927082909820e-04,1.604311758414144612e-02,1.230218931804230413e-02,1.416954943871151810e-03,7.892773480487534589e-04,8.018393855991941136e-04,3.331518062297341570e-02,6.646644042639315852e-02,6.100492849825241148e-02,8.118419626502283715e-02
3.198342350308542767e-04,1.396248838712136654e-02,1.256017026476906329e-02,1.090022743861697885e-03,7.602836350420822320e-04,8.268252502638588977e-04,3.607357663652282359e-02,5.967606527147596013e-02,7.072193646502306086e-02,8.342242650459069653e-02
3.094525251696252804e-04,4.917690374528882469e-02,1.263620997781203861e-02,8.242603944604596838e-04,7.240753143441993472e-04,8.247499308093019779e-04,3.072202656013066704e-02,4.200355707094134694e-02,7.823836657457054755e-02,6.152973285899684952e-02
2.971243642472342727e-04,7.577452597495124009e-02,1.273174069721416495e-02,5.834525645278499598e-04,6.860420332363699166e-04,7.911158355806056875e-04,1.300780492143278899e-02,2.050974930163207074e-02,6.468299033709816459e-02,2.980994804507909254e-02
2.865531161961109934e-04,8.600545890142459460e-02,1.273590839781755385e-02,2.584449972603373872e-04,6.359673035488615884e-04,7.806567572442721847e-04,1.067749835693316239e-02,1.864091072150307442e-03,2.457863726493528245e-02,7.491229099463558340e-03
2.757590934560560317e-04,7.893735370025632692e-02,1.151264960609444873e-02,7.017972253461462464e-05,5.726848254520265635e-04,7.801666344756600507e-04,2.694780284630158076e-02,1.250275113519256492e-02,2.049221074823649735e-02,1.698025262886083270e-04
2.627777679226790133e-04,5.137128967602525020e-02,7.554330193063317662e-03,1.614442551931885832e-04,5.026871414522659500e-04,6.768922060502592219e-04,2.801613868392668905e-02,2.089297473316584913e-02,4.790584184332553203e-02,5.559344303239423940e-05
2.483527932242448840e-04,6.023408624531432706e-03,1.452777528732756510e-03,1.762720964044815612e-04,4.283236069337801829e-04,5.078995516307782980e-04,1.999026426730584477e-02,2.028060362327556085e-02,6.098593243397409935e-02,3.649866743642702412e-03
2.333057200717365614e-04,3.757592080404188045e-02,3.395858300373660703e-03,6.305924839964327988e-04,3.487116332933964317e-04,5.178815989726111855e-04,1.675851619569767789e-02,1.556335149836496692e-02,7.483397136000059791e-02,9.337707375329917098e-03
2.172464728763790723e-04,6.010700613300935802e-02,4.585948152773251796e-03,1.185776450473670666e-03,2.656548732852879839e-04,6.417294289608765391e-04,2.501420815102711054e-02,2.084375124185820424e-02,8.879528698471841897e-02,9.351808601287894124e-03
1.997913757563966994e-04,6.386685274552969527e-02,4.011325508131127066e-03,6.866541114661563758e-04,1.822752004290948151e-04,3.179570763494772015e-04,3.901743878973779056e-02,4.351470231811088024e-02,9.015278779429464207e-02,7.264743002034303870e-03
1.811825103846223973e-04,6.010288118735090945e-02,4.806612346439999989e-03,1.267930972526206605e-04,9.920924609160616391e-05,5.750197173158482855e-04,4.988273689562299634e-02,7.333659614550856742e-02,7.608642266896015194e-02,3.772556253361759177e-02
1.617240977419808217e-04,4.668476699249848871e-02,6.464237989281872848e-03,2.201755475484930627e-03,1.715420590942231047e-05,1.164943233942149605e-03,5.332692423666403336e-02,9.447166768743389675e-02,5.710955545470357275e-02,6.248413378720035077e-02
1.414832605205877962e-04,1.790276326240389237e-02,6.250599939595458641e-03,9.134141181962793926e-03,5.929287468015272334e-05,8.107160221896537143e-04,4.888833941351277551e-02,1.020250094304341465e-01,4.280882061240725428e-02,6.633942121519895152e-02
1.205465124643256212e-04,1.425640154468288748e-02,4.146748698751295120e-03,1.644737782201999982e-02,1.270893513405153450e-04,1.481028745458365186e-04,3.962940134942161824e-02,1.003279595424468595e-01,3.270144111291319738e-02,5.489827068378991953e-02
9.915792707368618311e-05,3.061649652419971834e-02,2.680760563555944012e-03,1.859265378222269699e-02,1.912435302718834898e-04,4.447332511404116341e-05,3.191328481814845186e-02,9.241832589757363603e-02,1.877550306641012287e-02,4.208460178021114495e-02
7.759446381894716022e-05,3.211817913731987439e-02,2.434342723678997299e-03,1.494667102602176972e-02,2.534404617126972221e-04,3.742110385863368156e-04,2.869916337101668588e-02,7.892322609831933788e-02,4.398206520770997496e-03,3.030501672952475370e-02
5.609243854538065801e-05,3.567567320435738321e-02,1.246433914571939798e-03,9.062061042752613677e-03,2.989054890203874694e-04,5.716705428797630960e-04,2.577990071435839331e-02,6.285596755809395864e-02,2.814873326486677999e-02,1.642196211189793364e-02
3.489682300228386910e-05,4.376553169336296761e-02,1.799825746770905869e-03,4.125410844430018459e-03,3.204686435388696226e-04,5.664581141909883063e-04,2.022388097362661646e-02,4.904745949866134991e-02,3.282992871542379093e-02,8.003321540885507263e-03
1.428749433412920047e-05,4.041630709585653652e-02,4.678039790383227772e-03,1.348954604811283819e-03,3.468960159229895644e-04,5.994633938737032415e-04,1.631604471510334983e-02,3.899536993371249816e-02,1.036614347957570334e-02,1.145345142397322102e-02
5.452670687273386216e-06,2.091163948129461797e-02,5.852164714515167496e-03,5.803380194592175616e-04,3.922849828575229758e-04,7.081529480503819928e-04,1.645123831960325703e-02,2.957988384574404550e-02,2.273325248008348232e-02,1.171775185972749253e-02
2.405987817115980837e-05,4.464084547035163802e-03,6.508850032544559981e-03,7.772391260183985056e-04,3.944781829339440073e-04,7.790607941290678823e-04,1.482060123175922388e-02,1.898388063709423312e-02,4.363402353118289723e-02,6.006378315894284406e-03
4.128422288706922708e-05,8.291140916009128586e-03,7.140130980624363570e-03,8.812707386822598611e-04,3.215632884993229802e-04,7.913204175239408559e-04,8.850197550704380287e-03,1.215141216917547257e-02,4.611700613534019250e-02,2.141788574277648377e-02
5.688832326112025245e-05,2.103596680541445704e-02,5.028425003354210568e-03,6.808591846590096759e-04,3.062251069063436711e-04,7.964683106777137441e-04,7.337640256494113583e-03,1.643460176742817663e-02,3.646310273770542870e-02,3.093685037460480129e-03
7.065799956085109298e-05,1.354069366422831593e-02,9.684691337223357357e-04,4.944047880672166728e-04,4.219263216696312918e-04,8.041913155669039867e-04,1.689946004980261152e-02,3.158259085923145748e-02,1.772081293352105805e-02,3.817182456712700511e-02
8.241091153486711056e-05,2.321035776940797574e-02,6.129211952720681721e-03,4.487881341752181230e-04,3.872468800199149025e-04,7.903429240986237702e-04,2.931585775682141182e-02,4.773327550113021928e-02,7.683945622104121874e-03,5.931623549149941249e-02
9.199920333593191151e-05,6.178399183417850049e-02,5.426707625743162379e-03,4.270147023025901893e-04,2.930188220722386162e-05,7.505400128666878112e-04,3.281819063528196995e-02,5.502702765736423862e-02,2.695321805953540539e-02,4.450016696143263562e-02
9.931127463030884890e-05,7.019528337305472321e-02,6.647781256471073938e-04,3.316921593555682054e-04,1.815989245641004286e-05,6.970562997472797744e-04,2.808676976370602651e-02,5.273207124870167573e-02,2.598311946756684879e-02,1.794618415376148662e-02
1.042738644692404635e-04,5.003240386916722043e-02,2.844257011226329103e-03,1.769928552765930941e-04,9.315587889362801025e-04,6.336637515166204399e-04,2.333946843712945973e-02,4.691051659038984745e-02,9.268057502187558583e-03,8.140210958717884315e-04
1.068546272349386747e-04,2.723306222564992468e-02,3.917116956980958888e-03,9.616747193890275505e-05,2.131275370895784321e-03,5.567418734722931126e-04,2.027053344978598654e-02,4.207889248128109105e-02,3.088175347981988138e-03,9.985654225859461400e-03
1.070658895425659015e-04,1.465083436148505863e-02,5.745357237105713083e-03,1.788767773214478907e-04,2.076911471172541383e-03,4.670213798625975671e-04,1.463480440696553544e-02,3.851169113865685750e-02,4.519511997192401931e-04,1.890697171528282067e-02
1.049637985091858881e-04,3.500384267422611446e-03,1.063140048696478192e-02,1.848348182806651635e-04,7.747196312744144631e-04,3.691467639687488235e-04,6.806459907700522331e-03,3.478885687131394455e-02,1.194491626856482649e-02,1.814395976247764816e-02
1.006394973684033087e-04,1.319806808163374173e-02,1.614691253529688605e-02,1.449151813073120635e-04,2.704002492611124147e-04,2.661008206500694011e-04,2.234970611566377153e-03,2.924423366002811692e-02,1.664197950816204835e-02,4.795908678316144341e-03
9.421706607743675821e-05,2.835366940057306578e-02,1.535997106725668117e-02,2.996637055261098994e-04,3.200465797487384283e-04,1.592621949931209550e-04,1.892436481129543269e-03,2.144756980408439248e-02,6.889679041715010034e-03,9.656849152021184171e-03
8.586669537114490966e-05,3.325027705518972254e-02,3.040428053730419820e-03,6.257519239507696460e-04,4.898898484950180870e-05,5.093161572911915737e-05,3.967801429565339863e-04,1.462626629891621358e-02,1.558460819091577951e-02,1.602748065863581969e-02
7.580086357570351352e-05,2.802546037898122691e-02,1.662858806569821393e-02,2.449175511475460559e-03,6.595955415551019944e-05,5.575328377699992485e-05,4.786424982392773961e-03,1.364282272393960160e-02,4.193138389995264281e-02,1.767375822864017051e-02
6.423442564175393433e-05,1.607566268597241527e-02,3.253980191367635694e-02,4.093614008461859445e-03,2.161198931932554643e-04,1.580927561816922178e-04,9.218961340078405883e-03,1.869925599623223703e-02,6.077913315029391528e-02,1.723180320894435180e-02
5.137777191675556505e-05,8.983627896971936935e-04,3.826099444551216144e-02,5.542157065892993131e-03,2.627408983249757352e-04,2.538910125197831828e-04,8.873326071117487723e-03,2.304057694633349085e-02,6.671754300877275057e-02,1.034729095350750937e-02
3.750617409713907232e-05,1.592884201453956261e-02,3.665534170054119550e-02,7.645337118569022969e-03,2.346710553608007859e-04,3.409478199295193270e-04,5.444180108219225100e-03,1.866088931356007369e-02,6.387497928320938489e-02,4.411214362354110149e-04
2.295890256162056087e-05,1.466675168366827868e-02,3.297843508956159464e-02,9.667736629919130437e-03,1.636677692177664317e-04,4.171042448851369723e-04,1.967012042327503669e-03,5.086335563762100359e-03,6.092647260786702296e-02,1.208862978331620578e-03
7.972555203361576275e-06,8.106759282063042901e-03,2.886189571113469479e-02,9.612395185128370240e-03,1.072382167261235711e-04,4.805573294924141473e-04,1.311717702093554740e-03,7.920351833957353649e-03,6.600883204504963409e-02,1.594757286137035018e-02
7.340630470017370381e-06,3.516673539760815925e-02,2.376298338264148935e-02,7.536067832188231112e-03,2.215152997175053539e-04,5.299098922692706878e-04,4.416049660441633690e-03,9.770350345721288965e-03,8.181452970971214711e-02,3.194484383705901986e-02
2.265677099301352689e-05,4.439806864917492102e-02,1.807256099254699044e-02,5.737466397962453883e-03,3.441099425056684492e-04,5.640808433895640314e-04,5.181908015493039837e-03,2.423266224908578181e-03,9.895969948876449929e-02,3.927018301925524341e-02
3.740435158190068754e-05,3.768610701743593111e-02,1.329311727995512171e-02,5.043767490309734869e-03,8.202057479276747071e-06,5.823261163606310723e-04,1.568361789528849087e-03,1.657748172797503423e-03,1.004711268696757559e-01,3.674925040367136436e-02
5.149924660995881570e-05,3.542578941755698818e-02,1.050582394713189642e-02,3.875363291175245965e-03,7.270684299567714516e-04,5.843134613719042645e-04,5.097149871243758165e-03,2.028518855644974132e-03,7.989992436962184419e-02,2.296523434615756545e-02
6.545792784999691482e-05,4.292159777184594016e-02,9.076912910244013324e-03,1.621863019358685525e-03,1.046482114528472264e-03,5.701325138980704692e-04,1.032896171586854955e-02,3.292989197464585988e-03,4.930888189334275973e-02,2.467927810966133190e-03
7.884624136722518089e-05,4.341054948410480452e-02,7.028692245052745036e-03,8.821127066761726577e-05,8.746656324104500188e-04,5.402648137543125673e-04,1.066548694396275351e-02,4.501495410937255900e-03,2.490117377483539590e-02,8.851144013612449735e-03
9.001072320101175862e-05,2.706949208258392983e-02,3.293372641314526797e-03,1.902534620793729569e-04,9.151816350579217683e-04,4.955694958280677971e-04,8.033112321309108031e-03,1.131697851246736206e-02,1.059206051562921330e-02,5.547647300655173669e-03
9.939567791578460395e-05,7.070594666236681633e-03,1.076884718073640437e-03,3.304538231992547228e-04,1.192605929428272420e-03,4.372740167627854700e-04,8.165402579336348415e-03,5.608175876150596484e-03,1.214920912930289067e-03,4.545084646695988009e-03
1.102122220456123466e-04,3.512772268205164184e-03,4.690826272345195377e-03,2.980471400951431290e-04,1.053595167168612555e-03,3.669442734264114652e-04,1.329526382985063773e-02,8.136826482824939533e-03,1.707129318521130937e-02,1.689174494705249219e-02
1.213776017349307363e-04,2.351292441548080356e-02,7.310182645823441738e-03,1.466632807782600190e-04,5.201844997245557139e-04,2.864396822605895900e-04,1.874106449470473029e-02,1.745505998285498683e-02,3.288695999011391480e-02,2.721622058041709910e-02
1.259051239733352816e-04,5.397801282287036095e-02,8.418251563569210255e-03,2.624822427320180505e-04,1.585961157596444348e-04,1.978665003504620913e-04,1.879475480094650042e-02,1.823211404361547300e-02,3.607705001436426612e-02,1.912462287489172588e-02
1.259411675208135112e-04,6.922647186050272239e-02,6.286159618697478163e-03,3.747484371602089089e-06,1.797786450602734652e-04,1.035284207170492272e-04,1.328467294195179865e-02,1.384136473711507914e-02,1.798070281570967113e-02,2.944710248086344125e-03
1.365931655612450909e-04,5.882901309637419973e-02,5.153474987636870192e-04,2.022071319928610690e-04,5.992764776598633091e-04,5.869926373312289367e-06,5.941200353170070225e-03,6.891869288895530014e-03,1.650557351133144848e-02,1.001550350983905924e-03
1.539102547468483941e-04,4.584791700196286929e-02,6.044595116961806389e-03,1.109252070790676514e-03,1.304851891831042060e-03,9.258528857270485746e-05,3.278992694868739909e-04,6.880842335406097505e-04,5.281653156175311614e-02,1.730123346932948419e-02
1.458639693846828047e-04,5.010996307085244933e-02,1.066131869607166334e-02,9.480591691182286554e-04,1.694505462173772356e-03,1.892966302249205748e-04,3.672838037369075166e-03,1.304874232143865467e-03,7.762260479285337800e-02,3.599886710579579957e-02
1.204840453600710532e-04,4.019291567565443785e-02,1.476264998171669673e-02,2.410556057053569665e-03,1.335144428092791598e-03,2.817685235595981312e-04,2.394964105538937259e-03,1.045871858720403766e-02,8.414636705862849064e-02,4.281098969381744862e-02
1.468908442443232927e-04,3.083266894582310097e-02,2.089306122946242919e-02,7.725233109162990032e-03,6.656540838627852128e-04,3.676116909611648045e-04,3.053610303566173072e-03,2.212129217250568408e-02,7.108363206739107265e-02,3.634611676547784553e-02
2.103092780646562566e-04,1.428215072322748525e-01,2.660139039330657387e-02,1.049840902349959137e-02,2.599488215295147437e-04,4.446021201301820027e-04,9.341893717375948994e-03,3.059195673468858775e-02,4.183150781429309517e-02,2.233979976697399519e-02
1.632178391982634310e-04,2.179433287484891513e-01,2.605377486093252148e-02,8.032883119603860880e-03,2.316779993647122792e-04,5.107356869726902221e-04,1.299177172876615771e-02,3.594620188126720212e-02,4.635790391067586176e-03,7.563846498882129121e-03
3.368337146727781836e-05,2.163070253252223629e-01,1.758851665731209560e-02,2.486162801657869088e-03,6.225655953184497556e-04,5.642771804188088719e-04,1.269847369706502554e-02,3.971101843349603144e-02,2.989773071180681571e-02,1.156666113043750780e-03
1.406308425527155173e-04,1.689712526091684264e-01,5.809687087339018841e-03,2.132064573850639237e-03,1.203594819445238332e-03,6.038028149686983917e-04,9.854307285335707836e-03,4.169459942656317947e-02,5.250320330787333623e-02,1.034933243862127573e-03
4.422399579766658003e-04,1.168053113105494978e-01,3.063054348070495553e-03,3.923676682315660642e-03,1.275286613745436675e-03,6.282351522554626777e-04,7.843211391433900156e-03,4.198864041626090143e-02,5.710307213034426094e-02,2.236104191627784864e-03
2.140292532688880330e-04,6.982690569533608893e-02,4.889017321034914640e-03,2.934879992145010292e-03,8.412899160204034658e-04,6.368694499465720566e-04,8.933724909653131124e-03,4.073781647055442490e-02,4.185949201719021961e-02,1.192531627407984220e-03
7.274238897987195598e-04,2.962566078909792747e-02,1.106726357347300772e-03,4.248299439141348913e-04,8.770831590768674198e-04,6.293908412458319637e-04,1.156653282772627037e-02,3.658143267107630270e-02,1.096958894178325095e-02,1.745396548480176394e-03
1.166684452870324655e-03,6.273136208522277907e-03,1.096208174775531279e-02,4.490793882868342538e-03,1.550792920233622866e-03,6.058819978735287704e-04,1.282746578053606083e-02,2.992439482449214469e-02,2.337260323060287928e-02,2.618642147669908438e-03
3.154989550836124514e-04,2.550803823412559415e-03,1.749880480628497603e-02,5.832754437171017159e-03,1.845457259563482904e-03,5.668210285948586990e-04,1.267911522502191204e-02,2.563172222846932594e-02,4.249162217823588411e-02,1.432524460581629730e-02
4.201994726601945189e-04,7.971163262071565697e-03,1.624250757859723934e-02,2.602502858780028454e-03,1.334046175972660678e-03,5.130696292466919734e-04,1.312382715591756989e-02,2.734138148149411335e-02,3.231938529102718755e-02,2.076054301540623814e-02
4.664676350108580560e-04,1.383809715635188342e-02,8.902255035132892666e-03,2.693031807666078359e-03,5.654314742568071397e-04,4.458519133270167560e-04,1.388387737104027249e-02,3.096223224758140602e-02,1.442761206103790154e-03,1.271518672907490273e-02
1.810704848426084382e-03,1.819654817972897465e-02,2.608146430126560334e-04,6.189873732333001782e-03,1.121086111782770058e-04,3.667244906861084658e-04,1.156386935733625179e-02,2.885097025555396349e-02,3.501015034644432838e-02,3.562236960299565870e-03
1.629362170420500279e-03,1.744226062104082750e-02,6.040169470145290501e-03,7.107886984638735021e-03,6.952904026996444562e-04,2.775382510912327919e-04,4.070231503823570213e-03,1.920970371120591866e-02,4.919525929876336634e-02,1.433584707455682825e-02
5.295241773042120778e-04,6.889545160051291188e-03,8.639918438273656853e-03,7.091061116896668626e-03,1.055473065683269936e-03,1.803927129506671212e-04,5.790297850226197411e-03,7.274237276917892500e-03,4.550827283365156684e-02,1.326394378819885367e-02
3.459984548700725197e-04,1.212999349242120141e-02,8.512129524447971385e-03,6.883921023536245312e-03,1.162978860186774082e-03,7.758465281117194877e-05,1.306968050030376909e-02,1.371759471970723093e-03,3.751508763463082957e-02,5.061306463087025115e-03
7.522482057975775046e-04,3.374186123897202072e-02,8.035108761675940209e-03,5.939809063472141493e-03,1.241047425700553481e-03,2.844755090558451823e-05,1.559557666259043032e-02,4.890264154245658849e-03,3.434125815904405521e-02,2.502503607417077679e-03
3.802479776265415765e-04,5.210904082888469235e-02,8.144357610045267412e-03,4.214007879648017270e-03,1.419029494063904192e-03,1.351837618530282378e-04,1.399531270940062612e-02,3.773948172280531480e-03,3.616671012337611263e-02,6.552189781115618297e-03
2.197376758101308254e-04,6.143816457490337835e-02,7.662386178502633011e-03,2.788664317050200490e-03,1.619637742756611584e-03,2.400850507318321901e-04,9.375250211800622083e-03,7.900298444768923123e-04,3.888261703813377518e-02,9.396584387071601693e-03
1.716621661917516013e-04,5.922194705286795702e-02,6.803717862394172491e-03,3.004320867602770003e-03,1.771625668638155890e-03,3.406555471632060576e-04,3.690723509561448512e-03,6.789818854650889537e-03,3.682218615026541103e-02,1.425518477726179720e-02
8.541065904479908317e-04,5.202232412029594161e-02,8.462350438578515946e-03,5.068347765160165219e-03,1.888026697867492207e-03,4.345007449843155470e-04,4.392566944706230003e-04,1.210955909284263353e-02,2.406373112069887937e-02,2.107575724045405649e-02
5.303246768266361728e-04,4.849569258782480963e-02,1.375045107306948310e-02,7.454048112307353965e-03,2.008004915159738221e-03,5.193865616378021740e-04,2.512271825762779718e-03,1.558502043777972718e-02,2.546685262950204066e-03,2.404687958287040836e-02
3.669497907740269750e-04,4.412640564656056252e-02,1.921462867705634250e-02,8.556353304893224432e-03,2.166342582328455342e-03,5.932998208400984061e-04,3.887400909771559360e-03,1.607506375701385493e-02,1.101978649937106203e-02,1.648879048734067793e-02
6.836925471797259670e-04,2.542028852001782316e-02,2.153268044055436231e-02,8.821017521987413804e-03,2.330410955070152512e-03,6.544965050866835945e-04,4.067469916876759184e-03,1.239750821967114912e-02,1.261708389366749186e-03,1.668254234378098834e-03
4.374897783365535187e-04,6.355873766699392940e-03,2.281539247022381506e-02,9.857424345508276550e-03,2.393994271423404135e-03,7.015317690220625310e-04,1.105558421435561770e-03,6.114477597205818758e-03,3.638928745871698733e-02,9.056740677683066537e-03
3.176385208814381036e-04,3.040965765857538486e-02,2.764109462590037813e-02,1.177826443465088482e-02,2.398229719034929673e-03,7.332968567205211657e-04,3.855100140433829689e-03,1.226535718291426290e-03,7.380600317026994595e-02,1.280408879972916650e-02
4.455547722335539821e-04,3.117765582414143768e-02,3.575214518998880153e-02,1.314557870409796721e-02,2.587247993543523913e-03,7.490730122256950138e-04,6.755531336881230760e-03,1.218863408697660067e-03,9.972067277068537294e-02,1.818267709052702810e-02
5.287679830290714211e-04,1.411012034995432624e-02,4.185524488955218170e-02,1.343145216155317012e-02,2.901583447799632558e-03,7.485460933472833523e-04,6.317660754714601694e-03,4.413967243788416081e-03,1.170225056879851816e-01,2.837420618586412868e-02
4.972522832284276923e-04,5.695178047651237516e-03,4.335619633674915596e-02,1.377060557611302360e-02,2.771197413816998446e-03,7.317566277573550691e-04,5.953262686773924152e-03,9.811457090209262794e-03,1.337859162727157714e-01,3.461066018354317514e-02
4.663567548375112002e-04,1.708925002682817884e-02,4.363297334516937770e-02,1.477990337358804467e-02,2.051167052399437661e-03,6.991032880860602880e-04,8.636786039134503393e-03,1.418978832907624547e-02,1.514425115315119752e-01,2.932878963146553358e-02
4.805348489872030395e-04,1.555280593517184042e-02,4.491719332849687663e-02,1.501053278370677313e-02,1.631398534078741134e-03,6.514559387722286847e-04,1.235826714802223426e-02,1.391090310299011173e-02,1.635062340856758001e-01,1.459881458195768679e-02
5.278669430953296859e-04,4.375409160462022384e-03,4.264402416451955335e-02,1.278115709864320777e-02,2.203771520599913641e-03,5.901276182251281779e-04,1.233910656852768226e-02,8.432869973581624129e-03,1.614394288015217616e-01,4.015590881522024952e-03
5.664005612157870569e-04,6.944727250601710755e-03,3.202501326179856000e-02,8.805237871408357411e-03,3.091356288954718191e-03,5.165795770471861593e-04,6.722795078206278419e-03,3.441578160442220966e-04,1.421910493085084826e-01,2.364841583886460180e-02
5.116193650106071840e-04,1.114589708208641762e-02,1.718933164081435511e-02,5.252587840966610987e-03,3.312020159109106687e-03,4.323926507928524724e-04,1.691173507242491958e-03,5.325343128911844484e-03,1.116062289797263296e-01,4.125812008050702695e-02
4.242010100282068616e-04,7.974568423214492552e-03,8.018361424099181012e-03,2.610757603906927946e-03,3.073473724371853042e-03,3.397896941036268516e-04,9.286685081717059587e-03,5.014594600664249932e-03,8.197796226545525644e-02,4.902322116958506004e-02
5.393100857792161801e-04,6.497248679323457468e-05,9.010858269826664546e-03,7.428134930522237687e-05,3.188885862143199090e-03,2.415802374194000047e-04,1.491612828041462280e-02,1.836932583839137297e-03,6.684386558582022797e-02,4.008938408114632451e-02
7.558048069272688217e-04,1.058807753060999647e-02,1.570093063046084508e-02,1.974422815974460291e-03,3.565557532003252230e-03,1.398930266764897225e-04,1.868338477313616700e-02,1.922448754742303589e-03,7.269572481197393576e-02,2.069108047061307340e-02
5.028307268587710972e-04,2.142539902065619672e-02,2.150189887305029718e-02,7.605458076448646729e-04,3.383210005422374132e-03,3.609435110040757407e-05,2.032910696813297266e-02,4.690507738470121868e-03,9.188493481150897257e-02,7.016330417787680629e-03
2.784864471448248455e-04,2.931601661101518666e-02,2.415179539302655595e-02,3.200223852247262649e-03,2.685282728700154678e-03,6.668647620120335276e-05,2.036466254711467513e-02,3.580851769519744713e-03,1.097449914215325589e-01,5.134898862533007410e-03
6.888876057636952877e-04,3.292287275429426480e-02,2.451184098101453698e-02,6.174732674927301164e-03,2.514341373492997179e-03,1.635040412616555220e-04,2.023087392927447672e-02,3.021483172001889882e-03,1.187678411582734767e-01,4.065104917449669127e-03
2.229192951211175647e-04,3.248932802919755891e-02,2.244335372482043206e-02,6.106933920329972974e-03,3.035813133497399386e-03,2.531796235462362068e-04,1.965030248182063691e-02,9.671723736502517085e-03,1.157405055729781029e-01,6.873529213419382611e-03
4.098473357505225123e-04,2.749512832327267314e-02,1.705570018460119200e-02,5.491530825247632058e-03,2.883915526308189221e-03,3.387497064269388695e-04,1.622487329576791440e-02,1.296446862196078131e-02,8.980078723459536394e-02,2.331092604452906711e-02
6.227707985088355800e-04,1.778110122309370378e-02,9.257791698722575915e-03,6.814857068326437076e-03,9.566972375026438049e-04,4.157385469991284159e-04,9.537365354545006974e-03,1.424937316602754162e-02,3.051530641851975603e-02,3.125122878974486568e-02
7.132229492499103478e-04,7.030811868286199542e-03,7.992730230089008583e-04,7.716781199655797785e-03,2.277831919163075206e-03,4.710675986537626110e-04,3.271221357358507741e-03,1.353801163569973848e-02,5.221132235890299511e-02,2.195601892888716239e-02
6.120190347693079801e-04,1.272802156441237963e-03,7.356239840028130916e-03,4.539269046060416188e-03,5.387968246557893817e-03,5.082312232749786312e-04,9.621128853375822106e-04,9.029183608484574880e-03,1.301158506396637993e-01,2.119101999538690502e-03
2.985702301824444578e-04,2.727481055858404189e-03,1.300368692845568774e-02,1.033342691177204908e-03,6.954151259920982736e-03,5.504231568486550206e-04,1.786542562017077746e-03,2.097238286987195693e-03,1.805890642546487124e-01,1.055170409042734993e-02
1.512234680803665717e-03,7.854646008161365531e-03,1.244337013163866051e-02,3.499667277430672761e-03,6.111684489161787505e-03,5.869698580360260300e-04,2.921479635767975421e-03,4.031249666934477900e-03,1.991052527051476173e-01,5.608842308648625923e-03
1.559630192064291338e-03,1.237982273915431281e-02,5.450402618916555184e-03,1.044397656730893485e-03,2.928745289037147474e-03,5.653436605972241100e-04,3.979901887470556343e-03,8.534703055772160582e-03,1.884253307010676504e-01,1.020343229226409847e-02
3.331609335391277167e-04,1.562359302161519560e-02,2.680142352202988937e-03,2.598995811493928255e-03,1.249506226330683633e-03,5.054265340803543866e-04,6.170862394459060950e-03,1.015166774937011247e-02,1.506860645501932605e-01,2.484107689796834217e-02
6.781333983417653149e-04,1.824335560667132358e-02,6.314595944567522393e-03,3.505561482391636539e-03,4.159415915522201961e-03,5.197200782815493110e-04,8.066372991930317871e-03,4.044434606501809241e-03,9.460687083609983783e-02,3.414778381474858210e-02
6.852277816897628902e-04,1.837272349176322095e-02,3.857727219261204710e-03,1.253754038037188353e-03,4.619618227824973979e-03,5.698660100185117721e-04,5.598798907403868506e-03,1.177291788810995270e-02,3.668326660341721113e-02,3.937664972023136034e-02
3.668576526235281911e-04,1.364124914544320201e-02,3.933097186621619182e-03,2.988893895836915345e-03,3.914559916734776379e-03,4.142018465506710351e-04,2.414797424230697223e-03,3.023016847559744508e-02,9.802643272603970420e-03,4.124131813799349761e-02
3.579628805199897923e-04,5.592775257791016315e-03,1.669532903622047634e-02,9.163983258785972363e-03,3.381650314410413003e-03,1.224262564368299648e-04,1.131245104089729711e-02,4.141581877942993040e-02,3.831456119439406727e-02,4.046282364049862135e-02
4.832145991539901330e-04,1.996579702841377174e-03,3.390571815694950336e-02,1.761368825135315244e-02,1.691840703967775143e-03,2.595319087742170854e-04,1.582342122692059067e-02,4.245718878606769692e-02,4.387313867917359833e-02,3.856255518844157321e-02
4.933815328462106070e-04,7.822076081258618613e-03,5.293058353524249943e-02,2.684140554119795671e-02,2.859928293099134669e-03,9.506684672977714409e-04,1.616296098766525913e-02,3.722768158009209100e-02,2.788982577133202953e-02,3.614761070690507283e-02
4.719731702086735333e-04,1.198926476395744713e-02,6.832450010973133148e-02,3.350735814579232363e-02,8.582473957303113701e-03,1.328313989797982528e-03,1.566342407468233194e-02,2.941903413816335938e-02,9.132110221360553726e-03,3.171352884436228620e-02
4.619927802413582212e-04,1.267305437833716672e-02,7.359982285138098879e-02,3.489564563968703542e-02,1.161896233154124068e-02,7.566003490936755839e-04,1.469048442292838867e-02,2.020200175650361391e-02,1.187749963203816456e-02,2.217115754794504734e-02
4.012348093386944661e-04,8.830556131946092763e-03,6.628060842667346519e-02,3.112578551215315972e-02,1.047396940839550976e-02,1.236817945233471491e-04,1.097674408831039207e-02,1.104329248520353156e-02,3.164881661368522392e-02,6.184866671004408956e-03
4.271472258146827706e-04,4.153385157134894395e-03,5.237794772826594863e-02,2.501843797810470588e-02,7.724205150894173505e-03,4.402085846560593353e-04,4.819124450387579812e-03,4.441215272216181981e-03,2.927464872995143297e-02,1.230906025520927399e-02
6.359295816871719841e-04,3.407646277737098363e-03,4.261794517958052142e-02,1.983945134288336160e-02,7.127232544953866593e-03,3.135660623988059431e-04,4.359610502360363685e-04,9.349564018972696122e-04,2.357404229959637887e-02,2.683573136218886726e-02
5.966263432117220123e-04,6.202057396706143165e-03,4.183063066952169562e-02,1.708506925816511215e-02,9.606836525009479141e-03,3.045334176925301468e-04,1.453821755568034894e-03,2.085263976174054311e-03,1.067612814636492574e-01,3.501253521249810680e-02
1.709277120304571358e-04,8.270727648053968414e-03,4.414799575837937556e-02,1.586574592547972118e-02,1.246517004492744829e-02,4.790492823588747258e-04,6.463237607238316203e-03,7.276369885329678905e-03,1.726309692771111626e-01,3.937533181838534513e-02
1.323657528424308869e-03,7.470897706570215312e-03,4.038400801082675518e-02,1.357548466842023634e-02,1.210277916111018350e-02,5.922368017210424178e-04,1.029624598544352614e-02,1.435351928005836053e-02,1.888625284519914738e-01,4.292147621027626869e-02
2.102386689329805835e-03,4.984604035730279964e-03,2.879730352833957674e-02,8.164530572135945963e-03,7.133244420769485616e-03,6.031478781098759947e-04,9.569478222251735430e-03,2.096524164999212861e-02,1.574389488932149694e-01,4.854236197320351692e-02
2.315707629240838436e-03,2.080551798650495058e-03,1.679393536581509638e-02,1.147539692574550164e-03,1.204012232221737247e-04,6.223824894004051757e-04,5.713091318645420816e-03,2.583877900676589956e-02,1.122306469271808493e-01,6.013179007645461788e-02
2.094623179819399706e-03,8.542786334308496380e-04,1.151770645357215808e-02,3.528463964036790846e-03,5.201950583557907182e-03,6.686559980298956932e-04,2.160137634886807531e-03,3.008072520036827319e-02,9.355643627291346243e-02,7.568233872059622336e-02
1.322459884731281080e-03,3.189698050708158952e-03,1.121517781950347875e-02,4.857684797529122737e-03,6.211313573043389206e-03,6.890380099436191688e-04,1.589286518995064023e-04,3.423766424085483012e-02,1.063321608612822350e-01,8.149066231381825454e-02
1.684796105371805697e-04,4.677612271713495716e-03,9.190602121300912863e-03,5.732492399091353337e-03,5.706883013229093436e-03,6.732263355606775196e-04,8.840310061749535268e-04,3.494634406792346965e-02,1.169173915302066796e-01,6.522507506905099450e-02
6.219438009494339652e-04,6.127354638985288947e-03,3.531337621724026272e-03,7.623928489833939337e-03,5.918283497331604595e-03,6.455514275419345404e-04,1.463242801850598088e-04,2.813291622937760805e-02,1.006036629878770405e-01,3.342079516107103465e-02
6.607487747121485551e-04,7.812140687647109796e-03,2.581935805348175780e-03,8.855712128544360878e-03,5.184876750114363574e-03,6.113823109524349660e-04,4.002687220550596447e-03,1.582288858455831171e-02,6.396881465419983204e-02,3.137585865736818632e-03
4.040730601342717131e-04,8.678301111294977818e-03,7.683354390136437791e-03,8.963038682497620480e-03,2.076852171088216636e-03,5.602075946848820249e-04,9.732471791233741204e-03,5.237317143807463347e-03,1.676073350757232433e-02,1.967485237604808118e-02
3.760850597372080340e-04,8.140130728727729831e-03,1.265567384331204789e-02,9.768347781872386421e-03,9.284346677937264664e-04,4.907488022433880923e-04,1.178644034778301292e-02,4.067306349961649203e-04,3.666391734334272651e-02,3.857214481984116289e-02
5.299687530726745512e-04,7.044023167920118733e-03,1.638329474995607951e-02,1.135721400306829304e-02,1.266449755651867688e-03,4.097920077881773526e-04,7.556571918986623553e-03,1.083611150966761610e-03,7.196919194005629850e-02,5.027828663052286151e-02
5.303148579452441908e-04,6.252202084496285943e-03,1.712438457660746954e-02,1.152171556708455648e-02,1.883665082939924457e-05,3.203691129069027215e-04,8.950221370575218906e-04,2.743131323216891834e-03,5.784880244736208266e-02,4.742134822393077181e-02
3.295101102985139013e-04,5.644649398247798301e-03,1.718391443434248711e-02,9.776865030536164777e-03,9.847130288918014025e-04,2.221037863206384822e-04,1.968858812445324971e-03,4.209230096248957158e-03,6.787658544272413830e-03,3.242081035404695971e-02
3.062645767958845945e-04,4.819066137782644990e-03,2.084495009136101348e-02,8.341481009027122348e-03,2.151357101047154160e-03,1.166829143269660057e-04,4.034895408021423654e-04,2.343068857560886252e-03,2.741364033149910201e-02,1.468539547918530988e-02
6.337618709493370028e-04,3.794020621053326332e-03,2.864752231166184035e-02,9.030497445088148806e-03,4.002592070214347486e-03,7.686126297703761538e-06,3.446040445878041994e-03,3.997880882429358414e-03,1.219007767031670027e-02,5.635259890144372376e-04
6.316820172937539406e-04,2.821083668714006749e-03,3.755440876467192740e-02,1.186770473155802919e-02,5.442669596904757198e-03,1.020602693042058431e-04,3.249775330458387103e-03,1.108030812757045298e-02,3.675162265808359224e-02,1.088773241484835771e-02
4.048383117486993674e-04,1.971041778631789018e-03,4.398250650702288655e-02,1.587634876238661411e-02,5.699641439457432332e-03,2.105224357331219622e-04,1.820853380261389749e-03,1.310951831769834389e-02,8.922025069417993670e-02,1.110600869408669839e-02
1.698197195838376146e-03,1.041527006698972531e-03,4.331235727050367773e-02,1.837414624619409034e-02,5.238451490334387547e-03,3.153096575508014055e-04,2.997478685776757898e-03,7.030896611276734980e-03,1.275885040714779817e-01,1.214844559831397683e-03
1.690246676144673953e-03,1.261725907374509513e-04,3.180558049449278696e-02,1.510733049497428419e-02,4.244627621626424763e-03,4.137315069451650185e-04,5.898269949655346803e-03,6.789407867313851722e-03,1.441349891404298811e-01,1.838080356002212354e-02
4.103371967033432686e-04,1.509476701759329730e-03,1.334140275386768576e-02,4.792522255059608431e-03,2.469741280388167235e-03,5.034244361328247706e-04,6.679939527817504302e-03,2.557055239472998120e-02,1.388618340553608443e-01,2.823414288182084231e-02
5.225988878981718561e-04,3.886571852093419818e-03,2.050305993199351418e-03,7.918171543780569074e-03,1.557620278826830234e-04,5.824164093106171808e-04,4.962471913260969002e-03,4.312139051345392771e-02,1.161401172486240113e-01,2.656573487295761996e-02
4.058445214679710033e-04,9.395592914992702618e-03,9.816936396222821978e-03,1.721756351935534168e-02,2.624422688379356508e-03,6.489120188584579507e-04,4.046660345827055028e-03,5.194891683148795264e-02,7.356145730515116499e-02,1.858583277459118291e-02
1.683423901035575930e-04,1.853888683104213189e-02,1.379243423266239554e-02,2.160544955975887693e-02,6.248273038852317565e-03,7.013294035524929564e-04,5.300458268084965764e-03,4.987224418131879639e-02,1.012239388018705555e-02,8.662843154352986921e-03
3.713498900841542610e-04,2.665755756693095196e-02,1.626306245864568220e-02,2.218605488844108478e-02,9.674911682893980527e-03,7.384614982399233208e-04,6.004316432327126349e-03,4.142721792466866337e-02,5.337516203799447939e-02,4.087693809197179631e-03
2.773972506258107142e-04,2.761849627395908044e-02,1.441729345727632561e-02,1.959268716191370913e-02,1.011365464559912421e-02,7.595097956329182817e-04,3.484919710047450041e-03,3.140583554890637868e-02,8.755929050370346578e-02,1.816295988389982421e-02
5.174209201396644297e-04,2.208171057373559121e-02,7.978535199773963138e-03,1.536365113093453305e-02,6.215821704917714324e-03,7.640460275155269623e-04,7.802230323700399444e-04,2.161094082493461924e-02,8.723931216598347638e-02,2.658669088698092237e-02
1.070318843140028288e-03,1.761345505852096247e-02,1.826043936831584381e-03,1.212343004811296948e-02,3.024447103448595596e-04,7.520194524487743394e-04,2.683374545889378494e-03,1.437518594618212436e-02,6.980461277256651276e-02,2.657542982692696898e-02
6.114369006931255840e-04,1.939612992378001582e-02,4.196220132985373219e-04,1.004797062678564577e-02,3.788774411853406375e-03,7.237846625247166144e-04,5.719580463890001866e-04,1.218804986384147172e-02,5.294617018610767167e-02,2.350774909300210741e-02
1.887389799485237566e-04,2.495050711242985733e-02,6.003831684502807572e-05,6.748685976147744160e-03,4.408431115811357014e-03,6.800942516975073569e-04,2.984508826799694980e-03,1.195737118066565394e-02,5.326692015512464462e-02,2.009182169468487142e-02
3.986071465491310530e-04,2.862974837857370017e-02,4.908407436581636776e-05,1.654957353606444342e-03,3.134586813548371868e-03,6.220675113159106380e-04,5.059946652979928870e-03,7.251532621327854387e-03,8.508562649615718232e-02,1.296549275553696839e-02
1.556521892635197258e-04,2.769506570193549719e-02,3.285202641751503588e-03,2.914233971067739688e-03,2.478986781168274461e-03,5.511617899803643176e-04,5.878824723195060636e-03,1.196942504385558595e-03,1.381280399576080564e-01,5.034504302655694319e-03
5.220198760084428181e-05,2.341931364383581862e-02,9.931071790101098778e-03,5.547123701246057907e-03,3.092614099391990338e-03,4.691423844100439731e-04,6.977643470524623123e-03,4.979059838383072256e-03,1.740451831199565647e-01,5.477525779287280988e-03
1.500344310661277057e-04,1.827644814236537019e-02,1.822556737992272330e-02,7.872878373774152075e-03,3.768225173807795893e-03,3.780395192074031355e-04,7.802674078634302089e-03,6.370802477451021489e-04,1.613490277983070376e-01,1.054904734921924096e-02
1.925116769056796481e-04,1.309146380681942487e-02,2.706052158412238992e-02,1.199656803989455379e-02,3.778795999638475886e-03,2.800955777073249652e-04,6.360134182227691196e-03,5.023832004560147176e-03,1.049059268448200438e-01,2.006814158125200861e-03
1.431737735787561667e-04,7.706379162724930065e-03,3.580691956089551015e-02,1.682863009749621316e-02,3.683694807083859758e-03,1.777095991220515735e-04,2.455861853837069345e-03,5.026159316837273960e-03,3.919703551358250798e-02,2.523868038975707329e-02
1.204221137226400222e-04,3.426457194375572436e-03,3.969480659769673153e-02,1.821872623734721239e-02,3.655906216808963577e-03,7.337947875019629608e-05,1.624437348761771909e-03,4.301746083124449770e-04,7.106383006109744625e-05,4.927517501561812230e-02
1.427067058961817704e-04,1.757135994597823318e-03,3.221783370840395483e-02,1.372814907647939599e-02,2.883977292011706724e-03,3.035940822515066927e-05,3.678236963089343177e-03,3.992790427961941460e-03,2.644567254339306572e-03,4.774809971883289123e-02
1.546406839297154569e-04,1.324807666735996602e-03,1.602098991174034925e-02,6.272813492388206943e-03,1.310327477009684376e-03,1.309972598847448748e-04,3.550890038594242508e-03,6.188927308315187933e-03,8.733049504016581616e-03,2.836335677319767185e-02
1.466455200588281309e-04,3.338666182026899312e-04,2.443465391473079347e-03,8.312188328194333124e-04,1.325050272978652954e-04,2.261117678494136947e-04,2.365687660599388557e-03,7.044463832522731249e-03,6.814059465736958462e-03,1.898906734153335552e-02
1.442545168682110915e-04,2.624943152056416311e-03,4.160958764313367995e-03,1.736401682889858640e-03,3.593715184975572116e-04,3.134275577970547675e-04,9.278172566475398602e-04,8.573770086289258380e-03,8.156163693767898293e-03,3.140346482831565117e-02
1.519693734385045743e-04,2.977736085281125402e-03,1.092801357762063046e-02,4.832112178603799671e-03,1.493140212614943018e-03,3.908722868035903789e-04,5.370763120230984860e-04,1.253994177477637216e-02,1.445982119805588537e-02,4.879482549328380270e-02
1.575877446071511322e-04,1.339466623213642679e-03,2.135672663196657231e-02,1.041039061697406759e-02,3.529110157790631488e-03,4.566279471341584597e-04,1.934763590308252734e-03,1.787996066355718172e-02,5.338918333976152078e-03,4.972075841437777199e-02
1.585529771778120380e-04,6.209707754750862577e-04,2.787291803631844825e-02,1.584503254692615215e-02,4.424880331074732692e-03,5.091758353474962022e-04,3.472456444638248596e-03,1.998290854703575758e-02,3.986963567968257330e-04,3.153220820945987907e-02
1.602579307089494918e-04,2.846952198065503918e-03,2.422855145185193529e-02,1.694496049046855662e-02,2.815947338296499389e-03,5.473341094305219506e-04,5.557628997681736058e-03,1.478807787269767818e-02,1.686596133357541605e-02,7.333967242003170371e-03
1.636928997910149484e-04,6.768247928795821308e-03,1.484872863535349925e-02,1.229545313525308783e-02,8.382584735230333211e-05,5.702871376507826417e-04,7.563687396511065662e-03,3.407906216493331118e-03,4.669415279106256533e-02,9.519425040348368505e-03
1.660951729157717361e-04,9.613376320531006117e-03,7.554284522835417841e-03,4.105710342150604986e-03,1.879996082475156793e-03,5.776058986093820244e-04,7.735661121502164679e-03,7.732900120171372869e-03,6.942204261183362868e-02,1.509508494134168162e-02
1.667486314912659188e-04,1.038860947997815795e-02,4.943579228460522230e-03,3.704599614590927889e-03,2.662510574249653348e-03,5.692588609631495187e-04,5.603587354826604014e-03,1.127295355175524441e-02,7.468118201370521625e-02,1.513334603025595464e-02
1.667577213993919809e-04,1.060739374261903886e-02,6.084655789908965939e-03,7.520267499533870616e-03,2.136387433559090113e-03,5.456130707056078407e-04,3.249726710234825469e-03,5.032458228349245832e-03,6.446316912325476822e-02,1.513473123225726920e-02
1.663305963308259346e-04,1.171814513338523440e-02,1.000400538300585257e-02,5.920803724116142572e-03,5.453541306157545505e-05,5.074254374523529208e-04,2.526193062696361919e-03,5.549259437287804020e-03,4.458610658300837803e-02,1.129365302518446808e-02
1.648516446063168759e-04,1.319896718826871901e-02,1.461711761472276293e-02,1.074292234880664309e-03,2.261787628711782201e-03,4.558244192156295682e-04,2.123337602006315772e-03,1.299282622152677508e-02,2.299299699216949405e-02,1.590611918391641837e-04
1.621634478611241078e-04,1.392331781198034857e-02,1.746447316099139849e-02,2.969182684719696638e-03,2.668474814373791165e-03,3.922825272711160738e-04,5.275846836559574702e-04,1.592080697524134517e-02,8.145194588931342627e-03,8.663462357326573091e-03
1.585577430921635738e-04,1.394337283992020705e-02,1.900300870583391394e-02,4.348508299890314031e-03,1.204929272331582615e-03,3.185803133462157305e-04,5.139085234027102218e-03,1.924966405843439241e-02,2.403045589395897026e-03,6.335817319595109590e-03
1.541613672678387710e-04,1.396173662045590777e-02,2.096653320722620048e-02,4.388024256615221178e-03,1.416745830156905745e-04,2.367627190160687242e-04,8.769242271325906196e-03,2.582387491421708758e-02,2.538586407198966180e-03,2.536409250107392148e-03
1.489141925073201884e-04,1.411671285426356788e-02,2.236885708738428277e-02,4.352728470524868352e-03,4.232195716250358405e-04,1.490888456051436795e-04,9.897337250632767119e-03,3.049280743706715008e-02,6.996912787739952358e-03,9.536054194352879682e-03
1.428826130837939831e-04,1.404862894717951588e-02,2.084252607205341543e-02,3.421293907583790837e-03,3.323109388920575196e-04,5.797635565520929170e-05,9.871867650734042487e-03,2.525561994346258929e-02,1.704846475259456581e-02,2.073883847055377552e-02
1.363082936759858158e-04,1.362411287086825497e-02,1.559504376069500639e-02,5.897897331377256183e-04,4.860143685271998038e-04,3.405814164764002662e-05,1.024199936504691447e-02,9.537992689188222462e-03,3.315774223967875994e-02,2.363369862165637728e-02
1.293970339212006818e-04,1.315592710985659039e-02,7.056526843760872400e-03,3.174010086493555920e-03,6.261879729948495671e-04,1.244612532210954319e-04,1.084723907979912548e-02,8.000475461928967247e-03,5.236424288510210107e-02,1.837273459377097504e-02
1.222046216264336749e-04,1.290253075775924310e-02,2.596579040485802112e-03,5.853297824927799174e-03,2.012388096751628673e-04,2.107059939763932682e-04,1.101611583231018425e-02,1.779210571920159314e-02,6.583718096834240141e-02,8.142081540038297732e-03
1.148544748864718568e-04,1.244357570550902806e-02,8.175063332259297974e-03,6.702592148434385715e-03,7.159183717565977944e-04,2.903544933851430086e-04,1.103177909573673475e-02,1.677260842110012834e-02,6.193387693125548127e-02,1.077759598355503001e-02
1.077675875569734389e-04,1.102789172675048765e-02,5.692012895277190690e-03,6.464023040443535838e-03,1.242049950446112282e-03,3.611186878192948545e-04,1.142670666936475114e-02,9.271579270931072994e-03,3.746588848786795711e-02,3.521819236478104798e-02
1.012903623122094778e-04,8.865388945023490105e-03,2.008926153940417125e-03,5.713456877084455848e-03,8.257255260321730338e-04,4.209174499315019224e-04,1.155338060941377663e-02,3.868183084216077986e-03,4.263092889270098974e-03,4.744611376779880180e-02
9.518144253362623500e-05,7.379918638004072384e-03,7.952726240159132404e-03,4.627107084288963057e-03,1.054110737119746185e-04,4.679287406522796835e-04,1.011809954053221987e-02,7.117293682558614894e-03,1.825060442892004545e-02,3.482440777224120321e-02
8.932879179299858070e-05,7.503785747369757023e-03,8.580988942521078008e-03,4.058810562912516448e-03,7.513950176961118536e-05,5.006356332371914497e-04,7.265818641195334951e-03,1.712064111524654042e-02,1.823032549666199487e-02,7.344638763724254532e-03
8.484527287347710142e-05,8.366980023147870330e-03,5.365009849461263060e-03,4.674886467968678190e-03,1.762021134704506238e-04,5.178651060910998295e-04,5.097961645432599539e-03,2.478562841050892945e-02,2.954900637080360576e-03,1.322351545097679749e-02
8.257178557443295734e-05,8.498022490909300231e-03,6.836745525551043198e-04,5.274851405999415183e-03,2.765743422957671685e-04,5.188183661664555468e-04,5.550946453620582248e-03,2.289489316115664655e-02,6.163204583862928743e-03,1.381207028151625049e-02
8.068428195231574498e-05,7.773159096881971167e-03,4.372652379813825665e-03,4.344444186108700756e-03,1.164808359608925597e-04,5.030918771088419353e-04,8.031328804336204316e-03,1.263412208913073861e-02,3.372349216098894167e-03,4.026600221607097227e-03
7.780325138752176134e-05,7.208879592571330180e-03,8.990475768015393845e-03,2.841230096934168302e-03,1.684937199575591946e-05,4.706891597863669644e-04,9.443357833675702570e-03,1.639592307294867766e-03,2.045618984202573348e-02,2.708082970751840568e-02
7.817175451329638584e-05,7.141522615244765698e-03,1.232507443733216711e-02,2.878988649572127283e-03,1.148034142729223412e-04,4.220232333385391861e-04,6.988777532875526527e-03,2.413211263399025856e-03,2.616914770561407783e-02,3.611207757058035317e-02
8.514371591135594863e-05,6.798107245172609926e-03,1.438520206129568005e-02,4.185225987936205816e-03,1.188736708784202795e-04,3.579083564959536232e-04,1.164985828045585117e-03,3.199739709667244296e-03,1.745631116600283167e-02,2.179075325557847109e-02
8.994722767817959791e-05,5.891050538282023227e-03,1.563699171618000011e-02,4.597835966389954808e-03,2.143596151957653274e-04,2.795408582262335121e-04,4.640397240699731946e-03,1.531013425657853574e-02,5.887645637707524318e-03,3.160894578824750313e-03
8.528915331942404042e-05,5.407676824993814732e-03,1.555844156099535705e-02,3.720366119878553389e-03,4.119472770998623343e-04,1.884722037377242765e-04,7.653086605184754657e-03,2.721492587693137219e-02,9.173618885000853554e-04,1.905178750559581233e-02
8.970333860791645034e-05,6.076003795084672539e-03,1.286631946001425171e-02,3.373597667834105605e-03,3.184956124085038648e-04,8.657585842678265035e-05,7.848356008470445608e-03,3.242524102558422272e-02,4.170504239800249327e-03,2.102164076539608101e-02
1.191313022302721895e-04,7.170874017272945052e-03,7.556607285516555618e-03,4.226658412735690568e-03,1.702894224650786841e-03,2.399698175513129768e-05,6.590774567441122500e-03,2.842836324915366808e-02,1.286461734020839104e-02,1.507037418789206745e-02
1.341831462448976880e-04,7.759501982300041900e-03,1.751888045408317787e-03,4.391433896984422644e-03,2.294884285696785313e-03,1.408738382007623162e-04,4.434781368856935933e-03,1.757456627353560369e-02,2.104730052115851013e-02,5.561669029507734785e-03
9.945817216261193441e-05,8.065480882253936445e-03,1.841757695881112572e-03,2.573763739046133064e-03,1.383760529500525612e-03,2.615160337490471170e-04,9.434972224357848075e-04,3.417916624780794384e-03,2.292717769393843100e-02,2.006647295938337495e-03
9.773728617067000877e-05,8.700829158946210562e-03,1.766304325701995546e-03,8.265301881341496600e-04,2.694062044477319123e-05,3.832662482310107244e-04,3.767708647179422287e-03,1.240980746323108383e-02,1.682868229465107196e-02,1.386978838072434883e-03
2.062890067058505454e-04,9.516241826580356181e-03,1.644228375828581980e-03,1.795004355317767614e-03,8.688174724314427343e-04,5.034132689373144480e-04,8.139071389758266786e-03,2.824263841524871782e-02,2.045467475141212865e-03,3.317960327819956517e-03
2.496323630275741048e-04,1.014321195435337504e-02,6.513085423933300845e-03,4.232888601827156441e-03,1.264950920604240771e-03,6.192833522287453972e-04,1.026780607029508831e-02,4.037993556726902911e-02,2.092871850910910103e-02,1.768656629326695318e-03
5.699151135075010405e-05,1.093501665333837351e-02,1.008646768981004416e-02,4.338552035915232453e-03,1.243772046616648886e-03,7.283009961785073903e-04,9.684739366639190730e-03,4.628566061250070224e-02,4.121658790096556502e-02,6.927875962742928787e-03
7.060158179854743267e-08,1.220577173862960087e-02,1.029031819267442818e-02,1.279801438319717660e-03,4.369555112139936561e-05,8.279927384669332705e-04,7.884065401771561329e-03,4.787584998094378957e-02,4.116499679714248627e-02,1.718380527989966933e-02
4.661551053329508558e-04,1.307756300755430132e-02,7.639783959791439719e-03,1.655919744994875957e-03,2.519652130909713020e-03,9.160506441354677966e-04,7.054284950194700775e-03,4.901648792099395219e-02,1.785014116082030491e-02,2.829989332029160531e-02
6.465479538056459301e-04,1.298628348981483230e-02,5.219285191481817972e-03,1.744056554714112006e-03,4.203267748638200157e-03,9.905101686877109367e-04,7.811499834265659553e-03,5.098917323632180809e-02,9.477785557394608623e-03,3.778134522433285181e-02
6.468554774096002416e-04,1.384415499792552087e-02,5.738570746013728352e-03,4.404650475637694566e-05,3.420875506925809360e-03,1.049790173799362803e-03,8.379523068291795662e-03,5.179860045900687437e-02,1.988344348221859209e-02,3.552090760636047312e-02
2.542872681470684411e-03,1.668708961920545297e-02,8.773077934502604425e-03,1.058392716684680799e-03,9.274976309839757897e-04,1.092467550233141779e-03,6.991199737881756589e-03,4.933033892239708368e-02,1.074606111538893918e-02,1.963082661718256600e-02
2.766803212818736563e-03,1.521949075355810178e-02,1.182499221681050303e-02,1.497957493147439182e-03,1.158386044215385657e-03,1.117318021149495740e-03,4.618363884312606110e-03,4.484221742811533157e-02,6.009191952246029957e-03,5.122031391654452773e-03
1.269244468501780658e-03,9.473463584017792352e-04,1.335791193201065798e-02,2.906866651628372492e-03,1.800323719362593089e-03,1.123906149737839569e-03,3.812369156147503695e-03,4.234317173560356307e-02,2.065494370409417732e-02,4.863586666780238266e-03
2.942515968198744850e-04,3.200551422748978969e-02,1.293017362264615826e-02,5.430961224290462713e-03,1.627656504233281542e-03,1.112594054185728773e-03,5.365232003418062001e-03,4.351968604533578561e-02,3.344401179526552276e-02,1.329779351547802531e-02
5.538509155863475608e-04,6.235075101952428089e-02,9.473992619579785571e-03,7.366791932995072831e-03,1.546101244012602904e-03,1.083332918752552120e-03,8.099519419992531541e-03,4.585871212581608264e-02,4.728542543660985836e-02,1.639251671394880219e-02
6.054209172001208264e-04,7.529424435606205113e-02,3.020263794921677122e-03,7.820984151367520523e-03,1.690829629886872291e-03,1.035633758763023111e-03,1.156696995458329595e-02,4.727188742358810758e-02,5.856142424946315928e-02,8.613801405940587491e-03
8.471052402490423280e-05,6.947511534635199271e-02,2.685919256450536308e-03,7.578330113494988023e-03,1.784538931381080343e-03,9.711375148968603467e-04,1.629740493076373489e-02,4.836875928761819737e-02,6.076111127939657491e-02,4.430866785506389419e-03
5.375437379215785780e-04,5.606041111864573656e-02,3.683523584073026668e-03,7.179435494047120558e-03,1.773864106738687546e-03,8.937038227487841728e-04,2.136152119124155521e-02,4.883191898137630854e-02,5.661743212007380038e-02,1.458899701137635584e-02
3.610583089861449770e-04,4.458215884526059436e-02,9.123702400387304502e-04,6.399131424259424210e-03,1.792369823632347908e-03,8.038541157748269050e-04,2.468296567648960507e-02,4.624213986017324668e-02,5.960414590913275246e-02,1.816723979911836692e-02
1.537589690315414653e-04,3.680426006303696290e-02,2.182247764517438078e-03,5.712011465865370931e-03,1.864206643567582885e-03,6.983385835476577401e-04,2.586661969732228714e-02,3.872465313728042785e-02,7.761156624123609349e-02,1.504626178986418622e-02
2.233706416915382550e-04,3.085219928693880634e-02,4.834736991239907064e-03,6.060718656569677627e-03,1.911138931558825898e-03,5.818682560718265373e-04,2.606989252409151053e-02,2.577205903264646880e-02,9.936182519566646998e-02,5.787089596243533314e-03
3.139283016948153909e-04,2.545721049681586370e-02,7.961642034490823069e-03,7.310795803910959643e-03,1.930689868760397795e-03,4.681992996272693196e-04,2.578519625046310840e-02,9.776125534086996943e-03,1.065907506436922364e-01,6.525163554729189290e-03
2.743180742871385728e-04,1.969656564292925766e-02,1.118243358621189530e-02,8.598881428375729913e-03,2.000979733161295081e-03,3.549402553157987084e-04,2.493059547448003843e-02,1.627162776911418151e-03,9.759010146659169438e-02,1.648434507032936133e-02
2.215472759390985547e-04,1.198255796535188829e-02,1.424515025242377442e-02,9.746105221359716714e-03,2.110849728810541143e-03,2.203981927580428305e-04,2.337993948012149700e-02,1.848210793004571601e-03,8.708683694079560889e-02,2.292212427004640743e-02
2.280204397866126198e-04,2.277472093303743207e-03,1.782944945702769415e-02,1.108240521741480321e-02,2.140503719517404622e-03,7.710829789291483833e-05,1.974326826990425304e-02,4.324394330877707679e-03,8.457926370053912846e-02,2.931392872274004441e-02
2.402984567436246201e-04,5.139653035736490259e-03,2.000517308092359878e-02,1.204105488414153845e-02,2.125138775283578162e-03,2.022514586017021851e-05,1.235910316781402285e-02,4.862861767699361987e-03,8.542689166953722213e-02,3.530956780030299058e-02
2.244818262832151429e-04,4.636962632281308588e-03,1.615553812992256977e-02,1.095033106585419080e-02,2.306785592892008924e-03,8.904599944216062238e-05,2.976649682891533734e-03,3.697917093614261960e-03,8.176175989246034503e-02,3.628033205198841205e-02
2.052379208666837561e-04,3.327294631204845074e-03,5.805390842815849779e-03,6.940823295405481805e-03,2.622584195782907100e-03,2.392159642004624794e-04,3.541138164705285966e-03,1.257207140655611927e-02,7.062259859644191839e-02,3.187715704748418644e-02
1.982796445220380251e-04,1.070249212582334054e-02,4.202463746187956074e-03,1.505904994762392217e-03,2.522237760752701809e-03,4.295996350490435345e-04,4.419776872722580227e-03,1.383360711636550354e-02,5.385134027725908823e-02,2.548404895652699870e-02
1.930620189285200765e-04,1.072395120556388602e-02,6.609386655170348610e-03,2.682747573496332104e-03,1.875134642689633806e-03,4.156881819827081405e-04,1.707115376588045404e-03,9.649753316719899068e-03,3.961295270244340194e-02,1.613536296955411786e-02
1.840544109667614726e-04,6.010787601476453787e-03,1.439419423249473171e-03,3.939878500714766481e-03,1.518963848087325538e-03,2.643342015189022263e-04,2.330263398480421789e-05,7.106014484022093146e-03,3.890165575142364579e-02,6.467168908784472724e-04
1.753579169673422620e-04,4.111828524280524040e-03,5.418429968808694507e-03,2.257246849969449937e-03,2.105053798168257575e-03,5.377534984096295125e-04,2.761986168036429518e-03,1.036211286020027010e-02,5.176996432341002263e-02,1.700205964104739564e-02
1.662796000793830735e-04,6.854480911869048620e-03,9.572210374997091806e-03,9.335799054485026610e-04,3.064311509179605715e-03,1.358455260486458741e-03,9.441335364997246321e-03,1.894886768471233315e-02,6.419938713112825768e-02,2.598657177081233755e-02
1.572369399092905860e-04,8.993281075303154876e-03,1.159907346288522982e-02,3.496836513658145226e-03,3.498834778739654504e-03,1.856477988980251032e-03,1.473944232462174458e-02,2.838684438741123986e-02,6.683574390801436116e-02,1.975188643745009673e-02
1.564381393111188563e-04,6.807950304099893817e-03,1.386363753972225978e-02,4.302025402597406921e-03,3.378232599090942763e-03,1.393774106396619130e-03,1.408158905394212186e-02,3.256989871455526903e-02,6.821192900196691722e-02,5.032756640866673306e-03
1.595759315833838012e-04,2.618653837179333102e-03,1.703179595604788904e-02,4.136493169342041892e-03,3.318451824875355994e-03,6.092656401649744176e-04,9.268879251438447153e-03,2.980823685160146133e-02,7.906974414735409851e-02,2.816735137701113431e-03
1.462916301193628013e-04,1.645968400810426339e-04,2.011501312996297891e-02,4.038087986845511658e-03,3.727260742021869331e-03,3.737619013612596261e-04,5.419672243812645798e-03,2.492642288667559769e-02,9.106085929277543678e-02,3.056032822897684648e-03
1.272631547597919950e-04,1.380471374826333902e-03,2.086847450777527813e-02,3.398228386917113899e-03,4.244839069884881987e-03,5.655547545391099171e-04,3.781381608449955675e-03,2.242023549238476507e-02,8.574236953265704231e-02,1.250341778792290158e-02
1.477580947090986676e-04,1.568837686514704252e-03,1.583948241269515431e-02,8.994083412104283796e-04,3.763219280621073626e-03,6.231630593851111236e-04,2.203208974046711247e-03,2.123617542751194201e-02,6.100616079505772477e-02,1.310242298082485955e-02
1.853040808560406534e-04,1.872907377341012430e-04,3.268358613167814987e-03,3.298870151141073803e-03,1.416211956764479394e-03,4.803748669898859087e-04,1.081659220698208412e-03,1.945761254744767313e-02,3.199048696576999723e-02,6.585818454936657150e-03
1.417248520685613516e-04,3.131117120635231940e-03,1.332556851149187260e-02,7.521930088800699021e-03,2.299999343033344405e-03,3.822214742475081519e-04,3.130049816598290055e-03,1.903128495720192090e-02,8.856994751839175964e-03,2.244595067946082191e-03
6.236151507263689386e-05,3.572656769776406255e-03,2.665895403578765616e-02,1.039609369908302446e-02,5.794072956854850499e-03,3.702399579384791544e-04,7.633243638553514378e-03,2.097009293282545150e-02,9.487509304991124243e-03,1.686258341850858759e-03
1.605901919280179992e-04,3.860067811823946404e-04,3.138574790368289097e-02,1.210720463849617769e-02,7.589327001891569245e-03,3.348470653812242936e-04,1.036598213771897960e-02,2.084581994232104912e-02,2.522175989147244779e-02,1.178645997943162868e-04
3.537587627013507761e-04,5.953989513941997276e-03,2.762762830036580297e-02,1.411068644069321011e-02,7.120066076535170110e-03,2.587148409427195432e-04,9.859855424769104273e-03,1.582245535440620493e-02,4.099975900593457595e-02,3.584987047912034132e-03
1.406744914052778265e-04,9.461343287311217015e-03,1.948142342053044845e-02,1.719627067828640929e-02,4.968276954750874483e-03,1.964698056864844396e-04,9.033846976150254268e-03,1.227624192431767472e-02,6.008285735475945438e-02,2.691536518289838146e-03
5.696089278707646905e-04,1.057783618303078169e-02,1.057220641845413311e-02,1.958756151759200384e-02,2.423418194614682109e-03,1.604335341158681790e-04,9.770740671579368486e-03,1.813486190911587845e-02,7.422078338486369498e-02,6.456016210325728373e-03
1.039407293399539044e-03,1.167276598033139927e-02,1.094987381395890304e-03,1.863579483582922941e-02,3.213967567791398399e-04,1.286170554684309335e-04,1.097776826771647979e-02,2.988587440113640858e-02,6.608897285451180437e-02,1.909358486527484508e-02
7.034951784144351889e-04,1.457593398985301998e-02,9.357283601470992029e-03,1.486825333555896918e-02,1.264350619827989955e-03,9.812511269877381562e-05,1.346392479742493722e-02,3.633523137471614955e-02,3.681192672731888049e-02,2.416071367767068032e-02
8.169676308067717668e-05,1.796251165357243620e-02,1.617805630809779002e-02,1.205439740665136157e-02,1.881548964015203849e-03,8.189298339002653606e-05,2.075552291941517094e-02,3.471096947549519307e-02,1.718695136549961214e-02,1.391034286811476325e-02
6.208668573400020260e-04,1.766755156206899907e-02,1.151012087941824524e-02,1.273554651369439468e-02,5.715464858104411707e-04,8.377753640331107247e-05,3.230388090327580147e-02,3.347329795876563541e-02,3.739778247513664972e-02,6.299550586900085937e-03
4.055781510636475651e-04,1.152244776945801283e-02,5.462620974828885645e-03,1.565405010370130717e-02,2.298654827244210868e-03,9.991206335824967858e-05,4.159528511810445250e-02,3.810222592290157112e-02,8.905975208943993360e-02,1.963356339456541477e-02
6.873860705141574554e-04,3.823745672493153100e-03,2.383497076422859060e-02,1.781378529286906445e-02,4.486606283760515707e-03,1.298789246356537880e-04,4.396895021586202240e-02,4.356489763958619477e-02,1.275399589955786284e-01,1.461741705852956548e-02
1.843247263416091138e-03,1.580555511955494905e-03,3.085830430132018368e-02,1.763345031556450698e-02,4.326182426785514512e-03,1.757328534201977417e-04,4.117587587950000128e-02,4.359061354960128143e-02,1.193353488646696353e-01,4.456783967129399754e-05
1.796864740270232713e-03,5.963660665999846386e-03,2.472717346789040163e-02,1.614561621382190615e-02,2.798108081630857127e-03,2.376812833047405645e-04,3.647966840513163639e-02,3.977733335443181528e-02,8.263306305397634388e-02,4.103980638222758624e-03
5.874809670752675558e-04,1.133012268619239434e-02,1.464044431104454848e-02,1.643503228291503040e-02,2.268979056932603992e-03,3.154297866879864467e-04,3.134218665093824185e-02,3.852219631900407476e-02,6.775711255909915021e-02,8.665180132920580550e-03
3.888575658746019448e-04,1.311920889132625959e-02,9.996862961919015383e-03,2.141746504624703409e-02,3.857261290329438291e-03,4.082113143921069784e-04,2.868570466997966834e-02,4.374528655023734308e-02,9.873612133385920031e-02,2.078927296647049144e-02
4.052764165955693890e-04,1.223943783850137655e-02,1.239687155490858117e-02,3.008741398107889903e-02,6.536228704088338677e-03,5.120791944910500293e-04,3.265488054192374617e-02,5.393832139683604060e-02,1.509321085080149727e-01,1.366493961241596437e-02
9.588689305230868154e-05,1.092166486799092846e-02,1.726759708994298620e-02,3.673988653191650328e-02,8.326890606777123324e-03,6.241294637416986476e-04,4.200181878515130834e-02,6.325161486113040077e-02,1.880953127393687196e-01,5.824896800890585168e-03
8.217086085285415088e-05,9.383724451907165739e-03,2.002286006902601057e-02,3.682147093605203647e-02,8.285843720597957374e-03,7.484447662737528026e-04,4.888292299849544831e-02,6.580942352678553764e-02,2.002496831666340793e-01,1.189863024982072866e-02
2.138523614605475538e-04,8.446626163912878543e-03,1.941590836024536040e-02,3.259959648422460637e-02,7.479182849378700204e-03,8.853144920049215057e-04,4.741929911390338481e-02,6.134598354671321613e-02,1.973042033520724658e-01,7.222401101389205880e-03
2.139659161577608633e-04,1.088832461591027895e-02,1.734105908301957280e-02,2.997070811938395626e-02,7.530323402900931593e-03,1.018374063091223060e-03,4.015424611943701344e-02,5.546124457110126332e-02,1.883196132597386441e-01,3.109238260071544094e-02
1.442148038237380252e-04,1.748694680954715128e-02,1.737056722000688072e-02,3.079399204780322585e-02,8.253188651376955690e-03,1.138390707289755601e-03,3.383712323244052883e-02,5.269313137792312057e-02,1.787050268433634792e-01,2.628413675251188922e-02
1.342075822133856138e-04,2.441057893227412817e-02,2.156824127435169949e-02,3.133080602419315713e-02,7.758151051640987950e-03,1.271543040302939567e-03,3.145562153451137571e-02,5.182280179973328821e-02,1.696112492927107640e-01,1.617048574061335717e-02
1.570565107182126839e-04,2.674531788307768151e-02,2.772618929139271035e-02,2.775755165928582222e-02,5.175545310704132707e-03,1.429109071516021859e-03,3.070756278693531627e-02,5.008750506147844478e-02,1.565051893882471179e-01,6.824014951265763851e-02
1.520573673770491492e-04,2.337537113001861983e-02,3.229713913796453811e-02,2.096962679305931429e-02,2.036138261031161800e-03,1.545940707765778915e-03,2.868106305439720519e-02,4.856897973702267723e-02,1.421629442609757821e-01,9.565049794008599615e-02
1.313251300559487109e-04,1.738835887230590418e-02,3.537497929082547565e-02,1.516485756382896476e-02,1.562711267524968264e-04,1.586724062342096623e-03,2.538058922735702758e-02,5.014194327896311781e-02,1.389174285767699191e-01,9.346210066271838646e-02
1.237121904518414964e-04,1.311694111962073868e-02,3.852712946666034949e-02,1.256070313434484546e-02,6.693112682724984162e-04,1.680509185814504794e-03,2.304729940689907719e-02,5.478354783340218942e-02,1.445582281155042281e-01,8.107499400266642009e-02
1.241853140121341298e-04,1.381062059160047782e-02,3.923631536965212219e-02,1.125497124513866881e-02,1.695617695318466390e-03,1.897542851747777235e-03,2.427091827860868717e-02,5.962276338980324747e-02,1.398826434020597198e-01,7.240946836513012519e-02
1.194577475998449638e-04,2.039914623065939084e-02,3.331038493215488644e-02,8.495391333386830002e-03,2.987406594496262724e-03,1.953435907736159136e-03,3.026338067341154472e-02,6.164065764964263283e-02,1.216051368755034362e-01,6.668021409898373941e-02
1.120002042040320458e-04,3.034054336095141219e-02,2.204985562887949030e-02,3.644090666542313534e-03,3.597402715201322189e-03,1.671473150281893843e-03,3.864330540160160893e-02,5.925854922858638657e-02,1.079431015549340150e-01,6.190455047045895914e-02
1.083255185779963037e-04,3.862560819691708558e-02,1.172596988679898422e-02,2.669408290658025276e-03,3.380035035396241477e-03,1.681321743914193211e-03,4.376165457273169940e-02,5.336828585497951916e-02,1.050114747223469952e-01,6.010189517146952848e-02
1.075952521235582393e-04,4.240377305784631679e-02,6.217922070383871333e-03,9.320625114654692775e-03,3.184993077196324532e-03,2.667951144293204124e-03,4.164768127135325126e-02,4.687510978446245147e-02,9.981764953623792347e-02,5.799383221631875668e-02
1.069612010471658755e-04,4.393373263062479162e-02,4.181008542116684823e-03,1.389367751517029889e-02,3.329417192533805185e-03,3.883790238009839513e-03,3.389288444481673712e-02,4.148339595541103431e-02,8.974722122871586771e-02,4.540310727777004118e-02
1.069631431991538005e-04,4.624750930001793325e-02,3.013335368612326225e-03,1.434638476521061037e-02,3.146960800313263872e-03,3.820344712553163866e-03,2.516336311290444730e-02,3.597532251386301172e-02,8.849030190804767215e-02,1.892785557098635232e-02
1.090882259510111800e-04,4.764754262551906816e-02,1.769688405465699808e-03,1.250349802861210405e-02,2.366737833552870658e-03,2.477648584986574202e-03,1.835594843174282939e-02,2.922442247481056576e-02,9.884033575467995880e-02,9.044701923787094172e-03
1.132049406646711383e-04,4.534105736059491909e-02,4.320516492524921828e-04,1.335254542317530595e-02,1.797542062440417700e-03,1.364261397777035345e-03,1.326297398898111657e-02,2.262520144741779482e-02,1.007842934469903723e-01,2.051824054952655629e-02
1.186745960156158718e-04,4.299557935589277263e-02,6.039401747707147730e-03,1.998930780127163367e-02,2.096434615889784369e-03,1.227808471590435694e-03,8.150950148819788646e-03,1.719840964320307891e-02,6.974325056899863262e-02,8.816350749890447189e-03
1.255764557213526005e-04,4.753392820482343212e-02,1.694315999551066973e-02,3.082330454628073521e-02,2.869610761118246856e-03,1.383352429856789072e-03,1.914521219645690282e-03,1.117942498244526260e-02,2.177784144835478129e-03,1.596448327800968972e-02
1.341967751483396948e-04,5.822116657485379432e-02,3.033194276470928957e-02,4.170627142323672654e-02,3.357757817382781961e-03,1.201229313007034409e-03,4.054519488778305508e-03,4.177067129945672731e-03,6.840737179058757611e-02,3.508293997395678376e-02
1.444246504590079297e-04,6.699661564621865739e-02,3.845155842806548263e-02,4.924887179966012940e-02,3.075233784714879147e-03,8.581282541696807391e-04,6.809102405629644493e-03,8.838690496222514209e-04,8.792764088740670503e-02,3.589652861755734947e-02
1.559953668753550195e-04,7.019451612053623224e-02,3.571753032266575256e-02,5.254166647057731399e-02,1.967798320391101006e-03,6.383763014440981595e-04,5.741931013984484175e-03,5.376757266977483761e-03,3.764916166840583805e-02,2.261719254097098800e-02
1.688317641565505742e-04,6.908075213546253923e-02,2.541858750204756615e-02,5.343967629114169948e-02,8.225723243489089891e-04,4.716111633080933207e-04,3.742049049954326162e-03,1.348562015838945458e-02,3.463970375328177115e-02,9.759878718990701654e-03
1.829177883778255304e-04,5.768338425030111738e-02,1.545443751836803048e-02,5.483842571147131556e-02,7.826713462480146093e-04,2.286123791777276812e-04,3.755284557402274303e-03,1.636819301458825385e-02,6.533465029401665236e-02,3.400659397979838641e-03
1.980273064531060622e-04,2.464874028493359986e-02,8.844788737790310745e-03,5.677280605329263624e-02,1.849635578300313967e-03,5.550669547199488783e-05,6.571500313534508336e-03,1.062262680253854563e-02,4.307666199799368989e-02,3.615547255344489681e-03
2.138244616942774185e-04,3.028058619941272761e-02,3.182998490541482251e-03,5.432803148539862292e-02,2.873132606313200631e-03,3.158331252296652436e-04,1.191509884777447806e-02,1.659037880764376721e-04,1.220342275899454453e-03,1.658079550714724321e-02
2.302415105841378561e-04,9.408781937288183961e-02,2.671046998730774134e-03,4.201959504394746359e-02,3.055747820159277449e-03,5.639717760410537092e-04,1.884772402262016935e-02,1.257948739574850719e-02,3.628352489277855003e-02,3.009540390948824487e-02
2.473639159962796505e-04,1.509428214191228523e-01,6.657845996674524071e-03,2.129253674425692425e-02,2.465619905528911894e-03,8.265114883880835981e-04,2.549268629984504514e-02,2.647855952713680516e-02,7.036212434021132944e-02,3.728479528631040846e-02
2.647344559228892078e-04,1.838988590417476587e-01,6.564140161473988253e-03,1.699952969229568366e-03,1.601060551781956784e-03,1.094586385962410726e-03,3.082218544216084460e-02,4.119393309691051636e-02,1.024843249198213180e-01,3.703230274132304767e-02
2.815584793743587883e-04,1.793839393878552402e-01,1.156462347267501242e-03,5.934399536480852722e-03,1.182036055949504385e-03,1.352160814119986090e-03,3.600827600247435978e-02,5.358169607475598423e-02,1.253055127277581393e-01,2.956739886377510867e-02
2.981609974074877155e-04,1.433569659539746244e-01,9.112217604217260139e-03,2.274610446301714162e-03,1.569381620777775656e-03,1.600072234325120631e-03,4.242429554842161443e-02,6.131723319824523843e-02,1.364714835860187103e-01,1.621642366884001180e-02
3.156156773245647005e-04,9.888122210378397225e-02,1.926144759304385806e-02,1.709367154877150519e-02,2.186108811704702993e-03,1.843147920959593367e-03,4.957699678891478584e-02,6.622642423325622585e-02,1.428043208273415132e-01,6.188387241428530000e-03
3.326590492497670938e-04,6.042112261409592761e-02,2.126317982981579952e-02,1.794445327708173860e-02,2.292425654104594986e-03,2.078853517238841032e-03,5.624704049156548091e-02,7.354221070549570027e-02,1.490552190602222327e-01,1.179708278087791828e-02
3.464075459108834662e-04,3.016000664149451338e-02,1.257445119831241548e-02,8.535771271964103304e-03,1.985259122248850868e-03,2.303244681306299002e-03,6.235710853509122964e-02,8.731234597208249737e-02,1.538812393699629799e-01,3.239120911592946461e-02
3.589670806041820954e-04,2.113850395773363491e-02,6.207422221947644057e-04,4.906180353259337323e-02,1.767792716881226925e-03,2.516381447398160012e-03,6.862288559804316512e-02,1.058469490401347940e-01,1.571221027836772199e-01,5.290372958116733998e-02
3.760876002830235848e-04,5.124582799655904436e-02,4.920484596026506938e-03,7.443583854113493270e-02,1.721186167688513015e-03,2.719604157963518166e-03,7.534349222421010683e-02,1.229325147814255281e-01,1.618946026652590131e-01,6.340578379216259275e-02
3.930259515390655033e-04,1.058473063899220273e-01,2.135879331432145433e-03,7.078576699396231520e-02,1.632640365961076419e-03,2.912982706247852892e-03,8.238628672144089615e-02,1.345961747590726232e-01,1.690862535678583356e-01,7.002698468604745541e-02
3.970564078393255315e-04,1.402037804040928703e-01,3.846717213916075757e-03,4.842604171409722880e-02,1.459389608124591004e-03,3.096595710207960313e-03,8.959094208418169614e-02,1.428948822960845189e-01,1.761819358272578018e-01,7.914572707773762095e-02
3.977366545107687045e-04,1.299407653778849592e-01,8.818651116304811535e-03,2.206425928858694527e-02,1.301722915098462666e-03,3.271682740111672618e-03,9.642596740200159999e-02,1.516445632277879929e-01,1.816113587598672530e-01,8.289566898227110348e-02
4.223395266148351635e-04,9.198520968753279292e-02,1.268912036630942021e-02,3.546780735691090758e-03,1.183437596136163294e-03,3.439915466204061020e-03,1.019945489906119718e-01,1.609035726061698035e-01,1.863574511560839864e-01,7.281890060032668310e-02
4.509703138879516283e-04,5.227824786323476136e-02,1.656280973996630129e-02,2.842122139537365047e-02,1.060499970526992443e-03,3.602854943466360545e-03,1.066259338807634682e-01,1.687801180546933122e-01,1.916622000472304188e-01,5.650085704720245183e-02
4.244768931354652905e-04,1.886021410208800833e-02,2.088113283734448558e-02,5.042322735956654423e-02,9.240616293778839037e-04,3.762436856370478082e-03,1.126841441227561247e-01,1.767755836392830848e-01,1.971420255700732649e-01,4.718428676513197056e-02
3.858474745983680727e-04,1.188774557934383844e-02,2.609237660495716468e-02,6.696902609065868983e-02,7.973879511309009144e-04,3.921027034565306019e-03,1.206323351880503048e-01,1.881126992081309235e-01,2.003561858015997510e-01,4.728566938969515354e-02
4.736548631881211890e-04,4.376875434547111698e-02,3.214768241187969389e-02,7.627492842654765015e-02,6.871627883331903443e-04,4.080637258918510570e-03,1.240022006891657314e-01,2.004571409672877003e-01,1.974545356517080630e-01,5.143577597061713830e-02
5.709128469889817974e-04,7.613605773848762526e-02,3.701902514353613838e-02,7.380951104041563737e-02,5.848426398225455534e-04,4.243052461342110976e-03,1.137638881738924496e-01,2.059187850886887439e-01,1.860747656166115149e-01,5.429063430727675693e-02
1.025691094316196362e-04,9.753898972848329407e-02,3.752666537974692906e-02,5.405057925813391839e-02,4.901998268381467516e-04,4.411112812603992794e-03,8.959878004120333528e-02,1.996047064981879282e-01,1.688965507635175611e-01,5.092549245339335340e-02
1.354613752734207168e-03,9.033792825928842196e-02,3.272655297137974650e-02,2.074798495069934620e-02,4.097113628347641271e-04,4.588048785626518654e-03,6.042084736865926953e-02,1.823918656498411950e-01,1.518996606440403130e-01,4.027105230070025799e-02
3.100797147355913684e-03,5.431836948051613212e-02,2.561655410070816374e-02,1.031302300062271818e-02,3.437574340549228455e-04,4.774600712667029928e-03,3.305727777121734295e-02,1.553701151169448735e-01,1.366684932234879246e-01,2.647591232498667374e-02
3.558344663693391221e-03,1.662218054548072685e-02,1.987885499492582711e-02,2.538300796524908809e-02,2.897150696466467535e-04,4.970256375626578606e-03,9.161133674212252123e-03,1.209146301277436997e-01,1.174776795142081359e-01,9.698177158827370192e-03
2.105995058591606656e-03,5.761058494965034561e-03,1.600941226402423367e-02,2.502424608230749414e-02,2.516695097924266352e-04,5.179193787941685327e-03,7.164741286580011970e-03,8.974064623535953078e-02,8.971895533147000723e-02,1.394097748416394875e-02
9.382468218728165499e-05,2.381498519861816043e-02,1.284142285888670819e-02,1.675392627011124125e-02,2.337336235323176498e-04,5.407557056420079881e-03,1.001265411940453764e-02,7.368056192571800778e-02,5.795844651370086337e-02,3.851210606067979186e-02
8.038860047767412524e-04,5.234283753886034840e-02,1.110936518829974684e-02,2.060217698831020433e-03,2.273308960981708252e-04,5.650542261574572483e-03,1.265341333884235919e-03,6.910612342155735000e-02,3.197551140603627218e-02,5.055748407782278270e-02
5.698853428377335809e-04,7.679076165329402903e-02,1.295574782929874262e-02,2.124255437973450109e-02,2.253214754931536195e-04,5.897754149841508836e-03,1.017696430501889918e-02,6.318702323502546625e-02,1.849370641024316447e-02,4.605623230963430681e-02
2.936141328011903848e-04,9.741439581908760414e-02,1.901855830697167515e-02,4.762892302406358802e-02,2.456606773076392032e-04,6.160796707833741774e-03,1.989652700185516251e-02,5.751135282764251178e-02,1.883820620645018998e-02,2.859890595102426020e-02
4.340653682539996941e-04,1.185294544679873080e-01,2.639029863472656945e-02,6.270448550428403545e-02,3.017093321386161379e-04,6.462451486387626488e-03,2.954498677321160810e-02,6.353239030975842139e-02,2.887632727735116311e-02,9.478816998490565554e-05
5.782683736538775333e-04,1.315807697231087536e-01,2.862850217935674832e-02,5.593400786072599135e-02,3.527709002844171371e-04,6.777421997555875197e-03,3.680608805984594833e-02,7.374323410821437275e-02,3.916105522035297909e-02,2.768399796557253351e-02
4.419378057533752567e-04,1.180234124342119800e-01,2.076562500073807910e-02,3.315103829275092145e-02,3.663531998250064026e-04,7.053884074149778180e-03,3.571076330365639123e-02,6.547685042660303378e-02,4.187253023325274159e-02,2.638272086331145197e-02
3.397051486950171699e-04,7.526465847452452895e-02,6.264713068139529488e-03,1.167605285591927222e-02,4.246669785225000372e-04,7.340498373054359094e-03,2.932081542780915970e-02,3.712089547135698220e-02,3.939619169347574612e-02,1.359144475521606964e-02
5.824800576662121036e-04,2.765393704474076314e-02,5.246077209005791872e-03,1.218898664561507493e-05,5.944702376767552763e-04,7.743487733205787170e-03,2.877907559820322772e-02,1.360683457700846873e-02,3.875458120220723335e-02,6.216065601890038983e-02
7.213719732898768097e-04,4.350194017875628864e-04,9.048171492819979955e-03,1.047048969307641866e-02,6.964643647930182126e-04,8.156323828193545039e-03,3.527817342127746031e-02,1.288302990374903464e-02,3.788307984603815626e-02,8.425175312608350342e-02
5.782578865886387842e-05,5.988296980441233132e-03,9.561983437398226607e-03,2.749756409067204144e-02,5.770981879577199818e-04,8.352526627501853304e-03,3.821786574884063203e-02,3.138508296321210894e-02,2.827395214410807073e-02,7.946782659853014741e-02
1.557186829957574355e-03,7.545113771713725034e-03,1.241680340176823903e-02,4.184339948720398883e-02,6.135094718704650488e-04,8.532512424548284458e-03,3.795007915372180379e-02,6.274855748594368454e-02,1.132164260994879962e-02,6.798470557234417844e-02
2.334999666464540602e-03,1.459380433693728725e-02,1.735314057512127653e-02,4.024291431026796872e-02,1.159528233077289404e-03,8.921683319796870973e-03,4.901738220753532743e-02,1.010343398765246592e-01,1.774959328210091482e-03,5.562614404085955422e-02
1.499021876672341613e-03,2.511296718800107991e-02,2.077471366546738973e-02,2.505335641459769877e-02,1.351327159236834696e-03,8.094543356109533405e-03,6.580748059284913243e-02,1.172975251898918658e-01,8.968584960932857522e-03,3.321232503091811616e-02
6.108462643084300271e-06,3.157552518088270477e-02,2.125528488069727828e-02,8.687896400784409640e-03,1.572634556383615558e-04,3.184540382147498135e-03,5.099490288833942453e-02,6.631349048967687121e-02,2.218838266152015071e-02,1.029706891464475613e-04
6.838212667949331892e-04,3.019835023897318380e-02,2.000866111722335999e-02,2.701456443480665902e-03,2.777107542730666411e-03,6.374796963005696301e-03,1.482892332349744144e-02,5.922662983281212767e-02,4.797203530454106912e-02,2.854471139331356266e-02
5.566827710720761643e-04,2.384620914342774553e-02,1.840775158817448132e-02,7.209402779459897839e-03,4.097055311566689603e-03,1.666206114264846133e-02,9.537671859139343344e-02,2.043837982832096556e-01,7.497644928509800133e-02,3.803572340693617271e-02
5.532374947386205569e-04,1.683888489569175528e-02,1.757144495744752608e-02,1.057908622036861888e-03,3.228360377168589760e-03,2.300496371249917404e-02,1.402172801175269046e-01,3.047209873743650377e-01,8.829162336342534501e-02,3.019058607110662942e-02
6.810607789433897582e-04,1.242400578502445008e-02,1.896092046195039724e-02,2.312421233372170121e-02,2.133442086146425647e-03,2.451861499240292827e-02,1.401688399526688500e-01,3.412625118666762214e-01,8.975898573458325480e-02,2.156762496383935954e-02
2.528245340840150817e-05,1.549541075232922435e-02,2.300705557229175413e-02,4.629222708666183572e-02,2.689863657231537659e-03,2.303283280828295407e-02,1.142947196504013885e-01,3.274344536244472303e-01,9.644526071881648344e-02,2.788313507070326602e-02
1.419475089551241326e-03,2.866093217636397905e-02,2.757254516599584246e-02,5.761902615439058045e-02,4.255664926471411889e-03,1.959074286382065169e-02,7.306536819107163627e-02,2.758834915220292339e-01,1.186105672475730871e-01,4.796047751756282729e-02
2.288340271626904815e-03,4.552764737521914490e-02,2.917665306282370835e-02,5.831636707763876437e-02,5.105610188041646499e-03,1.428494683310236116e-02,2.601718698241458141e-02,2.023176827720824522e-01,1.442858367470115366e-01,6.183667345039237095e-02
1.593235217245899359e-03,5.499776200209099269e-02,2.559816667797850179e-02,5.382378666135556600e-02,4.615678112985463662e-03,8.025325208683172992e-03,2.019109142929898654e-03,1.349233589366413133e-01,1.518660285848900948e-01,5.265728132585417026e-02
3.188730002071565655e-06,4.945367031718971018e-02,1.715966907402058025e-02,3.965244391051036404e-02,3.068787622657906475e-03,2.772222413801601025e-03,7.531060511364474214e-03,9.860106352919582873e-02,1.374274285108627869e-01,3.125130142577418196e-02
9.909636287244749132e-04,2.736038218845620457e-02,6.582101335026666056e-03,1.135781379800651116e-02,8.824053591105394338e-04,5.063031444208047904e-04,4.645172979443036587e-02,1.003628356419571238e-01,1.212388198036229020e-01,2.403983437619434255e-02
6.616248353819741872e-04,4.259840553442655400e-03,2.179833068258294360e-03,1.801591027614112342e-02,9.835587557450011301e-04,1.744014064612172061e-03,9.398648050478651539e-02,1.292916875382358055e-01,1.238961519482240092e-01,3.517480616808818517e-02
3.420724414076657498e-04,3.175763410169577666e-02,6.482474611082977844e-03,2.797618737644830614e-02,1.380999865217368830e-03,4.485363109264346726e-03,1.330661442960091867e-01,1.620539106791925033e-01,1.435565764409969247e-01,4.021999168916962769e-02
7.706094639729623797e-04,4.735135906670338846e-02,7.328448378142669514e-03,1.833738096142457225e-02,5.930411515502834879e-04,5.918820826460695871e-03,1.496016473927830881e-01,1.802506390476547316e-01,1.624807939721387429e-01,2.044328444480067106e-02
2.079887283554834442e-04,5.361436289314444603e-02,8.278763213675675858e-03,1.045499025412824703e-02,7.818269759760087829e-05,5.708293555797033965e-03,1.373613745348930826e-01,1.857956750412153302e-01,1.695703158873198280e-01,1.427350445376300223e-02
5.415855277166248738e-04,4.946696042164403645e-02,1.091024746298687939e-02,1.663076826839145900e-02,2.435050351973523913e-04,5.784173926567101783e-03,1.078919809558490650e-01,1.851654791753136464e-01,1.673628056112015094e-01,3.851419434258266522e-02
7.051228091460850708e-04,2.443891760594428184e-02,1.164295168146596560e-02,2.263261193100432611e-02,3.104104649147188693e-04,6.740715393424231983e-03,8.283121415581334857e-02,1.689995913377459746e-01,1.606267589041867894e-01,3.584530307758668904e-02
4.836954438512817067e-04,2.259540420442764444e-02,4.832176415926557611e-03,7.327855337010868303e-03,1.504595266127765831e-04,7.137310903964395534e-03,7.523681762076139812e-02,1.300449008927112571e-01,1.494652569106664775e-01,1.361292355559798155e-02
3.964164337532615195e-04,6.941458114758732034e-02,9.883759634891516738e-03,3.021884475371654916e-02,6.270259709186134329e-05,6.814379268751538134e-03,8.422431982627721914e-02,8.953223009100544361e-02,1.335488702648931769e-01,2.121000163501845365e-03
4.746364899134556834e-04,8.784835029961556019e-02,2.525109098922559414e-02,7.008162671566305069e-02,1.326818903506662073e-03,7.666564814707366518e-03,1.029483014579772038e-01,8.104253545311289331e-02,1.139549365327953423e-01,5.020051608808380646e-03
4.958996913733309305e-04,7.251599227425510608e-02,3.353105427300440838e-02,9.190453153512605222e-02,4.235424056098124196e-03,1.016022357752696843e-02,1.231964786115578164e-01,1.118584587967080130e-01,9.125583762623812323e-02,2.209264071126745485e-02
4.387212865617981516e-04,4.378509319039499553e-02,3.381771990497040026e-02,8.942431541544976215e-02,6.681759511311832073e-03,1.218501964584822218e-02,1.362149553457109030e-01,1.546495846977607447e-01,6.843277115939358501e-02,2.851298429509926263e-02
4.060308728030738879e-04,2.268679748487920089e-02,3.003839027058884115e-02,6.768591668419757235e-02,5.903731723133568386e-03,1.214525503600663754e-02,1.393386658447516580e-01,1.755296614200727023e-01,5.254534522768967986e-02,2.551214186351290908e-02
4.095572286362455790e-04,1.216226650547310578e-02,2.495706864852094767e-02,3.436664033808900509e-02,2.415544765116575069e-03,1.032617481087615315e-02,1.394991018483773826e-01,1.633816488023989155e-01,4.722939466506681505e-02,2.653055507550241068e-02
4.016566378394477812e-04,5.319710458824799398e-03,1.921468549504961806e-02,1.502041305438243674e-03,5.316936805408885823e-04,7.105884390540346401e-03,1.416909500312944215e-01,1.338907274669168257e-01,4.731228760115899212e-02,3.063539622393129241e-02
3.764461957442925811e-04,1.005903594178635162e-03,1.350636681284371650e-02,2.696319415135854658e-02,1.162880510421307034e-03,2.750322737099368878e-03,1.374462093845570942e-01,1.096841844577044200e-01,4.602374804887812004e-02,2.193909730550988590e-02
3.562244597774911277e-04,9.246134983996748269e-03,8.960203210466978832e-03,3.071426250557491092e-02,6.363268464180078321e-04,1.248446704388765909e-03,1.122848187108608370e-01,9.605367982090638745e-02,4.340347335591182576e-02,1.047115559461959423e-02
3.444098208846079032e-04,2.432946716080584826e-02,6.636630230148268632e-03,1.319639898417401119e-02,4.766964278575144777e-04,3.412940406020896315e-03,6.480730152838615199e-02,7.781554093689233009e-02,4.260260148117683832e-02,5.632501627471533934e-02
3.312609451810102240e-04,4.187794970531244498e-02,6.999399622131224907e-03,1.366082477061113243e-02,7.164267336159815900e-04,4.457022383160192530e-03,1.661266584579458583e-02,4.602308744188274986e-02,4.152124191203042380e-02,8.319970842766652441e-02
3.149903896842245771e-04,4.463288862424943243e-02,8.650794943864146408e-03,3.623622623904176887e-02,8.049836860479617131e-04,5.900929848629906001e-03,2.820332742055941047e-03,1.908056188295319255e-02,3.429108313124837326e-02,6.211252423722436744e-02
2.994314295795609017e-04,2.342188451466267404e-02,8.836777446021676710e-03,4.673375755701808520e-02,7.239239152965232672e-04,7.472988765758948292e-03,1.139837747140161860e-02,1.881616250863702572e-02,2.021693566242237922e-02,4.762149438168083657e-03
2.862304660035141536e-04,8.837337821897044143e-03,6.369299949123262763e-03,4.577820456826370982e-02,7.224629467651485885e-04,8.102921653343152925e-03,3.086359717285951793e-02,3.404538904780446407e-02,5.824611431114351187e-03,4.139657918149958205e-02
2.756997632530123511e-04,3.516575898333701433e-02,2.444796529108555095e-03,3.959218854326386483e-02,8.102208766726109752e-04,8.060106421241561639e-03,2.851230163624916478e-02,3.390595803160117994e-02,3.242978394058203262e-03,4.784439711544376944e-02
2.659686569366167576e-04,5.269601214929656163e-02,1.328526705995205668e-03,3.092563977225701657e-02,8.692613032558295979e-04,7.857440208552644162e-03,8.892391304940277380e-03,1.185533933035096306e-02,8.774687501030211875e-03,3.471523339129916480e-02
2.527555412038748621e-04,6.200182736207682233e-02,3.798668116466203705e-03,1.518690117280386068e-02,8.918584260365978577e-04,6.754623845975523538e-03,8.458748452154978698e-03,1.074123928091005181e-02,1.634136881743301906e-02,3.372824820470907148e-02
2.394032923561574967e-04,5.662965809306616527e-02,4.460017097826149239e-03,9.504728436244121170e-03,9.309768541473318823e-04,4.585185994323213478e-03,1.983286638993246587e-02,2.251506772630997716e-02,2.724708623933867757e-02,4.450547962688789633e-02
2.369682295257238109e-04,3.603922498126510554e-02,4.481632730811247606e-03,3.255781777222567508e-02,9.884598127450465194e-04,3.206869880202248974e-03,3.667216195323255018e-02,3.735357078770271816e-02,3.707423660935624948e-02,4.538120318954393800e-02
2.389278535580312735e-04,1.167279631894906772e-02,5.621533053486664488e-03,3.861102921904317753e-02,1.037345334725256907e-03,4.048351081663820183e-03,6.473859080706428903e-02,6.733404025625376599e-02,4.176662053170353273e-02,3.102185628439920947e-02
2.205935047010141291e-04,9.658283119894849403e-03,7.506356449910019449e-03,2.539232401818819138e-02,1.074542860149256020e-03,6.022457108425493567e-03,9.617587282879037913e-02,1.011644397110070120e-01,4.239325918549058381e-02,1.809381002824406517e-02
1.949259779666363650e-04,3.226133806384572089e-02,8.532461468617231690e-03,8.608403758816055712e-03,1.110140585683224703e-03,7.283563113833982881e-03,1.186742946200467497e-01,1.201821376908848299e-01,4.330455420373052061e-02,1.851672603640376960e-02
2.151571124102861306e-04,5.556931047834011428e-02,8.762279034207936385e-03,5.104511077162851573e-03,1.142657722738746719e-03,7.041374433679443469e-03,1.262429019140760555e-01,1.228960499972968218e-01,4.695065071491737879e-02,2.562456727180897204e-02
2.548066007355801496e-04,6.755583464241507463e-02,8.779934978458477091e-03,1.397758985674666700e-02,1.165824129951814267e-03,5.095870443932802585e-03,1.217722940947477961e-01,1.218169284124446111e-01,5.099897891384677640e-02,2.889689355972151902e-02
1.988631785207351107e-04,6.065196618275496554e-02,7.560904391510392050e-03,2.093724827391945861e-02,1.180375597246445226e-03,2.091083289420698869e-03,1.128654709609574758e-01,1.250642995083617870e-01,5.098822142983699263e-02,2.649494413307599411e-02
1.001914777371168104e-04,4.480918141297671881e-02,5.024874933678827316e-03,1.983955857500710115e-02,1.186757737343993244e-03,3.693638964685663122e-04,1.071326502447385448e-01,1.328273398773920366e-01,4.625806245725400112e-02,1.828126870336902951e-02
2.079624015780840850e-04,3.886726928918236151e-02,3.697220817712852485e-03,1.973629958227003656e-02,1.179284967546702324e-03,1.839672840717852201e-03,1.087400982155013185e-01,1.439217284882233772e-01,4.159406980600223458e-02,1.392301800669579117e-03
4.245259228639606305e-04,4.783088978538654196e-02,4.036028407605356250e-03,2.910453023985698495e-02,1.158719346830603411e-03,4.800869423381783768e-03,1.139240382992710021e-01,1.541964352353391854e-01,4.145084159347711683e-02,2.008447366159608199e-02
1.719562294932599719e-04,5.137837876002723098e-02,2.274827338211965911e-03,4.404972138827145667e-02,1.135997174769826350e-03,5.411730732798924852e-03,1.107768506662458324e-01,1.553614569638311349e-01,4.423084819699596437e-02,3.318860978183062194e-02
6.107104582235363573e-04,2.650015087320512289e-02,2.799014569701018841e-03,5.546949570000736518e-02,1.106770514529748645e-03,2.712412501738634997e-03,9.213372129480910944e-02,1.477231977775998462e-01,4.475803817559777936e-02,3.233872625182646066e-02
1.020948896734667462e-03,1.880921163789463571e-02,5.835676039822827038e-03,5.768734525145065989e-02,1.047107723252399406e-03,8.698415058888529392e-05,6.991018938061149823e-02,1.495180692093460162e-01,4.159541508412641780e-02,2.920702215108295779e-02
5.527887485350044001e-04,5.367607435258810178e-02,2.468930488120162602e-03,4.677581651149473330e-02,9.672224252092784897e-04,5.453619443054620163e-05,6.463448410972778835e-02,1.757528966550995220e-01,3.855507808437863559e-02,3.477090849158906427e-02
8.135989858545099372e-05,6.367437150629018383e-02,4.130112225959875830e-03,2.176120157304169828e-02,9.200342705234722425e-04,1.851872447340837833e-03,7.543526279662224332e-02,2.041800381546310106e-01,3.850209871854878840e-02,3.492428249631214510e-02
2.942479344437298901e-04,5.785718807996241553e-02,8.894707245148562869e-03,7.206990863136798070e-03,8.868367357408655886e-04,2.962220869113772487e-03,7.490201082140768296e-02,1.871965230831831306e-01,3.959741324408906638e-02,1.774918862696695659e-03
3.860152319184086004e-04,4.380714058696427715e-02,1.197070792477998753e-02,2.257419861407137379e-02,7.567960017369514125e-04,2.779504960546299100e-03,4.542375767988609397e-02,1.141305672042339653e-01,3.940471095667762158e-02,6.432456794375357445e-02
2.872307116628621849e-04,2.272933274781504739e-02,1.564149938645709170e-02,1.716321280507366806e-02,5.704158241163814801e-04,2.653097163867552434e-03,6.483944070189043979e-03,3.562285551842198084e-02,3.903375981242897252e-02,1.223797741759536650e-01
6.254664727254955533e-04,1.730404709343712731e-03,1.885167327086451072e-02,4.734015624636702876e-04,5.720543554643452502e-04,2.986924076957333911e-03,1.116250703798004652e-02,2.735156668206770170e-03,4.073110479594278799e-02,1.346725469721772317e-01
1.845745020397102608e-03,1.106884194072019038e-02,1.936497885733062807e-02,2.036572474145659228e-02,6.951839684936863325e-04,3.016490651253232042e-03,5.240203824584024894e-03,8.075528917537769941e-03,4.432539155957271326e-02,1.088054416690035359e-01
1.893350399345226399e-03,1.724155842507039266e-02,1.805497824598341350e-02,3.875590710339175959e-02,3.783240710032745270e-04,2.530882131305700177e-03,4.906556701378888413e-03,1.226102233148537723e-02,4.874325002515606658e-02,7.960848899932482237e-02
6.611071664317850994e-04,2.270030352854163214e-02,1.717662408177456079e-02,5.018876717623514672e-02,4.999024245922647613e-04,2.054050676494909109e-03,1.150157417747356067e-02,1.107913369260679626e-03,5.432417239885938692e-02,6.364685275298638534e-02
3.385200577037697457e-04,2.987279887376504892e-02,1.658517921796246949e-02,4.739169174303105303e-02,1.068004182866539187e-03,1.807145946040522415e-03,1.863685446284178010e-02,1.295655144869667721e-02,6.034161994363744508e-02,5.340967149373578027e-02
3.166746615717440805e-04,3.818114234703747639e-02,1.493096896889582401e-02,3.290572790738074266e-02,6.860441274435658118e-04,1.569652790630038158e-03,2.020769552196343549e-02,2.449781629489601945e-02,6.279779237890420474e-02,4.375179546330655589e-02
1.968998014756156382e-06,4.222481659755259603e-02,1.300061460086558533e-02,1.738596426922204077e-02,9.244711584943199421e-06,1.237670291981529625e-03,6.689453935615333191e-03,3.827373510461964945e-02,5.909025716141155793e-02,3.651530308272103731e-02
3.035131999408382381e-05,3.160250451169871466e-02,1.257998572455669255e-02,5.176431078775665245e-03,1.494875672259397619e-04,9.197133414235207031e-04,1.235778435158659157e-02,4.981183701781746048e-02,5.299895666953698820e-02,2.576092988804214168e-02
1.201754775046972212e-04,3.631095718762455786e-03,1.312209100223211793e-02,5.397004998595655335e-03,1.409781034802216697e-04,6.660410868693125534e-04,1.902805966342719854e-02,4.926477845649940290e-02,4.993306628355403259e-02,5.464626271292934503e-03
1.742175693519310822e-05,2.861398756632176771e-02,1.299450122684259884e-02,1.080209947116586577e-02,2.979098366173427962e-04,4.234536706305201507e-04,1.497790092251130752e-02,3.951213169269792574e-02,4.892652707600797513e-02,1.148629813203685436e-02
3.552047663414441021e-05,5.013585904168911533e-02,1.266906211437662799e-02,6.323630610122631460e-03,2.522798967390599625e-04,1.799527342363074290e-04,1.611423328235834368e-02,3.059677980698612132e-02,4.551877806321690673e-02,7.140288208948329836e-03
2.436210429687620568e-04,5.826314135864477106e-02,1.243901962072353935e-02,2.892479536882954644e-03,2.463242294991885013e-04,2.116845885749888377e-05,2.537517675901679315e-02,2.095926206392954155e-02,4.084666134676755156e-02,1.048171956910870506e-02
4.757844491798361724e-05,5.743089865196856353e-02,8.761280728689910258e-03,7.967345878399156173e-03,3.188600486756233937e-04,1.888278394713613210e-04,3.122670450608717313e-02,1.835774907820530641e-03,4.017360015533139733e-02,1.372726363271167815e-02
7.401016493283905972e-04,5.002830216278548320e-02,1.609479213835066438e-03,8.101191836970592433e-03,3.577172373414205147e-04,3.743337136834622310e-04,2.914312159965512863e-02,2.251326347240277526e-02,4.328797959643027049e-02,8.074409333575068015e-03
1.235716411824698893e-03,3.639388988593210417e-02,1.496261531239144286e-02,5.960700310780225539e-03,3.432087024016364316e-04,5.353617423858830597e-04,2.565565403948684431e-02,3.554150043568786443e-02,4.452257720219762738e-02,3.857342248986387473e-02
7.704638703775948524e-04,1.582608092635240382e-02,2.338753976639343715e-02,8.394799645341649574e-04,3.279140067484166633e-04,5.746943054555731043e-04,2.236724826780055880e-02,2.999845996451378297e-02,4.228426098853007437e-02,5.775401748207015934e-02
1.140028633965780116e-05,1.114988055947542349e-02,2.374159326750311175e-02,1.374964486938219654e-02,3.224125170474359016e-04,5.883191178027448974e-04,1.442414882261024503e-02,1.409876017568382697e-02,4.104483860376482995e-02,5.524984484998266693e-02
2.258703850499503161e-04,3.445762192676567193e-02,2.004138697881161987e-02,2.655077216972093548e-02,3.032710957802248739e-04,7.790125614757848534e-04,5.779953018301453235e-03,4.995131686365909297e-03,4.362229647953996814e-02,2.547283320627607289e-02
1.225972776920691062e-06,3.737467589895910464e-02,1.709685154510082877e-02,3.245118822758837757e-02,2.666153840841765672e-04,9.417785895645368333e-04,6.893764338411262696e-03,2.686351928514006324e-02,4.804593335970489681e-02,2.473461137769857737e-02
9.992522770513280125e-05,1.932310124526914752e-02,1.478123489931240479e-02,3.115885873589642474e-02,2.250114166978842102e-04,6.305071051193687076e-04,1.451925898735548573e-02,4.406010959927007808e-02,5.233848904416476405e-02,6.358886710704048095e-02
3.180980640395892809e-06,2.597583055159956560e-03,1.033414792593871298e-02,2.563464677557780041e-02,1.823013275662705508e-04,2.997642037367649788e-04,1.274872778158897893e-02,4.311264615640615638e-02,5.689316149892795216e-02,5.970920973069698129e-02
4.300812642293616481e-05,8.642884705319284731e-04,4.706973737605144210e-03,1.928373018913518561e-02,1.347084842045083962e-04,1.246267513222125726e-03,1.711312593924658142e-03,2.647389485733074935e-02,6.166425687726638516e-02,2.597200866268574437e-02
3.517404978736825109e-08,1.988774783269240710e-03,2.262676969000075849e-03,1.617681314855952401e-02,8.258223019172481556e-05,3.408513562924703547e-03,1.295741251896902896e-02,1.390315101332765223e-02,6.507621131516211355e-02,5.937046346452032504e-03
1.878517326755671225e-05,2.192845128790649883e-02,3.375389347436964522e-03,1.604806680584779099e-02,2.996910127349195651e-05,4.570982176397440401e-03,1.035682998360359063e-02,1.380604335306019094e-02,6.595095638058598442e-02,9.650036804656449835e-03
6.329995050778058208e-06,4.261886422289490328e-02,2.644730938349196172e-03,1.143330371684733379e-02,2.094825856581517876e-05,3.251359076451066504e-03,4.551181546021939098e-03,1.105908202438836418e-02,6.404802820103039362e-02,1.141128711010645910e-03
2.236958639965757326e-05,3.745109531663998181e-02,3.031914978322825232e-03,1.356310718702712038e-03,6.977510152918744372e-05,9.307629144241662874e-04,1.095572872183277723e-02,8.345968383650991668e-03,6.049719511165161517e-02,3.826552293594220888e-02
1.941116539744236244e-05,9.879049387183752931e-03,9.094243310540147535e-03,1.137089984289878231e-02,1.153556036959028610e-04,1.627213438857982853e-04,2.804801327696189450e-02,3.548762196177476097e-02,6.004390870824034832e-02,7.505012254619339296e-02
2.198789608238992821e-05,1.184464953290369042e-02,8.904985266190401996e-03,3.954068773431879992e-03,1.558304658538583413e-04,4.874586981613279789e-05,4.101907523933376321e-02,5.071355880781393960e-02,6.678480235588479808e-02,7.289648740518388237e-02
3.489374690167721803e-05,1.318749055426123203e-02,2.231100848938569799e-03,1.828267938681770594e-02,1.898801418924926741e-04,2.622649629078078592e-04,4.087029068276204491e-02,4.856012223859799970e-02,7.106739166233526361e-02,4.390888726904790262e-02
4.653187141731998189e-05,7.388902621954327593e-03,4.163635869324928615e-03,3.631196814879845969e-02,2.167576464064066035e-04,5.769219146586570699e-06,3.258682121853372776e-02,4.183015658650533070e-02,4.881281074864225744e-02,2.820498550862482121e-02
5.433579663702089069e-05,1.369646228963960349e-02,4.127141164792617022e-03,3.701439501493500317e-02,2.357462384687515297e-04,2.492469569155324411e-04,2.752730881801739027e-02,4.506925661716897069e-02,1.303862119673082978e-02,4.781306413002778949e-02
6.351657594967179122e-05,3.645681290739660740e-02,1.246983397078143489e-03,2.481096656267959069e-02,2.461686316376914289e-04,2.481286681263778111e-04,3.228633332797648664e-02,6.110375496170385862e-02,9.423155250907433444e-02,9.613230767220050377e-02
7.514856555415120568e-05,6.492241175346541437e-02,5.978532936134410385e-03,1.068420817020859434e-02,2.476625763638855477e-04,2.353257967205000536e-04,4.335419062917925115e-02,8.181560336179947990e-02,1.569092076528205426e-01,1.466233588634517360e-01
8.661485294569371029e-05,8.253283297707621202e-02,6.801583816817331589e-03,7.409392207001401585e-04,2.401957467348467138e-04,4.053072659218164009e-04,5.065232513167115119e-02,9.533341731858853418e-02,1.817942363386491067e-01,1.619341017402016192e-01
9.719568932132367485e-05,7.826275108567631866e-02,5.521774734095260401e-03,1.045744273649277557e-02,2.239482570174190844e-04,5.688458592707356255e-04,4.761028764038005567e-02,9.313624543957799151e-02,1.787765472293132707e-01,1.241322919703855415e-01
1.079323778193129002e-04,5.898572104552676082e-02,4.698434100269745228e-03,1.824581529828346593e-02,1.993014120085280787e-04,4.673219502734036741e-04,3.920462759003343067e-02,7.779269850512909867e-02,1.653560611788157664e-01,6.434286207358043408e-02
1.190128561419107208e-04,4.847476506666830581e-02,4.576418076254896126e-03,2.177795089427616085e-02,1.668719362183691823e-04,3.439146811324109588e-04,3.899378104564146796e-02,6.458066028286804650e-02,1.480665936944037531e-01,3.585161361237711869e-02
