7.907326206682142866e-02,3.273943302605897276e-02,1.113771868890260121e-02,1.096257659504806109e-02,8.629466818419254375e-05,8.932932162262332079e-05,1.481392016527817088e-02,9.517950156749471757e-02,5.001895964467074039e-04,3.754641151757243805e-02
6.112609703904517411e-02,3.150958112043106968e-02,1.006383641733123689e-02,1.361432845479769622e-02,6.732464224269571950e-05,7.163043396394057837e-05,1.537665748334957234e-02,1.066734303295591296e-01,9.906525742238315307e-04,6.454616951334726793e-02
4.558373883864044740e-02,2.634182440016358262e-02,8.956273558792113981e-03,1.488458519115352582e-02,4.865218895248432283e-05,5.283540306677829597e-05,1.466275227976377230e-02,1.297473874962859763e-01,1.461927019364835491e-03,7.617383845611122584e-02
3.370535356786207026e-02,1.842228534689215394e-02,7.825304219971485412e-03,1.531121104095348705e-02,3.103249034177904520e-05,3.348348026410024220e-05,1.125444451661814470e-02,1.359091142827880683e-01,1.901430693376159617e-03,5.853688561339853019e-02
3.057638254295821922e-02,1.230309209694153624e-02,6.679597964292722720e-03,1.480693517038060222e-02,1.519547065739760171e-05,1.413074068645049920e-05,4.992002762910007461e-03,1.205039089782995176e-01,2.297299390915925974e-03,4.029124141808355236e-02
4.196853138553665458e-02,1.352173459481591580e-02,5.526005225666688961e-03,1.329154475232971130e-02,1.825788456593036569e-06,4.663887792226714416e-06,7.509117560875262949e-04,1.139489718743692259e-01,2.638690147827222211e-03,4.953014335114434841e-02
5.723295770710489644e-02,2.006290880040871583e-02,4.369308879711419728e-03,1.145259770135277112e-02,8.449331557419204817e-06,2.235275583238132446e-05,2.293211808415037464e-03,1.307452926018146666e-01,2.916059583892904872e-03,7.792821670663759026e-02
4.583109633170311809e-02,2.039361381864230119e-02,3.211857269669844001e-03,1.009979693832868328e-02,1.507633261475119616e-05,3.841343570896840265e-05,1.245746764523729530e-03,1.392744784104998912e-01,3.121409981501981588e-03,9.484257673428840574e-02
1.413130825562781273e-02,6.757741393612137944e-03,2.053423141854333802e-03,9.514124361045228975e-03,1.759324086849565317e-05,5.236213047642702370e-05,3.545624383547434956e-03,1.023120247314242004e-01,3.248496269294293484e-03,8.301015836346468946e-02
1.017518802964416796e-01,1.244785030380423686e-02,8.914962809958530817e-04,7.642289242424688857e-03,1.564307363567823576e-05,6.376621471765198264e-05,1.270981549910029859e-02,1.544454790611133818e-02,3.292989035711351483e-03,5.266083095399372999e-02
1.630173548884080725e-01,2.156351960718266847e-02,2.787065943301042124e-04,9.496312943069992784e-04,8.983257170834632694e-06,7.225559204039745220e-05,2.587298773808889563e-02,1.050167504718884093e-01,3.252590324423800840e-03,2.527355850216209121e-02
1.643144089683257481e-01,1.659217036886507027e-02,1.464967876555748737e-03,1.909992158663456965e-02,2.506495300488120473e-06,7.753258209315178539e-05,3.612140720077765960e-02,2.328373895358835100e-01,3.127098075534792861e-03,1.403337594554996716e-02
1.263722012689299790e-01,7.920094223174422438e-03,2.678008340583483676e-03,3.953724533142712744e-02,1.881842656783669197e-05,7.938008442776434256e-05,3.831176057572163729e-02,3.234750497916971668e-01,2.918415201423412830e-03,2.192377763888434666e-02
9.702033394142171863e-02,7.191876152519441345e-03,3.929632459334209300e-03,4.949207261318842171e-02,3.981453052795963244e-05,7.766780734648637697e-05,3.295015443300491204e-02,3.339006831675030429e-01,2.630505094254399420e-03,4.652704088587277659e-02
1.006851659869971022e-01,1.727508348112943501e-02,5.232310781181476710e-03,4.366699724981212838e-02,6.522782075441625792e-05,7.235639673084875794e-05,2.380017200396805990e-02,2.629938612575262180e-01,2.269299342100796705e-03,8.056776169633966811e-02
1.260925435640080638e-01,3.217136259674353849e-02,6.602444833549359592e-03,2.857303630654310991e-02,9.466647224782559337e-05,6.349935138858447221e-05,1.288478292781263662e-02,1.565640716498350182e-01,1.842555309095101138e-03,1.109016823664547291e-01
1.546833127408714370e-01,4.331617728473007023e-02,8.060487711345059106e-03,1.466584566419452951e-02,1.276208287419942477e-04,5.124266477842998502e-05,8.864403960601151006e-04,7.251843189201326312e-02,1.359656679729057431e-03,1.151901737808894016e-01
1.804859316267819480e-01,4.715428699008844537e-02,9.622965850991272926e-03,6.748227134306371451e-03,1.634734115319707985e-04,3.582218725722445323e-05,8.828454814675520956e-03,4.372787182758888086e-02,8.313713213443053515e-04,6.784434922114780664e-02
1.984118656143096793e-01,4.601065469286085702e-02,1.130087526829759784e-02,1.971501202612985920e-03,2.015116849857596308e-04,1.755876043537355855e-05,1.196177734931110764e-02,6.317624855375918169e-02,2.695948994453850958e-04,3.281676554920701094e-02
1.922577622773964379e-01,4.137666816782416962e-02,1.311543718838607472e-02,3.103753469725605528e-03,2.409431625645983390e-04,3.148766513109549525e-06,9.704189405558503664e-03,1.001853521859387836e-01,3.129328726629802132e-04,1.504763421959978975e-01
1.500252146769254225e-01,3.101572809957085439e-02,1.510061920738391301e-02,6.333547909196894123e-03,2.809125213199385220e-04,2.583247865811714284e-05,8.192382193699967313e-03,1.342418439303182942e-01,9.029805703499973243e-04,2.414126403597180726e-01
8.485719720381387776e-02,1.482489909048879256e-02,1.726819502516987667e-02,5.234545646080267581e-03,3.205203913316202941e-04,4.996609288006476632e-05,1.023441614392713722e-02,1.653995941230908540e-01,1.487196634120462610e-03,2.877254190960653046e-01
2.492852625106706937e-02,2.149725472678747605e-03,1.960007998381271474e-02,4.646290399579875233e-03,3.588433771768368753e-04,7.497715894353867993e-05,1.274836732638158672e-02,1.876111201492570990e-01,2.052386465279147469e-03,2.900740872690211192e-01
1.769411887816532691e-02,1.613110453077840067e-02,2.212140423889610158e-02,1.108766905730695571e-02,3.949548132919328638e-04,1.002604590946215910e-04,1.348180674257891572e-02,1.759955821823275257e-01,2.585771674335114387e-03,2.541780622576784165e-01
5.079266503951054834e-02,2.776083591356346206e-02,2.491749657587905009e-02,2.178847378573246785e-02,4.279457648241545803e-04,1.251922816042092337e-04,1.371264450163392837e-02,1.244200218221994947e-01,3.075449831465304224e-03,2.005817678711252772e-01
7.388057510650324067e-02,3.514604959336748574e-02,2.797706553003736704e-02,2.795648686168939606e-02,4.569457839003640510e-04,1.491452514510276659e-04,1.260061151209166362e-02,7.552506952541002128e-02,3.510870180163905199e-03,1.598235711854732177e-01
7.213956963309946235e-02,3.181000075484548967e-02,3.115074729843158793e-02,2.732453344890304128e-02,4.811429193062282512e-04,1.715033621766386834e-04,6.604939774587704517e-03,7.782360652246833599e-02,3.882828224736761379e-03,1.440408679397949809e-01
4.521146367691946527e-02,1.565178305488533830e-02,3.448398495213098741e-02,2.427346028649548376e-02,4.998024953202981607e-04,1.916767793606597478e-04,2.757894980277896067e-03,1.228380437764754196e-01,4.183335640924623101e-03,1.460252988092181903e-01
1.946014660862035658e-02,6.482101538118205039e-03,3.831346103626802335e-02,1.880900613424167298e-02,5.122842090884406835e-04,2.091160386700086505e-04,8.275311734669913918e-03,1.594162252429509874e-01,4.406413628068229886e-03,1.604826067882801077e-01
2.502569408425158598e-02,2.354539562033939812e-02,4.255810872832444663e-02,6.631779278169893342e-03,5.180571174112042843e-04,2.233254183619546652e-04,6.804331595320817216e-03,1.614929322389312971e-01,4.549055519598181954e-03,1.749709393458026285e-01
6.579974497947189971e-02,2.673930335013906257e-02,4.649427753302780297e-02,9.409379350632325958e-03,5.167121271939797500e-04,2.338751842898237235e-04,2.344308798964881042e-03,1.432396512725368776e-01,4.610083305704074097e-03,1.567568902263032915e-01
1.032595703919443747e-01,1.777002657772075792e-02,5.026397550553301369e-02,1.944140023538460174e-02,5.079717004659091992e-04,2.404121216924467975e-04,2.191813601435515461e-03,1.143653989161856205e-01,4.588435536136408789e-03,8.686824849290766815e-02
8.198795058170463279e-02,1.057214855913787832e-02,5.539461775460583631e-02,1.920364142554382980e-02,4.916965563736119121e-04,2.426680150243818324e-04,8.568725928647455067e-03,6.843858416311426884e-02,4.485776024911415291e-03,5.885199485479115922e-03
2.224572865685768910e-03,1.389795144054367659e-02,6.158875597931639384e-02,1.316654418899411427e-02,4.678891386537208617e-04,2.404664534584400118e-04,1.706665361997573155e-02,1.995027491312328233e-02,4.310261532660578966e-03,7.178037978478293835e-02
8.226836351638962264e-02,1.720300972242100324e-02,6.552279803483122833e-02,6.528636658945197006e-03,4.366936810072110601e-04,2.337279566938555179e-04,2.337821982490491043e-02,3.682098747151713730e-03,4.070942064629314190e-03,8.678619060269859853e-02
9.942951945912878453e-02,8.160501737008158188e-03,6.772877645068385577e-02,2.256080062521708882e-03,3.983929665011428072e-04,2.224720204175400346e-04,2.328975177267503943e-02,2.197384408170295275e-02,3.769274898144726969e-03,5.897554998648092683e-02
7.065825200694843267e-02,4.539579267606509184e-03,7.558652251299684266e-02,2.614097255054314162e-03,3.534019888087764358e-04,2.068156223030267137e-04,1.660427277305217761e-02,3.434579819399159739e-02,3.410414430423290393e-03,1.099773865448159041e-02
4.575782726455076416e-02,3.243079859453020745e-03,8.778396271127868189e-02,6.386560073356143535e-03,3.022584100709040642e-04,1.869709053323167982e-04,6.626131188964545782e-03,1.456957240874271614e-02,3.021031742669297564e-03,3.081069152237677147e-02
3.601444611805998397e-02,1.148533769613608799e-02,8.097689185136774936e-02,7.071996190928831437e-03,2.456097110997723675e-04,1.632430061923462053e-04,1.178205376923044953e-03,2.001628913495286793e-02,2.624801826813100147e-03,4.942245557661301136e-02
1.698657567156720491e-02,2.214361840774381474e-02,3.238925102634050007e-02,7.826544904231615314e-04,1.841978389134626894e-04,1.360223501567302100e-04,1.483437478177209194e-03,4.671322658701992925e-02,2.202578521872608670e-03,5.001938454480418100e-02
2.655907121149991140e-02,1.732690219624319003e-02,4.322371719567627557e-02,1.305199654310492709e-02,1.188424060281700141e-04,1.057694760500606148e-04,5.452628563718537290e-03,6.197275211346785218e-02,1.745234204925373350e-03,5.160550206898464887e-02
8.267458733265853343e-02,8.488254245761189375e-04,1.004989682892875463e-01,1.715313389968032079e-02,5.042177026654368093e-05,7.300492101103403433e-05,1.134595516570772837e-02,5.572252270709385225e-02,1.348235137908331384e-03,6.697300653979255947e-02
1.250877760093282443e-01,1.754920609321775071e-02,1.118575339632455756e-01,5.496756247056837005e-03,2.014906737762625429e-05,3.830924440129163295e-05,8.743587453910170448e-03,1.209222292170239813e-02,1.057708322729904084e-03,9.483793141718135922e-02
1.353953413293096653e-01,3.053757848136514838e-02,9.019783930849253895e-02,1.381102800580423159e-02,9.194097571125413272e-05,2.307331238286333499e-06,1.964796856520252717e-03,4.572619515791621209e-02,4.093930943141737416e-04,1.229590759701124775e-01
1.168523075748653522e-01,3.351088966656010776e-02,5.916923260959471020e-02,2.525186952439938126e-02,1.640297843639036050e-04,3.437364907427612913e-05,5.653005165205029353e-04,6.661111682996251337e-02,1.591561903223200894e-03,1.340949117612317831e-01
8.350714487591995305e-02,2.300952257492194092e-02,2.339429257869281298e-02,2.282772753497209692e-02,2.355161886909468323e-04,7.111667132213369440e-05,2.103514661160963122e-03,4.564397107505605705e-02,5.105365977225492097e-03,1.159744283036911183e-01
4.334891012257167942e-02,9.445273095389583942e-04,1.676909097480051847e-02,1.193373292442004643e-02,3.055531293689467279e-04,1.072724270733462366e-04,5.254217825243268081e-03,2.647992894798062435e-02,7.853025439017466067e-03,7.052730222644668090e-02
5.405087452457987135e-03,2.987594552215346727e-02,4.006618146517428036e-02,1.500386465200147538e-03,3.733701257581479660e-04,1.421797338614692961e-04,2.131210025958484716e-02,2.291128489409687344e-02,6.704334404039178144e-03,1.134790351488228384e-02
1.374724812718066888e-02,4.876543701343298565e-02,2.304780957122094451e-02,1.380343799038297181e-02,4.382784415376381648e-04,1.753045784861527933e-04,3.170089391600948436e-02,1.268137852810333026e-02,2.361867795193242116e-03,4.591186675980033632e-02
1.139148329557732910e-02,4.827657619995025240e-02,2.111861523540184762e-02,1.945679198391512751e-02,4.996775750547509084e-04,2.062467174295848056e-04,3.008828982743813260e-02,5.734439620197252091e-03,1.538964259074775175e-04,8.543259843781300655e-02
9.068687545691575883e-03,3.347417950240391682e-02,5.167259629634096685e-02,1.553710733459979544e-02,5.570965875943162827e-04,2.344869620805378806e-04,2.458007161885910480e-02,3.109675266099153068e-02,3.294043247799808422e-03,9.654555847292461968e-02
2.487394328923531184e-02,1.728147252364944236e-02,4.852787097436857960e-02,7.765230046260754478e-03,6.102260695643807941e-04,2.594069430662821331e-04,1.982933045782550932e-02,6.357897831709616310e-02,7.824218501504226139e-03,9.477758156614385365e-02
4.999768040150682352e-02,7.660347738531082286e-03,2.574325514418607588e-02,3.548109102942681968e-03,6.588668829296537906e-04,2.808651638890709225e-04,1.139594364796314707e-02,4.932481832090300500e-02,8.204694085709250684e-03,1.181783218278017328e-01
6.045277001642185288e-02,3.266482826651258102e-03,3.303745813008733545e-05,2.851836374120493654e-03,7.028872132121915216e-04,2.992001265698169188e-04,1.034972678114184702e-04,7.029159823192475225e-03,5.327315576406092996e-03,1.763444095548627466e-01
4.338292870003392088e-02,9.233677291866403472e-04,2.353314408914971775e-02,1.839200122753993421e-03,7.423473531381775264e-04,3.140241747452670175e-04,5.574519341949793136e-03,5.190976399037315614e-02,4.139911747527693850e-03,2.278215324650212092e-01
1.201811907204989975e-02,6.556774398683316851e-03,3.314499799233393273e-02,9.292822899218373760e-05,7.776004351140507285e-04,3.242024117243011341e-04,4.014618234070592082e-04,6.247746879212253551e-02,5.735896605692170774e-03,2.368170216177891974e-01
5.949415642478099800e-03,1.138719420779412371e-02,1.405700793594662906e-02,1.890734447805615974e-03,8.090234390237626251e-04,3.304377310037637542e-04,9.965761239177511194e-03,6.072835518456446563e-02,7.177539239915584068e-03,2.178013040058458250e-01
5.627661753444237937e-04,1.432782113928992955e-02,2.328147034653194059e-02,4.802290898432105479e-03,8.367790941765301327e-04,3.353853102175965669e-04,1.827441379424545737e-02,6.425845563613735711e-02,7.370316900960254339e-03,1.903304887474430163e-01
1.771944210029706770e-02,1.618854273172995809e-02,4.832017441365236976e-02,1.052192405420175961e-02,8.613576865222292425e-04,3.381292074224844088e-04,2.244520831224254900e-02,6.740457074856924524e-02,7.745695170994035261e-03,1.374808032211813635e-01
3.447082288477844314e-02,1.459967859386375813e-02,4.908876490965966011e-02,1.683672693004074558e-02,8.840633308343995170e-04,3.337803434157441307e-04,2.352250125439208500e-02,6.416496148971920221e-02,8.112511510876833226e-03,5.629137117042273125e-02
5.512666383179408436e-02,5.890043103545092827e-03,3.800841676407160780e-02,1.732314950383690572e-02,9.058241346384711141e-04,3.252412173046298417e-04,2.212001493374795083e-02,5.463052729796234047e-02,6.547983166825982991e-03,9.267654702518226054e-03
7.477800941248451128e-02,5.639738858690125124e-03,2.462418214813788531e-02,6.828947383110348275e-03,9.260692189062593978e-04,3.243438613047829153e-04,2.014979834025659375e-02,2.825263109997858818e-02,2.841255301999942844e-03,4.644448272021673568e-02
6.948270636076729623e-02,9.434970483401654631e-03,1.518491942782516056e-02,1.096695131087416925e-02,9.451802825872925419e-04,3.267206317412505823e-04,2.175981677974926295e-02,2.481748646807302450e-02,1.466911139665994911e-03,1.126953636834548272e-01
2.631504244247523036e-02,2.533342066789019686e-03,2.784444749086674442e-02,2.268167052983677615e-02,9.668883587002224684e-04,3.086787955809912245e-04,2.723897825040084639e-02,7.902784192631318039e-02,5.310799867241123261e-03,2.246369584802354602e-01
3.654399028939809418e-02,6.967130414850192591e-03,7.118471864675597616e-02,1.687919162945133653e-02,9.930315312311123899e-04,2.807425546862139559e-04,2.939475506259717555e-02,8.614535262381338432e-02,7.590292751359977927e-03,2.920977034746357615e-01
9.248332861779183511e-02,1.242255662562862829e-02,1.174359494356634059e-01,2.786611382899520286e-03,1.018228339718323062e-03,2.956834686158239692e-04,2.123706455368567711e-02,3.276855036083974049e-02,6.325194525406318408e-03,2.424185693035540157e-01
1.318360689654227980e-01,1.587195225611218868e-02,1.280732735121890564e-01,2.116992218980208104e-02,1.040862838879044175e-03,3.343275584476033046e-04,4.825577820007469210e-03,4.357697949338164289e-02,1.025572480882364730e-03,1.305859427316214405e-01
1.512749995496872335e-01,1.901840273640750464e-02,9.602519421104392661e-02,2.768632494178057887e-02,1.074676841759201725e-03,2.852414884723315823e-04,1.066907174448946186e-02,9.843629792075873908e-02,5.405096935856730511e-03,5.654456711573033201e-02
1.380676991264122577e-01,1.566836449065200573e-02,4.375616752927238839e-02,2.279727233323653596e-02,1.125545585721752498e-03,1.880159923424896289e-04,1.847845458153632089e-02,1.228935315341956741e-01,8.796158682124912212e-03,4.197948474439281569e-02
8.822082785347491740e-02,1.505219923514061579e-03,4.598744770328249201e-03,1.078613628595382137e-02,1.166052870214806135e-03,2.858563854298851333e-04,2.041189628390789948e-02,1.464683302875755266e-01,7.025936303065602982e-03,4.070366409473212543e-02
2.663721128012136799e-02,1.427006037953886322e-02,3.765085365773017390e-02,5.580977603222873548e-03,1.184371179705691118e-03,5.112427489417245780e-04,2.194132871538356094e-02,1.967837695718959168e-01,1.138671639257086672e-03,1.707750260512178736e-02
1.330292527838401392e-02,1.723453205866833440e-02,5.977878932501738685e-02,2.189372269608822266e-02,1.239794035918007509e-03,3.015720787149290031e-04,2.186828376030725343e-02,2.484059808996434415e-01,5.655917252538551591e-03,2.393652023514665494e-02
2.084424161163443354e-02,5.250715329332929400e-03,8.326292748676758504e-02,2.948599797740237768e-02,1.359755399659384398e-03,4.665535231123512099e-04,1.310005640476273429e-02,2.373737814716958272e-01,1.009576458540637975e-02,5.437286457541635337e-02
5.192692432502931527e-03,1.050650238404648301e-02,1.049177952500705974e-01,2.166202444668647448e-02,1.418376961758716125e-03,9.237729547435802064e-04,4.672014346923501586e-03,1.458253552887378846e-01,1.101681275013641041e-02,5.407981431613476109e-02
2.455943686012575927e-02,2.063014614578821335e-02,1.012502555072685717e-01,3.561015189948032404e-03,1.353066468857158384e-03,4.306338024766201292e-04,2.009178324810956956e-02,3.919040087777663633e-02,9.929361065662545976e-03,3.706407250567358286e-02
6.017383126217092787e-02,2.569945761307468324e-02,6.404775936028357652e-02,9.683206926919771598e-03,1.432440144942798968e-03,3.757136087950913917e-04,2.092316629788071661e-02,4.152989280604065317e-03,9.376902523462208802e-03,3.718697340369596371e-02
8.036951546945859948e-02,2.735418074783388040e-02,2.350699581738982871e-02,9.621403707845985545e-03,1.807551542765913066e-03,6.228691509414572116e-04,5.993773897026017684e-03,2.951762454690039922e-02,1.012136880184578806e-02,5.759563738520829396e-02
5.731487933959033415e-02,1.991668477848645633e-02,1.225551014344597629e-02,4.169543399741250031e-03,1.873332590428149636e-03,4.309462545022598465e-04,1.508840082730550196e-02,1.001373182248130045e-01,9.652331902165842137e-03,6.748790875573291992e-02
1.069519593463496079e-02,1.490052585468463271e-04,2.060425404597293966e-02,4.374069678916344545e-03,9.924852233339212168e-04,3.678146683911290640e-04,3.274569753293141844e-02,1.701798518658190762e-01,4.840031163429176289e-03,6.519692636683570297e-02
8.496422822506680128e-02,2.070831153109314871e-02,1.382827771236276766e-02,8.748583192330201125e-03,1.456822748201896955e-04,5.070084452823626128e-04,4.641550929541828074e-02,2.270300373402665273e-01,3.104206179742089247e-03,9.384723185240696763e-02
1.191534634939073745e-01,2.709188362347285037e-02,1.455659034939876285e-02,9.278308670310205647e-03,1.420194983852944158e-04,5.944064503730995055e-04,6.078857131116219975e-02,2.701650063974803673e-01,8.530320180562848617e-03,1.615320230998387452e-01
1.017795373653894997e-01,1.816385703206785385e-02,3.741053521716806995e-02,5.087722987319082645e-03,1.120104347116889290e-03,5.774533962875847944e-04,7.434070151062287246e-02,2.938263755503719987e-01,7.653821146333431372e-03,1.956351758424443865e-01
6.011935595909628782e-02,6.770850261003182741e-03,4.259922334131487770e-02,6.454763906083402399e-04,2.364994585626142669e-03,5.900747973121515250e-04,7.759094130870315686e-02,2.781875013045809197e-01,2.591439645231985531e-03,1.255763521542483108e-01
2.906309481412851572e-02,3.125375832599329873e-03,5.062719905456537078e-02,2.911713104159402692e-03,2.599003490717836061e-03,6.792006311551634272e-04,6.540959947433014343e-02,2.078360440773787121e-01,2.184319468059405141e-03,1.804356916441888364e-02
2.452164019575785170e-02,7.324415761242103126e-03,7.102187837485850197e-02,6.816329417287640517e-03,2.000218122702208858e-03,7.444965994426457848e-04,4.556940447454512627e-02,1.109370000343733176e-01,4.817964640312436854e-03,1.332094308636104230e-01
4.403965682827715861e-02,1.455661093075917047e-02,7.883502132178718536e-02,9.898214946600349118e-03,1.717612627414039864e-03,7.146552444073679547e-04,3.062213448681935096e-02,5.504667441372717435e-02,6.116705818609196113e-03,1.591429790204688388e-01
7.723693976199889899e-02,2.067893445748016437e-02,5.471711686512495398e-02,9.434227430413333337e-03,2.722149596923841616e-03,7.129556379197472251e-04,2.527327241435042490e-02,7.540726247461090881e-02,6.879631934025202435e-03,1.193860454334118026e-01
1.053858059031225480e-01,2.251226614955423311e-02,1.361737472912452965e-02,4.394576670748788841e-03,3.562856592043299030e-03,8.757693839566305788e-04,2.540244582097807291e-02,1.244087547001000299e-01,6.955399697262977521e-03,6.535242240269897862e-02
1.032007117945847458e-01,1.698813666809656855e-02,2.661010238726201418e-02,2.656498549082854030e-03,6.199072110806356627e-04,9.812973931975523239e-04,2.534291432022903537e-02,1.251545654355767367e-01,6.190347163387724914e-03,2.109829406865451271e-02
5.701064448524559986e-02,2.663923761962217612e-03,7.046730884506663406e-02,6.522762648190426338e-03,6.837719935078440808e-03,7.375636374153919520e-04,2.262727137231010724e-02,6.438873430117564300e-02,5.182330304566574834e-03,1.051827981924284214e-02
1.901459852541460480e-02,1.840407313095197839e-02,1.161524503409337300e-01,4.720587028727138770e-03,1.379767643437855053e-02,5.957019000960780963e-04,1.787338947591960922e-02,7.421591392505533236e-03,5.050833021831522066e-03,2.229190856460237097e-02
8.893667320869923232e-02,4.026441430595480847e-02,1.356118951794962890e-01,3.482890343519751478e-05,1.509622931990016285e-02,1.220724081450172199e-03,1.050526193241444264e-02,6.521446920231992184e-02,6.670678254148199211e-03,5.675039833044376314e-03
1.191712333758668946e-01,5.413076557723173199e-02,1.108111790306264693e-01,5.133704741305773062e-03,1.179309919704690270e-02,1.592259190832827354e-03,5.486425274759072768e-03,1.468382339477324050e-01,9.362744579882221335e-03,3.339591677282503085e-02
1.004864067453741239e-01,5.274787295216430694e-02,6.200028036779231533e-02,1.045384595496116724e-02,8.433547313666486453e-03,6.145863120037121192e-04,3.481379047067180432e-02,2.776181225625375948e-01,9.850315025596197149e-03,7.554755578439366348e-02
4.822189514406926419e-02,3.629481891580028929e-02,1.698306771915341490e-02,1.054391155218941355e-02,6.385457100253195267e-03,5.405091542489697150e-03,6.755155134754575741e-02,3.972856351219750670e-01,4.618145942695835171e-03,1.000999833984844573e-01
1.249900591750387549e-02,1.335130217659276364e-02,1.975287176430137390e-02,2.060369436680383089e-03,4.086014261084428174e-03,9.134496603561604103e-03,8.350662549882384433e-02,4.106938864690923841e-01,5.092728683051355419e-03,9.881309934731795364e-02
5.307970591547008649e-02,3.564097057062529193e-03,5.255640869186177511e-02,2.243004202480296597e-02,1.830066263843675625e-03,8.585243576851947500e-03,7.493849005681367526e-02,3.056315741371833372e-01,1.341818458959518484e-02,8.558578308888081798e-02
4.769233067930692821e-02,4.605601368925440510e-03,7.971009313259093398e-02,3.529714393373432901e-02,1.534055019844295792e-03,4.750066503204296645e-03,5.440388065610152202e-02,1.743572309111926233e-01,1.670513848123727704e-02,7.952633004140806372e-02
3.868178624472838785e-03,9.468049583683940673e-03,1.006229837816632333e-01,3.476912925962417217e-02,2.658363437932725198e-03,1.054834624466932744e-03,3.650647790457646480e-02,1.032832680106029050e-01,1.667055990055241882e-02,7.202091299720356221e-02
6.803083252582266260e-02,2.521420879767364426e-02,1.117494666037014972e-01,2.835480988607886818e-02,2.504951577260346781e-03,6.281666468781130219e-04,2.368475348464300217e-02,8.585368874798164629e-02,1.562972143034662906e-02,3.288913111942902423e-02
1.095633988091654076e-01,2.841230682447902500e-02,9.898043972353665065e-02,2.081348751767242433e-02,3.347156615876968134e-04,8.482864757061027265e-04,1.414941938387426039e-02,7.568500695647027710e-02,1.297712347083933467e-02,4.247944937572868673e-02
1.197901025978232170e-01,1.818545348300936587e-02,5.795619303875084588e-02,8.396471724228197347e-03,1.835819981629137386e-03,7.337096162662035733e-04,1.067726299226779731e-02,7.241415932806578859e-02,7.451260442842758472e-03,1.126357570377479050e-01
1.007678518922088123e-01,3.957412176686167862e-03,1.184112009902216212e-02,9.131246384359791371e-03,2.432429018108164982e-03,7.114785415267578777e-04,1.368905067381301528e-02,9.903246369535104177e-02,3.803914778417512993e-04,1.296759599001370000e-01
4.511648966943805628e-02,8.337697650543290928e-03,1.412640577212378838e-02,2.256367742247926758e-02,2.036196757674518278e-03,7.053802658724653458e-04,1.600141564264397076e-02,1.394741441517268477e-01,7.618381874162072180e-03,9.384821650390763603e-02
4.345204659201296754e-02,1.844698403087013244e-02,2.515778276659164092e-02,2.374717573343666788e-02,1.794870074829414425e-03,6.528417912276347681e-04,1.164906843039857469e-02,1.538823385309925074e-01,9.759805831835081588e-03,5.480035572265909427e-02
1.262034667580589631e-01,2.358127622567396733e-02,4.104021316829712523e-02,1.608966387245512608e-02,1.865721194181944485e-03,5.976630124546822645e-04,2.061948740730105371e-03,1.246148669739277487e-01,4.784039614549210478e-03,5.127957119918374190e-02
1.557434317757656617e-01,1.931907944139636332e-02,5.776295318522483430e-02,1.038511506600805524e-02,1.864566493781687206e-03,5.649670673322218159e-04,8.947321262806281345e-03,6.135833759653428615e-02,3.154184597444608957e-03,7.115253371712476627e-02
1.236996496388471367e-01,8.165514926096649473e-03,5.270479661267707394e-02,1.253159344988923583e-02,1.733001255457809926e-03,5.349428902281039636e-04,1.816352114869516227e-02,1.147539448922416973e-02,7.888735409041487331e-03,9.056069677372122206e-02
6.537961017749552295e-02,2.510461418035733923e-03,2.387078164913476047e-02,1.902171762166883495e-02,1.641389157372989249e-03,4.968323695839378922e-04,2.182259299188107557e-02,6.950676361776063350e-02,8.205942059094004787e-03,1.171171202769318853e-01
2.049617701680739659e-02,1.055746713809489930e-02,3.223120343560094327e-03,2.342054428180657261e-02,1.600564237157940488e-03,4.607587659142178133e-04,1.930060875390340880e-02,1.061558366017294197e-01,7.058861261692223055e-03,1.561230764562030193e-01
9.326872320342783707e-05,1.830048664598441996e-02,6.217841378891803342e-03,2.332208680908996051e-02,1.539975416607125818e-03,4.326991794614023753e-04,1.534592507933935264e-02,1.232295221712871730e-01,5.852039829733186524e-03,1.709132219628772820e-01
8.212630632233245201e-03,2.201122510300029464e-02,1.689277909196532784e-02,2.052415294393328260e-02,1.495140937953538243e-03,4.086787631789729185e-04,1.218774159987024222e-02,1.084481699074903716e-01,3.145293967161486275e-03,1.267391216881485205e-01
5.887173015152209234e-03,1.141097641476481774e-02,5.249827589638624004e-02,1.742375191277038132e-02,1.484224481895466807e-03,3.864001804121032393e-04,3.946002036201714906e-03,5.144559017302637732e-02,1.832290308769707375e-03,4.931312073912724747e-02
2.175938649490248566e-02,1.572933586601374389e-02,7.541501590334151461e-02,1.503410174879897705e-02,1.403693902464764939e-03,3.680889633442213735e-04,1.365537201116732990e-02,2.450133867046177041e-02,6.733491852463158525e-03,2.891166389496322917e-03
6.955326698070292413e-02,4.449613782546076729e-02,6.321094624336998091e-02,1.356504625333521986e-02,1.275010580969868166e-03,3.550742502226915615e-04,3.253073465573385475e-02,7.570473175595945903e-02,8.036775315329855451e-03,4.625310457088135235e-03
9.645924213769284383e-02,5.653967739734533371e-02,2.443658335981801696e-02,1.278836061611851246e-02,1.336589433098641592e-03,3.463859951902730698e-04,4.063344642494758768e-02,8.580483750047672442e-02,5.198225838929560264e-03,2.969822986802548442e-02
7.172331941083200102e-02,4.994694864897133990e-02,3.250953944527927662e-03,1.071771237230784157e-02,1.528180359474288954e-03,3.412752831246748425e-04,3.802690582831291799e-02,8.276931877309907926e-02,1.143115648342628169e-03,7.953740722896038284e-02
1.310692869186959840e-02,3.645003492079116475e-02,6.115311397877558168e-04,3.202445940875656410e-03,1.288176352929489921e-03,3.399061331896860135e-04,3.431472823193017219e-02,9.612182392591588076e-02,2.300082390902213544e-03,1.227141767202062778e-01
4.033809327315975024e-02,2.294704788570314444e-02,1.085022086462144111e-02,1.219724998780305145e-02,4.887318528302139536e-04,3.421921515111749773e-04,3.340897415114942731e-02,1.154187956788034902e-01,6.507071252768693685e-03,1.280165796527533983e-01
7.189088257681212901e-02,7.282807151942189382e-03,7.939277569778181026e-03,3.055495707105282399e-02,2.215567576914780046e-06,3.474706720622855482e-04,3.227968068464328460e-02,1.209177116474295793e-01,1.135437333754458003e-02,8.233623606573471643e-02
8.811285195551643579e-02,1.032584907819029778e-02,5.141680853427693654e-02,4.123833293237998132e-02,4.552405341826996866e-04,3.550594523302201175e-04,3.063410999307156560e-02,1.287262449960314414e-01,1.245385287596049995e-02,1.701633152727631548e-02
9.151590463404164766e-02,2.250991737951218985e-02,8.116072731435423904e-02,3.843851479095609924e-02,1.222668906139385420e-03,3.644352583763799461e-04,2.973614658073323383e-02,1.558848827205227827e-01,7.311133629088876519e-03,2.336584260265146817e-02
7.135027843771921119e-02,2.193988693120240904e-02,7.121775602541730033e-02,2.600558226634325926e-02,1.427112385533655910e-03,3.749973554501943038e-04,2.622898581973984178e-02,1.727922192849141170e-01,6.525132353162358626e-04,3.254212413839790291e-02
2.274113546385013451e-02,8.046251232104274093e-03,3.204547618523687080e-02,9.099406100224735616e-03,1.189955242106789613e-03,3.860052064298791870e-04,1.790376724521682700e-02,1.471285120211184017e-01,1.489884106612778631e-03,3.490807313718929245e-02
3.802867280415694190e-02,1.282131914741575437e-02,4.341350968450678922e-03,1.069535712439105210e-02,1.076920712611891028e-03,3.967142916141810959e-04,9.895962669774712589e-03,9.610417999193567040e-02,2.373239397988141869e-04,3.543860679316290785e-02
8.144456767358762561e-02,3.037244231187821719e-02,1.343218723600796659e-02,2.713603714837906425e-02,1.156708411006149686e-03,4.064337578069506982e-04,6.293703201169720957e-03,4.289198547444523363e-02,1.262482225109126752e-03,1.626817020990566423e-02
8.120676307165526631e-02,3.439956906776675538e-02,4.049230900745666873e-04,2.808636877889249955e-02,1.179032930427818121e-03,4.144906528765715417e-04,2.756519109748370791e-03,2.534846586462589577e-02,5.685515246358863357e-03,2.000416661273964058e-02
3.025861875489090427e-02,2.065280410655348856e-02,1.173858906784511387e-02,1.177485593473668810e-02,1.101148886891784983e-03,4.202292532919635662e-04,5.076965682192140575e-03,1.058276502814445713e-01,8.577892614932565093e-03,5.210472204813861030e-02
4.538721650601335034e-02,3.886955309991637058e-03,6.841788228373713726e-03,6.397527764675803655e-03,1.048414777165278212e-03,4.230535219629971331e-04,1.394903466678078761e-02,1.510989919994300545e-01,5.973590877291655096e-03,8.513716397029075234e-02
9.652630840631970521e-02,2.336778528350848955e-02,4.271229062124408567e-03,1.298520429055287882e-02,1.046650901061239175e-03,4.224519757895257984e-04,2.008193500194477982e-02,1.410647780086896341e-01,5.248148605170563407e-04,1.352383505398072339e-01
9.143519790083648457e-02,2.562649975609726169e-02,8.780531269751166989e-03,1.206049814742072082e-02,1.014070536149934941e-03,4.179998531475456183e-04,2.555233213039183673e-02,1.201349803176407771e-01,6.293356020506171364e-03,1.706363944033858215e-01
4.563796285381176154e-02,1.319894854264604643e-02,1.779245030898166016e-03,1.259272870524816290e-02,9.261434768621887737e-04,4.093664029379614090e-04,3.190933561134710883e-02,1.232476611654882148e-01,8.203623575496650500e-03,1.395728249477379557e-01
3.024876684916454842e-03,1.588225848147551290e-03,2.053883075004465236e-02,1.159364115043461790e-02,8.693265857882713152e-04,3.963295495809486817e-04,3.497732939222301246e-02,1.294066208146726071e-01,6.360621238094202670e-03,5.903527450970832979e-02
6.634392891799638717e-03,1.023664430781210874e-02,5.280723888593970988e-02,1.684347761452668164e-03,8.811721086879775082e-04,3.787845379007278765e-04,3.156793001772850715e-02,1.209528609792203113e-01,2.920191031296210347e-03,1.526226297824298528e-03
1.600057549228506987e-02,1.127568247229347037e-02,7.161078886470663429e-02,1.230735509514763355e-02,8.186815817714842083e-04,3.567450343363256669e-04,2.613516386289865129e-02,1.226951791138281844e-01,5.709389222343459660e-04,1.001965942730316875e-02
5.227149447123114606e-02,5.152477042722959644e-03,5.683875022710752067e-02,1.751685749479651999e-02,6.067193635223177466e-04,3.303427338799697771e-04,2.567771628785763330e-02,1.445201887855996903e-01,4.572173653175988679e-03,2.267635743073795340e-02
7.564838369435854248e-02,4.558958223553597616e-03,1.612696138942599361e-02,1.082005861434304737e-02,5.333252730216244807e-04,2.998261602988138265e-04,3.090138935336544934e-02,1.444423764275272470e-01,9.571386751502078752e-03,6.324954586104832022e-02
6.100939383606171496e-02,9.827540041298855888e-03,2.359939040189747150e-02,8.260303646167920042e-04,7.756356070068460423e-04,2.655558431890561212e-04,3.680477094107437869e-02,9.415345409292782963e-02,1.398240861450892811e-02,9.650226946389514615e-02
1.208114450436283821e-02,8.285508596975646456e-03,4.302305134789451146e-02,5.489929415519292748e-03,7.003797725058032468e-04,2.279956307627482273e-04,3.986636704298852918e-02,3.231288335946911477e-02,1.598363907608308515e-02,8.964564618816217578e-02
2.693894594321461292e-02,9.103290016069267437e-03,4.688825171346664572e-02,6.827521488635572566e-03,3.795125232868057407e-04,1.877016742776745181e-04,4.000470639064831330e-02,4.883961943006525329e-03,1.598691067297524498e-02,5.866297868295641815e-02
1.939946927026654777e-02,1.843920634127681549e-02,5.574201548951703000e-02,1.960868594284748308e-03,1.714589974487979330e-03,1.453095353374546643e-04,3.747023597774651327e-02,2.411243669961978670e-03,1.494757781469877901e-02,2.930697081338355658e-02
1.249569802428876844e-02,2.632408491190739094e-02,7.458286779639375363e-02,7.649541533256982995e-03,1.792980138573241865e-03,1.015191136820244348e-04,3.246575996572110406e-02,2.429845705552651641e-02,1.204399105993922414e-02,5.452728705756111106e-03
2.189590589257186387e-02,2.069256285580073698e-02,7.638299553467536862e-02,1.320100106460384871e-02,6.153589889935981569e-04,5.707767343566601286e-05,2.619298214995833055e-02,5.151299809227234683e-02,6.705790765238838110e-03,4.140892875632213622e-03
8.336594896608014518e-03,7.761207021701691661e-03,3.718193613434292444e-02,7.671792913980156510e-03,3.058467185456560525e-04,1.276167528682767196e-05,1.977118359872674994e-02,5.213819049046300447e-02,7.948949593723454374e-04,2.053358270696109891e-02
7.169323076758330610e-03,4.173954714382198915e-03,2.124150355727321207e-02,3.823859028617939380e-03,2.276659554617081207e-04,3.064208874120949899e-05,1.392810616971038896e-02,2.571120489593604549e-02,4.162218572060342320e-03,7.214414749765719892e-02
2.236700842577069720e-02,1.379958039266138484e-02,5.191754137262331176e-02,1.139407919906581385e-02,1.512664437199980527e-04,7.235572454358254156e-05,9.198062568465342412e-03,1.239816682846797691e-04,9.284957941830582206e-03,1.132005997901256028e-01
2.222500960865994579e-02,2.603925719208120479e-02,3.866173068377941335e-02,1.308906740259878007e-02,2.037453454048656742e-04,1.116293749844188396e-04,4.523887111112251218e-03,7.167279292958583098e-03,1.481146026901729480e-02,1.207461150098939201e-01
2.793444060431279734e-03,3.332797339470598696e-02,5.102528292533081364e-03,1.212427564953850144e-02,1.279634897347758796e-04,1.477597293874826148e-04,1.588795239887551280e-03,8.598889434148814306e-04,1.732677847879224645e-02,1.042419506299403775e-01
2.023386536985315176e-02,3.725852484396659919e-02,2.487416152572156577e-02,6.814269230492295791e-03,1.952655538703388293e-04,1.801074295802290433e-04,7.897674357556776215e-03,2.237157998356486405e-02,1.359061368387460590e-02,8.448024017364964833e-02
4.899555084955640495e-04,3.788886193237464561e-02,5.061122063953142625e-02,6.561366464238517320e-03,2.800168105844422976e-04,2.081129661061408768e-04,1.239658209663513366e-02,6.371989905745199800e-02,4.522154402686363872e-03,7.998357944810009779e-02
3.825989288712199066e-02,2.768191515521035637e-02,7.653318901632616411e-02,2.239943210298705675e-02,2.697691974393867783e-04,2.313106715038499000e-04,1.565266969576181375e-02,1.158280865077425392e-01,6.296600032771859298e-03,1.031218950582045296e-01
4.445784400964528787e-02,1.691121120617189270e-03,8.853775625819977624e-02,2.776742014876036613e-02,3.086759812339073946e-04,2.493404444562312807e-04,1.748981631483877489e-02,1.433672825541291163e-01,1.513718159377192007e-02,1.466574140193188658e-01
2.431103559289823218e-03,2.970938219457441160e-02,6.621829774396680024e-02,1.884509488614813030e-02,4.195609425298431013e-04,2.619569048846702160e-04,1.492781061095692537e-02,1.191701708914111590e-01,1.861414602344894573e-02,1.826934585525556987e-01
5.698977620783991088e-02,4.605357477339544481e-02,1.678472034683147276e-02,6.477772087809446043e-03,3.452861223561476075e-04,2.690357524862063091e-04,8.718903391963826049e-03,6.092606912064037206e-02,1.539079601997885710e-02,1.906319631514761803e-01
5.899940441577573164e-02,3.733207268841561011e-02,2.574244607100067625e-02,5.755197280645475916e-04,1.250430611492613564e-04,2.705771652548715628e-04,5.267990669831811718e-03,1.329694590296494165e-02,8.320785699420423301e-03,1.778935909207484678e-01
8.301662995938839662e-03,1.373982870242900813e-02,4.149333123670675971e-02,2.219745742858067993e-03,3.287801850635065993e-04,2.667061432503062745e-04,6.480672821921458666e-03,1.475649158708544455e-03,2.264890647755027873e-03,1.639590003647732608e-01
4.065008698124938230e-02,8.075204257661896048e-03,4.314057115222011407e-02,9.170311653852174227e-03,1.093879577032277938e-03,2.576697807263236264e-04,5.454657346120752627e-03,4.965468497857627528e-04,2.770800416874544562e-04,1.527478058070476929e-01
5.242597931293398184e-02,2.281615031912252040e-02,4.672468817419857257e-02,1.783669608556637254e-02,1.548437369797398379e-03,2.438315280045682805e-04,2.113955420498497394e-03,8.772125760717295120e-03,4.200887022801061323e-04,1.290984574648412486e-01
4.219774275779576700e-02,3.457007971912441635e-02,4.470507029170099622e-02,1.987106338917673035e-02,1.048545565546666041e-03,2.256625782716721736e-04,9.616700936223979146e-03,3.559084458164958609e-02,3.573982111183546164e-03,8.457857143948391276e-02
3.027544204029700495e-02,4.039255203623245277e-02,2.026940889336651189e-02,1.403357861074553195e-02,2.346025030398174709e-04,2.037305850965868785e-04,8.033573907376882414e-03,4.920031625534150577e-02,7.857866913439554707e-03,4.602983500565722280e-02
9.118268114211746517e-03,2.839569444020065281e-02,1.929628227499154483e-02,7.262535332444245394e-03,1.967580224830533446e-05,1.786859835749496914e-04,2.508409788542678275e-03,7.921460030381804671e-03,1.066978650714212225e-02,6.138546519403920848e-02
2.487502514019503466e-02,1.942643406970938043e-03,3.796682454899397846e-02,3.365603069195549461e-03,1.631999262100856723e-04,1.512462484833697394e-04,1.403845699268270290e-02,8.149809985598908957e-02,1.048281410228623159e-02,1.380489693061431877e-01
4.924149667387345969e-02,3.053188341126553476e-02,9.867502699325131008e-03,1.777923083372270289e-03,2.199356558024700688e-04,1.221784744705360702e-04,2.061944399522661758e-02,1.531703329986280893e-01,9.054576621527766697e-03,2.147023112350493756e-01
5.099336054351818331e-02,3.878333325066311149e-02,4.499820242180451596e-02,1.134429405532361851e-02,8.351860660747859922e-05,9.228070549871493988e-05,2.316735914786131542e-02,1.582685309482853298e-01,8.640156299525008493e-03,2.267197856706618386e-01
4.602239534357100564e-02,3.001098468322327059e-02,8.058658218817031649e-02,1.992181561355799158e-02,2.000842183617028555e-06,6.236247274273403461e-05,2.478496120235879757e-02,1.202507171307208439e-01,8.003397762738177074e-03,1.836970204915571447e-01
4.560835726636092852e-02,1.886333979875314329e-02,7.483182560468695788e-02,1.875865289759243160e-02,3.766973405564747867e-06,3.322502082956410151e-05,2.467263890971167772e-02,8.132739834657815026e-02,4.574450106667005828e-03,1.488407569949750930e-01
4.496107415181475886e-02,1.389737232405270292e-02,4.296802482220618558e-02,5.956655822729489506e-03,9.477510831478914446e-06,5.641710967338491511e-06,1.956752845124999640e-02,3.672539482929974841e-02,1.074816567922223711e-04,1.560104090270857946e-01
5.135919137025628939e-02,1.829349150681356881e-02,8.556433853607079559e-03,1.083310738018587738e-02,6.128556491034535634e-05,1.966091392668596963e-05,1.038743361932664006e-02,2.959552899329942130e-02,1.527446487162094097e-03,1.776668028864000770e-01
7.788162663761002968e-02,3.235830423034711384e-02,2.014930714528431754e-02,2.092082172663521991e-02,1.010314317698789534e-04,4.202093239701938941e-05,3.837153678997464856e-03,8.328594560031110650e-02,1.138216543679215417e-03,1.671046876021836658e-01
1.100504966150335356e-01,4.718509146555480149e-02,4.545814757115642507e-02,1.961332551997685414e-02,1.169373692292635734e-04,6.085727330070149764e-05,5.594432070048154654e-03,7.516832652674255988e-02,4.082264190998792681e-03,1.093344194827396421e-01
1.187094514843121118e-01,4.850157646808474221e-02,6.238505196681937842e-02,1.103511788324016557e-02,1.276418073004750115e-04,7.568396586590002341e-05,1.375218438306309576e-02,1.686984604468207832e-02,4.732836151016529824e-03,3.092566485930708584e-02
9.624878838388317703e-02,3.236866494542445238e-02,5.364670064724547799e-02,1.387556815939557965e-03,1.402663134947683410e-04,8.612205474229267564e-05,2.103922203345209505e-02,3.181121630591919602e-02,4.020025609036932852e-03,2.632140659866670507e-02
5.393620626827327208e-02,8.926211168261293655e-03,9.996028259926216519e-03,8.378045393553938333e-03,1.545650447564242153e-04,9.190888099836936492e-05,2.229051032556003675e-02,3.617673282983775024e-02,2.637123537018870242e-03,4.035259306568791254e-02
5.966247646084586916e-03,9.289795483378680829e-03,4.839644363859341158e-02,1.947629280616983843e-02,1.629902481601021237e-04,9.290449472163769666e-05,1.794925426121915871e-02,9.266161364570795617e-03,9.163649003928088380e-04,2.451666617069633153e-02
2.814200413011224214e-02,1.609930093141155247e-02,8.542334510754293064e-02,2.727086982579227797e-02,1.467378583590960147e-04,8.909503552731367552e-05,1.135650178987168864e-02,2.193064997690728768e-02,7.646679432383350454e-03,9.228160073054998691e-03
3.335457333435962179e-02,1.170040754408375842e-02,8.452496110854980371e-02,2.316632211453634876e-02,1.175299625899937629e-04,8.059299213263566657e-05,4.346465807855710156e-03,4.322149202296837744e-02,1.533320601910951979e-02,1.197472488813567520e-02
1.843355483622745317e-02,1.373820091531414815e-04,5.862861838619854576e-02,5.792494836812562414e-03,1.253677053427216560e-04,6.763432935571062890e-05,3.421687526940823520e-03,5.371863315624927915e-02,1.950319752745173149e-02,3.000454667601077513e-02
2.694965679737953979e-03,1.359034531982063546e-02,2.629856036438269276e-02,1.442450719220173677e-02,1.497728489433930432e-04,5.057254854394370344e-05,9.958071532022197761e-03,5.383197998547006174e-02,1.760601803538419663e-02,5.364906834518682471e-02
8.894780246496696019e-03,2.485625112913509085e-02,7.069579502058739515e-03,2.417157728806694494e-02,8.081674176769982829e-05,2.986982360539215662e-05,9.491358848713198765e-03,3.956254411315036218e-02,1.172495545758157204e-02,7.940614948442047127e-02
1.611390118992688664e-02,2.799368556338045072e-02,3.997133683362579654e-02,1.932077861186066656e-02,3.992957049549252500e-05,6.085427612021299495e-06,8.891926820413695830e-04,1.930693007258775518e-02,5.862632945063477562e-03,1.137585141452186893e-01
8.174941698859088460e-03,1.886929894799771121e-02,6.013886745230273556e-02,7.924208030917248222e-03,3.009812608640261239e-05,2.013826744703886963e-05,6.490304995458278867e-03,2.590481224445444902e-02,1.973281892001803491e-03,1.632195615258335009e-01
1.755835267957980145e-02,2.499138804564132905e-03,5.274127684937181954e-02,1.954624117056979853e-03,2.206803663840353421e-04,4.809187444471296660e-05,2.622555768315172273e-03,8.573897992673219781e-02,7.970828134760910228e-04,2.199442308087805609e-01
4.256511139377291975e-02,8.730821648942236474e-03,2.008371245587550410e-02,5.622656699021102468e-03,2.891592747469841839e-05,7.701676275847170916e-05,1.114407416964442905e-02,1.819673682473351151e-01,3.749040495004178630e-03,2.666642108518687548e-01
5.321177625727557814e-02,9.626062864908739580e-03,1.793039786921021492e-02,1.231293078100816063e-02,8.346878719692464544e-04,1.061240794662152674e-04,2.568907247737806446e-02,2.713177040960249586e-01,1.016350317641010782e-02,2.962617734587481566e-01
5.440394944105969577e-02,7.464094518487864732e-03,4.165264621627274427e-02,1.357289806111200772e-02,1.328502241272642341e-03,1.346145499383023304e-04,3.518119403771151343e-02,3.277597189621042073e-01,1.497747400863667575e-02,3.149529661240206280e-01
4.241121926425744926e-02,7.647258536492423930e-03,4.279574593803722737e-02,7.834168138562646461e-03,8.841851800544677604e-04,1.616985674112741847e-04,3.911102593390476667e-02,3.490695793598592167e-01,1.328232981649713450e-02,3.284898366804297476e-01
1.766210223831290137e-03,3.532758081877715971e-03,2.370753242464229693e-02,1.900824146026401868e-03,1.341409780584720346e-04,1.866160729787118494e-04,3.721445559856860485e-02,3.322846447582533669e-01,6.212768878911058973e-03,3.368337924483074675e-01
7.390394361820276647e-02,1.207142941411205525e-02,5.156800849268022673e-03,1.353194697587513026e-02,8.048025153976887439e-05,2.086557316522044800e-04,2.887658161931891745e-02,2.712916956279913805e-01,5.074363429577715551e-04,3.371420554330469277e-01
1.324160620686660739e-01,3.319682859189616864e-02,3.191170778528050478e-02,2.443869966411271050e-02,1.265217101285421686e-04,2.271729266740850817e-04,1.743840768686888421e-02,1.815448423736701067e-01,3.049421400134753966e-03,3.237658708966838494e-01
1.391191845303594854e-01,4.601508325350309875e-02,5.371833201154745108e-02,2.986556080037670174e-02,2.513392895792078354e-04,2.416061226504522712e-04,9.512662049909467038e-03,1.000527094354785873e-01,2.329680243136662918e-03,2.953090237145136743e-01
9.535929407105500633e-02,4.298177491768569169e-02,7.347753162252851356e-02,2.755506859340333542e-02,2.060464886405847943e-04,2.514911875912997073e-04,7.394314642826272169e-03,4.632808414629720206e-02,1.162285957671202420e-03,2.643145397521389217e-01
3.436788170811770626e-02,2.751040399018268162e-02,8.305092863817534199e-02,1.959876020216428510e-02,1.024533958497572867e-04,2.564733137850807188e-04,6.011299813987238186e-03,6.186485732644929347e-03,7.836352880867126624e-04,2.449243932566689541e-01
1.019818650189615282e-02,8.502600432233140687e-03,6.499774126225976723e-02,7.795851853221765285e-03,8.645642403692994546e-06,2.563162364907610870e-04,1.871802243197751101e-04,3.080236731460923513e-02,3.219392403083524631e-04,2.334974709205933641e-01
3.405960196471306128e-02,7.447451619866480091e-03,1.877666382555204933e-02,6.606039979421826809e-03,1.329439003386287692e-04,2.509085159460006488e-04,9.221867740202227548e-03,4.644573615620468943e-02,1.700822704090470877e-03,2.171869305443581422e-01
6.274656668702759121e-02,1.984137626080999250e-02,3.046601956476462786e-02,1.841992922299361471e-02,6.469727712398982240e-04,2.402667202960829986e-04,1.934175174551616694e-02,2.856096802791183165e-02,5.857092881730528375e-03,1.934426895581124184e-01
1.075628052949627461e-01,3.032452739577419509e-02,5.744802162750520247e-02,2.186131874662833319e-02,1.296644596209289412e-03,2.245354236259199511e-04,2.994818582745370494e-02,6.040171586946918580e-03,1.139180871822299476e-02,1.657955483418557807e-01
1.319536456716947637e-01,3.670248415221220861e-02,5.837717316010103408e-02,1.866177959187168695e-02,1.577184798107617676e-03,2.039840129586754642e-04,3.992592425818788926e-02,2.116279575932315110e-02,1.689622816554571180e-02,1.294090833290644504e-01
9.326452719347108622e-02,3.525417478829936946e-02,4.377247772362413691e-02,1.520004712424623608e-02,1.233405463477977269e-03,1.790003775092156065e-04,4.445379715096946932e-02,7.488077848867076558e-02,2.090834757336752087e-02,7.429383543574945292e-02
9.285197819624061571e-03,2.788962210788917609e-02,2.164777194278920056e-02,1.232311353071243246e-02,4.926013047883291869e-04,1.500816295284415711e-04,4.078928568773972779e-02,1.251694807705329704e-01,2.182629815719822411e-02,3.464269266227754107e-04
5.517004447383766497e-02,2.084375147313632937e-02,8.203994046798833081e-03,6.597089086951894027e-03,1.178678293174085167e-04,1.178220797912724640e-04,3.289444472568837929e-02,1.419040336254758505e-01,1.853260594779388218e-02,7.750590298088708141e-02
6.458327512144410032e-02,1.611076911727939154e-02,4.576789356445387646e-02,8.385553897939016345e-04,2.880166778127045521e-04,8.289876286436995926e-05,2.568488347111762618e-02,1.330797945384919467e-01,1.230844548155955558e-02,1.416727506240688106e-01
3.810085516078558221e-02,1.076862575191288307e-02,7.780173771667001081e-02,3.038974617190149958e-03,2.134198175479362614e-04,4.605486973557268166e-05,1.795787194296248959e-02,1.103135628800610002e-01,7.427128567763006603e-03,1.884353123226102933e-01
2.981684832725414735e-04,6.078226595131100592e-03,8.231536689461935175e-02,1.341217352042120385e-02,2.146433878930421879e-04,8.081491055400497395e-06,6.268326788222029593e-03,7.570321035723232006e-02,8.363801853881464368e-03,2.276395103477834581e-01
5.173233139027847566e-02,9.786041382946373060e-03,5.380554512048085075e-02,2.212405815293981212e-02,3.172298855722464287e-04,3.020188491810111135e-05,6.009207520102253716e-03,5.756423243645184679e-02,1.587899569785451367e-02,2.653375820945779173e-01
1.172272070718278769e-01,2.464397072729965568e-02,1.398895875297351613e-02,2.264411488675349346e-02,3.887921865094022154e-04,6.796762835595458415e-05,1.007259542677448397e-02,9.712997881302375125e-02,2.598539006054671405e-02,2.931365611481583922e-01
1.578102964348105930e-01,3.969900176636362299e-02,1.081037771675205476e-02,1.964869352115343470e-02,4.102131169585535031e-04,1.044004618152076470e-04,3.902160220065208681e-03,1.722426059921566277e-01,3.292508706422676151e-02,2.957468633810860781e-01
1.259656672987948534e-01,3.949671971547891874e-02,1.432920049409646540e-02,2.070952960614630758e-02,4.408644956474737603e-04,1.387177013064515036e-04,2.642946562976478120e-03,1.967178496932006082e-01,3.333904223802244826e-02,2.636850011633899427e-01
2.558323602511354544e-02,2.081190014278461176e-02,9.334215718652885338e-03,2.597030869298604799e-02,4.892970486030348738e-04,1.701887699359956195e-04,5.911344547215400397e-04,1.311054337295240457e-01,2.789652734760681568e-02,2.005589666836156415e-01
8.012443468070895580e-02,4.239224887760065751e-03,9.148891819912009088e-03,2.900719802794497759e-02,5.266808357703300783e-04,1.981534575875321948e-04,1.169102779730805779e-02,3.739873926561833317e-02,1.969093842287425802e-02,1.207587825907796841e-01
1.288449088636846041e-01,2.092898899702941989e-02,1.117656503604722538e-02,2.433325270335867652e-02,5.477857895706990388e-04,2.220384042914740552e-04,2.141795431023315113e-02,1.490812983637879001e-02,1.184406311835695634e-02,3.663576664826704438e-02
1.109253692742482172e-01,2.393604157469994206e-02,1.325667402164290142e-03,1.260383133174949356e-02,5.655136260680339137e-04,2.413714742712253912e-04,2.550439092143325093e-02,3.818118658853927871e-02,6.362291913513803618e-03,4.360354475652816753e-02
6.029989446931960373e-02,1.766037174580696242e-02,2.009261796089606422e-02,1.148339482617250808e-03,5.818007453700400422e-04,2.557937978813159575e-04,2.478323614293424099e-02,7.079902429000270447e-02,4.030136515881713351e-03,9.776040011825819220e-02
1.375364185097234168e-02,8.364379691802252548e-03,2.993940575542577281e-02,1.468734117366670821e-03,5.898254085035709070e-04,2.650690046786601754e-04,1.814752380024599321e-02,9.070858963121375407e-02,4.193543424114374793e-03,9.558747146289373053e-02
1.829179440271150314e-02,2.802464512151956865e-03,1.309864792473601665e-02,4.836217295031783152e-03,5.887293052998626144e-04,2.690891060676224296e-04,4.734351991736091177e-03,5.478196447833939831e-02,4.507175734798512384e-03,4.479141719011973943e-02
4.999397692212936839e-02,1.752099921107731773e-02,1.566920729257152006e-02,9.985288190846491538e-03,5.828120930549031279e-04,2.678772292816090765e-04,1.009612134153524063e-02,1.776329332891364576e-02,2.429302083056123114e-03,1.867257171780697944e-03
8.941835691622775084e-02,3.098585326423764982e-02,3.573719520337977767e-02,6.708201745434582558e-03,5.723578518946071661e-04,2.615877852993077606e-04,1.852134324621617159e-02,6.947950170316270768e-02,1.536569347743879264e-03,8.536842615737489856e-03
1.181856349007157636e-01,3.235132184748060885e-02,4.443868991341125979e-02,5.411352237131250532e-04,5.537355239068250104e-04,2.505033137701221995e-04,1.762148127347820670e-02,8.091136859321844399e-02,3.330251216108506308e-03,4.233360703419580817e-02
1.123156736569689701e-01,1.904528154487268241e-02,4.229962404642467755e-02,3.302318494675850896e-04,5.285206160748646140e-04,2.350266468274364974e-04,9.072456814647552117e-03,6.627906192243721017e-02,2.786873869829099197e-04,5.771642521632142780e-02
7.168798113156060747e-02,2.290172035687861561e-03,2.133420204644464677e-02,4.906020737197201373e-03,5.040014490489479974e-04,2.156701287589659190e-04,4.065634344959686945e-03,2.681228857276978655e-02,4.573667025085626295e-03,5.223966862987791671e-02
1.971827657539589745e-02,6.678679141612497636e-03,1.213870502756432025e-02,7.425222555512829732e-03,4.785702157850108386e-04,1.930452400329863588e-04,1.611790878296135571e-02,3.055451572999326459e-02,6.000288363761649597e-03,5.659497287358158241e-02
1.687554515500634678e-02,7.729444696314702323e-03,2.621091561921835150e-02,6.437298230969700982e-03,4.400286081993123877e-04,1.678496437598288088e-04,1.902055168393300411e-02,5.555683304431158209e-02,3.434638693483559047e-03,7.467731362382831750e-02
2.575791187421128808e-02,6.008997749385987588e-03,1.143197535681699829e-04,3.232581770329695861e-03,3.943880479052589891e-04,1.408452880830906510e-04,1.008108504166569178e-02,6.616732189750165402e-03,3.883265031952712397e-04,8.079267822286326228e-02
1.196709861602929942e-02,3.709906400886751974e-03,4.248653826130091571e-02,5.364956140315416989e-03,3.702367160753741509e-04,1.128348305010978489e-04,2.249512696275376717e-03,7.343103749724676221e-02,2.337727219061262133e-03,7.577705864201596253e-02
1.268715034209477385e-02,1.367813847724739205e-03,5.823928383500761446e-02,2.048142882662899386e-02,3.583464134188909188e-04,8.465140959646599720e-05,6.294018365420264542e-03,1.038685516669300563e-01,7.763047987601849609e-03,9.081504146361785157e-02
3.514000354556626182e-02,7.559128276733275212e-04,4.073362270802977081e-02,3.248308891161182793e-02,3.005557574218268484e-04,5.714802344035782502e-05,2.707690284081210388e-04,7.580712541255330006e-02,1.629379787558300416e-02,1.223751129043174485e-01
4.251670298843610724e-02,1.327817196033289661e-03,2.039430100747934710e-02,3.096282997239333326e-02,2.178617007395866297e-04,3.115556326672770280e-05,8.029092584097501095e-03,4.464200572134232464e-02,2.346056552265898820e-02,1.219486037331446310e-01
3.972563850305841499e-02,3.674636438650303368e-03,1.425764962965089810e-02,2.065124219185851540e-02,2.402039188978322593e-04,7.439610284962716819e-06,1.344155779302718366e-02,2.918205504853216628e-02,2.640394396183621747e-02,7.391375917947050345e-02
5.749343710092028742e-02,2.123287149160202336e-02,7.348607026898103592e-03,1.583097696938065568e-02,3.377373642893160069e-04,1.327551195992438915e-05,1.757363645875244240e-02,3.306999042741920816e-03,2.809115856355219598e-02,2.538585574460502231e-02
1.115489179243820822e-01,4.610200268577834687e-02,7.074428408810392449e-03,2.078011066144515653e-02,1.944743299851932046e-04,3.027633953172847000e-05,2.084446283514942988e-02,5.622095819839688369e-02,3.143147170581552657e-02,8.169443357211925161e-03
1.613323490914268521e-01,6.019972218080231474e-02,4.529454539270757855e-03,2.628405165536671848e-02,3.766890121489093585e-04,4.296982963330267795e-05,2.040940412251332492e-02,8.422660457921145316e-02,3.286590440494803478e-02,1.234144574877848836e-02
1.482120585863191120e-01,5.137504164356914566e-02,3.023236499807741701e-02,2.416640525279759380e-02,1.076441412418669991e-03,5.100514293838602541e-05,1.865722804828425299e-02,6.861988959584067183e-02,2.728505001809980110e-02,7.201090127885451109e-02
7.424920948217436645e-02,2.921813064700143348e-02,6.877435727614875094e-02,1.616505575248624801e-02,1.397161852819068248e-03,5.409050378467107633e-05,2.273129222956932552e-02,4.925588198872029450e-02,1.737930796712219839e-02,1.428609858991069792e-01
3.186674084298837025e-03,1.370861216110326464e-02,7.405512164511771078e-02,8.694313667517567651e-03,1.090865866181619376e-03,5.176846225718098864e-05,3.040495177833902468e-02,5.647297821908999621e-02,1.183072269254684290e-02,1.785828351361162802e-01
2.214627561100432004e-02,1.038146975038241153e-02,4.947312798135428125e-02,5.360968392357753735e-03,3.718207896720048975e-04,4.383270893926658835e-05,2.851038535523081965e-02,6.535428500770122662e-02,1.487321204820266432e-02,1.824400463383719084e-01
2.228685644611171426e-02,7.235766574255475883e-03,2.609889163289408343e-02,5.511306387703728167e-03,2.101654911694185912e-04,3.084109662988261484e-05,1.365638722774962024e-02,5.221546761372875683e-02,2.333689050184125161e-02,1.790862000905726337e-01
2.754585823827642235e-02,2.790680614024479075e-03,1.665502899464613509e-02,6.743736944431644176e-03,3.104226913753224204e-04,1.325110427221950975e-05,2.049206897429592909e-03,4.457283582178137027e-02,3.291502808166053839e-02,1.569295079135375748e-01
2.612268185404395190e-02,9.144227337593754598e-03,6.920952935716442878e-03,7.280423733549533025e-03,1.923307804962803684e-04,9.696392466131476050e-06,7.270992427368075384e-03,6.308433762586707072e-02,4.160515451241073026e-02,1.050178480925250124e-01
6.678253388545819097e-04,1.624351514994368988e-03,1.489801852783525192e-02,6.624760994973688880e-03,2.581476888171768203e-04,3.816833497269992570e-05,1.955788734334839088e-02,5.821014744392885576e-02,4.786586305897463922e-02,8.170999286407922002e-02
2.474818230750882794e-02,9.638649499204138965e-03,3.875439711190252490e-02,5.912203778854356433e-03,3.832150487286671071e-04,6.932703742107519933e-05,2.017268549752972498e-02,2.527847858142024881e-02,5.075814648617022612e-02,1.610662137074477529e-01
1.007914251946220776e-03,5.934959382614366473e-03,4.397548354715841851e-02,8.560601288987888455e-03,2.552123645449513498e-04,1.011584919021067035e-04,6.649534736019983155e-03,1.476916450727287222e-01,5.212385249588144531e-02,3.104381264837656751e-01
6.173261907024613082e-02,1.327110690501044458e-02,2.450441179869958588e-02,1.782312096205698748e-02,1.778155785169749706e-04,1.377617922113287346e-04,9.031733693094430929e-03,2.114684605826406272e-01,5.471393359330660455e-02,4.056362295166295873e-01
1.019751882024983736e-01,2.859048407679518761e-02,7.838492951553876348e-04,3.104483539252538005e-02,6.184424701831402237e-04,1.813569581046500638e-04,1.870724440738222999e-02,1.862675357232719264e-01,5.764068431057933067e-02,3.809156537626368078e-01
7.871336641357667974e-02,2.512692666082983611e-02,6.793540253005991847e-03,3.910358032001602646e-02,8.801203025487892677e-04,2.208328690669806682e-04,2.273568045143591412e-02,1.341915184441355990e-01,5.706566991115789161e-02,2.898382389192106223e-01
1.500439711279084876e-02,8.666359383659734406e-03,1.196346479227818407e-02,3.606102279581116510e-02,2.945916499758692683e-04,2.485752547914139442e-04,2.291839715840800207e-02,1.168715744463955930e-01,5.231261067176121160e-02,2.083850607660321375e-01
3.620946686155575300e-02,5.039390945385480332e-03,3.865946343251606965e-02,2.811782059054242916e-02,2.263730472160488481e-03,2.854260276572833386e-04,1.957931788612181367e-02,1.301318377974687857e-01,4.784476109780320258e-02,1.519408278373103327e-01
4.698449225211168839e-02,9.585854085357595547e-03,5.262170632986067076e-02,2.740956145877810474e-02,2.668093709567075523e-03,3.454618768656898993e-04,1.344390855532016232e-02,1.355725689096798081e-01,4.787225068794376953e-02,1.053044479655298460e-01
2.344939527346725366e-02,9.427746050752295465e-03,4.913903998450425831e-02,3.658740357223681794e-02,9.345792356874178764e-04,3.818377662783368413e-04,7.756147923357020746e-03,1.210232629629007794e-01,5.240913316318991655e-02,7.086019093188845874e-02
1.658311049676214691e-02,6.849792659806129384e-03,4.400481958894075785e-02,4.641373419474791734e-02,7.993459752198724382e-04,3.606608179943547121e-04,7.977551632494134584e-03,1.114545153555130952e-01,5.958272680541543825e-02,5.574402004317740439e-02
5.161821667269029384e-02,1.007870009841673169e-03,5.154115619191981801e-02,5.042918663086625591e-02,1.037915710643021790e-03,3.786525969864952784e-04,1.557790878701282959e-02,1.277630761204566756e-01,6.793081342360574038e-02,4.713187704633899772e-02
6.156603079321526506e-02,1.266922986837348483e-02,5.831125856974755939e-02,5.291011392204005709e-02,6.109994519522511051e-04,5.085104319260583912e-04,2.252260892791906402e-02,1.528013888906818440e-01,7.549333384772391464e-02,2.780019438933161238e-02
5.122244111322677568e-02,2.151818248006855464e-02,3.863087948509194569e-02,5.826938561304196434e-02,5.034554206666985070e-04,5.433742498654301097e-04,1.840735483028928601e-02,1.524155188300828634e-01,8.052897375129122737e-02,9.946323334128377713e-04
5.450264574101011672e-02,2.603720501691943537e-02,2.477369348121071999e-03,6.306957490123554777e-02,5.493380300583588149e-04,3.201695426890825051e-04,3.415140242014907783e-03,1.186541062725816886e-01,8.306716286194543164e-02,2.934704538051272071e-02
9.619198191390736230e-02,3.204049898682334585e-02,2.999185315739292396e-02,6.294788237550141830e-02,6.361252627432531243e-04,2.793564913154986205e-04,1.125439648362275627e-02,6.908310494588790207e-02,7.996144533672286392e-02,5.755530458884217104e-02
1.600152274260926433e-01,4.326925139891446559e-02,2.688134464695039402e-02,5.494443105488558410e-02,9.480986334058146437e-04,8.023558481862736423e-04,1.502155537134639007e-02,1.501605140983042208e-02,5.914150367232845484e-02,9.102483313876957860e-02
2.053558664876786177e-01,5.586884466428470447e-02,1.298261459384684319e-02,3.061799489805562893e-02,7.958962613951554507e-04,8.945939982865206731e-04,5.453430106853019051e-03,3.925613096333259444e-02,9.333666553907837143e-03,1.255332289015070046e-01
2.087284447209262483e-01,6.356537207948682877e-02,1.061040731925215821e-02,1.592195115772713013e-02,7.063350931818442860e-04,8.569918373066884830e-04,1.322953832610335861e-02,7.574833213589317327e-02,6.193320278888227864e-02,1.477089250730962144e-01
1.775600434104606939e-01,6.364596045029757843e-02,1.653257822251453721e-02,7.011070405322292198e-02,2.651867239758599285e-03,3.551701645613101598e-03,3.314303715518734927e-02,7.506273877045611942e-02,1.301970494889070351e-01,1.495244866489153224e-01
1.233578490904939234e-01,5.600388188731787731e-02,1.593444527523259213e-02,1.047019776554426879e-01,3.037387591683422209e-03,4.356329804894003808e-03,4.510546997414515563e-02,4.808010433478215884e-02,1.751383888846595460e-01,1.410041911852237539e-01
4.818074763181281334e-02,4.173828353771222993e-02,5.871731634836346511e-03,1.084514549803378830e-01,1.552527813019364666e-03,2.400510760095891840e-03,4.346858143222651072e-02,3.101851528093839752e-02,1.908357193477626668e-01,1.404483989695606561e-01
2.294818677394653769e-02,2.623429632568061165e-02,5.572313987640951406e-03,9.376967954464553168e-02,9.704499715262033632e-05,1.114020837714559467e-06,3.054185575397527774e-02,4.645706323615297201e-02,1.792643679501762233e-01,1.439284929795630885e-01
3.542838880952066394e-02,1.768845005751432109e-02,1.403669508755407171e-02,7.689606179332857117e-02,6.207275410076547534e-04,7.407876864511214439e-04,1.452854983293833981e-02,8.280653339571883431e-02,1.461582340518500778e-01,1.226011809123916663e-01
2.916635892155531803e-02,1.848984674349323995e-02,2.274417047806536266e-02,6.248663409876643871e-02,3.770814288790122503e-04,3.013057967366227787e-04,1.539322342860781519e-03,1.148242564432642304e-01,1.020291936321854470e-01,6.964354675592697441e-02
1.163316058436498213e-01,2.353625762392494783e-02,3.391247432993154537e-02,4.700082251901454428e-02,1.985488131525309837e-04,4.187007819021174200e-05,9.308355046678953165e-03,1.334269120859069568e-01,5.877329775895135527e-02,2.617331506856455242e-02
1.637591562438962534e-01,2.836028005406221811e-02,4.385565581823187148e-02,2.755031381756153919e-02,2.414338707467224916e-04,1.842285277651807183e-04,2.009123521436204096e-02,1.438489465845973481e-01,2.363866988816532011e-02,3.265506238954393736e-02
1.634546471066753714e-01,3.134045367783447333e-02,5.062812156390568419e-02,4.316186986103620268e-03,2.498734824070446064e-04,2.447141877065421925e-04,2.551826315445896581e-02,1.410712469385053125e-01,4.302365332916031383e-03,7.566914405662110432e-02
1.337293572838965661e-01,2.867140219653709424e-02,6.290901198155532392e-02,2.132799850916130072e-02,1.624345512921999979e-04,1.242415958949354246e-04,1.761662899284103731e-02,1.113341542196360084e-01,3.270801273662337499e-02,1.099902581582163502e-01
8.062790303265215952e-02,1.750825120747142097e-02,8.759730964117513896e-02,4.547054194398515714e-02,9.433471387962745827e-05,4.302814756352888272e-05,8.792090529405518357e-04,6.226211964766607820e-02,6.324360839416605373e-02,1.173535050999249540e-01
1.388005738023192354e-02,3.373321277996587427e-03,1.031785549660270696e-01,5.836179511220428162e-02,7.609191552403268431e-05,5.056297028538175934e-05,1.667364814573624524e-02,2.534405381736646451e-02,7.586433639939674234e-02,1.205255923780605698e-01
4.381835050097419859e-02,5.811563836806943675e-03,6.934204667845980663e-02,4.850635566802976445e-02,5.544854015668258134e-05,4.567164500325566399e-05,2.060210111448131792e-02,2.039383348249862449e-02,4.057646068746889600e-02,1.457004061324186084e-01
8.276752389780682451e-02,1.108287765770990009e-02,1.835351081359786612e-02,1.276123239232175230e-02,1.850967660394655078e-05,4.959463889521330455e-06,1.455900646366208723e-02,3.987824095092325216e-02,4.311551941835120583e-02,1.853039704764744555e-01
1.091422491561951785e-01,1.883865810286624448e-02,1.085156695300271007e-01,3.928326745917280760e-02,9.627248471514530254e-06,2.368259646308045927e-05,4.539188637510454573e-03,7.067782374009207169e-02,1.327529509591649504e-01,2.026273585901478824e-01
1.221799538180885075e-01,3.012139927009472445e-02,1.493521734739708673e-01,8.894787478322055407e-02,2.154558270157096273e-05,2.808108084306613255e-05,5.477139283890865469e-03,1.065129327505572598e-01,1.824210776306456616e-01,1.729375607868478826e-01
1.156746329002658891e-01,4.038381491401367429e-02,1.389801620155399486e-01,1.165192295891704921e-01,2.851079035290583270e-05,3.006492530819425497e-05,1.271365527606817605e-02,1.343166433553060202e-01,1.832589978876580372e-01,1.114093785906316997e-01
8.981297648572249270e-02,4.374014574758040841e-02,1.058897942077144522e-01,1.131639536065447843e-01,3.395752103036336526e-05,3.535483509915245516e-05,1.462123434586789193e-02,1.308737060637486238e-01,1.557438022317871040e-01,5.263256591130866663e-02
4.759279298839461797e-02,3.465850950563836852e-02,6.876119961521101609e-02,8.738305768344963032e-02,3.270062825816971296e-05,3.376033732119910558e-05,1.118597872099164059e-02,8.716281663208023944e-02,1.187901572418373353e-01,1.512299118055928163e-02
2.781994301417223953e-04,1.373146894464812723e-02,3.205521756796383959e-02,5.492533788101725684e-02,2.333820055782639141e-05,2.264716222004465001e-05,6.245418442133434875e-03,2.790994619777870805e-02,7.931383569875320727e-02,1.933943096081303104e-03
2.790511468876344728e-02,8.843400411443845532e-03,1.290660992621388411e-03,2.370529535040335339e-02,8.765302183616034083e-06,7.127474330993487274e-06,4.084156176985895802e-03,5.983034611787776610e-03,4.027085515929579307e-02,1.989550272443376538e-03
2.429873840313435951e-02,2.228270175890418106e-02,2.876744542825872622e-02,6.024181501520995720e-03,9.639893992914932842e-06,1.093564412010901729e-05,5.965752801915377365e-03,5.884653529150685181e-03,5.396335642275331378e-03,1.382780179297348963e-02
1.882927574499886417e-04,2.337811071790644665e-02,4.884902084000936756e-02,3.097403644475339030e-02,3.234510705213248133e-05,3.316582032512207872e-05,1.131228901477400288e-02,4.894948242602122079e-02,2.252937460019765331e-02,4.228366091328283199e-02
3.727403778279599761e-02,1.322788317154834602e-02,5.624294946835517450e-02,4.404758424519311655e-02,5.896756243765605940e-05,5.954642478583008897e-05,1.802480193443366935e-02,8.929427657001291763e-02,4.333025662370342673e-02,7.448862608528832030e-02
8.918898508879707920e-02,4.963920356239352391e-03,4.775291547785543572e-02,4.357843032389419752e-02,8.811288259081651118e-05,8.826948272788420042e-05,2.035324722339668449e-02,1.005929487388280141e-01,5.853672319776169475e-02,9.426005091197450780e-02
1.434087676343862860e-01,2.294308303914933608e-02,3.462306439342595354e-02,3.462836607250533577e-02,1.186649168001306729e-04,1.181608513773790717e-04,1.328660072473888086e-02,8.384328714331897026e-02,6.822249777584300789e-02,8.473476052077982823e-02
1.743205509122373875e-01,3.149300721618942395e-02,3.209759469131569232e-02,2.176134713257871917e-02,1.499087833927289170e-04,1.488098029330608778e-04,3.053791840599727665e-04,5.947999155458567888e-02,7.038252975350656193e-02,4.256845651431166028e-02
1.766213882426671822e-01,3.011773986821827953e-02,3.334127968878924930e-02,8.996103933792031632e-03,1.809620965983008438e-04,1.794663741209395562e-04,9.665999920803147044e-03,3.847403448911245610e-02,6.676595075993359274e-02,1.553578942760860948e-02
1.680144920809334697e-01,2.710929262333196255e-02,1.497262264107670354e-02,3.688704867062334806e-03,2.107450976641343505e-04,2.089999283712128272e-04,1.205255239786199098e-02,1.625630788541728572e-02,6.558204176781187722e-02,6.301561720907689068e-02
1.546129347201578852e-01,2.794921502395031343e-02,2.608230097106062698e-02,9.210463115645686066e-03,2.382814731244158296e-04,2.364482232035414752e-04,8.085691537508214038e-03,5.620204170181627643e-03,7.128903744105528906e-02,8.324076778951690347e-02
1.197480686128665622e-01,2.724568848312817343e-02,6.519674483850000646e-02,1.614224449865245964e-02,2.627501818615376192e-04,2.610765034852072534e-04,2.060135775535606485e-04,1.575954230347134666e-02,7.488702266445787514e-02,7.983689045219619085e-02
5.514731138369410174e-02,1.566187163871544247e-02,8.491728388585963183e-02,1.124077915157079346e-02,2.833778682575476405e-04,2.821530015211326059e-04,8.473967302070613966e-03,9.384084250334254196e-03,6.277827230721326479e-02,6.471523698895600973e-02
1.439852891331823599e-02,6.098785683926704129e-03,9.175588810008512841e-02,6.784329686184082178e-03,2.994435888546762145e-04,2.989484974694423740e-04,1.325549048652439887e-02,1.170561891101559032e-02,3.321790067354334769e-02,4.085820256450621579e-02
4.871526297498278424e-02,2.488526867874135684e-02,9.370134529451901173e-02,2.827408993461876310e-02,3.103564858271229648e-04,3.108687522571232983e-04,1.112593849814197747e-02,4.533825768589253014e-02,2.294791068474706826e-03,4.887103984431307585e-03
3.150386241563803147e-02,2.874783071244507021e-02,8.640075896821321211e-02,4.568781667353287446e-02,3.156780235295004056e-04,3.174803030302801522e-04,4.085286302597206445e-03,7.571693168290351272e-02,3.029147133770410463e-02,3.565102377816239954e-02
1.341740643904966099e-02,1.899906103761780235e-02,6.751944136691703791e-02,5.772206251288593964e-02,3.151050770083131778e-04,3.184687861815082687e-04,3.569721150700853364e-03,6.990919610663071104e-02,4.314555231642143440e-02,5.329038495255882663e-02
4.880781810321533493e-02,5.418468522987559578e-03,4.519586548080384292e-02,6.344821360358607332e-02,3.084737164979742046e-04,3.136419063940495792e-04,1.082948454531817810e-02,1.113209433291190154e-02,4.058206295070552333e-02,1.666514550984790274e-02
6.181857900888199780e-02,6.393995569893451414e-03,2.642612903712378628e-02,6.027298359493437480e-02,2.957764386785757598e-04,3.029596829271087415e-04,1.923060786574358125e-02,7.264977329006613860e-02,2.819677009375713694e-02,7.248187064226765952e-02
6.219100126810720580e-02,1.746724219118461416e-02,9.207313521162576592e-03,4.750872054740487571e-02,2.771645068546469489e-04,2.865389823416562344e-04,2.641743425224820502e-02,1.311437584417043389e-01,1.237787452718832129e-02,1.643182146122295351e-01
5.121495875476760745e-02,2.837252770883724046e-02,1.003044565113145672e-02,2.737764936722768966e-02,2.529383519903937783e-04,2.646396710892826671e-04,2.651289367142687509e-02,1.384875211307319276e-01,4.602784309288079044e-03,2.034880158795431271e-01
2.175470032405570769e-02,3.685393145032767048e-02,2.934326355478607262e-02,2.999108193340799429e-03,2.235393771365689112e-04,2.376572699351982764e-04,1.876031730205476172e-02,1.057005098129385756e-01,2.324544264411273695e-02,1.820465419745871949e-01
1.553047661620955006e-02,4.094981470947432756e-02,4.491789682846759890e-02,2.129562035108870099e-02,1.895421161229910063e-04,2.061190924036652549e-04,9.544351747331866059e-03,5.611619575072551713e-02,4.175281499640118993e-02,1.328473665383105018e-01
4.200564022780264861e-02,3.781585760431575849e-02,5.620005578098399152e-02,3.880401318812007339e-02,1.516407847579349097e-04,1.706724214433786170e-04,4.249597872425342829e-03,9.649882578717898507e-03,5.454272099784201328e-02,8.523135253542137024e-02
6.135628402351234884e-02,2.335896482697840879e-02,6.390584480027898528e-02,4.415702428824298115e-02,1.106310628851113486e-04,1.320663637457407955e-04,2.359055039998525418e-03,1.538114190926705670e-02,5.628364994118014580e-02,4.893919078311465692e-02
8.214295487083038416e-02,1.518766936930478683e-03,6.626765415864752096e-02,3.919523677717227927e-02,6.739044009646852189e-05,9.113324281921334109e-05,2.554999716478447173e-04,1.315794980844844746e-02,4.761165923243546733e-02,2.604618346171696033e-02
8.087510021948191019e-02,1.196547724914210145e-02,6.037030995591589899e-02,3.201627453241265298e-02,2.285740232478972297e-05,4.876942008812277591e-05,5.472022181722420095e-03,1.639542117374052227e-03,3.700742886898981954e-02,1.562866942292685107e-02
3.012677406354524051e-02,6.369288983194183046e-03,4.594804150386915670e-02,2.870552988170092454e-02,2.199138609365295261e-05,5.913472916205384964e-06,1.544280131690190308e-02,1.628417393781450215e-04,3.414310532958270833e-02,1.327650262263211853e-02
3.734323425508213196e-02,8.091701556567822834e-03,2.638605072220008910e-02,2.728001978454505996e-02,6.616526791614518906e-05,3.647749640490776290e-05,2.486093859463168673e-02,3.875176762494636148e-03,3.764757073560563716e-02,1.628173116070883580e-02
4.554463811639988813e-02,1.272540659184105000e-02,6.803834671676859021e-03,2.061675085663244172e-02,1.086839189456953523e-04,7.745163959421671508e-05,2.691231812338242338e-02,7.502930553106553282e-04,3.288029040472122133e-02,2.228707267479393406e-02
2.663600782140980797e-02,5.066018350864304881e-03,8.013113442320368360e-03,5.791579544524040266e-03,1.486012480075200610e-04,1.160857335210888509e-04,2.139223338255450552e-02,2.893644068637970211e-03,9.385868684245179949e-03,2.305376620005093052e-02
1.125313701918057296e-01,1.043557677797648598e-03,1.455201512894523444e-02,9.894516820339750024e-03,1.850285834472860402e-04,1.515081212785055354e-04,1.542999479558025862e-02,5.797437139102848067e-04,2.211301210820226099e-02,1.225458472244360213e-02
1.457923227696505397e-01,2.222898189708945663e-03,1.152814203118031691e-02,1.527800115299073405e-02,2.171565681271151284e-04,1.829206121594849040e-04,1.356561930466950762e-02,4.867744375449090458e-03,3.989871666141783790e-02,2.753244760815304164e-03
1.340166949229067428e-01,7.297516844241819234e-03,1.463844899781305622e-03,8.560071906668952416e-03,2.442750866969928074e-04,2.096185289474649142e-04,1.311360396943121558e-02,3.535659098486656354e-02,3.614314525651344395e-02,9.879583905632274843e-03
1.215618525038213715e-01,4.440666064916308671e-03,9.935812236102800968e-03,1.046105848375474337e-03,2.657907393704613008e-04,2.310084128458365319e-04,1.154491581150865302e-02,7.062391513713270341e-02,2.090802748355474402e-02,8.579793087274682761e-03
1.239272760099567328e-01,6.568400408192096723e-03,1.793308120325218247e-02,6.857424494625094340e-03,2.812414986608966459e-04,2.466230620833628241e-04,1.067680158330656763e-02,7.565924336148863172e-02,4.228426205405215813e-03,6.487851901123517159e-03
1.211587238986344961e-01,1.851556021728490917e-02,2.144545066461290422e-02,1.263583506681625022e-02,2.903081882732754145e-04,2.561335169370588822e-04,1.018075030056896438e-02,5.273973276139496541e-02,1.208756114711263471e-02,7.735336053267821352e-03
8.702912491571573872e-02,2.275466539414510228e-02,2.147008647405216838e-02,2.272113531045141452e-02,2.928224708711137840e-04,2.593576264297354941e-04,5.606468750626748127e-03,3.732265862242962334e-02,2.438048503148916926e-02,1.282096903063840304e-02
1.678154010118858633e-02,1.442480946583201036e-02,2.009341040553945523e-02,3.181335290636777557e-02,2.887711472078410813e-04,2.562649757519393960e-04,2.620637719847157456e-03,4.475436140621331937e-02,2.345758478108332656e-02,2.034797385542412573e-02
5.624436818282820688e-02,2.205781535307551732e-03,2.056703151132423593e-02,3.167944181491902378e-02,2.782966736509009378e-04,2.469780687486231876e-04,7.015888036512171397e-03,5.595536564490070919e-02,6.945996030032489804e-03,2.497570234666694061e-02
8.062752329041920907e-02,1.553165827461919744e-02,2.262957448559546961e-02,2.307670365030306189e-02,2.616938834207261288e-04,2.317697251021028689e-04,4.493689853220371455e-03,5.585198714992641728e-02,1.459778176169044227e-02,2.389046674006556348e-02
3.924962315728600104e-02,1.690576091040753293e-02,1.858778322866845231e-02,1.401153369009056938e-02,2.394029827430444899e-04,2.110567337597898734e-04,7.556366523331485043e-04,5.037462622850607391e-02,2.934998342015734257e-02,2.470106287083975380e-02
3.342284833082642681e-02,5.919803613157669994e-03,2.197942172619102210e-03,9.684879188194170721e-03,2.119989907468856807e-04,1.853899102272992916e-04,4.325935616620692811e-04,4.265847075737645711e-02,3.439964006638875083e-02,3.692268961085776874e-02
9.372096938013799172e-02,1.350826024450746746e-02,1.878262552325823259e-02,9.806693322664821952e-03,1.801778822887695837e-04,1.554408010972333518e-04,9.541113866964567565e-04,2.871242685341450496e-02,3.177140229190380388e-02,5.666489923207597423e-02
1.247229071984963522e-01,3.488700984000654010e-02,2.828667365143047729e-02,1.240571461186947173e-02,1.447397705968273809e-04,1.219853573534635573e-04,1.794747802336476737e-03,2.327538845291517167e-02,2.307691454142410739e-02,6.613474981306739775e-02
1.252566558479905057e-01,4.795226450105737059e-02,2.139754925601435737e-02,1.576044136949155197e-02,1.065695375678720006e-04,8.588497146882048737e-05,1.468595838821360258e-02,5.309215132924103436e-02,1.112834142083539944e-02,5.077616658593714360e-02
9.096008630389376681e-02,4.380948846004301123e-02,9.485348803671165424e-03,1.871039794586833171e-02,6.661538354474058935e-05,4.806534271332315558e-05,3.414024018203606209e-02,1.110758670249364644e-01,4.834050895411324406e-05,1.813971677414777731e-02
2.238029572852280255e-02,2.316129169508202024e-02,3.856295424050425451e-03,2.101962731271801027e-02,2.586582026764597920e-05,9.493691736494906034e-06,4.511151889263265158e-02,1.489444441414939646e-01,8.436167901208510220e-03,4.751571606609675258e-03
5.673145356310521636e-02,2.720006472029931708e-03,2.943044863235111559e-03,2.257212247007487141e-02,1.467433161770516432e-05,2.884511329468653833e-05,3.909161209460977615e-02,1.312734329881613815e-01,1.450275048123907465e-02,1.163389043276337508e-03
1.073309192449446725e-01,1.984648424486227733e-02,4.808511845380722361e-04,2.285924024094967630e-02,5.400835484435777018e-05,6.597292876381635437e-05,2.260937014370124204e-02,7.250117169646713711e-02,1.632342657746923067e-02,2.757144528650757806e-02
1.147639061230539270e-01,2.240804075050221306e-02,1.798552821915207472e-03,2.153253081777095970e-02,9.117186131787981024e-05,1.009426010587221185e-04,6.081619599987084235e-03,9.355931675701929795e-03,1.144548923954763486e-02,5.199491303563363864e-02
1.099785278867843191e-01,1.767740759122981425e-02,1.691113595168102900e-03,1.831414975520601757e-02,1.252562391916416671e-04,1.328615212882067610e-04,6.665931979614216074e-03,4.023226856655051642e-02,2.231033219570211293e-03,6.176294326571460380e-02
1.302613952528098307e-01,1.897777114631655007e-02,8.696218290979653917e-03,1.372978743550250930e-02,1.554307478355058361e-04,1.609138814477830315e-04,1.653346295581739275e-02,7.872900155053469406e-02,4.274699477387867812e-03,5.891573468949506259e-02
1.678295566362809910e-01,3.261043839970994423e-02,1.085795905709460718e-02,1.122831945046079763e-02,1.809627201180775339e-04,1.843810750742622725e-04,2.363612635147718105e-02,1.065294277338361129e-01,2.887338465815304876e-03,4.982398658133364855e-02
1.823158855239001008e-01,5.129380035369842522e-02,4.874660785314890651e-03,1.511955049131849006e-02,2.012353773126086679e-04,2.026597299481424025e-04,2.615215829700950553e-02,1.137144173214154896e-01,5.473683556417655027e-03,3.765646704156284941e-02
1.600474063644202749e-01,6.157922254043091126e-02,4.686248850887044480e-03,2.344895246264575017e-02,2.157628199645194721e-04,2.152769178436675823e-04,2.269808514174074393e-02,9.312031725270661364e-02,1.573218746914850988e-02,2.250875882566381186e-02
1.355192073127079733e-01,5.918377183716594381e-02,1.193693924848904762e-02,2.658947926614008139e-02,2.242018268596224825e-04,2.219021553714129510e-04,1.465173556886766211e-02,5.329693854941292691e-02,2.281907140179065610e-02,4.721795173683642106e-03
1.433379986862892419e-01,5.198237838080667361e-02,1.457783580467006575e-02,1.764689076776233823e-02,2.263601720536888632e-04,2.223558887700677767e-04,5.752839209844429202e-03,1.422627316417962758e-02,2.455669085920076863e-02,1.240138881233752814e-02
1.634038302450467606e-01,4.394264580699479977e-02,1.361146666397795510e-02,1.809761940096176695e-03,2.222012548486625139e-04,2.166142421126844033e-04,4.761611370056961865e-04,7.177622469729194599e-03,2.249660692413092342e-02,2.303918860546185290e-02
1.393705063601185512e-01,2.733696877489706634e-02,1.127487530414114821e-02,9.696910552029211830e-03,2.118449275951188662e-04,2.048099007367001217e-04,2.406469197907489064e-03,5.657682848820428691e-03,2.035663829124080212e-02,2.267194559575068033e-02
5.358428648239745018e-02,7.204525989167461734e-04,9.312004623878659265e-03,1.260757083975906287e-02,1.955644990796283594e-04,1.872290975245103782e-04,4.053408927724868162e-04,1.358095167100425646e-02,2.054393856835723398e-02,1.174385784888597878e-02
4.547902742842870050e-02,2.749183555825977787e-02,7.967177718252969887e-03,1.131835065500165494e-02,1.737799847361029266e-04,1.643047665465547378e-04,3.136129383523241464e-03,4.063669062595202941e-02,2.108144049969609690e-02,4.285422440468738409e-03
9.839797253052313952e-02,3.938661284072690616e-02,6.238545083391776845e-03,1.037477573498124181e-02,1.470477667153222568e-04,1.366060241168321203e-04,4.827388429718639309e-03,6.751811392062409545e-02,1.692629119412588853e-02,1.841755830447708991e-02
9.082005815593256759e-02,3.560983477820237747e-02,3.484869427212088002e-03,1.001372987240466139e-02,1.160469147201986540e-04,1.048242291376017264e-04,3.286287037921604808e-03,9.226217958732878255e-02,6.558831310654968105e-03,2.603680562425237516e-02
5.148171050286230732e-02,2.372593186268841248e-02,6.667438356722995034e-04,8.517183973055677051e-03,8.156250031563933034e-05,6.975596043661090996e-05,3.558757468931469025e-04,1.148539437252098228e-01,4.017640895633887640e-03,2.489200666360980030e-02
1.788613871524465798e-02,1.337366723640978639e-02,8.037150881905493578e-04,4.545446868391720373e-03,4.446631114680905304e-05,3.228332646862917143e-05,2.092698189927421921e-03,1.267772836678967563e-01,7.296939708090403702e-03,1.167257978743105502e-02
4.918222355957045829e-03,1.298605132226079983e-02,1.058445494254823356e-03,1.969965527151842314e-03,5.695435348018409874e-06,6.647909692844594681e-06,4.791637476706695452e-03,1.121784234403523650e-01,3.039528936234259932e-03,1.616977947748140729e-02
1.640419181287167735e-03,2.215163297930952679e-02,1.317098000335489068e-03,8.489120603598354631e-03,3.377076117270534769e-05,4.605185141298917339e-05,8.423671463022516792e-03,6.971985837257103913e-02,2.748113268819183004e-03,5.152475864089468838e-02
1.543520358507508017e-02,3.024595741312365721e-02,2.102818399207232597e-03,9.944910192665709289e-03,7.293470223598770607e-05,8.492705444409703939e-05,1.046111812196457921e-02,2.606499771452648953e-02,5.679071406022070945e-03,7.664908392554807548e-02
2.363381734879716964e-02,2.827429648452295732e-02,3.347959832260977760e-03,1.960622422200025781e-03,1.108051254126224058e-04,1.222815684429061800e-04,7.892549351265029656e-03,1.121759518920157489e-02,5.139231139154962040e-03,7.854636962523517396e-02
1.062871253267881275e-02,1.646022621380355613e-02,5.119423882247616658e-03,1.496280983010047153e-02,1.464214626960336815e-04,1.571578116457071053e-04,1.964223669376419061e-03,2.441498971308912747e-02,1.048331876034224331e-03,6.255818546452360240e-02
1.005861720234834528e-02,7.122727907929423188e-04,6.839190742817893333e-03,3.384832271105066293e-02,1.788774809969153137e-04,1.886566586441783050e-04,2.878087366674328147e-03,4.051087125581657317e-02,5.231613841432066793e-03,4.477614635117330155e-02
1.562393664850586332e-02,1.799901180623790509e-02,7.266573921438977332e-03,4.510986410703819033e-02,2.073436033255827678e-04,2.159601389877916118e-04,4.240429144966362252e-03,4.258556039338053795e-02,8.594642063925395786e-03,3.384639874561243961e-02
7.371972774511384788e-03,2.860357452570520126e-02,6.338795777788017519e-03,4.426278263829092063e-02,2.310873634252914258e-04,2.383521771532206928e-04,3.540829679669560328e-03,2.835323801347633746e-02,5.344978810985567992e-03,2.677884662310390032e-02
6.147100234028575342e-04,2.881747761605321645e-02,5.454205381543968459e-03,3.511945519587920950e-02,2.494914917864226884e-04,2.552368514954761187e-04,2.897757867747586397e-03,5.052012628581051615e-03,8.528509228520716112e-04,2.087499928191150628e-02
6.847449405362813005e-03,2.244914839841416487e-02,5.381898112532864514e-03,2.407578965268963866e-02,2.620691883768252886e-04,2.661537100006287492e-04,2.524680764268731267e-03,5.505220719630138371e-02,3.801478938029847869e-03,2.069799701320573088e-02
1.744301394123748405e-02,1.571428714667756979e-02,5.478776174837661148e-03,1.384581094471200834e-02,2.684762060336268684e-04,2.707897525376394207e-04,1.831751312038856078e-03,9.717952704312157741e-02,3.252901233601291839e-03,2.916948816430982652e-02
3.018754412532681508e-02,1.109149257586364290e-02,5.152765925670519526e-03,4.759144238319322484e-03,2.685194464861277415e-04,2.689877711045127531e-04,1.416047226052168442e-03,1.021761094421322208e-01,3.279810700206413007e-03,3.881712698529716371e-02
3.406211843901225944e-02,8.490815243736892295e-03,4.628592947950272915e-03,1.667242921460656679e-03,2.621618557517709988e-04,2.607508292775975690e-04,1.995377328082862094e-03,7.397419653242193194e-02,5.019145551586508269e-03,4.024788110255993895e-02
1.907915605060752501e-02,7.683970488934764240e-03,4.129266191854107614e-03,4.039273497800265761e-03,2.495234953464844549e-04,2.462427574955808329e-04,1.997856827100667147e-03,5.228107901799696616e-02,6.256788235219512377e-03,3.603594082030191909e-02
1.343035426661555280e-02,7.544565073941103713e-03,3.479898107079062997e-03,3.291227269454045749e-03,2.308787598361485168e-04,2.257846395864408079e-04,7.666799503813273835e-04,6.852653475601121202e-02,5.554017757068071062e-03,3.652737793009228073e-02
4.676647899998643415e-02,6.568916255555194358e-03,2.742070013331485319e-03,1.074367963639129980e-03,2.066498069539550659e-04,1.998473656309834021e-04,4.709457397764533343e-03,1.090920084217976704e-01,2.576661103491695304e-03,4.326153736518714710e-02
5.806562729637983894e-02,5.485037392844872850e-03,2.257270817256511620e-03,1.519028433000870360e-03,1.773963579529820003e-04,1.690404243754089130e-04,5.454818105807577276e-03,1.326067011622167613e-01,2.549518608452543307e-03,4.731891771868711877e-02
3.874454684719198794e-02,5.650801054774595884e-03,1.739171147622436270e-03,2.818521885052047322e-03,1.438021117458818110e-04,1.340972025139518839e-04,2.080742925255803406e-03,1.170628462889689442e-01,7.233338440151252866e-03,4.363819852768768132e-02
8.039886908707719743e-03,4.288729835001187790e-03,5.348184339809972446e-04,1.702750393803134903e-03,1.066581021610248596e-04,9.585714590962277710e-05,1.538554745227516769e-03,7.641178154903631448e-02,8.358941580588126127e-03,3.574019894670418113e-02
7.132027196648867313e-04,2.937367293205099712e-03,5.382697742159891358e-04,3.018361565574213118e-04,6.684340943114335041e-05,5.524521700621836437e-05,2.424472424019724279e-03,3.474667178544418172e-02,8.935355891221616331e-03,2.656009597930191965e-02
2.977359762096724524e-02,1.410569856502076093e-02,5.867267000940930288e-04,2.102094499216463405e-03,2.530369662957302206e-05,1.324915131404185732e-05,1.773242494236815063e-03,5.785658737724711127e-04,1.644503434263721448e-02,1.524488392002986380e-02
8.877598840602700381e-02,2.365056974080740823e-02,3.709415215914045952e-03,6.955598317399781273e-03,1.697191889933143312e-05,2.910492781286780589e-05,1.810562779482539214e-03,2.912168520788972065e-02,3.092905899925189189e-02,3.020576262332447508e-03
1.498094362026084203e-01,3.286231738235649569e-02,5.255583091802343808e-03,1.060312974603990106e-02,5.897509631341550543e-05,7.077793428689364906e-05,2.499698357203458503e-03,4.966165238471038912e-02,4.170302055738125263e-02,6.419761797861972194e-03
1.838653399147016088e-01,4.717311837404819519e-02,2.876522974123716866e-03,9.601142477607800541e-03,9.970298289808966210e-05,1.107436546927808164e-04,2.499301133730463982e-03,4.616418802086939832e-02,3.996290771990450297e-02,1.289020361920374669e-02
1.680040047208298526e-01,6.188238357340164475e-02,1.069294672752606808e-03,5.094230134224397161e-03,1.381827964907429208e-04,1.480143521950995236e-04,1.651772301314577808e-03,1.556208829071702507e-02,2.843211315227654051e-02,1.972524290897013921e-02
1.000233497670721672e-01,6.362034771882732476e-02,2.963533391403540621e-03,1.063335158675586881e-03,1.734957379586668763e-04,1.816655008699472051e-04,1.171084945042746069e-03,1.987589491257698432e-02,1.589238695838108076e-02,2.661519527128954413e-02
9.790991736473539028e-03,5.001812769567341721e-02,2.576422368082257469e-03,2.205183431610189745e-04,2.047996598670232210e-04,2.108590319788390731e-04,1.704904829226440693e-03,3.444141331630058006e-02,7.917612614005187927e-03,2.809514821659713640e-02
5.513064352196943296e-02,3.532501228758075373e-02,2.003156283569255177e-03,1.866025770746694221e-04,2.313498033390342344e-04,2.348645087376423650e-04,2.446080459236560454e-03,2.658024486211852180e-02,4.848644064104413662e-03,2.240152687344509549e-02
6.218780761630875176e-02,3.204847701195111254e-02,2.056193872279066248e-03,4.114814814209137670e-04,2.525170623476028376e-04,2.530776957817811924e-04,2.512719160664140042e-03,1.129151163164368241e-02,4.479383692447704186e-03,1.640015424491875207e-02
9.752962278408779107e-03,3.914888042218542946e-02,1.966623041810760392e-03,9.865966955774851076e-05,2.678036046051699088e-04,2.650360526045473608e-04,2.103664471489274587e-03,5.286691640859345238e-03,4.601946757057913742e-03,1.673322600519716943e-02
8.123451032307454911e-02,5.082338291161769134e-02,1.410047390662366382e-03,1.637356172223638530e-04,2.768555356728775335e-04,2.704307552307058248e-04,1.788119731377145168e-03,2.758927610851737502e-02,4.284093548486134218e-03,2.134663456625281522e-02
