4.554927613244861423e-03,4.889755713513761932e-03,2.010619742323042913e-02,2.252218064241633816e-02,3.414847672238235064e-03,1.047121842214981773e-02,2.057602134492397816e-01,1.296995331008619912e-01,1.168783481634732592e-02,7.908109945464900092e-02
9.204678699516815124e-03,5.933572786416907094e-03,7.105941991228634930e-03,2.330788491562288053e-02,3.270395456456932741e-03,8.929133378749700561e-03,1.050249612413234335e-01,2.336649471580161119e-01,1.606588258148712589e-02,2.032006049200612008e-01
2.621642427179216722e-02,1.672566804249275146e-02,1.184457154243213212e-02,2.234240427360987755e-02,3.770133008731084596e-03,6.249300157696317110e-03,8.073505541539391372e-03,3.483440849289414221e-01,2.095884555461476409e-02,3.060569234672135819e-01
3.915705886303167543e-02,2.201594147573059795e-02,2.485975128010363411e-02,1.875371138396641699e-02,4.398199819294886480e-03,3.107201159816364976e-03,9.243225695945596343e-02,4.055278207225828102e-01,2.491661496721557859e-02,3.724054007540835154e-01
4.826705814020351010e-02,2.217386352025660715e-02,2.660158961936647665e-02,1.243425168577313132e-02,2.985261101486484051e-03,5.800255993238784659e-04,1.987938358661135441e-01,3.847132755488678058e-01,2.643985721327948152e-02,4.085568230441895543e-01
5.294317729877610207e-02,1.912202936361717676e-02,1.058450261484817148e-03,3.491583994698762086e-03,1.462889688064900832e-03,4.849307374002210028e-03,2.934585179741196481e-01,3.300736296084676447e-01,2.610686429809692607e-02,4.203977171267429536e-01
4.878982200581303413e-02,1.336990551316244967e-02,5.123154530674748491e-02,7.488294350102100462e-03,6.662973623162204116e-03,8.624222809797372352e-03,3.448139552321347612e-01,2.914643812309863358e-01,2.677939956074098724e-02,3.972988043587252771e-01
3.626400863272278424e-02,6.751603946200030772e-03,9.117981373655369148e-02,1.799686011608630717e-02,9.350309297534539765e-03,1.103692698996652094e-02,3.379983499062375052e-01,2.774850948229558578e-01,3.074677703622362424e-02,3.374100280139372132e-01
2.646815016038261276e-02,2.370139650494544354e-03,9.211200555048584815e-02,2.396691200139943953e-02,8.413025113277185565e-03,1.263198466557433064e-02,3.058184668899789349e-01,2.647868188085222285e-01,3.714097462344095879e-02,2.748953103987248348e-01
3.312705043195694060e-02,5.072114693680042407e-04,5.738657652231587969e-02,2.319182597723608991e-02,4.890318382393806992e-03,1.382668504375455555e-02,3.003725704065370872e-01,2.308526101785077500e-01,4.391626030110567375e-02,2.488639287006177980e-01
5.776926645648672309e-02,1.580817711252596302e-03,1.950978831889511877e-02,1.765557415088059301e-02,5.735293100948509783e-04,1.432079997899158783e-02,3.392254432382166840e-01,1.771303963173167240e-01,5.141667777053680194e-02,2.528513874464938804e-01
8.590005702270031573e-02,5.522421737919150711e-03,7.742727378262648230e-03,1.123935166190481380e-02,2.958446413827512181e-03,1.501993571065137791e-02,4.112461563435508838e-01,1.326548561390028247e-01,6.031275827600625361e-02,2.462453374521000604e-01
1.001040664789309836e-01,1.004662900854402102e-02,1.954078833177941982e-02,5.761136426355538583e-03,5.033871492188581216e-03,1.695960718779897236e-02,4.991161298152619885e-01,1.261592579538410863e-01,6.802226995115941144e-02,2.083842372385709962e-01
9.449731983478312780e-02,1.328993715802450834e-02,2.961426236763788425e-02,8.238536434469833454e-04,5.272720657102007193e-03,1.774407352814979383e-02,5.567682304771643942e-01,1.465670285168674536e-01,7.393890939584177313e-02,1.533116752642646741e-01
7.587504830029358216e-02,1.512422838234031390e-02,2.412112333876551690e-02,2.457642127429963182e-03,2.695506269200669859e-03,1.410937736553232076e-02,5.270851392458305584e-01,1.534014563708374357e-01,8.375012221444055882e-02,1.017055230806918065e-01
5.470649580149555824e-02,1.636588525706551139e-02,1.365548576941576567e-02,2.207085884743661486e-04,2.480084776368718900e-03,8.557942990447191950e-03,4.307445069048990161e-01,1.325140871458722613e-01,9.547880423220445056e-02,6.892296709353247508e-02
3.639570695333163575e-02,1.619895826629026703e-02,1.336483085396583843e-02,9.232185402988269882e-03,7.109730469232460916e-03,7.471049411727315008e-03,3.677841955773402116e-01,1.086571699506124061e-01,8.733963088771183603e-02,6.946281356360234360e-02
2.079791192510947739e-02,1.195898640903064573e-02,2.438072851513546288e-02,2.100959871508590454e-02,8.014181578944731127e-03,1.181787746832289009e-02,3.813977389161438136e-01,9.899971788700230590e-02,4.152531385928164703e-02,9.798821554369567532e-02
9.468447998344575040e-03,2.446248891937424785e-03,3.783313804521428597e-02,2.774814728679884240e-02,5.634518398751033746e-03,1.571856078869020637e-02,3.931043122614093499e-01,9.294593771824274930e-02,2.289916935220783975e-02,1.165914591286979357e-01
7.156491369522869836e-03,9.332919884824314796e-03,4.574240156267513069e-02,2.741546011273069197e-02,2.590476127185406281e-03,1.497380069834468655e-02,3.263375623500668898e-01,8.264192384902734057e-02,6.537745791000534878e-02,9.671335201061730114e-02
1.225137987518265872e-02,1.780899182464639949e-02,4.287924545643554547e-02,2.343897462447004643e-02,1.060048844809833240e-04,1.128930509780783770e-02,2.203214915339425650e-01,7.628812663101115776e-02,6.957958175933731670e-02,5.909637082777396966e-02
1.428683087443780031e-02,1.981342975428423622e-02,2.764180430425855484e-02,1.841915089934020172e-02,2.169527055992916554e-03,7.411277833415015788e-03,1.557741755180164778e-01,7.436156228800773482e-02,5.146530405713788114e-02,3.887134386386077722e-02
6.791210176888611179e-03,1.776369953253856618e-02,8.385096668729878633e-03,1.236248052536367131e-02,4.199283614434396426e-03,3.449897523837425206e-03,1.319742197618508084e-01,6.273869127063555484e-02,2.872268433228854223e-02,3.486599083173093361e-02
5.513177514435580254e-03,1.623505964933598736e-02,2.679290590077484241e-04,6.129425620085559266e-03,5.207497604461702213e-03,9.421557580346034792e-04,9.369225626073550417e-02,3.585130570360994806e-02,5.746951512063287748e-03,2.678182997344315946e-02
1.616771332185641674e-02,1.541133384344005319e-02,4.324262953882486611e-03,1.969756430768970432e-03,4.827296775818481524e-03,4.841620175161281785e-03,3.389285220586726183e-02,4.906496356473621229e-03,1.608221874904492560e-02,1.229688595842659202e-02
2.502699413133196299e-02,1.175929763293497021e-02,8.081365565878477833e-03,1.161121267674943610e-03,3.801171839764315268e-03,7.503430636826477138e-03,8.467916623797706877e-03,1.962244923566521665e-02,3.405812166818875802e-02,6.410405086794038199e-03
3.342325533296233719e-02,5.481284431606059382e-03,6.869773724012193106e-04,3.721399640458844613e-03,3.414833547825762115e-03,9.163246544199844801e-03,2.890480415056342206e-02,3.876359147057917287e-02,4.919379516133127322e-02,4.117526323956766793e-02
3.780945385996183766e-02,1.569061345658228452e-03,1.221169294200324940e-02,8.422666449970847569e-03,4.067179831723207427e-03,1.022260521306181912e-02,6.825279580144553992e-02,5.805671944613154112e-02,6.294128288529504678e-02,9.127734420404773341e-02
3.248388798070930839e-02,2.605156490772045363e-03,2.452349777431011429e-02,1.190276428188933970e-02,4.772834090031960290e-03,1.075789922231614078e-02,1.441188298839722326e-01,7.809376090381443813e-02,7.280542937211174903e-02,1.281166583529306513e-01
1.753451521009811304e-02,6.469034563358677659e-03,4.188150892233827999e-02,1.122567914955203278e-02,4.715776889297955236e-03,1.040350492766355626e-02,2.147350992935238290e-01,9.410061507320094387e-02,8.040064570212415718e-02,1.329047675697195841e-01
1.358476723956359659e-03,1.151087105460555336e-02,6.546385313418658092e-02,7.737926947279082437e-03,4.532753372170865783e-03,8.699146331599722989e-03,2.238173828936269316e-01,1.038531190536377824e-01,9.230491706267800189e-02,1.201011354664443809e-01
6.972006673170955821e-03,1.801374642104122334e-02,7.430723667108252162e-02,5.156260136471661412e-03,4.891709068742451129e-03,6.013784832973458755e-03,1.602195215632860603e-01,1.098757946944806801e-01,9.865058629458794970e-02,1.005778122718237882e-01
6.488496406370802307e-03,2.416316660966730603e-02,4.358177850535954745e-02,5.030315805318610889e-03,4.503023078525254970e-03,3.028782794086919312e-03,5.940617145163942792e-02,1.102006679933432431e-01,6.799660365510544480e-02,5.718333389746287770e-02
2.383170820930397005e-03,2.582703912146408487e-02,1.815915363729363879e-02,7.147390596314672981e-03,1.034901769860785761e-03,6.561023024478957084e-04,3.268803628371964864e-02,9.852850527249409907e-02,1.249769632842848144e-02,1.112646068112882296e-02
2.577198327230886647e-03,2.138231171388338056e-02,7.009242033482253331e-02,1.218864917568239850e-02,6.095475021468558206e-03,5.211737364305167770e-03,7.614873190458668062e-02,7.991692563202824895e-02,1.060899018448032693e-01,5.491079516897005852e-02
9.567963962539095812e-03,1.348243086251919853e-02,8.564174495862360292e-02,2.040899209709511400e-02,1.470708033998275460e-02,8.456465033710013762e-03,4.664088907563377490e-02,7.117312485893841079e-02,1.605169148037084992e-01,2.778044113972606005e-02
1.795099859135472486e-02,5.851244064790438876e-03,7.881319541229915571e-02,2.857581310332524965e-02,2.137444533999544385e-02,7.958115914481016934e-03,3.647927630592054382e-02,7.719879473833980710e-02,1.614432074357449176e-01,4.674334894176253308e-02
2.454008208214214851e-02,8.924907908620814592e-04,7.486446931215608169e-02,3.113806479111972531e-02,2.349512777354035437e-02,4.501981528819296030e-03,1.134313657520446411e-01,8.093851610311945943e-02,1.336715908309013823e-01,1.049700889034272944e-01
2.913421794714802018e-02,7.330598941601301505e-04,7.696182465044171250e-02,2.530048171087500436e-02,2.043471511684624708e-02,6.771175281336673079e-04,1.451559040629679664e-01,6.597275615742870247e-02,1.025428405343910970e-01,1.247506475601640186e-01
3.400410123469461976e-02,1.087053966592217659e-03,7.605817131740687242e-02,1.386028845314923180e-02,1.356155388201158232e-02,2.704145274266592323e-03,1.493735250384568281e-01,3.835487446143880097e-02,7.053982523301190188e-02,1.333925987602667396e-01
3.635924192370867947e-02,3.409546017694015368e-03,7.187259010893214117e-02,2.748899946585140093e-03,5.606459217527181432e-03,5.918699028254763468e-03,1.549982417457763384e-01,1.602682806629479248e-02,2.785923386095769463e-02,1.445180057211624680e-01
2.903277892218180528e-02,7.478470757406468356e-03,6.729242653608591418e-02,3.095494510505590775e-03,4.906218180741369738e-04,7.855226385528771976e-03,1.533320168531518424e-01,4.191440976588540340e-03,2.016995161792669092e-02,1.383109703055720452e-01
1.184205298724954648e-02,1.021143937217310234e-02,6.234852489322178365e-02,1.709393402037318391e-03,3.260820089120330251e-03,7.617454000644571267e-03,1.235719290609371412e-01,6.091004170585421346e-03,4.333864516373719250e-02,1.081428354387307805e-01
4.799871847486932887e-03,1.128818186367907574e-02,6.604724463598840578e-02,5.645445498165549414e-03,3.530302845390512721e-03,6.905982518592468193e-03,7.754855442947837518e-02,1.793620302388457960e-02,1.768651934103917384e-02,7.856841195552213830e-02
1.095355844428399887e-02,1.215209284699032485e-02,8.996651477636502525e-02,1.471022876128178641e-02,3.032679384468753205e-03,7.393854116495151250e-03,4.249179593597625371e-02,2.159647071668101964e-02,4.089655398956386356e-02,6.404234498637215167e-02
6.274880315760134226e-03,1.055872525845289248e-02,1.211256592720511699e-01,1.980034811011810100e-02,2.649166356414326545e-03,7.681224243722022983e-03,1.728489951496392507e-02,1.000206405260177511e-02,9.794660889036473084e-02,5.011925570000314023e-02
3.411368447386424474e-03,4.066512904157628533e-03,1.280171922071386137e-01,1.755481075846805281e-02,2.585808597147715160e-03,6.184792186242758782e-03,1.756468107312164975e-02,9.539318890693681760e-03,1.438711932146833627e-01,2.942027282761940782e-02
1.350523249282990779e-02,3.006649081340458367e-03,1.025290685060728513e-01,1.020076247593952774e-02,2.942461421232175391e-03,4.631172022433478926e-03,5.710577038485123436e-02,2.366272336401904763e-02,1.851188507156446561e-01,2.005361688562630820e-02
2.333292859169232292e-02,4.343502238289968440e-03,7.186665427888257185e-02,3.915836981900789639e-03,2.944531550778338100e-03,5.272318418753425828e-03,7.148448986618696765e-02,2.665074728855330172e-02,2.089884983469640634e-01,3.484690070467231365e-02
3.339226380339766626e-02,5.301645356111419878e-04,5.936797923045455949e-02,2.642970040136442909e-03,1.189694321642160860e-03,7.100728932672682736e-03,4.169593574696296712e-02,2.321533805789986055e-02,1.953697912024888461e-01,6.286087179055702134e-02
3.981129170381816212e-02,3.784180056555520085e-03,5.393039269905264277e-02,4.093429382106324003e-03,2.064478829985420469e-03,7.892252657656653736e-03,2.212516112384018546e-02,2.188109546572700181e-02,1.511184417459586204e-01,8.974499809196474776e-02
3.465061692159591977e-02,6.893127482408383834e-03,3.106679233951031849e-02,3.200034244224255007e-03,4.670841365041254398e-03,7.551636581102975226e-03,8.392795115797738181e-02,2.704906596542604180e-02,1.006012635000413658e-01,1.102542497666756244e-01
1.628619420556346592e-02,7.966545025533388127e-03,1.006024135966501407e-02,1.241893878157131637e-03,5.626204597360850122e-03,6.871748968592412445e-03,9.677235555077069729e-02,3.522517977273882661e-02,5.275003386371140968e-02,1.193930049710088814e-01
4.775980811152435133e-03,4.354343343654468700e-03,4.414488155513096590e-02,5.543688274889156317e-03,6.109012815671290529e-03,5.107400657889603693e-03,4.031546163382432324e-02,3.886780143130307008e-02,4.174470604744467614e-03,1.139209988984889316e-01
1.635401754754135448e-02,3.027836863771870331e-03,4.625007373577849634e-02,6.223083824306184855e-03,6.919809822562608161e-03,6.251929454062005913e-04,4.826849428006622922e-02,3.476406449840769436e-02,3.427989578134037901e-02,9.912797181479611475e-02
1.634419527435942293e-02,7.898598297678395552e-03,1.244581202628439881e-02,3.678703511697721702e-03,7.350370279156104650e-03,7.227002206752009342e-03,1.029664306264098383e-01,2.634840054289269706e-02,4.342238014643469424e-02,7.971510379204826968e-02
9.791993491490314297e-03,6.420143885569105577e-03,3.826352927492461531e-02,6.633372287614348797e-04,6.710303519684765634e-03,1.707926833871726766e-02,9.579104194762200208e-02,1.588572414217725298e-02,2.731302261806244774e-02,5.672856842651765458e-02
5.189763744120872574e-04,8.852671924302823406e-04,7.656046389365438187e-02,9.519330049107540626e-04,4.865506653274402800e-03,2.554935355653348630e-02,5.996744566840866986e-02,1.170860545818908430e-03,9.041404073210811826e-03,4.206517949327760741e-02
9.489859878712939012e-03,5.449390754006985457e-03,8.330870087986719241e-02,7.358334579728128579e-04,1.943824325867256602e-03,2.950937424482592136e-02,4.384368969143405403e-02,2.717207210459897035e-02,8.095583908655508421e-03,5.094858034231483646e-02
1.732985713737716579e-02,1.044815776611042295e-02,6.187830245722773098e-02,1.819824664602372752e-03,9.914302386943257654e-04,2.919339678082926576e-02,5.756746633416748304e-02,5.038889063319293427e-02,4.155185872201462571e-02,6.751276401477540601e-02
2.101011842037507626e-02,1.115692841305272569e-02,3.054125972497719402e-02,6.586787771458790276e-03,2.438439946516466044e-03,2.758912954927161820e-02,7.266609983622640545e-02,5.395919754057280915e-02,8.671437240438957528e-02,4.856861331679546145e-02
2.202334079353993057e-02,7.231746189653158463e-03,5.397384500964496311e-03,1.055205499285713847e-02,2.477394012276082878e-03,2.649646542058004331e-02,6.130519591932679507e-02,3.736583395835976762e-02,1.095518468147663321e-01,1.775170705473408383e-02
2.193747787727106172e-02,4.168150719231996683e-03,1.008527867250637658e-02,9.869290287950862120e-03,2.457268235516725345e-03,2.498642198592130811e-02,2.395111672350794252e-02,1.513500052724356740e-02,8.997229437457371359e-02,8.545901463920245467e-02
1.780246045309417935e-02,6.307876550207312458e-03,2.330731898211010206e-02,4.849773683379621919e-03,2.575914091590025389e-03,2.182903986746208280e-02,1.499757644043856093e-02,4.625670940795833727e-03,4.364671719797110633e-02,1.078955279042736748e-01
6.229652384593100008e-03,1.009205340197239995e-02,4.016963069608867759e-02,1.170407114036661235e-04,1.959503690163364852e-03,1.734304392619680224e-02,2.895453618856624195e-02,2.129178457151784110e-02,1.649764813833731704e-03,9.665904936902351696e-02
8.688270029018828680e-03,1.019643375460725469e-02,5.430037938577150086e-02,1.735550872767616624e-03,9.291383456921649235e-04,1.222227452189972308e-02,1.140953934075334547e-02,2.598001831278902440e-02,2.888742390873609914e-02,9.488210516151573959e-02
1.829891295565774095e-02,7.324343368913762038e-03,5.326290822155860250e-02,1.608194015376429586e-04,8.961529734870726316e-04,6.508536945933013004e-03,1.624166494564229651e-02,1.180900603105132507e-02,3.423634013607036036e-02,1.112751816843546154e-01
2.021349110445021247e-02,4.461571002168427010e-03,3.503803414049760923e-02,6.046259387467552843e-03,2.176686309126663228e-03,9.575785418367695158e-04,2.519304547081736845e-02,3.535616173114462975e-03,2.585568899735699727e-02,1.143706337094979181e-01
1.929425206297992815e-02,1.590198362208987762e-03,1.343980517123480670e-02,1.762038291413593055e-02,3.686840554816491616e-03,2.398292126153622923e-03,1.033329503055498144e-02,5.297370784578292122e-03,2.016676375030107549e-02,8.595800040589590685e-02
1.851377142804235681e-02,1.013156815715412617e-03,7.833353193380101359e-03,3.141093015422075085e-02,4.277314389362554294e-03,2.807423410302507978e-03,1.132181513171462255e-02,3.441069155014592901e-02,3.105990931029129973e-02,4.810920149326643191e-02
1.617926096075814058e-02,7.545430289463540916e-04,2.717221452871222687e-02,3.611947225299900338e-02,3.270927231007757056e-03,2.395720599614916367e-03,3.031545645809273493e-02,5.805130255279020851e-02,6.158203744026764792e-02,2.991039620941421048e-02
1.137853574218543676e-02,2.696844247663701503e-03,5.922500526237588214e-02,2.429511277818612383e-02,8.474681667919924197e-04,3.493682328994462440e-03,5.126682853207936708e-02,6.944525810948902478e-02,1.004792276707799220e-01,3.134708226341206133e-02
5.477684009989174443e-03,6.868274086680046554e-03,7.889314762179230889e-02,3.665208689655270052e-03,1.425047518734424371e-03,5.799560431552658671e-03,7.577677655469204632e-02,8.614974462728615390e-02,1.230434589964948394e-01,3.337068597721641605e-02
1.381699059033234369e-04,1.086006746846989411e-02,7.481270471489691321e-02,1.110426722636502321e-02,1.698217122252021786e-03,7.604711887428500586e-03,1.030496209931986429e-01,1.144190544021809058e-01,1.089076430549068275e-01,2.604663874902765630e-02
2.608933054995595663e-03,1.445161199770004373e-02,6.254938921414270048e-02,1.409604778897792857e-02,2.780181424248244233e-04,8.373053290581123492e-03,1.371272574035286851e-01,1.363822560878791279e-01,6.589180251325588156e-02,1.137727569987799503e-02
1.813146468899492440e-03,1.516024830727988500e-02,6.326412519554759639e-02,9.005702283999878280e-03,3.073206999733056523e-03,8.889829826485864256e-03,1.744364998470639971e-01,1.407351001630332554e-01,2.174401525623631190e-02,8.626247886815801430e-03
1.054862987554880394e-02,1.158947185478419878e-02,7.713269926826642198e-02,3.502571708015080054e-04,5.053328205379288389e-03,9.945551649457365015e-03,2.009061708352382625e-01,1.419887840136887514e-01,7.662086966686796827e-03,3.088660346549038788e-02
1.418849117273427059e-02,6.266616006188152448e-03,8.911772632185094301e-02,9.466748901043004621e-03,5.757669806963940096e-03,1.150249304125098779e-02,2.112778340254906906e-01,1.544128772973064334e-01,2.320562217962375204e-02,4.575358144149559853e-02
8.450118810055791060e-03,1.749189247243444203e-03,9.458603492938670587e-02,1.899650402038481276e-02,6.086881930594137922e-03,1.234301309811908220e-02,2.096199376276778603e-01,1.656712714850649415e-01,2.231448646758854570e-02,4.518597830650739750e-02
4.646224882940796878e-05,1.333159113828124654e-03,1.040532671799234837e-01,2.842152117125098035e-02,6.760415200544012473e-03,1.080500823818970890e-02,1.915613473472386474e-01,1.563250151667994747e-01,1.465685687977969290e-03,3.232505311460063396e-02
3.881887448637118439e-03,9.024071439677800073e-04,1.212150209818341068e-01,3.856339310886074123e-02,6.995652060871977371e-03,7.014592663343121801e-03,1.508031113770557374e-01,1.325902736233885715e-01,4.152549974245877545e-02,1.367428970355052259e-02
5.242510437061087547e-03,5.183381808770359638e-03,1.315524976276317426e-01,4.762573219032804200e-02,6.145484583003479363e-03,3.657728184207340635e-03,9.820382277872619081e-02,1.171199587054553293e-01,8.263506287452898613e-02,1.160968471721656251e-02
8.928428559116245028e-03,1.253193134320010511e-02,1.234451763874304248e-01,5.198375544384482155e-02,5.672683561348651135e-03,3.082796633262320247e-03,5.536005227230830772e-02,1.151249875559497704e-01,1.222852164514919016e-01,4.237743737050174431e-02
1.332889324169833113e-02,1.226674314179096101e-02,1.085309589245944673e-01,5.099512134471267250e-02,6.733963421409401226e-03,4.724224172740311596e-03,3.568274369735131152e-02,1.115116022685758435e-01,1.656697530604555879e-01,6.392870100040755343e-02
1.372068074708678899e-02,2.858685740800075929e-03,1.047461518022403948e-01,4.835591159945854672e-02,7.016826108441818338e-03,6.938836865750094320e-03,3.948711362926366625e-02,9.565616008391028546e-02,1.958291141855253159e-01,6.215451384540557345e-02
1.179524444332599037e-02,6.562379734250669942e-03,1.092437568545910898e-01,4.761857929218515223e-02,4.019832228228833494e-03,9.641140571471345372e-03,5.779896419883588654e-02,6.910255990229435819e-02,1.797030983240024415e-01,4.250322767642052829e-02
1.330745367280023600e-02,7.965874375301655597e-03,1.077078520929123651e-01,4.770017068687784634e-02,3.137168866319839399e-04,1.334235499667914965e-02,7.799547205174485465e-02,3.631715165965396230e-02,1.202253897195459387e-01,2.062717806471428897e-02
1.683094756733227726e-02,2.837760984722173530e-03,1.005671970960649170e-01,4.440386952635862888e-02,6.670365083474856082e-04,1.762972231167132114e-02,9.287259169440646722e-02,8.766069404303064583e-03,6.779534930025200856e-02,7.897237695095936198e-04
1.459644777663099760e-02,3.758074441760038843e-03,9.678324234034749174e-02,3.684238127375200761e-02,4.863876439717362832e-03,2.199074069368143688e-02,1.041429480172880728e-01,8.982996199752492361e-03,5.541324267191690550e-02,2.410813637384625827e-02
5.764956663018322436e-03,9.340868067064633795e-03,9.051162353453999498e-02,3.030570856328381607e-02,8.403924241497313583e-03,2.593215175213689841e-02,1.161437561998459600e-01,4.373790425035622986e-02,5.862837432938294846e-02,5.408139873919542290e-02
1.303990241914431943e-03,1.118108532633213699e-02,7.046418500160710197e-02,3.042873012112272749e-02,9.532842312637259535e-03,2.797743631014662849e-02,1.311338127111739693e-01,7.919551085620679665e-02,4.643540351777195041e-02,7.436098566424230449e-02
1.887146469389243972e-03,5.929818125367156655e-03,4.748829383047364905e-02,3.596105857358040947e-02,1.052185782567660252e-02,2.719313182211805305e-02,1.479988326598445925e-01,7.569646617454285631e-02,3.272048213455723553e-02,7.056279620568566002e-02
4.151317873668459914e-05,3.878511305370827868e-03,4.700628155837701522e-02,3.975362208593996582e-02,1.234756146083093066e-02,2.500471831763723118e-02,1.566508886133337886e-01,4.417512695937654554e-02,4.417303948122958124e-02,4.438276788795239569e-02
1.049431052149432751e-03,9.903451454181396232e-03,7.269982555020976234e-02,3.604527389911575674e-02,1.292837726978217708e-02,2.264412987911780875e-02,1.394660295212080403e-01,2.796655850375969615e-02,6.862120194150964081e-02,6.111068806127823230e-03
3.806175814018264436e-03,8.424003365038686131e-03,9.499476064500514405e-02,2.547538949770163444e-02,1.112584168215003354e-02,1.861092523499209214e-02,9.264195783110547311e-02,3.137220670746954099e-02,7.195424402398030439e-02,3.982685326918515567e-02
7.651043493937247607e-03,5.053796814342747037e-03,8.181041083563553307e-02,1.321736893075646513e-02,8.900921366690180830e-03,1.185038939293713706e-02,4.072632079199835220e-02,1.589363794680171901e-02,5.032969577559144592e-02,8.957804689409025467e-02
5.151160856505832518e-03,5.660401099951288366e-03,3.601990525600411858e-02,2.327569514167307507e-03,8.593423322428839911e-03,4.970436707869356832e-03,1.212634715053747397e-02,3.149954930085571009e-02,3.413052547423042760e-02,1.287293128045068624e-01
6.799724904584822024e-03,8.374725053483765558e-03,5.940300487371022800e-03,9.557627517564171171e-03,9.781408432366009431e-03,1.118701155087748790e-03,5.112986295150553223e-03,7.772958531157335427e-02,4.491674882475618635e-02,1.412643521686428594e-01
1.922260354187938641e-02,8.614109845589789163e-03,1.518565142752177979e-02,2.510454081568733176e-02,9.506276348598081960e-03,3.417956333763446340e-04,2.990438805747892663e-03,9.627160522407031407e-02,7.111624166503278943e-02,1.279403248213936695e-01
2.158967064899805846e-02,6.223700225431634710e-03,2.600320716942765287e-03,4.168953060082881967e-02,5.614714407101469539e-03,1.540365977343328367e-03,1.959728692432333857e-02,9.619498714966968900e-02,8.602176315221334024e-02,1.068440765120883124e-01
1.437632961964879601e-02,3.282512229923126995e-03,2.274732570498671363e-02,5.378841531578741619e-02,3.276640928382700837e-04,5.084009391838209026e-03,2.943594621915066739e-02,8.979841128368998282e-02,7.429917853446320331e-02,9.326794065953193658e-02
4.972843585834642310e-03,1.390172947462968824e-04,2.223568120552897945e-02,5.760595677399631132e-02,4.422164256145967413e-03,1.122433998588198874e-02,1.566838890390463701e-02,6.539331539108615698e-02,4.006750319519923609e-02,8.300992218979408310e-02
3.271160687064518513e-03,2.678668940567056032e-03,1.333032653854067731e-02,5.164636162240882067e-02,4.704598483312886180e-03,1.791042546464327936e-02,2.684567894072124178e-02,1.191643318062806864e-02,1.691348110128510981e-04,6.052419954419791664e-02
1.170837131024058536e-02,3.198631657476831182e-03,7.408942496431412950e-02,3.764789731603371270e-02,2.887118925655639528e-03,2.158859010391511735e-02,8.520879822951289706e-02,4.343358447023677044e-02,3.021767064507650119e-02,2.182714908047022132e-02
1.999762265908876235e-02,1.220059314725381507e-03,1.220031685227633972e-01,2.242419169091007525e-02,2.108244140702267115e-03,1.951626230257827443e-02,1.221217919577447103e-01,4.869807329166003090e-02,4.257995517958564763e-02,1.765736895397774370e-02
2.454059707228338841e-02,7.131239018636410278e-04,1.293873971463287142e-01,1.387558697938659491e-02,3.842815227696397620e-03,1.184742095883987295e-02,9.860082577180709351e-02,1.188651281301069881e-02,3.462487156220586670e-02,3.986787768185096753e-02
2.217712119545679761e-02,1.112607791675243422e-03,1.103050791747623161e-01,1.377091006124628834e-02,6.700873184147529242e-03,2.343153653656897435e-03,1.936420150956794789e-02,9.008046733180508081e-02,6.317978508542436596e-03,4.416977848418821018e-02
1.302543535669833941e-02,1.656722235827874385e-03,9.389298298938644760e-02,1.741502379802803077e-02,8.545748350807930160e-03,4.585403941844603225e-03,6.540558393458281716e-02,1.249392668479051283e-01,2.744585924264289142e-02,4.627340876218333926e-02
8.246323921771081186e-04,3.740845744102768572e-03,8.588672495201335466e-02,1.997262018866675579e-02,1.035804381277670959e-02,8.687792432350722668e-03,1.119302131700831704e-01,1.077568678678375580e-01,3.603382103858802227e-02,5.755591304141627340e-02
8.638170749040609622e-03,5.137629305052808862e-03,7.560860440438675611e-02,2.007303082775210162e-02,1.550923852678137704e-02,1.324237370798896606e-02,1.175353988911788661e-01,7.942783089899171922e-02,3.984088436724014803e-03,7.208403639179537803e-02
1.127245953542392945e-02,3.116463613752685265e-03,6.367814901695557916e-02,1.814924587825768321e-02,2.331887587265033673e-02,1.857945879396326327e-02,1.084891023577085473e-01,7.795020054009402233e-02,4.521379039430160895e-02,7.918951584267562571e-02
8.271276015426279327e-03,1.274404554091038274e-03,6.251864067980855699e-02,1.502793862631558904e-02,2.744439344148933216e-02,2.027408697184620440e-02,1.130144385344150348e-01,1.054474325745179270e-01,7.095915589189394357e-02,8.219113505973149603e-02
4.879280547585023928e-03,5.628328250671521885e-03,7.445838786484423877e-02,1.237760655086895915e-02,2.402546516204282986e-02,1.594477309054278050e-02,1.369757113469908527e-01,1.358500584531757704e-01,5.645137389788112275e-02,9.348464775635573210e-02
4.204194720296485291e-03,9.399131637011358398e-03,8.499533355470384466e-02,1.213884766984552402e-02,1.707922971577346266e-02,9.753279711002378616e-03,1.550727488130156373e-01,1.401615690654753610e-01,2.208229114690741027e-02,1.130135256307351899e-01
3.852068179381345006e-03,1.105140372509057396e-02,8.160127960267969660e-02,1.535010590166397022e-02,1.204670279613357688e-02,7.138850486176454534e-03,1.422554350589674554e-01,1.123947511756447776e-01,1.094616733334753027e-03,1.246727647909555703e-01
1.380807554309723510e-03,7.084718433103966151e-03,6.771550390159622457e-02,2.142245894387757865e-02,8.294354230814735690e-03,8.295698854908569939e-03,1.187385402023280190e-01,8.271637217854907465e-02,1.271385650717312375e-03,1.165711405005509654e-01
7.646580685437312204e-04,1.989269339107839138e-03,5.134528064145078147e-02,2.723881495869464459e-02,2.396852896896953938e-03,1.009201628583410344e-02,1.382349021522133736e-01,9.427144635341959400e-02,3.081403953809370815e-03,9.347500702195093991e-02
7.780181118589616154e-03,8.825094300316530666e-03,3.067755293722206067e-02,2.868919814369597435e-02,4.705338793614653910e-03,1.145713932451725148e-02,2.181775737910521817e-01,1.516328608807297751e-01,2.809379070086330532e-02,6.690865802537393492e-02
1.965416299671438743e-02,6.013853716075782431e-03,1.282544706873049722e-03,2.479672885416803543e-02,9.082684491929796100e-03,1.246947049250935781e-02,3.042765156792255898e-01,2.033992563688225841e-01,4.319792633469807935e-02,4.376248505507677328e-02
2.630373149168909949e-02,5.129214673536750674e-03,4.476616963316736725e-02,1.748766557343292907e-02,1.012004485268108711e-02,1.081988188934030273e-02,3.268126538778517443e-01,1.954884934768474358e-01,6.720909330033312049e-03,2.614223357841638506e-02
2.293728732704338955e-02,1.400375148969726022e-02,8.583298971336816852e-02,7.710678354451589063e-03,9.956611538862189872e-03,5.079251605908060609e-03,2.786875449326637333e-01,1.328409822174383137e-01,7.000058460984626141e-02,1.381344990646194044e-02
1.474192170467756788e-02,1.082249400404311848e-02,9.534735952367495715e-02,1.937775798727344768e-03,8.288633981395393882e-03,5.996133530726682499e-04,2.119425131806058626e-01,6.688814321935175611e-02,1.291785504174793875e-01,6.792884964200650647e-03
8.051418488588351491e-03,2.665495151234097658e-03,4.910509795608641176e-02,2.593739126994979924e-03,3.452917341361120586e-03,7.284502656961931895e-04,1.679252216005623910e-01,3.084821344092474743e-02,1.368816804847067248e-01,9.446079136911922358e-03
3.862200568161892195e-03,1.545525841072734920e-02,3.735046034847495228e-02,1.193074281039808483e-02,2.536849253276635650e-03,5.033366610088643722e-03,1.461497265375784893e-01,1.819369429215701023e-02,1.166017369080209476e-01,2.564852113038354475e-02
1.333303052974628682e-03,1.958499564241695384e-02,1.099757265449674420e-01,3.234504414964836649e-02,5.254900350810344165e-03,1.336884216195643668e-02,1.354624550163077146e-01,2.523292647563578003e-02,1.089614503095330950e-01,4.443448714003745553e-02
1.223996897250217031e-03,1.625495183899187610e-02,1.277790693478073059e-01,4.290664756279911896e-02,3.278240096275976748e-03,2.099124393588050821e-02,1.299757839323942010e-01,7.285963061975453403e-02,1.232307949098091215e-01,4.149183291338959939e-02
4.131891651654658569e-03,1.065309267324634004e-02,1.000774359946735997e-01,4.238813735551780898e-02,1.123694902266668665e-03,2.477441802312888713e-02,1.131224944540673710e-01,1.604457841310225896e-01,1.396894198388059227e-01,8.040728622188110519e-03
8.896411902282849032e-03,5.025801960440019062e-03,6.504532143179714287e-02,4.210320517215201952e-02,5.202956996789416533e-03,2.343199690587991976e-02,7.411012424816884603e-02,2.333412337070537301e-01,1.444952211291946897e-01,2.971827179106528369e-02
1.293432240902944730e-02,1.332886032208979547e-03,5.064214190032914620e-02,4.516980284812846524e-02,7.501608907530848969e-03,1.988406715386764959e-02,4.350570844988922020e-02,2.390631199502784854e-01,1.456045038601358477e-01,3.652775877468699556e-02
1.337412524822935954e-02,7.120842693684129726e-03,6.422313930398000636e-02,4.387103746336277338e-02,7.926180425961498396e-03,1.774654172881534597e-02,6.513456243956462777e-02,1.929204298766273029e-01,1.546274197646289594e-01,9.048417773701921546e-03
9.737616974092496921e-03,8.493535466901227723e-03,9.733079479579950788e-02,3.679029920636726209e-02,6.761745036374977244e-03,1.677929768178396119e-02,1.279108785865674114e-01,1.454162487863447928e-01,1.634846988907743826e-01,2.454239928936740797e-02
4.862080336330903627e-03,4.386760897330022752e-03,1.275691261798954368e-01,3.279376451714514917e-02,3.110172378800503141e-03,1.511726958270081730e-02,1.685304324936750808e-01,1.101954960736361289e-01,1.465692771859829491e-01,4.028711799962328421e-02
9.199245959676205465e-04,2.157268581676417482e-03,1.332496618568794755e-01,3.698011409739689059e-02,3.806282397395569818e-03,1.301509429762141672e-02,1.481894662205069935e-01,6.870936116603905408e-02,8.983071772590356385e-02,3.608530332800163887e-02
3.705284544667647451e-03,7.939518957052377895e-03,1.158513694128280591e-01,4.464458510500948774e-02,1.140670000015417060e-02,1.151260798416608999e-02,9.108034188957812860e-02,1.983407402963575927e-02,1.616456181116161100e-02,1.800101669924003556e-02
1.124327134594130598e-02,1.020741384149734081e-02,9.562278016599125297e-02,4.947807882291805487e-02,1.533551800416450492e-02,1.031689307417349086e-02,4.061631320133678863e-02,2.035761451295755448e-02,3.107032193037797749e-02,1.060429234424267210e-02
1.963085090777330968e-02,6.018154347518491799e-03,8.473342344776231549e-02,4.924806999212795466e-02,1.453921228731267293e-02,8.374426986895019617e-03,7.289942562455270503e-03,5.239714528326397391e-02,3.611978962821194711e-02,4.305645613531221272e-02
2.322793217001874536e-02,3.495241169055949854e-03,7.767234759324927185e-02,4.371374936518282461e-02,1.098701915482701297e-02,4.284095542339199508e-03,3.003304388198162200e-02,9.104003094184058564e-02,2.519367903358537761e-02,6.560581279922747533e-02
1.927190167966997755e-02,1.147882321801561162e-02,6.608018988588447440e-02,3.269886232478960014e-02,5.382849814807091036e-03,2.970470443112655737e-03,8.886576253212902232e-02,1.326140749064839142e-01,2.404241217020985921e-02,6.506708824649101719e-02
1.211576369737641864e-02,1.206802229903209712e-02,5.281738603598178788e-02,1.733171371613900086e-02,2.203253849109647680e-03,1.166746227913054504e-02,1.607102927321321373e-01,1.510253055109846698e-01,2.458703539004018085e-02,3.884271206021189249e-02
8.820717235066836276e-03,5.544714132482231848e-03,4.730216471064468270e-02,1.097061101856337036e-03,8.833537385921855917e-03,1.801893651576535679e-02,2.226984931888729424e-01,1.350273341721146547e-01,1.039081509228075365e-02,7.699737761619838278e-04
1.151855572627478834e-02,4.071814819509918248e-03,4.609483319756248892e-02,1.218408664256333263e-02,1.082627834104926690e-02,2.078125155655485487e-02,2.651078618498063921e-01,1.115885166351181929e-01,5.051806301668296945e-03,3.351092774472673452e-02
1.686761711718233817e-02,1.175684234274305268e-02,2.921760623776688964e-02,2.117509168757128468e-02,8.826737006806409033e-03,2.224596288001494393e-02,2.963356503288451238e-01,1.174398540325660573e-01,7.642751160250313598e-03,4.616651170798126425e-02
2.221989984352603503e-02,1.288089687932342069e-02,9.689015102674367746e-03,2.577797300739398736e-02,7.118781425864863580e-03,2.357944818173549062e-02,3.194833881646634288e-01,1.580858350950666014e-01,4.559943512829667950e-02,3.760589916869770677e-02
2.884922796856012606e-02,8.231366317332497462e-03,4.395495339413837965e-02,2.429817048987830200e-02,8.225774891878267353e-03,2.262263373234647129e-02,3.183456893440032576e-01,2.056766869928193242e-01,6.702364342947766951e-02,8.923203488161749949e-03
3.730358627239235142e-02,5.349903490407671540e-03,4.504717009796915805e-02,1.582356598619167470e-02,1.075298388322758029e-02,1.790980243137153816e-02,2.758035922043231558e-01,2.293214046649238169e-01,4.168666611849271286e-02,3.858008543812407876e-02
4.118998306242260821e-02,8.562826553507678004e-03,1.403050731852587170e-02,4.638767055280287530e-03,1.283297573395856574e-02,1.232239214764759352e-02,2.014245718632557691e-01,2.231058774012310564e-01,1.511677389708261307e-02,9.105993186065214351e-02
3.057738917726633698e-02,1.276842064596122976e-02,3.558218563813313196e-02,2.218973965443482056e-03,1.546667823502737363e-02,1.066646304950554652e-02,1.329940075868228377e-01,2.089110430956831188e-01,6.884971758366227601e-02,1.237406488527079546e-01
4.626828878166434032e-03,1.345464014941080873e-02,9.480243181041828060e-02,2.312064055372367675e-03,1.963309100144786448e-02,1.355163958608685340e-02,1.027496388611916084e-01,2.060453645615656637e-01,9.845827235182177950e-02,1.238842745257636435e-01
2.396282971617035712e-02,1.459767294984365242e-02,1.404793152248351995e-01,1.565400803217700029e-04,2.068596692584680208e-02,1.417406263757768105e-02,9.417869911169086949e-02,1.926721071148029263e-01,9.308888506017823361e-02,1.028049552771219260e-01
4.204532280428707747e-02,1.991572467253393056e-02,1.394728470864975145e-01,2.584354773381741972e-04,1.108080710432096314e-02,3.628633118657239014e-03,4.129894554262897310e-02,1.148082346898085804e-01,5.234494496975596045e-02,8.214063271449353887e-02
4.882299900123595465e-02,2.611904437704914983e-02,9.402487203246359670e-02,1.519499274352091069e-03,8.781293918499653850e-03,1.765167928642383949e-02,9.908288970772914650e-02,4.680804998419114266e-02,6.149554900031492695e-03,7.380683868704659978e-02
5.016920991336147606e-02,3.048372622184812586e-02,4.785584526081781975e-02,1.569820619281760837e-04,2.766644627879274662e-02,3.661624641562752358e-02,2.735632400665413133e-01,2.332702899062639723e-01,1.709693159416198751e-03,7.022778465914236712e-02
4.659886469578957552e-02,3.469079947266024561e-02,2.991729148949204969e-02,7.530145771309915484e-03,3.544741132287235197e-02,4.166769209360142445e-02,3.808585238241229964e-01,3.584514229657713158e-01,3.061470815062076328e-02,5.398902637804964960e-02
3.666806809229039565e-02,3.758649793746003664e-02,2.280804466708225703e-02,1.911962417353657226e-02,3.404768515183478200e-02,3.771150615812016160e-02,4.040292451586444678e-01,3.939004005728088398e-01,5.401753448162643911e-02,2.696290005760975869e-02
2.855201924271729905e-02,3.443424748190648116e-02,1.457561664814740815e-03,3.014223927776222417e-02,3.256222059475231273e-02,3.896780124468967460e-02,4.207293431679113294e-01,3.742906021777330783e-01,3.334484881929902778e-02,2.270080811369686383e-02
3.456452309869400413e-02,2.515873701016884192e-02,4.131349727499932650e-02,3.948466665300200823e-02,3.463223620399798891e-02,4.816863619719151390e-02,4.615691410356033697e-01,3.323621614185523487e-01,4.435617173836354371e-03,6.795797552070233227e-02
5.214307549859772267e-02,1.482082815218331399e-02,7.497598479464243071e-02,4.828413913113335093e-02,3.538062863071543551e-02,5.313838271748354269e-02,4.568478150730369558e-01,2.683194270820349892e-01,1.008230587119883156e-02,1.383477991056258072e-01
6.268442152748494867e-02,6.411879138222886798e-03,9.467116690453826477e-02,5.462337297002441833e-02,2.973078371761360764e-02,4.478648457758038770e-02,3.670476931191660741e-01,1.809381154373485012e-01,1.683378824577978078e-02,1.799788400862463722e-01
5.322105122051062204e-02,3.891565363623504612e-04,1.127622057597868627e-01,5.384851357961718821e-02,1.917318215928378797e-02,2.833784995389666828e-02,2.610536787056655372e-01,9.456915938324805815e-02,3.146847217956612319e-02,1.703166038975782726e-01
2.991833274280202362e-02,1.305022207254409030e-03,1.320607061126490012e-01,4.501961930873239065e-02,9.173005165495434765e-03,1.436454560118318770e-02,2.044876029921474103e-01,4.519198824464624314e-02,1.570026648389169499e-02,1.305560117078263249e-01
8.010354085199303253e-03,1.236929249739040539e-03,1.322615072531309055e-01,3.365363693392699890e-02,2.721198350442964337e-03,6.775874143615042040e-03,1.662275588121467917e-01,4.752809294749298086e-02,2.009523685765592788e-03,8.465658147126756128e-02
4.515030821160491772e-03,1.402863897240030173e-03,1.016105367652376662e-01,2.685314469044057517e-02,1.574061496242991657e-03,2.245397430834726940e-03,9.647274191349750061e-02,7.755650318734266802e-02,1.641402779117753785e-02,3.600047442765021838e-02
1.149087776324655280e-02,5.969459156038104189e-03,6.107208485029547856e-02,2.752669965739885233e-02,5.817132805176252093e-03,3.272765481372481335e-03,1.350739227566863376e-02,9.493658309730697298e-02,4.442077132386573757e-02,1.344728465455951802e-02
1.930593214743050665e-02,1.496311609466326013e-02,3.819339484729327577e-02,3.357449738032880493e-02,9.045145142240440875e-03,8.996903044816302250e-03,4.127166586270736987e-02,8.939705582864615474e-02,6.446271467467337701e-02,4.561030527858470074e-02
2.583066887746623963e-02,1.621901316262327336e-02,3.481496843795354318e-02,4.101933101034441892e-02,8.332964090522022166e-03,9.485564032846293542e-03,6.600805849127179548e-02,8.897125055878508937e-02,7.203380445758206241e-02,4.325685462780007318e-02
2.399937170822000893e-02,1.130278141675681268e-02,3.528286217972635003e-02,4.757375134216358659e-02,3.262683156635130810e-03,1.183561289481924834e-03,7.020513092198990557e-02,1.119781833279600847e-01,6.461807296917983223e-02,1.406317526107216456e-02
1.503946937892368038e-02,9.796803758094281556e-03,3.278382600699809857e-02,5.382982145850943173e-02,2.783345154017945969e-03,1.276299499624528565e-02,3.799232613030921468e-02,1.351497769520187131e-01,3.678838246988327954e-02,2.003657304938548031e-02
8.115300945385945514e-03,1.428379472458446431e-02,3.615109533407151465e-02,6.078078328519990331e-02,6.548919470977207155e-03,2.581293136819497180e-02,3.334839406478538881e-02,1.236639267941494064e-01,7.483688931904136817e-03,5.008467868799238581e-02
6.961613217125330912e-03,1.745286111168578916e-02,5.571226310181495028e-02,6.708019664072334409e-02,8.087291206789654768e-03,3.298295045027465483e-02,9.405080841462055974e-02,6.739183738096357623e-02,5.442640076302707186e-02,7.485831264901872395e-02
6.717484826006992968e-03,1.352891176755338480e-02,8.800453415299436255e-02,7.125649386295832000e-02,8.730878877111405284e-03,3.164844417444701713e-02,8.853119448928964408e-02,2.230485234434081976e-02,8.753546900575613632e-02,7.925173640373292527e-02
3.391431775936588292e-03,5.548324940406402367e-03,1.167016737693876566e-01,7.539668647984373862e-02,7.671381121814803590e-03,2.219798791743687189e-02,1.894094543322203186e-02,1.243920599953807771e-01,9.461144789794015408e-02,4.916456672322357807e-02
2.359641208642734161e-05,5.299670895576673833e-04,1.326204337223105267e-01,8.179811075478719828e-02,2.896190170373380210e-03,9.240431228056159366e-03,7.255416374467266172e-02,2.124520051980014756e-01,8.200721556547990732e-02,2.153705287091417162e-03
5.110557654775472504e-03,1.569507185600057609e-03,1.489934478425399833e-01,8.691956224620048244e-02,4.847986258474964831e-03,1.719278767783450615e-03,1.546911543846693493e-01,2.726018952129921624e-01,7.498833382304431749e-02,2.786945992600723537e-02
2.406658241696671766e-02,6.818637728910944412e-03,1.819259846414572612e-01,8.527027584181672004e-02,1.195601242319297569e-02,9.599397736392550201e-03,2.136032476576542605e-01,3.148494646342362424e-01,8.459851662433449937e-02,3.558388107983585791e-02
4.586043165261925042e-02,1.445091335054432720e-02,2.167080793321104482e-01,7.866961731422462967e-02,1.678676805945232206e-02,1.718212821304329271e-02,2.469334394917308551e-01,3.489516612988612931e-01,8.500979306997452634e-02,4.791373909853587770e-02
4.512563551511614146e-02,2.429982328102564537e-02,2.175455240387250133e-01,7.336521744397762890e-02,2.127413302378059617e-02,2.615298702881138637e-02,2.745149379293151948e-01,3.655389976050721912e-01,4.691964346999006469e-02,8.119420001726777858e-02
1.076425251879567675e-02,3.373403715812278020e-02,1.749501461822603188e-01,6.774334425849110053e-02,2.617908169866881712e-02,3.561571263972108242e-02,3.227850930612782276e-01,3.570020806805092595e-01,1.819873857172801118e-02,1.188334555670821774e-01
3.560672890295180776e-02,3.688196710639694842e-02,1.179723379539774075e-01,5.257821299626709577e-02,2.876300107301061129e-02,4.431940284936315699e-02,3.886001683316995248e-01,3.323792954596444527e-01,6.957305114375765542e-02,1.393898824254315438e-01
6.455809983305117739e-02,3.072458524156607834e-02,7.303436430920601241e-02,2.563437051579239151e-02,2.724065761290963422e-02,5.123012631775293590e-02,4.456830050239818930e-01,2.993525109072661672e-01,8.061685068735774395e-02,1.448248185066618732e-01
7.118545620116387140e-02,1.917329063651306009e-02,3.411908265833324405e-02,3.182740511094974377e-03,2.336860186847294560e-02,5.443684972579385106e-02,4.847467658776455912e-01,2.587442219282487521e-01,5.804903145335991999e-02,1.461725866669758012e-01
6.700650431654785188e-02,9.191917048120454639e-03,1.564572208507405970e-02,2.416690008306049409e-02,1.875871906123696004e-02,5.221867654227544536e-02,5.211169914908950762e-01,2.265956313138321188e-01,3.499622583062647618e-02,1.397534373417784748e-01
5.538402427574395936e-02,3.831899222018868290e-03,6.882812806022782504e-02,3.728917361846375428e-02,1.299761392349649269e-02,4.543725103590522812e-02,5.663008870778997172e-01,2.348881855461379675e-01,4.444308942740524820e-02,1.183988587061001879e-01
3.603880523357044785e-02,8.918953134274404393e-05,9.652640623307603973e-02,4.678871275447545053e-02,6.924161088752735921e-03,3.697353043398839828e-02,6.068182345380715992e-01,2.883534090914717796e-01,7.814987967247766232e-02,9.519180717407731140e-02
2.041947617332861772e-02,6.880190205902629585e-03,8.296282315864564327e-02,5.360055112596765620e-02,3.119615256670340425e-03,2.904711585344111474e-02,6.027044685776247190e-01,3.326096242625137256e-01,8.903943555711109348e-02,9.343191135594668129e-02
2.018618773185970258e-02,1.502785145530281981e-02,3.872846495287319418e-02,5.704323724581475408e-02,1.774800457270158359e-03,2.298333487335756098e-02,5.092731746177172614e-01,3.000373545539850584e-01,5.602308488544293502e-02,1.132683933418317662e-01
2.874677149210318194e-02,1.804045452917376474e-02,2.262778144002378089e-02,5.918887493441078035e-02,6.541986033630890242e-04,2.038308590752804447e-02,3.305385283111886841e-01,1.923107356314481542e-01,1.288903665419503276e-02,1.262741005989348742e-01
3.036457874717767708e-02,1.282381378484634751e-02,9.136898550113718709e-02,6.203586072658518608e-02,9.813150827245493979e-05,2.196188726548758269e-02,1.533199957811481884e-01,8.041044193100727044e-02,8.460214459989356256e-03,1.110352256078815519e-01
1.984927044887090444e-02,3.564946780930393095e-03,1.349525335075229815e-01,6.233362257974343207e-02,1.867833790063039680e-03,2.572828186946148760e-02,8.235589530123173241e-02,1.875349272177362359e-02,2.163313861146361899e-02,8.107515764922666734e-02
2.996868548405033379e-03,3.951570370608259095e-03,1.103314790756202562e-01,5.576475002101789757e-02,5.680555108330367572e-03,2.747991378264007592e-02,1.187164223546873509e-01,4.579127161943578883e-03,5.320092599964584140e-02,6.255855661771125842e-02
1.384765849307963842e-02,8.909670304281781805e-03,2.925966268389967179e-02,4.541983056594520174e-02,7.361325902426140051e-03,2.393788092785008662e-02,1.482259656987914842e-01,2.473765298872540250e-02,1.064381972992761299e-01,5.283553521295285271e-02
2.619202284505783851e-02,1.524703208387627462e-02,3.558344326901861920e-02,3.815892193279322303e-02,6.195606372403140646e-03,1.697340338458376216e-02,8.865158987451608741e-02,8.336199106070603382e-02,1.713285556522280706e-01,2.310631364769515084e-02
2.956442736016473213e-02,2.503538361533259871e-02,4.244141038060869620e-02,3.266630176810753072e-02,5.811907457080599769e-03,1.282968127055552320e-02,5.160756808740663698e-03,1.612385373505477171e-01,2.336754931015783410e-01,3.628354680281494632e-02
2.322492203949460057e-02,3.227697232370330821e-02,3.324395093075556418e-02,2.040268065941415118e-02,7.393186793134306004e-03,1.377503329643103500e-02,4.760620459410971894e-02,1.993229118212028750e-01,2.646964607280962167e-01,9.361493353323779854e-02
1.415294973568962007e-02,2.809744251526190631e-02,5.850051564521628611e-02,1.018566664711013925e-04,6.947736149484079124e-03,1.428509088918067035e-02,7.260836889158522878e-02,1.629692949568491145e-01,2.393515290394944983e-01,1.124427834453946562e-01
1.234432167852182217e-02,1.464955290388434729e-02,9.630100068018046522e-02,1.763437016145126199e-02,2.426905971754605203e-03,1.045546047038077575e-02,1.713618371859279010e-01,9.507301851326445397e-02,1.771015534436613525e-01,1.007170742379417117e-01
2.263279708250678923e-02,6.074598668599572905e-03,9.710979009317476096e-02,2.275804592752261532e-02,1.128414021949743998e-03,7.820419118232745104e-03,3.204807032817928447e-01,6.512147971248057055e-02,1.312656751607406136e-01,9.854936172408336470e-02
4.175087388295090768e-02,1.147263280924754915e-02,6.817148548068789615e-02,1.424418825524812783e-02,1.527959040508563692e-03,1.260485587159649451e-02,3.997091221677940842e-01,7.878487627729928444e-02,1.296406833165922867e-01,1.160389054477776322e-01
5.849139030950552265e-02,2.460196050963436853e-02,4.771151039519153092e-02,5.534284032965992341e-03,7.411847159887837398e-03,2.005652434205652465e-02,3.739354505042969401e-01,7.665787516950325897e-02,1.566558066812762384e-01,1.197178795831868175e-01
5.870175183717338957e-02,3.343518494298911015e-02,2.830311063663348142e-02,3.416917062265202587e-02,9.682832264591661672e-03,2.057572976651379434e-02,3.368051015994791841e-01,1.757492973858582747e-02,1.934802090827510701e-01,8.801170576935102297e-02
4.026736787333730361e-02,3.320332641748435787e-02,1.910347586748966167e-02,6.326323073835216082e-02,7.732007527896994289e-03,1.469165718452709705e-02,3.572219357289619923e-01,7.552490564672624529e-02,2.364828318779650385e-01,3.685699560092949023e-02
1.989689663952090223e-02,2.760426903901088205e-02,6.956176964922423933e-02,7.830725359455870116e-02,6.743397001307400301e-03,1.205606843484631485e-02,3.902796521544459329e-01,1.541831649342446375e-01,2.736416871848049714e-01,1.267041419994354920e-02
1.353582941465187976e-02,2.107442465034879350e-02,6.982156340428362362e-02,6.974489535187866629e-02,9.678326327235533058e-03,1.619777306209778389e-02,3.678521163263359095e-01,1.885242599997128954e-01,2.849528768742173868e-01,4.760062455987704860e-02
1.753446852821434823e-02,1.373399754549534460e-02,2.493609283266583557e-02,4.225557142497622654e-02,1.540956446043039579e-02,1.973898024843431104e-02,2.807408472369914976e-01,1.647177516804538833e-01,2.776487629748023989e-01,5.537442138893601540e-02
2.175134199515889669e-02,5.345367394169133271e-03,8.644134500856775691e-03,1.393865050208534934e-02,2.162475861337370686e-02,1.533743630729325971e-02,1.443961209757920194e-01,8.090200789333015785e-02,2.840664707922058718e-01,4.722810246004851414e-02
2.892118307908290997e-02,1.955606324076777707e-04,5.194385373195939577e-03,6.207558292308601976e-03,2.452697042264179172e-02,3.784766769848340196e-03,2.467869224055112970e-02,3.526748312965009152e-02,3.083814552234429573e-01,6.380893665035917983e-02
4.479253966917642882e-02,9.646512046429288681e-04,9.734289747052399244e-03,2.744925127712456378e-02,2.006492926714028777e-02,8.667628745889045111e-03,1.766540217147971603e-01,1.348266477874998370e-01,3.086923477000466653e-01,1.166793481155867507e-01
6.031191249229123086e-02,8.260306050576749631e-03,8.407103339950407206e-03,6.274876383986714712e-02,1.014007735439686336e-02,1.518474137116589823e-02,2.625880019699263768e-01,1.894844919016486773e-01,2.514425622762687662e-01,1.605040957193303031e-01
6.084661822320539676e-02,1.940738136370948747e-02,1.190198654125301791e-02,8.569685102577413727e-02,3.061537339177960917e-03,1.196289203496480984e-02,3.161650707013061723e-01,2.118703490907513365e-01,1.534114603931070464e-01,1.602590300396405099e-01
4.750135317165923854e-02,3.024483713696923121e-02,3.887254901377981686e-02,8.403367602768270495e-02,4.233944374425421993e-03,1.623641873711400207e-03,4.125948115892613122e-01,2.317795119200106169e-01,5.379717775507551758e-02,1.453464180412524231e-01
3.775134555059680291e-02,3.086435813508031645e-02,5.280030607921290531e-02,6.810601151394601871e-02,9.961171699214368264e-03,8.430704323534279898e-03,5.366750820855197279e-01,2.567156897941576532e-01,2.171922652489770983e-02,1.630329683846492850e-01
4.768400384578386220e-02,1.363253563028708586e-02,3.485732500597717165e-02,5.301006922162284501e-02,1.215388129178954398e-02,1.308287908204539343e-02,5.794867561309183790e-01,2.515237985744598892e-01,5.693948279187942274e-02,2.126703341534177949e-01
7.673085636669292608e-02,1.174705576823958583e-02,1.594134980961910489e-02,4.213345380025240033e-02,6.484187619185421449e-03,1.255952740236916665e-02,4.817241231114863242e-01,1.709156689052223899e-01,4.303955140893002407e-02,2.513969414992094364e-01
1.054455655605742309e-01,2.318157505748382266e-02,8.160362363757861504e-02,3.181768101744544830e-02,4.694306688117442887e-03,8.087031153107248835e-03,3.145702328276783755e-01,2.970791729060881167e-02,3.619366312938587099e-03,2.415519710387879215e-01
1.120473244027387766e-01,1.101461478119660810e-02,1.393765312038503512e-01,2.097394063392097469e-02,1.556734817645064918e-02,8.500516964622143942e-04,2.030992769385429886e-01,8.697462269389640011e-02,4.579201695490352914e-02,1.830701770919731242e-01
9.906942822470621302e-02,1.151518921656413327e-02,1.679308483652766082e-01,8.193919345967354620e-03,2.164377044696392735e-02,1.221836374540079262e-02,2.030960604773251188e-01,1.149773648815704541e-01,5.458422314554998989e-02,1.160764575548050292e-01
9.453470664545123026e-02,2.588381653132353424e-02,1.576374699445535488e-01,1.162729577844884114e-02,2.178729099363067856e-02,1.953146704774719189e-02,2.584289610702146245e-01,8.418942126130032899e-02,1.906393059926794753e-02,8.610162643945314109e-02
1.139350868279542933e-01,2.647337792304302675e-02,1.253308479796315100e-01,3.721792864893697789e-02,1.766483583993468109e-02,2.004252567440205704e-02,2.671791413459518871e-01,7.091131312630982730e-02,6.690189249276609629e-02,9.290641957857947997e-02
1.329109324187355279e-01,1.629429439069439434e-02,9.059105523264654458e-02,5.340166664805251484e-02,1.219589831239701813e-02,2.006986759874249820e-02,1.735233696590941788e-01,1.162903592392515034e-01,1.953013173732180419e-01,9.102413708170986606e-02
1.176804409031976806e-01,4.813075023383809638e-03,3.941735871532417446e-02,4.574004631432763285e-02,7.717427710376243734e-03,2.527525500405445463e-02,2.871031012539700805e-02,2.281872907479331192e-01,3.149415403461446883e-01,5.367996440558911453e-02
7.377858102878503965e-02,3.599421648714703353e-02,4.394049646392325648e-02,2.061407778524059625e-02,5.745410293802628333e-03,3.166347725280439784e-02,3.391335561222522110e-01,4.118243303386912024e-01,3.587980667106098198e-01,8.508685295825242981e-03
3.640677912778178538e-02,6.533604418543745296e-02,1.240628422255282276e-01,3.860482509161159564e-05,7.627675238236199425e-03,3.357578806957590284e-02,7.057619457119139739e-01,6.353638888557303632e-01,3.286378141482750870e-01,8.764092860023879605e-03
1.332466291677412984e-02,7.823244873492068985e-02,1.506094354616278053e-01,2.631819242031629199e-03,1.292704834309977950e-02,3.349395613942683647e-02,9.734128446570333715e-01,8.046285760245106555e-01,3.004180455103376279e-01,8.103352378691353747e-03
2.524746702562689904e-02,7.329387983839150134e-02,1.252029745772565705e-01,9.962542625849340680e-03,1.850155613812545091e-02,3.613050375018701799e-02,1.002350273262723857e+00,8.448022611985784858e-01,3.109809922108656699e-01,2.699870582029787261e-02
8.912302843352910842e-02,5.887226277898303939e-02,7.637077806984705897e-02,3.210292042418644992e-02,2.187295709443730710e-02,3.866844571585029144e-02,8.269725300534259693e-01,7.875848480439860966e-01,3.021618839072650609e-01,7.794411738741831297e-02
1.421046309240938665e-01,3.994537323664158063e-02,3.341321736529448069e-03,6.140314370178056452e-02,2.301069684152215467e-02,3.412665205224345993e-02,6.055206015009947373e-01,7.227667917019496846e-01,2.155300636816399329e-01,1.401175880904786952e-01
1.513406616227897239e-01,1.901213800049533428e-02,9.195375430417863927e-02,8.605374028556048160e-02,2.152004136982398064e-02,2.195632054167699285e-02,4.437534090166023182e-01,6.836263509413661454e-01,7.838903702522628802e-02,1.857848494296409914e-01
1.250358035555498848e-01,1.543745775234917073e-03,1.515731766427357574e-01,8.337826176721113702e-02,1.673742362759422786e-02,1.041251090194345030e-02,3.405000382479397292e-01,6.250140113341775550e-01,3.666210424440159710e-02,1.897264498150993128e-01
8.774034717472484202e-02,9.773928364237377542e-03,1.132426305882377193e-01,4.596935580711993680e-02,1.082087436605628540e-02,7.385006579076465114e-03,2.656288335888888352e-01,4.970304453782377063e-01,8.022755030281428223e-02,1.402418520395903867e-01
5.192652040855253587e-02,1.899438927430526294e-02,2.270494909496094393e-03,1.848977184438366835e-03,5.932882049773120087e-03,1.048462791017032263e-02,2.188526998192481532e-01,3.029102851728328050e-01,3.992309454659620505e-02,6.858742549461908922e-02
2.080126146331262929e-02,2.772922793833298288e-02,1.196708412717529535e-01,2.969275613287876772e-02,7.852456224547109918e-04,8.792361413115247146e-03,2.125641335123346076e-01,9.889801785963261982e-02,5.706597791169271128e-02,2.900072249301326524e-02
7.225464381796574409e-03,2.944370148303551010e-02,2.046762318129185521e-01,3.560716834002861098e-02,1.284002910933650793e-02,5.065561820679150180e-03,2.277787151227070594e-01,3.473262694898434505e-02,1.489021319135956922e-01,2.879506754589887529e-02
3.579310439275551481e-02,1.907930886303661755e-02,2.659384712954427354e-01,4.119509596938258217e-02,2.499937537848988950e-02,2.498227217933582725e-02,2.207805541709502162e-01,4.243236793608964885e-02,1.914927475813954227e-01,3.404103368920683576e-02
5.543140834568434372e-02,1.427268118753848535e-03,2.882875064272719112e-01,5.880202926164155436e-02,2.440652225526000751e-02,3.171719272818226271e-02,1.955632227763556552e-01,5.800798491352120861e-02,2.003063691875487939e-01,5.639989887285692255e-02
4.651073032084718922e-02,1.488808326337791831e-02,2.428855814197534990e-01,7.712705654379270470e-02,4.352435596946601509e-03,7.182559825337218526e-03,2.098438845863470903e-01,1.836928742368959810e-01,2.087782493244846327e-01,1.535601928546144745e-01
1.228494617328617158e-02,2.547594886387729435e-02,1.598268166864406370e-01,7.870381634614877220e-02,2.539022146309733233e-02,4.269394153161756855e-02,2.530920707308050299e-01,2.515783946712671360e-01,2.109288427748613470e-01,3.173408195542799515e-01
1.629586859395039389e-02,2.913019407139111686e-02,1.245902404749899689e-01,6.118971064812395860e-02,4.574495205301870593e-02,8.429027905295741196e-02,2.166139572673131120e-01,2.280266488586419338e-01,1.856527253656313214e-01,4.405275771677757968e-01
2.108050654253032508e-02,2.431429182324014449e-02,1.836617185696252930e-01,3.668477403546091531e-02,4.568713388222605393e-02,8.836587903820981860e-02,6.300955051011621066e-02,1.255161845259814002e-01,1.540795328240895101e-01,4.364649534624892580e-01
1.170784804086629112e-02,9.902111675579625127e-03,2.903923293801256023e-01,1.597823808417764974e-02,3.012662882879209303e-02,6.110795775061973745e-02,9.827319008382025267e-02,2.266708869635117654e-02,1.619683648850079871e-01,3.397534083293026197e-01
3.883020669591423588e-03,1.202194423587798870e-02,3.605759639272785311e-01,2.420376665222285367e-04,1.231989853694742676e-02,3.183205822031875271e-02,1.747648625468859740e-01,1.686561028024767817e-01,2.095244933925720920e-01,2.509578793191936663e-01
2.583461831217544191e-02,3.460624541664170800e-02,3.523898966281687750e-01,1.455437079364988763e-02,2.036748027932395230e-03,1.806881261533782937e-02,1.920697187894518931e-01,2.445633308150249596e-01,2.423493034126296963e-01,2.139127415264530652e-01
3.501981845342275884e-02,4.769407321213613160e-02,2.783639897168719846e-01,3.191828640773653608e-02,2.494825707552307103e-04,1.524240861332644761e-02,1.880379767505987176e-01,2.005050932585008272e-01,2.157108428822564483e-01,1.894480474273476933e-01
9.859126310480222435e-04,4.288319668489066344e-02,1.726649928175114646e-01,5.282742366247270699e-02,1.199141720202351671e-03,1.194813375553694865e-02,1.506764811536420445e-01,7.526122304659371709e-02,1.350804055468122489e-01,1.399502641357023847e-01
8.124675936263778264e-02,1.917282647032099441e-02,7.278789064777065054e-02,7.305100620077052687e-02,6.438472398825605993e-03,1.733284718484237683e-03,8.805956928288247165e-02,1.731206430995682610e-02,3.799694118857815245e-02,8.659401412415407284e-02
1.604723283507280829e-01,1.623677094861051412e-02,1.518263613557630301e-02,8.161191335766547483e-02,1.316432379234985794e-02,1.445068775210724653e-02,3.567974244632280550e-02,7.989734346498029993e-03,3.032696258891572766e-02,6.607126031045056080e-02
2.005172638822022291e-01,5.329681438061148468e-02,1.754568789116980540e-02,6.892114166606856662e-02,1.297309303547677234e-02,2.732975160081803356e-02,1.604791662139260638e-02,6.294597981957744670e-02,3.315372005279029755e-02,8.165528982376554779e-02
2.090990248121470940e-01,8.418316944526303691e-02,5.654850881103105908e-02,4.027544704095806227e-02,3.271593479067122067e-03,2.660905702150436619e-02,9.941745130622461901e-02,1.245707285975094503e-01,2.822323145818185150e-02,1.191180620258298767e-01
2.118652499879152828e-01,1.027198879893488903e-01,7.944667584635055346e-02,1.558459821240097687e-02,7.949746735125348338e-03,1.533875488909109720e-02,1.738915859814900711e-01,1.679859950716771633e-01,1.021615252572327520e-01,1.628436482680280795e-01
2.108252316206942756e-01,1.036582148782450724e-01,5.618076501779484255e-02,1.085791845700762731e-02,1.139430039704516541e-02,8.505866832255157967e-03,1.555170147244549217e-01,2.241342091171352469e-01,1.338342801309615471e-01,1.842148752468187878e-01
1.920018519093154852e-01,8.789801040210726280e-02,1.538134161323771731e-02,2.358097205657563519e-02,7.084709402283547418e-03,1.279461245122005299e-02,5.541555230578307928e-02,2.895395592657087347e-01,1.310204964190523902e-01,1.593040107311485543e-01
1.583213864186881759e-01,6.609514135854040184e-02,8.493250369205486427e-03,3.943465882471870743e-02,2.365429670472025177e-03,1.873897926050913099e-02,2.215039356646637120e-02,3.277446667855449802e-01,1.565337987812693843e-01,9.622712552321351087e-02
1.325991371615601044e-01,5.086670624236130922e-02,3.863469289240596682e-02,4.934576883283207926e-02,1.518004990003679828e-03,1.756594801863307909e-02,4.609371616343461986e-02,3.329676173549857010e-01,2.373196606009800036e-01,1.201255385109581929e-02
1.287396895020875009e-01,4.453380024352181221e-02,5.275236290417657098e-02,5.550850466628053786e-02,1.648635282274594181e-03,1.270957893639456694e-02,9.129316279371596510e-02,3.369490546194689462e-01,3.101757123881168643e-01,8.704431295169533234e-02
1.330485321842101443e-01,3.885716837832066395e-02,1.276402207479852488e-02,6.172594902407619460e-02,2.359247692119887416e-04,7.897069946726200523e-03,1.656477726009005780e-01,3.436541892060540060e-01,2.972764271006892445e-01,1.681709170667528563e-01
1.204236899301161373e-01,2.797490788017949204e-02,5.628914114691067894e-02,6.270096508464360896e-02,4.059912004175413643e-04,2.066929792078369809e-03,1.641826283992900981e-01,3.113970528619013356e-01,2.148321336326250719e-01,1.720128113734936959e-01
8.398209476590240419e-02,1.631211303338812174e-02,1.043177261682679963e-01,4.718516516922828530e-02,6.283726706773909258e-03,1.862537064384403585e-02,6.286795134496225845e-02,2.227416777674644244e-01,1.534389225243295574e-01,9.782538926201198026e-02
4.152370585025375732e-02,1.169649236415888985e-02,1.124312110138722121e-01,1.153356067829644852e-02,1.694044374962000790e-02,3.101057000012641396e-02,1.135207331987372198e-02,1.192154599336834042e-01,1.565261246066418921e-01,2.837658532479835766e-02
1.369091304177501300e-02,1.658744853417586443e-02,9.226046175837451790e-02,3.349371759256797310e-02,2.397537601138945498e-02,3.210222152072013391e-02,1.548427862345439984e-02,4.012680788595426179e-02,1.741953613309905058e-01,2.348626477424804737e-02
1.995396030306087476e-03,2.724509052145729360e-02,5.698369133286650123e-02,7.052118386496630809e-02,2.577286179378285996e-02,2.987696733543145772e-02,6.204122133269123623e-02,1.522865949119756729e-02,1.460178277100467048e-01,5.128169977808262614e-02
9.283609459095705854e-03,3.546044544477544580e-02,1.738948936292774097e-02,8.783123464198783203e-02,2.537064129466318554e-02,3.206732889959774263e-02,6.526835932971090937e-02,4.445311447616893952e-02,7.626986015443758260e-02,6.113601295790783291e-02
3.264651647306855697e-02,3.262931935717162946e-02,9.841401635846014351e-03,8.422952257655882957e-02,2.196572230890776398e-02,3.310912564331560531e-02,8.018153848099468517e-02,2.961736070461254422e-02,4.517552138452961968e-03,5.785177158805396985e-02
6.214647878455559216e-02,1.827696254364841524e-02,1.027894864053846211e-02,6.644393157222372448e-02,1.383699606608318131e-02,2.614446171171222119e-02,1.463872236279586403e-01,1.926266432922337651e-02,5.440769462925425237e-02,7.198967728930943943e-02
8.040809740630880387e-02,1.149238993538335930e-03,1.758910143241231711e-02,4.454782125331218506e-02,5.827320413537542300e-03,1.440328003014518590e-02,2.209747753017944905e-01,7.148681917988444767e-02,1.100492204221538151e-01,1.148903188111723150e-01
8.126576828762202553e-02,1.265196034062108718e-02,6.566770563916493608e-02,2.700851713852810837e-02,3.806886245757322689e-03,2.823303854423368092e-03,2.823877090380378374e-01,1.187064584764311453e-01,1.653534064280970661e-01,1.839689534551908479e-01
7.890215470564360123e-02,2.708651791465989736e-02,1.212736389368072043e-01,1.587657823564332313e-02,5.011632853267879335e-03,9.595333742465810348e-03,3.491177908238483618e-01,1.573557418831357524e-01,2.150383385636368272e-01,2.626771016288892979e-01
8.691752554349513327e-02,4.740083309065418193e-02,1.684395221581050373e-01,6.570962505321298330e-03,2.232304002681260221e-03,2.344015392190807595e-02,3.819871630823865050e-01,1.588055775854006757e-01,2.582578176371931877e-01,3.061840449874469461e-01
9.757108328409917763e-02,6.926715619039812422e-02,1.964463182860087254e-01,5.364208142229142176e-03,5.411771536929099388e-03,3.440141880512884165e-02,3.148458339263766614e-01,1.073588514912319214e-01,2.935874047786376506e-01,2.770232670184540336e-01
9.575067176920701306e-02,8.196979403528925623e-02,2.087052664567194682e-01,1.834215729841348619e-02,1.258668771138646801e-02,3.908609532916775681e-02,1.841604400585525603e-01,3.510619278091219042e-02,3.150854630172484905e-01,2.014938874743670005e-01
8.333692899496884798e-02,8.033943622690299657e-02,2.156509420653303088e-01,2.796926703834569719e-02,1.611215269548867124e-02,3.902079274349752602e-02,9.407722098393397903e-02,1.637732635327870598e-02,3.256000078152226362e-01,1.452122867809342299e-01
7.335062479586751394e-02,6.967428949039226882e-02,2.218531764598986045e-01,3.268205273742554040e-02,1.768831418767932706e-02,3.716527659445122145e-02,6.920755136114406514e-02,3.507813868662362083e-02,3.364600676170466098e-01,1.352526584160630985e-01
7.036574875536091844e-02,5.931856077917322528e-02,2.266316659930806554e-01,3.183589603582859251e-02,1.973185283901418563e-02,3.549757882717640561e-02,6.603625261076793984e-02,1.928903090160206252e-02,3.424050638170523797e-01,1.526905345330566433e-01
7.156588311952116754e-02,5.389972478659752625e-02,2.307250150950437562e-01,2.323889564993943807e-02,2.261134471087435441e-02,3.648903421837557809e-02,9.124989813939919647e-02,3.914957037016303376e-02,3.196295654578520939e-01,1.862912371283577118e-01
7.645091478624956027e-02,5.103461392945150832e-02,2.324518878964902113e-01,8.365109312238844935e-03,2.523762416591495208e-02,4.140389121132203448e-02,1.800507701246680803e-01,1.278416280531725624e-01,2.641089567716506381e-01,2.362739165139544628e-01
8.347252558894135976e-02,4.623058609877907926e-02,2.209522349322912138e-01,5.228411026720325254e-03,2.580979118017900226e-02,4.586105866149464694e-02,2.875304379036238700e-01,2.016539124580638831e-01,2.079482527727624375e-01,2.776688327643718202e-01
8.745109610806735267e-02,3.922066255419826009e-02,1.854756081576463267e-01,1.177623475699153370e-02,2.293359804161181417e-02,4.229641486456965638e-02,3.113542330340225428e-01,2.233950984718425514e-01,1.812074492630005862e-01,2.720909235542632310e-01
8.830173510161305750e-02,3.441898724298109863e-02,1.346650000974706773e-01,1.257382955454052105e-02,1.754129917257983562e-02,2.881101583919864345e-02,2.116161378371317625e-01,2.016033579108494345e-01,1.797229986604853558e-01,2.117004493303382417e-01
9.093165589899020185e-02,3.462354455404871578e-02,9.638939287863260152e-02,1.069265297397108995e-02,1.253061780149116247e-02,1.171375858134607491e-02,4.824380700506472608e-02,1.735052403029552215e-01,1.835514381346259327e-01,1.273759161268744056e-01
9.184754674434708610e-02,3.676612713928553711e-02,9.048240218828508541e-02,5.924656603657080418e-03,9.950592771654498403e-03,1.585873212245843527e-03,8.457665321300597561e-02,1.631451008880107911e-01,1.849539923866108937e-01,6.183465238671725928e-02
7.949507837975235136e-02,3.615222675057860185e-02,1.072713644432777558e-01,3.006314649654162879e-03,9.729433643001168808e-03,8.672682881745547370e-03,1.355203325296556738e-01,1.667960775328699852e-01,1.853388230251922786e-01,3.397335903953333652e-02
5.226135253156555943e-02,3.280409511957824154e-02,1.206930017104223402e-01,1.466319633616068076e-02,1.075323202638798353e-02,1.096753924299051150e-02,1.204311588379601561e-01,1.716493065034882248e-01,1.824230211909787513e-01,2.060970978354647806e-02
2.429268768858791269e-02,3.119749413166996235e-02,1.182038272282165681e-01,2.442568065972994945e-02,1.205227516594777233e-02,9.902971464631614429e-03,7.424244555914748245e-02,1.783376153757670057e-01,1.739458193983637879e-01,7.526935997609288803e-03
1.158670288504388274e-02,3.463378213313381832e-02,1.066236652239396371e-01,2.761959232661970534e-02,1.356547998396845540e-02,5.664634421837507622e-03,4.239770892382366263e-03,1.969942508960376426e-01,1.640001845216058907e-01,3.415129282106144082e-02
2.050635810883986998e-02,4.062828594614771582e-02,8.986401780843920883e-02,2.422101800304560237e-02,1.611532244102045069e-02,1.386632688070982625e-03,7.045813506827595940e-02,2.211806261987592503e-01,1.561305667624744986e-01,2.260288576422711179e-02
4.432358493048319664e-02,4.173755051971363844e-02,5.995297053907674978e-02,1.944652979110375948e-02,1.981968640237662810e-02,9.494884971457236145e-03,8.617714621429437005e-02,2.223115832862003760e-01,1.490626229581236972e-01,1.371333557129801248e-02
6.112990684704149025e-02,3.260868524800918794e-02,1.872954497922695721e-02,1.789028386836128207e-02,2.283827418066042281e-02,1.575246371030797690e-02,1.263743703673645899e-02,1.772987852701090050e-01,1.457671252891333258e-01,1.796130514480302753e-02
4.601176398134257384e-02,1.639002685149125102e-02,1.130085240213780581e-02,1.889471068619413829e-02,2.271309504820582040e-02,1.651904052371888296e-02,9.330083411906392454e-02,8.702206676497127591e-02,1.510991307660212168e-01,3.391923302544179453e-02
1.584418900858248005e-03,4.402115368402547899e-04,1.333464323220577563e-02,1.958141047024904158e-02,1.885500348792046310e-02,9.201709483656452318e-03,1.702768595167279964e-01,3.169645281116030555e-02,1.508514136531050320e-01,1.078885409262997919e-01
5.344491713032459290e-02,1.404043835462331219e-02,7.405443208502449082e-04,1.947432147398780664e-02,1.314739202673617831e-02,3.641321496839548550e-03,2.187958143618389251e-01,1.527697117807273186e-01,1.168167137579326637e-01,1.637345229914451972e-01
8.388921193920750863e-02,3.115296484355964055e-02,1.104944306245966151e-03,1.884648054951923446e-02,7.959098962201063138e-03,1.442481047996953952e-02,2.480459707692240223e-01,2.431144369132567096e-01,4.900886634556293059e-02,1.962425549210612963e-01
9.025076884719689108e-02,4.865689951337780900e-02,2.049676589512075542e-02,1.488145729049384670e-02,4.070673212246203598e-03,1.805186825052557814e-02,2.335480040141394986e-01,2.767420180175748090e-01,1.250840699261506622e-02,2.137217595006463411e-01
7.894544266606481897e-02,5.682412414011256407e-02,3.440754162866473120e-02,4.109754821956487433e-03,1.339360604561841504e-03,1.624771849302370647e-02,1.584825178923338906e-01,2.492356633998080717e-01,3.429126217288082368e-02,2.022547836546375599e-01
5.297100874233847539e-02,5.162345817012749249e-02,2.100983825927186036e-02,1.123309556451819458e-02,3.571303925902114158e-04,1.243788409447003918e-02,4.880701047375204937e-02,1.795049533569119393e-01,2.365321034778342102e-02,1.442743594128720053e-01
1.891872516354164632e-02,4.013517608066274889e-02,2.093829056009280723e-03,2.331815842355629276e-02,1.206929393414689963e-03,7.024043207145827181e-03,4.650109046554456310e-02,1.021960860715751818e-01,6.080903990938330006e-03,6.929666946222953761e-02
1.063061756761247631e-02,2.997780171587761944e-02,6.141687720220062249e-03,2.720727379517176928e-02,1.480010110294918951e-03,2.137008610970684772e-04,9.403229864189799336e-02,4.816871571150253134e-02,6.373885292134204988e-03,4.216139934385050581e-02
2.624049556603360103e-02,2.147481115470525545e-02,5.393402453072037445e-02,2.645969717135594756e-02,1.275265535196812034e-03,7.091403813373428101e-03,9.827781655462899946e-02,2.181552704909755711e-02,1.522151331682427763e-02,8.414024160938715635e-02
2.625416421241526937e-02,1.266054279107651712e-02,1.014000443090994075e-01,2.743456795463748710e-02,5.295953412158311766e-03,1.058849132427356482e-02,8.576318513807623667e-02,4.331852013698584553e-03,2.303706201132821318e-02,1.453286596451532353e-01
1.581843513335714699e-02,3.885171076572168942e-03,1.099776160275096754e-01,3.023236134187031951e-02,5.959572310009759837e-03,1.014188048615066208e-02,6.795011475287102143e-02,1.766324513303897670e-02,2.955797589289181626e-02,1.703693045194392408e-01
4.625603734933795078e-03,5.257502649804941461e-03,8.242020276617489927e-02,2.913778628468330703e-02,1.947655828544198921e-03,8.238598035719212065e-03,3.826817057526732402e-02,3.700100358056010452e-02,3.284344491321952025e-02,1.527906505139063342e-01
1.281830974357189845e-03,1.623776878989056233e-02,4.613343938095246927e-02,2.071447484164155514e-02,2.705776844803019655e-03,7.194121703098281355e-03,4.771510217213515911e-04,4.091489557661991128e-02,3.274781265428741012e-02,1.172815474625494708e-01
5.908018867102332768e-03,2.660409201333012799e-02,1.929190854449499073e-02,7.548427578439174078e-03,3.847264793826012282e-03,6.464383306259349239e-03,2.859480222508596625e-02,2.953918307237407559e-02,3.589473711457575461e-02,8.705353403330425011e-02
1.465866925964864551e-02,3.115654769175875069e-02,1.720954750644331649e-03,5.105156848697757488e-03,2.105218527212150519e-03,4.906197520985760771e-03,3.985382871663920024e-02,1.248789440236208574e-02,4.853223775569053683e-02,7.470449579844005983e-02
2.314095033369426013e-02,2.926930669655735187e-02,1.208674830960488299e-02,1.274285018269958637e-02,8.517907580611896144e-04,3.687156191481445310e-03,3.629157582388738840e-02,7.784826778621923779e-03,5.641550521018593584e-02,7.854290012027073664e-02
2.207988525010490602e-02,2.552343687973903166e-02,1.741444794271096441e-02,1.227817180406415298e-02,9.363900695674207781e-04,4.170452816838019806e-03,2.604347630393232665e-02,3.825761800092201959e-02,2.799622434440625016e-02,8.345761912201857258e-02
8.856552784491274199e-03,2.309940858192293181e-02,2.662378226710787263e-03,3.031553654077620823e-03,2.287867817065136213e-04,5.224963340009505797e-03,1.579951159438056432e-02,7.831297895531895426e-02,4.378256749231659167e-02,7.522769983040879238e-02
1.059267185521780077e-02,2.120970388177718935e-02,2.879956548906530134e-02,1.134389791620889557e-02,4.252899965542459443e-03,5.343882035979100227e-03,5.948314826283440659e-04,1.126032053926483700e-01,1.194709309529754515e-01,5.380569983009690638e-02
2.640314862661342216e-02,1.883913860924380304e-02,5.466339451266760685e-02,2.344371390861509780e-02,8.480939566367771965e-03,5.111054377958190210e-03,2.730629595637653131e-02,1.281752241570374984e-01,1.554578216458227802e-01,3.176473930300296317e-02
3.008588117570205542e-02,1.723728594310835333e-02,5.988305509834351142e-02,2.692859428935453700e-02,9.031089103952897462e-03,5.527599203377967473e-03,5.173395941695804745e-02,1.276086799041664666e-01,1.521309171527190640e-01,2.011182974868876844e-02
2.043288280441846530e-02,1.668490557241428252e-02,5.197823280393515377e-02,2.163680156984450556e-02,6.074558029490136762e-03,6.057584918320878080e-03,4.407411266117459980e-02,1.216035541965994893e-01,1.390241737224267027e-01,1.522953090515405568e-02
3.751244096759369547e-03,1.202774248587160956e-02,4.629393534264913262e-02,1.304472347535595711e-02,3.401368604121486876e-03,5.650887011807984549e-03,6.601130773066406221e-03,1.218633666858456310e-01,1.304147403784987891e-01,5.931467546958628725e-03
1.376008232098023532e-02,3.777842498171583852e-03,5.204195457532667657e-02,6.141766404707741170e-03,3.217604978528043093e-03,4.029336586874091540e-03,3.204969280532453391e-02,1.389046740566114158e-01,1.191497848455832925e-01,7.073143950631537516e-03
2.949283254592945797e-02,2.902852402583978864e-02,7.191374102863661022e-02,1.131826925655424979e-03,4.249585182372549522e-03,1.602089357781629093e-03,6.136791213810115220e-02,1.705378698777832713e-01,1.022461180129807801e-01,1.325019049170280717e-02
3.977432276225777857e-02,5.092962958956107761e-02,9.827071341894577650e-02,3.937225273880826798e-03,4.786261724287596900e-03,6.129051162179403964e-04,8.895426711645509910e-02,1.960023094549012412e-01,8.802059548163590486e-02,1.330989702740160291e-02
3.943657964531036009e-02,5.791345533253444006e-02,1.103140833023534412e-01,8.543167285265915872e-03,4.846903540090582996e-03,1.482079904553704154e-03,1.082307892348869649e-01,1.947498445216030161e-01,7.765985522105485483e-02,1.920597673215019424e-02
