4.286606305018268032e-02,2.996925383615054936e-02,4.679314649103682999e-02,5.430713971895746381e-03,3.723064991224661049e-04,1.566028852988628640e-03,4.386203099229003810e-02,8.573945740581874822e-03,2.173337583025917313e-02,3.515830478143445320e-02
5.003398789831925431e-02,4.979532797870672364e-03,2.416055595885811466e-03,7.992361842886300596e-03,4.637721419780112476e-05,1.800983858009608219e-04,3.565520106154719537e-02,9.118611487822536263e-03,3.260931957881829310e-04,2.644886691842851870e-02
5.952729256991962092e-02,1.710276115619919352e-02,5.636915839746531320e-02,8.767744696127864612e-03,1.530030364163936351e-04,4.588561692756072024e-04,2.212701507159912581e-02,8.077268181584284362e-03,2.591089570005789336e-02,1.999220490606355011e-02
7.253827633651988016e-02,3.630109126912454964e-02,1.020225413979353318e-01,5.541875125620624072e-03,1.118901760131053857e-03,5.547056665309614554e-05,1.349360984137135989e-02,6.175309068116855392e-03,4.706662465524732997e-02,2.240634163080558461e-02
8.636266813461219993e-02,5.567708655171930976e-02,1.331534502075589765e-01,2.070940109651603616e-03,2.538337432884167199e-03,2.918773520825601662e-04,1.348282932498635206e-02,4.363507362863335709e-03,6.062294044100324797e-02,3.327987936367381855e-02
9.692144473774974567e-02,7.677903470497106364e-02,1.531531195480750895e-01,5.823309112785984148e-03,3.025953720094042617e-03,8.122519902372003970e-05,1.592636392330205181e-02,2.551485170763079929e-03,7.142500210649377346e-02,4.502113365146864776e-02
1.048686881298385720e-01,9.726983178495141047e-02,1.726870168288011376e-01,1.520234526247391492e-02,2.632866345381088512e-03,2.226520150934349065e-04,1.405178057645863759e-02,5.848003956297019709e-04,8.438917293604446257e-02,4.743353268864588385e-02
1.137548919698632560e-01,1.114585028742033357e-01,1.994049485360485374e-01,1.954607486129711358e-02,2.883253313246737261e-03,1.397710213320204741e-03,8.025842500683184194e-03,5.325051299899044317e-04,9.518458611261348956e-02,3.692717158892714485e-02
1.229630235941153032e-01,1.152644553740705263e-01,2.238650877358221436e-01,1.473774613874314493e-02,3.921834232203011070e-03,2.673127609311219070e-03,2.061913435751087844e-03,1.503502105034552113e-04,9.312588350742521948e-02,1.925895541070315672e-02
1.301344091855693441e-01,1.122770627657752041e-01,2.250043694926747162e-01,7.601051870711964496e-03,4.212885844319505350e-03,2.915180064138564106e-03,2.040248128782468778e-02,5.602745334246212426e-04,7.404353460152533761e-02,2.579414643012886352e-05
1.366839111294440856e-01,1.118094394969754712e-01,1.967488105691033440e-01,3.155493497896636346e-03,3.589984606724172696e-03,2.668350881234185339e-03,4.192406891871186536e-02,4.674351673649540756e-04,4.716139513762702962e-02,2.056248382501880620e-02
1.398065718266105761e-01,1.184094871673515292e-01,1.593031493129248855e-01,5.588708063864671971e-04,3.752612618340095060e-03,3.145358797784908889e-03,4.788251778626456678e-02,3.247636416027678162e-04,2.702664996331534397e-02,3.907964835329306996e-02
1.256303289015503200e-01,1.259198847240103059e-01,1.379239424525548763e-01,4.783157037993038090e-03,5.179988553023077806e-03,4.287690124365965694e-03,3.079779162201514917e-02,1.028177438504801608e-03,2.084334460596377198e-02,4.601962167479641680e-02
8.566280203510320823e-02,1.253775135354356918e-01,1.380738926562134206e-01,7.885062934287589975e-03,6.417256003937954652e-03,5.181441413562533349e-03,1.069507573297267394e-02,1.601725018612674576e-03,2.682203205880471023e-02,3.839815454873411749e-02
3.539335569055207520e-02,1.173280719357840673e-01,1.448593531749980401e-01,8.934960993203920621e-03,6.705813453540846077e-03,5.411535533086484114e-03,8.204619349538264453e-03,6.438502400934828116e-04,4.105391162525574150e-02,2.551242227063835882e-02
2.602171482594213200e-03,1.107422095473864221e-01,1.416915576342727134e-01,5.936518620887950431e-03,6.648003147713866731e-03,5.111158730573971305e-03,1.458114031017448617e-02,1.507064720079116793e-03,5.805339622290158624e-02,1.748783626236785627e-02
4.013856636828853214e-04,1.081284938519980615e-01,1.258948081849495249e-01,3.836475397135022999e-03,6.401931919192443976e-03,4.578533065906671695e-03,9.621944350355036979e-03,3.404350099766665413e-03,6.665916333460859822e-02,1.573924507154832869e-02
2.048406677784546728e-02,9.958835423888025284e-02,1.058394142033466379e-01,1.631389646424730513e-02,5.664469921604698907e-03,4.332726690976845471e-03,3.653846425049669163e-03,4.261983628987065127e-03,5.621187280071505976e-02,1.530594331461426413e-02
4.580863158260287116e-02,7.806244650539119478e-02,8.648910273209722832e-02,2.123625218188741198e-02,5.030844014042558376e-03,4.986233729725595559e-03,7.641136827529241074e-03,4.253985639596308266e-03,2.807322195880716798e-02,1.131610779943357029e-02
5.962063057340055011e-02,5.248318533103078776e-02,6.374235763688761158e-02,1.422139442520631639e-02,5.243448524911610217e-03,6.737281261444967584e-03,2.967714937301739030e-03,3.820678497787112840e-03,6.800776420027696348e-03,5.572917008729558024e-03
4.829804125780005897e-02,3.632399270414545661e-02,3.138008451052948927e-02,1.186504846876466641e-03,5.692297742003517465e-03,9.002465554739333756e-03,5.784527665777079546e-03,3.301799802350170038e-03,4.076392618486304048e-02,7.548096557901132209e-03
9.718559722544007143e-03,3.053639483629112458e-02,1.213993444339864572e-02,9.783083903346168411e-03,5.407101769374177309e-03,1.076787919225779405e-02,1.961748430500372814e-02,3.017836983171279502e-03,7.200970984144394738e-02,2.228238175414818875e-02
3.832177638211728410e-02,2.826394449435651324e-02,5.862651388707245531e-02,1.379088630199834346e-02,4.730497800797577729e-03,1.158038149265684658e-02,3.416424757111036908e-02,3.166210302607642534e-03,9.521974772023104883e-02,3.896950872195832638e-02
6.842990624517539255e-02,2.921379478012931658e-02,8.679176624017120867e-02,8.839227782458403473e-03,4.429326779427529386e-03,1.170859386735038921e-02,4.488297945691375329e-02,3.490486478785018686e-03,9.834363408409406426e-02,4.122001456264766384e-02
7.078027565605726767e-02,3.789328680286119244e-02,7.729814064441863086e-02,1.718588174589470545e-03,3.973290187474351129e-03,1.060527674725110329e-02,5.195585477726188256e-02,3.458383449509507077e-03,7.358666962123273925e-02,2.714848260292275842e-02
6.443463975806157373e-02,5.247985145545260716e-02,3.977798567339214941e-02,9.674780487735807483e-03,2.419129249655804174e-03,6.340465240733219807e-03,4.782428830933981023e-02,2.782491390888207003e-03,3.032021228794333501e-02,9.374987894891597881e-03
7.163229468753262719e-02,6.523156603842300560e-02,8.843536943738227254e-03,1.122211130548045332e-02,4.904088400446921306e-04,1.339481137196578972e-03,2.725410299961117389e-02,1.644969145120210152e-03,7.928271069405029223e-03,3.177687890602068441e-03
8.727521814639115083e-02,7.028802231215798557e-02,6.162808383216009794e-03,1.053410050769206137e-02,1.415596192485880944e-04,8.425834314659317800e-03,4.563815630806016509e-03,7.523847580445300722e-04,2.338047768951115671e-02,1.324009354727062777e-02
9.067026047452281245e-02,6.410025595455333403e-02,2.340538167364113881e-02,9.477038048629824254e-03,5.131204995636148066e-04,1.034590898337405668e-02,2.027646411923038784e-03,8.851445875245763338e-04,1.762408195576404060e-02,2.548480486533568831e-02
8.315563029667538686e-02,4.407410348221375840e-02,4.445028332397627652e-02,1.426850344395204535e-03,8.160655203155088187e-04,7.695339480383560013e-03,2.211589490931616456e-02,1.959632050755358897e-03,1.702055321888748356e-03,3.851921057112125263e-02
8.904444357223365025e-02,1.520043364795183038e-02,6.464090340371916876e-02,1.809608931284837838e-02,1.040920556885626942e-04,4.963331679168145848e-03,4.484639395382310906e-02,3.090560739181525893e-03,1.926719249073327589e-02,4.896467489323667877e-02
1.153856250223931346e-01,7.363379475556328449e-03,8.535762975987593038e-02,4.019830533054276345e-02,6.890657385035186362e-04,4.103865819929930318e-03,5.437683733231252203e-02,3.558989350906927897e-03,4.445931313936497820e-02,5.692962833459989935e-02
1.373037001083153852e-01,1.190208169456904649e-02,1.055398613179479722e-01,4.915991675486568874e-02,8.420199725295971676e-04,2.759311870587959330e-03,5.675880922686327157e-02,3.111935562353873239e-03,6.969112788371643885e-02,6.339494023573663539e-02
1.331235767128251812e-01,3.826335831260159817e-03,1.227278256940558393e-01,3.843122039493619690e-02,3.800576563661553801e-04,9.906198601381133867e-04,6.401264290033109594e-02,1.934278007709172272e-03,8.890062471408072264e-02,6.605273945154914450e-02
1.101349004644079088e-01,2.377121639161746368e-03,1.332167553913713720e-01,1.617944209445843634e-02,8.359663491141094190e-04,4.991537352619857676e-03,7.060336928731535122e-02,6.860975634015573825e-04,9.690957202879497967e-02,6.266502424583483832e-02
8.308476154530232416e-02,3.384001258369185618e-03,1.298673657845810792e-01,3.314456032577937656e-03,2.532902310319537498e-03,5.580508242248291388e-03,6.142802040649776585e-02,2.558526702902414319e-04,9.090703316159653991e-02,5.615582545651503360e-02
4.880165854675903858e-02,8.954071509269958748e-03,1.098254869636679926e-01,1.250234696699254085e-02,3.092679581765868206e-03,2.505408543971838261e-03,3.862954064467885584e-02,1.283464401982990517e-03,7.659066052626428700e-02,5.184187901618036304e-02
3.076994183323335241e-03,2.056459754052944455e-02,8.535652145002073365e-02,1.741566872874950392e-02,1.401129349809730968e-03,6.422390771592633146e-04,2.111489892610690644e-02,2.595132915689327309e-03,6.739486258790897133e-02,5.273658279784099179e-02
3.044344520340931670e-02,2.134084929682849435e-02,7.253318096764316270e-02,3.029005326508374049e-02,1.091110158068680711e-03,7.881869585258660660e-04,1.749753369585049789e-02,3.603419698299202382e-03,7.006377648111351830e-02,6.047303757675281943e-02
2.063593941769010023e-02,1.297622654298498206e-03,6.841471604934021289e-02,5.280542872819663641e-02,2.296642698656527377e-03,1.855687637931309952e-03,1.927437885751813115e-02,3.624648291091702237e-03,7.700336714546412997e-02,7.426558460925357374e-02
2.149007724288097207e-02,3.406205232214448708e-02,5.992026601457865059e-02,7.191563255057845105e-02,2.406082023706845006e-03,5.674488836906980450e-03,2.231591498712554716e-02,2.407785684057129044e-03,7.665702435513732649e-02,8.577420859953667487e-02
5.081319780141814457e-02,5.313372261925153328e-02,5.360681001070609353e-02,7.604414277651895537e-02,2.748296836781959594e-03,9.573920038059860471e-03,3.279722051536727162e-02,3.119528794598430558e-04,6.525519972018531401e-02,8.141865465722515627e-02
4.975209539844487050e-02,5.246557965517377464e-02,6.795808972050532137e-02,6.811903321397230759e-02,3.078706776628494651e-03,1.190135730422286001e-02,4.609910346405193121e-02,1.644341986631877662e-03,4.660732310757717545e-02,5.147755452222353700e-02
3.939387470549180620e-02,4.539271679468604576e-02,9.760877700036020566e-02,5.694851927121291624e-02,2.485220739512507878e-03,1.075301654783348410e-02,4.348885628188809555e-02,2.606661148157692412e-03,2.450341405633970834e-02,3.751111154017662021e-03
2.793493315577256358e-02,4.575681506142176974e-02,1.168074332026747403e-01,4.251634603709343596e-02,2.018348313841402189e-03,7.326485748545190878e-03,2.069199070459913983e-02,2.706719421095286036e-03,1.106753679476443243e-03,6.937009106900654531e-02
2.785041285039068990e-04,5.448482895862483133e-02,1.184009955189113533e-01,1.849301450647311551e-02,3.667885895143167558e-03,5.437916071843011678e-03,2.835476427007048179e-03,2.491073838978536716e-03,2.711844819938991069e-02,1.171866961642926419e-01
3.688664739892794781e-02,6.114118537949134180e-02,1.227491813013153327e-01,1.321987623909771405e-02,6.948831634752146609e-03,5.770433079824371231e-03,1.521480302637819547e-02,2.078678895964993206e-03,3.923974026128278919e-02,1.246510433098806520e-01
4.202241142409749580e-02,6.029359805845489056e-02,1.479502082760491555e-01,3.991072730859341472e-02,9.037319118900381115e-03,4.673338592593719726e-03,2.807220795282449818e-02,1.249274740826958677e-03,2.179698528003421246e-02,9.644442325283893169e-02
2.286469020820360368e-03,6.540530089952120707e-02,1.893817795670334758e-01,5.189563385356918412e-02,8.594853985999444806e-03,2.525803595716529133e-04,4.796032973483563971e-02,2.249370719685134289e-04,1.968734296822970825e-02,5.930918289817843636e-02
4.460684900813242926e-02,9.253374053758726958e-02,2.283975298612728189e-01,5.179781078437436376e-02,7.376242004392568642e-03,4.755677127123222360e-03,5.946882679994762444e-02,2.232734551964327217e-03,5.340484205648234062e-02,3.509751127799516646e-02
6.399134305641826503e-02,1.301483147895163561e-01,2.510009076660592586e-01,4.812351817472294152e-02,7.499983495522623798e-03,7.332040688265114778e-03,5.292479543958356070e-02,3.945205212269729811e-03,4.758511303516350238e-02,2.560360560476908354e-02
6.729738981030811140e-02,1.454948827821959390e-01,2.547980865814447049e-01,4.633074347034703278e-02,8.904270947175278034e-03,7.265435914901165887e-03,4.229742449451222297e-02,4.502629963657097875e-03,3.086600398708272668e-03,2.297732557237398832e-02
7.761016777902760011e-02,1.255572915943996559e-01,2.363264205594462763e-01,4.784785063833247448e-02,1.041872372022530253e-02,5.326141353016172232e-03,3.919818435441337068e-02,4.328845282118479187e-03,4.470445722486795365e-02,2.550635567464761694e-02
8.880849840051309452e-02,9.720712970976340406e-02,1.794281973116150786e-01,5.173236753193724557e-02,1.172968803056609333e-02,2.106287724625561467e-03,3.400324699979950099e-02,4.773871054729544525e-03,5.850760545919624772e-02,3.680955003739529163e-02
8.770471589287048841e-02,1.012365171149916948e-01,7.592528625958178123e-02,5.407342578843393061e-02,1.277707662401136694e-02,8.329156580005065563e-04,1.899007009925199330e-02,6.245571221828063839e-03,3.084767917027392281e-02,5.422148367644539363e-02
8.271911478357096836e-02,1.487125388941459569e-01,4.469994450926423335e-02,4.686721310431877369e-02,1.258669933010320499e-02,1.778580407532747007e-03,7.145026380687946078e-03,7.503650700574190403e-03,1.530092703009461666e-02,6.731109049245245779e-02
8.203494044954338926e-02,2.049359730205074226e-01,1.335362372699053224e-01,2.175140554038294122e-02,1.065671798827417215e-02,1.350387541965898794e-03,1.017841793694713309e-02,6.940765794443538514e-03,5.085363420078118507e-02,6.884983033743477532e-02
7.321900993778131250e-02,2.233866237168057045e-01,1.712429637963727158e-01,1.765885602405581692e-02,8.539308317924747954e-03,1.714452306888944802e-03,1.684728370603571709e-02,4.182569472288352221e-03,6.489095836495557823e-02,5.999599437470704705e-02
4.717622542677599173e-02,1.957085846900358805e-01,1.772733547988617764e-01,4.981817191650465132e-02,8.190513736257128141e-03,2.899822986762148370e-03,1.237723220727288305e-02,4.027772654127619143e-04,6.537227204350269660e-02,4.247159589252571393e-02
1.596707997917461846e-02,1.558632784491025269e-01,1.785862807630310689e-01,5.529836630851939910e-02,9.448658262135777031e-03,2.092522638532721361e-03,5.957592505582766894e-03,2.818566004164981507e-03,5.354089734457393585e-02,1.321132602669508257e-02
9.890456378683566002e-03,1.343245919900181995e-01,1.907567780722929651e-01,4.127687536313189021e-02,1.063248978075455493e-02,2.626713315656630313e-03,1.848157594743331592e-02,4.696339584328660874e-03,1.169150752691004193e-02,2.635407661234680232e-02
3.889752573347819709e-02,1.251777252389124351e-01,2.169358236086892100e-01,3.082017946753601301e-02,1.081519992425464087e-02,9.390424398069696643e-03,4.826875684033523489e-02,5.141936403868462707e-03,6.420089550814081503e-02,5.970763983598821600e-02
7.915260993679612556e-02,1.044328355373909528e-01,2.446750824936995139e-01,3.234656751119156098e-02,1.008322313743617755e-02,1.406405044318768081e-02,6.678688623917601597e-02,4.174286287389744089e-03,1.377142087164762441e-01,6.569323196307358392e-02
1.213990223410094799e-01,6.553971784759732300e-02,2.544469293061086823e-01,3.619409054172030571e-02,8.726382188234255849e-03,1.354720206599641270e-02,5.118613991364097393e-02,2.168050282745317102e-03,1.682347620566020108e-01,4.411424662604743197e-02
1.574274658211571032e-01,2.421861772099728055e-02,2.393998334983327425e-01,3.360023052230177304e-02,7.952522919874270568e-03,7.722995334246920800e-03,1.287209955403969402e-02,1.210363803441564363e-04,1.560639719995702279e-01,2.114269673398680785e-02
1.950141170080142983e-01,5.810541616491696898e-03,2.008668294672137644e-01,2.224989826824710568e-02,9.791618500390796703e-03,1.082674179714064806e-04,9.982160883010168795e-03,1.008223297180115084e-03,1.227227423438062293e-01,2.010722907474645979e-02
2.282623808706758517e-01,2.838415144860009093e-02,1.344175125520101488e-01,2.902693833522320202e-03,1.376464955782933514e-02,5.110783205310208757e-03,9.592229503121989242e-03,8.898696533543232808e-04,7.389263237932451600e-02,3.352697731433820078e-02
2.123668334666377888e-01,5.139130944955516700e-02,5.479687174991314941e-02,1.439190814020026299e-02,1.511512635388591666e-02,4.976056123528143846e-03,5.701831281240639371e-02,1.374648875555976044e-04,1.638650582663359404e-02,3.591874200045930277e-02
1.105076965999666344e-01,6.713516611659332833e-02,1.540476650241178261e-02,1.323932016789409853e-02,9.389244056323839405e-03,1.226518536727249677e-03,9.207407073000577202e-02,9.097314231488076545e-04,1.715628476651252787e-02,2.048452246874492289e-02
4.078197874465194078e-02,6.064330286414931770e-02,4.963011202761864055e-02,6.082476035473422665e-03,1.771930133830272504e-03,4.271150211582415250e-03,9.618416650567172821e-02,1.409933270427060235e-05,6.805672754901185423e-04,6.588309382837471452e-03
1.549715264920175084e-01,3.675064936973800739e-02,1.094453506634676387e-01,2.075309929885315804e-02,1.204056145247404085e-02,1.141653708761236445e-02,8.955218674425806380e-02,2.359526252302181562e-03,4.616001927763398877e-02,7.799913644167168723e-03
1.811455032462634951e-01,2.227219380997360471e-02,1.199088996012124958e-01,1.507308637036260113e-02,1.748098980315110351e-02,1.950917998892660876e-02,9.631052452041674594e-02,4.128921200564354861e-03,8.000226022331530240e-02,1.105152011976296561e-02
1.343827436656519214e-01,3.544235616924820004e-02,8.072629227918483308e-02,4.864976093952777438e-04,1.950224964018933832e-02,2.581773866681335086e-02,1.089915808228604233e-01,4.093026011746795853e-03,7.998681943150330598e-02,1.143561448624348361e-03
5.675811298107911324e-02,6.590218686323313924e-02,5.747187877359494906e-02,6.219028927122342149e-03,2.048216631287277587e-02,2.784622036225368330e-02,1.016501666965696216e-01,3.559748810100660764e-03,5.720380515998235021e-02,2.328172126689020960e-02
1.350327318162581648e-02,9.117187796841684511e-02,7.956607459941700267e-02,9.141171847559196456e-03,2.020339513705242049e-02,2.533950854974609604e-02,6.967736552504187608e-02,3.920101533340640369e-03,3.656645509881497474e-02,3.658490331505374199e-02
4.681059631868370041e-02,1.017832781942086123e-01,1.039768825472951741e-01,2.238747617890115768e-02,1.835800489912745720e-02,1.967574747639504185e-02,3.621941041200298084e-02,4.546189182846127087e-03,3.952210478247054209e-02,3.414434385311955478e-02
3.572167637204767127e-02,1.035995169768391677e-01,9.074724262562351706e-02,4.279419124784233225e-02,1.660370019038180656e-02,1.231310025371764802e-02,1.657146841862289569e-02,4.454783884333462715e-03,6.812246283294313975e-02,2.149698114474912769e-02
6.535242996616845608e-03,1.054636898213593271e-01,6.043445695731465561e-02,5.151554317660543558e-02,1.519112735083131757e-02,3.827066698646123654e-03,2.402307786245986947e-03,3.843924024380420724e-03,9.555871120709087674e-02,1.072324707794325904e-03
2.946916688039862443e-03,1.112942407842138215e-01,4.507055389898045883e-02,4.261864717949589293e-02,1.119151250048735016e-02,5.831050594076679291e-03,3.582584563545861134e-02,2.865280697100200478e-03,8.216977966006701328e-02,2.896359335443058486e-02
1.963792823311574093e-02,1.175265395938404345e-01,3.148694428494870634e-02,3.264747236285418797e-02,3.585885383406051292e-03,1.547317837066708966e-02,7.100447920185373740e-02,1.145484505794955180e-03,1.586337685026066938e-02,6.201712829385616632e-02
5.363461588446218065e-02,1.165429930631275007e-01,3.901776205288202265e-03,3.331963748249158058e-02,3.097343284273498202e-03,2.085607907776118250e-02,8.007983040115992934e-02,7.756885965764403383e-04,6.012653706981054696e-02,8.018213499399212685e-02
7.191554509216536994e-02,1.090233415519744620e-01,3.277414013004159576e-04,2.996545637538017282e-02,4.156190326899070024e-03,1.688105804767407736e-02,5.357399374027830424e-02,1.613148467369710220e-03,7.701701637632824005e-02,7.006800262788345779e-02
6.696319077473550374e-02,1.086856654612427808e-01,6.051635296336697889e-02,4.575665328388248479e-03,1.582437025383863971e-03,4.221957530846909973e-03,1.022791228802547719e-02,1.283514445501532722e-03,1.436238052306061143e-02,3.968865806528109469e-02
5.076851066043740202e-02,1.242258848164040502e-01,1.475003665528353824e-01,2.878218042723123399e-02,1.658415629747096373e-03,8.022465778152755231e-03,1.940624876416734840e-02,1.053378950063049496e-03,7.090779775245327488e-02,1.356259053326608864e-02
3.775821259782541350e-02,1.412882824114287117e-01,1.910260315521557783e-01,3.783303870249871831e-02,6.242578589966927237e-03,1.093107698499639832e-02,1.498624513921949924e-02,1.696271746696767415e-03,1.108226956344965791e-01,8.762109577589376197e-03
3.228883205911557697e-02,1.368686308582979516e-01,1.885246996604871272e-01,2.314105786823315858e-02,9.868172951806659238e-03,6.319046095304413704e-03,1.702321712279828217e-02,2.792720123072864238e-03,1.057595844572774418e-01,2.094297636715553371e-02
2.860166464645334111e-02,1.102765478304123248e-01,1.953585790922816590e-01,2.363004571095624756e-02,6.826997101587573870e-03,3.401706319452631015e-03,4.881695245442985859e-02,3.745981041286125784e-03,1.102191374826772402e-01,3.535908689129962923e-02
1.975152461351795813e-02,8.384448628415185067e-02,2.309617733917379290e-01,5.769955705043942201e-02,1.408411296193360024e-03,5.725964056951552902e-03,6.340349108482210005e-02,4.310511707086015117e-03,1.508417267762092173e-01,4.195727064400597839e-02
7.250766694028566890e-03,7.220574958849713954e-02,2.571661939827515342e-01,9.091154344505432416e-02,8.726199495248398302e-03,8.159791251645084550e-03,6.947904587081027428e-02,4.331564536242189095e-03,1.937016345236310944e-01,3.578005070687466371e-02
2.636604666953327493e-03,6.857215966633981030e-02,2.389548749138842021e-01,8.407816380407083512e-02,1.248284199596578180e-02,6.840055336912167702e-03,7.301530933110055022e-02,3.997417112046076047e-03,2.003969149314732967e-01,1.566906284875684355e-02
1.809913165780035332e-02,6.377900350266080265e-02,1.778629396257573325e-01,4.643454983277966325e-02,1.468945260778933490e-02,4.433294636730964779e-03,6.233021827707077578e-02,3.879471938793638969e-03,1.851778088884646900e-01,9.590995005726760808e-03
5.191073380340630039e-02,6.006062212416313911e-02,9.353151372178056255e-02,1.740081016492912858e-02,1.620452879317246450e-02,3.998593198801875075e-03,4.023159629364602557e-02,4.037692888609111484e-03,1.903738529812674107e-01,2.664056039101998438e-02
8.491498145594923719e-02,5.927514811715224596e-02,5.170785011912634732e-03,1.575187755623246727e-02,1.533519861728272968e-02,4.657672263395059090e-03,3.343686587330169796e-02,3.850204478399156093e-03,2.204298768283396159e-01,3.604995610008051438e-02
9.687640037067248022e-02,4.984912653965752061e-02,7.302544534047862579e-02,2.876996092895510101e-02,1.246312031584625828e-02,5.500648025442868641e-03,4.667947000211368491e-02,2.971756530931508270e-03,2.311236345563903727e-01,5.045239202322281818e-02
8.112153819789508225e-02,1.324531476657287050e-02,1.332766971937572043e-01,3.895520196163253929e-02,1.071813581007977773e-02,7.783191631196561232e-03,4.785617426266808305e-02,1.740090321409226834e-03,1.882404647123044061e-01,6.968764898743304292e-02
4.091968685206846812e-02,5.546373779780203184e-02,1.731353414045666284e-01,4.148923881561473320e-02,1.104823822326135400e-02,1.089992433356689640e-02,2.097609922289808693e-02,6.979630772145961658e-04,1.140173679143836466e-01,7.841560836625915965e-02
1.142713851848198986e-02,1.322940414735146175e-01,1.991791074474737189e-01,3.818555962991007635e-02,1.077006878288776746e-02,1.093591096776387779e-02,6.503184525988954176e-03,2.029458046489497408e-05,5.762577053040051495e-02,7.269191376469351373e-02
4.981074044755840619e-02,1.785476431321029178e-01,2.280506070476958358e-01,2.932367937608682321e-02,7.658767946056414984e-03,5.950078776285311344e-03,9.411006842749501666e-03,5.234378920693574799e-04,3.417553030632557859e-02,6.503832503843511026e-02
5.519919927338846205e-02,1.797465563030478108e-01,2.662602588296352213e-01,1.642172821771305247e-02,2.388255626690586730e-03,6.949411406283946980e-04,2.374911677633913774e-03,7.619243325508047969e-04,1.823875274749504893e-02,6.135124565621422749e-02
4.231466747506899828e-02,1.578798336306423689e-01,3.005295117632873492e-01,4.029673076786173883e-03,2.972288408580569131e-03,5.374377579329909192e-03,1.230561963390231980e-02,7.586142725883560870e-05,1.369683463129854964e-02,5.861453751182848365e-02
3.595660515607741053e-02,1.334246822982969871e-01,3.276499459131098635e-01,8.019306062360939680e-03,6.512990558785206226e-03,9.043079036711006505e-03,3.897159897110307608e-02,1.833286131058415799e-03,6.145925584852465762e-02,6.323026460194065834e-02
2.923206339066131143e-02,9.633878884702466727e-02,3.627889220263895154e-01,2.637794223473884439e-02,6.938690513320601265e-03,1.222223062009927461e-02,6.101696312873928357e-02,2.869363598931902112e-03,1.107327013274860827e-01,8.400185654602353169e-02
2.261528776924368218e-03,3.794719127102833683e-02,3.950746104574925921e-01,5.052481372055794839e-02,4.159267425308236024e-03,9.582369909021741863e-03,6.615683673587699487e-02,2.263155840409065023e-03,1.442143841543542249e-01,1.087204951738375697e-01
3.432368265926734330e-02,8.153429209870378253e-03,3.857428546048166096e-01,6.651756500716848874e-02,3.096843004968105519e-04,2.480410870634358177e-03,5.871884894727364551e-02,1.148019927650298063e-03,1.556766845751191009e-01,1.120542756567001613e-01
5.881313533158647605e-02,2.830077354236534056e-03,3.410124395639265171e-01,6.557132222681356926e-02,3.731280287077367967e-03,1.637118088010524816e-02,4.346942709153284179e-02,7.891606276654829699e-04,1.592922470283601177e-01,8.815946285397531501e-02
7.924506657781066332e-02,5.736053281554932132e-02,3.238598384467833990e-01,6.056321499304619799e-02,3.343819156906401545e-03,2.038988600132582082e-02,1.625271029267834344e-02,9.332130515858471503e-04,1.675406594046587039e-01,5.768216122914062577e-02
1.090610777671827125e-01,8.961141687166093717e-02,3.507289740621465368e-01,6.881792738101480400e-02,1.630434415639853314e-03,1.297793560979072260e-02,2.585232624943963400e-02,8.929001267979769230e-04,1.654176760871262364e-01,3.921894513686020184e-02
1.295842392335904425e-01,6.572636061439651733e-02,3.401140308659426625e-01,8.362973790841569943e-02,8.281118601182696146e-03,2.780321515580376664e-03,6.771063676919973628e-02,7.306314431803153948e-04,1.327498737823271935e-01,2.885548262725320598e-02
1.207204143678781427e-01,1.641756379230249405e-02,2.223148616238427022e-01,8.136950604169369827e-02,1.118251073084738402e-02,2.292760102688029111e-03,7.634965809728982977e-02,6.505721326737262580e-04,8.695108396000683637e-02,1.351675422504814220e-02
1.007038524084927639e-01,2.449692063293595554e-02,5.215901661566815090e-02,5.676412563776356279e-02,7.332719151707323482e-03,3.527063216886194754e-04,3.295299749052599259e-02,4.591711732719668958e-04,7.183380308746786791e-02,8.792042766085483158e-03
9.963919743269900042e-02,6.070751898891767195e-02,5.604621759561842498e-02,3.274080612661012246e-02,9.836009882451478802e-05,6.080671124563556684e-03,3.347555384317346672e-02,2.973528700884450543e-04,9.807257147615439097e-02,2.918931336294852685e-02
1.171905205818609963e-01,9.456162093735084873e-02,8.030166131669408403e-02,3.083989766453028997e-02,5.358774174525806309e-03,1.165168867963792612e-02,6.616444290538564532e-02,9.134649429216835578e-04,1.255034752865318293e-01,3.986197171272980871e-02
1.240229739786522373e-01,1.000367111650182633e-01,1.052132452213814656e-01,4.693264226992624466e-02,6.551594644613705290e-03,1.074690147156447291e-02,4.251671046430179068e-02,2.400930158554549169e-03,1.211041305660291861e-01,4.233864212799193921e-02
8.469132250878483315e-02,6.438231579425919560e-02,1.833470921528603526e-01,6.355047944954210493e-02,4.980119120067855697e-03,1.964013933218902459e-03,3.925339285667881623e-03,3.381531367631289680e-03,1.063445479118437786e-01,4.731594201712997771e-02
1.547401941384529689e-02,2.213786074233186491e-02,2.516081560035637876e-01,7.478184370662677161e-02,1.248034750337002896e-03,1.080211068344594412e-02,2.815783307460693885e-02,2.480392933680115961e-03,1.229442314382023504e-01,6.129216118076884906e-02
1.424794574408443648e-01,1.846571014160175786e-02,2.246080873553513990e-01,8.589846187749465567e-02,1.827410750235215330e-03,2.142855792917172653e-02,1.898638198804482660e-02,2.775882175285552264e-04,1.739315991383042770e-01,7.000203358665468834e-02
2.308207391263273900e-01,5.491534182074210568e-02,1.249745241032690496e-01,9.150789252812725760e-02,2.804666576620170378e-03,2.458275774371405584e-02,3.620050386475903888e-03,1.408813833522697123e-03,2.240707471947387674e-01,4.899696084824083780e-02
2.474565453232053236e-01,9.300811223330329724e-02,4.804163854992976601e-02,7.234811059365403585e-02,1.709764854212378338e-02,1.894561021112747476e-02,1.678468596687952841e-02,2.059484647555594097e-03,2.455784823671998407e-01,2.749014062882696591e-05
2.126033159607960132e-01,1.063927839399677056e-01,1.784078271324503889e-02,2.318748467240378322e-02,3.160410131394786326e-02,1.018444111595543516e-02,1.486111230875870881e-02,2.707172974207667972e-03,2.424222317609546762e-01,3.995872580745114117e-02
1.516408061531935303e-01,1.090624429982917365e-01,1.852172914008482635e-02,3.166255134890248735e-02,3.627405401186668821e-02,7.351788929004116416e-03,8.818432038902651246e-03,3.687314545473158525e-03,2.358854667972328234e-01,3.995723205547595941e-02
6.945756928853090428e-02,1.226187643874486755e-01,5.932083373924240677e-02,6.443297715345853993e-02,3.139116145764964810e-02,1.401428035725712194e-02,5.068444686729102477e-03,4.237791239202358742e-03,2.449863112041024693e-01,9.049841629339326621e-03
1.448294476882771437e-02,1.354982521099979131e-01,3.881359614759542082e-02,7.383558839602182011e-02,2.194290021637913118e-02,2.585163425713866286e-02,1.149953161495285460e-02,4.420220911082502722e-03,2.788346074646881334e-01,2.453892063776097823e-02
4.985472281845501619e-02,1.193463201746306490e-01,4.825867585803877285e-02,7.974881585349333224e-02,9.348970925267490947e-03,3.721406580314377127e-02,5.792154871920465742e-02,5.030062363010395256e-03,3.262099765423915887e-01,5.100274435222232339e-02
7.339215315471384754e-03,7.319896073106069156e-02,1.348778673363757175e-01,9.759825547365365284e-02,5.441879237095816231e-03,4.627768698977827166e-02,1.158027832375364136e-01,5.537449495611581132e-03,3.492397427614781780e-01,7.660081378028246735e-02
7.509675055855700998e-02,2.475607264200965427e-02,1.849696301350690630e-01,1.205272592327922138e-01,1.799873546989513851e-02,5.343218975406181098e-02,1.365295098910832283e-01,4.495231389842482654e-03,3.115519606239158246e-01,9.677324917311265484e-02
1.301369543833627018e-01,4.462990326381211133e-03,2.059004319548806694e-01,1.236973652511336452e-01,2.425101756719250795e-02,5.675207484170680106e-02,9.432957030225441741e-02,1.930275247581742393e-03,2.226367626120386023e-01,9.513352059793830917e-02
1.279555639752373575e-01,1.823876139675405239e-02,1.854203035874474603e-01,9.413767903237296730e-02,2.325808645193990637e-02,5.041872921166356408e-02,1.559390881902381065e-02,5.836379879717991208e-04,1.350401334945029175e-01,6.748534649526341522e-02
7.755547635449762389e-02,3.840818394610216735e-02,1.021758446454578001e-01,5.372786324676120939e-02,1.557237353867860219e-02,3.104452311911471210e-02,5.253812719437431916e-02,1.876785626340892951e-03,8.793886692518063097e-02,2.982540942799021336e-02
1.141001833384480777e-03,8.056911422141918577e-02,2.188095137160565515e-02,3.495978968103227030e-02,4.869915442807497968e-03,6.533166593063619021e-03,8.351135142555479729e-02,1.959243483401817108e-03,6.978355602840335958e-02,2.283996108837130223e-03
4.933692365326423218e-02,1.260876846309836596e-01,1.278573126198380150e-01,3.827647125878574225e-02,5.817319332276024452e-04,7.982276818211014521e-03,7.488358709246221989e-02,1.459188149674715482e-03,4.374198810638367518e-02,3.659462235633104653e-03
6.170352012222263607e-03,1.341181661577741380e-01,1.604553447065251992e-01,3.533047464509578989e-02,4.402869327016049883e-03,6.351442797993873783e-03,2.982734908225801590e-02,9.561765820858761237e-04,6.529124299077482263e-03,1.276810944581809049e-02
1.237943244890504085e-01,9.842477237722346839e-02,9.667027992205068365e-02,1.135335231548616208e-02,1.452830118299556876e-02,2.130141966602830221e-03,4.796488464393935253e-02,5.443699108817800017e-04,6.255573026921193436e-02,3.796032233494327224e-02
2.365718448917516759e-01,6.477528744572885744e-02,2.903769416915105012e-02,1.728749580634082739e-02,2.065379504363721794e-02,4.985719721381070765e-03,1.376882164589247337e-01,8.412793855940776705e-05,9.181711626328969977e-02,4.716398941197894740e-02
2.458007651745047761e-01,6.864972215350555185e-02,1.314814245048052110e-01,2.851048341890458776e-02,2.129418404545559487e-02,4.188118030549654609e-04,1.920988885649470845e-01,3.084743485687627086e-04,8.303199657084316121e-02,2.674208604341458614e-02
1.658069501452571204e-01,8.424673275089536451e-02,1.437444486624493423e-01,2.066830422149763119e-02,2.195454811411562054e-02,4.112192927644381206e-03,1.693616645616489447e-01,6.259667131110852002e-04,5.840478492395791144e-02,8.989395079020485319e-03
6.160633972312917761e-02,6.251957362849583366e-02,7.423581784325317123e-02,8.741058396391054863e-03,2.572011874818971519e-02,3.761724655426905602e-03,8.009116033808745538e-02,1.227521611871742807e-03,4.086264144823578692e-02,3.359890627375052702e-02
1.771789808438078984e-02,1.541627026709166187e-03,1.919288579475336362e-02,4.697473857747541150e-03,2.992890025286043879e-02,1.309362395998685995e-03,1.958237268330392453e-02,1.998618795429889239e-03,3.140648128266409350e-02,3.627520518898747631e-02
4.743292730424541331e-02,6.739148425894164740e-02,7.781311259487015686e-02,7.800858892677921957e-03,3.089252667465250402e-02,8.565145388000432701e-04,8.743934742796009851e-02,2.126787909541749417e-03,3.769212324983843565e-02,2.445069696879043422e-02
3.208627930768541414e-02,1.024546363763447071e-01,5.473563916133303980e-02,1.033859339524132587e-02,2.781593200801612403e-02,2.486866801563280497e-03,1.230094769618439166e-01,1.357924204968307237e-03,7.983627949139476820e-02,4.390387066972471775e-03
1.172321815861218468e-02,1.109714582728731497e-01,5.882405912149360483e-02,8.468388947162040076e-03,2.263494340873044297e-02,3.436789265256426189e-03,1.334708314655920769e-01,4.346478028847691136e-04,1.394265794554266635e-01,2.759668278075801465e-02
2.553966981670830610e-02,1.107318435971705317e-01,1.868172534708390786e-01,6.457160242447196850e-03,1.879009168124480197e-02,4.165696758528815696e-04,1.075185329112100796e-01,2.421330036122244594e-04,1.547335182828834810e-01,7.106033376926074174e-02
7.318347628383668757e-02,1.002150408536423565e-01,2.016098290644667002e-01,9.559051397948853390e-03,1.935935956219634463e-02,1.217813011070238705e-02,4.140691148563228202e-02,1.095561987247645717e-03,9.455913398597336206e-02,1.107090205912590608e-01
1.321877224492830072e-01,6.273296628457654400e-02,5.528695472877525469e-02,1.596257115170551452e-02,2.375371804087758262e-02,2.816597581435461087e-02,3.747599770643101486e-02,2.015419782986611376e-03,4.967933874155263697e-03,1.330976731842934413e-01
1.878283137789366897e-01,6.820183707156652307e-03,1.490220411144582702e-01,2.211786381721483202e-02,2.691737909893684652e-02,3.853927748788651270e-02,9.881637778706216235e-02,2.075119616275303627e-03,8.711705164674340973e-02,1.452707087621454007e-01
2.188461706014264430e-01,1.832195798863573907e-02,2.712353580506842721e-01,3.215951351729978702e-02,2.434731386898848424e-02,3.769958801483907357e-02,1.391302267267272297e-01,1.059718176530829526e-03,1.180772755442743710e-01,1.575469134354152423e-01
1.864312628073020173e-01,1.978948482604606443e-02,3.045106149133740558e-01,5.021343782399850103e-02,1.709920132878014337e-02,2.868051942213295166e-02,1.562570178978893165e-01,1.863642941901990366e-04,8.763500263747533991e-02,1.571457676148858840e-01
8.153810676212501496e-02,7.682264460245871729e-02,3.569562822658599033e-01,6.586680773546585432e-02,9.325165497243048662e-03,1.544280917830458469e-02,1.231155507516593223e-01,9.598889741463220888e-04,1.269655800561641026e-02,1.263775750744194348e-01
3.475560101943689362e-02,7.621732535964284572e-02,4.562646656888971752e-01,6.247554276182359229e-02,2.618555247686029513e-03,1.072883816252798595e-03,2.820828628033077157e-02,1.107190641597609543e-03,6.065556015234249698e-02,7.965511065430556925e-02
8.571649154379464008e-02,9.403132605288890000e-03,4.732480397367985203e-01,4.020358174665718265e-02,3.692170524887899031e-03,1.720327881506765466e-02,8.140400793931210077e-02,7.014152779613195892e-04,9.516417293421716717e-02,5.166195583923466339e-02
6.825024178615887727e-02,5.956546760551277575e-02,3.025335061140539405e-01,1.820593430681902852e-02,8.566044838588788776e-03,2.528714199191708228e-02,1.402716717044856232e-01,6.697474893672589517e-05,9.373758304710964884e-02,5.440381042817063473e-02
4.353281121458748432e-02,8.684866518196433793e-02,4.007338079013263860e-02,1.406436440351319095e-02,9.768535473461247703e-03,2.154727997631741832e-02,1.298947915828941035e-01,3.192201716872756665e-04,6.954936190754106018e-02,7.107712923551978701e-02
4.302076801352511248e-02,8.932346863332067677e-02,1.094436264777399886e-01,2.865578864459567346e-02,7.299883910043162422e-03,1.052358445571766402e-02,7.701907084736835107e-02,2.024135520152160641e-04,2.039292830214671504e-02,7.983578715788682001e-02
3.539113440747292116e-02,8.744684971952451646e-02,5.776715879820277372e-02,4.987701769384994543e-02,3.475893463366566336e-03,3.149105978086895463e-04,1.460049555281095479e-02,1.699072419124607780e-04,3.259608485922726312e-02,6.282055456864234222e-02
4.224092493247291573e-03,6.725250463543359924e-02,1.114729436368062376e-01,6.741979583312023017e-02,7.099748580836496431e-04,3.371810872913735477e-03,3.367547001479653107e-02,3.300952269909260858e-06,2.861535491959326521e-02,1.171218607746493320e-02
4.219938135182006028e-02,2.092136127232444021e-02,2.733973592122913021e-01,8.083191632480869748e-02,3.658834533197870970e-04,1.101983326429452001e-03,5.752036275794571163e-02,1.179293131676194565e-03,5.653892119345918510e-02,5.767909193584307842e-02
3.218807597775745488e-02,2.161581567179662530e-02,3.703761637636684423e-01,8.989772154367371704e-02,2.192145575098764128e-03,1.147986719409325659e-02,6.483838484167060712e-02,2.422626484786727461e-03,1.532296827054090982e-01,1.146685790090497120e-01
1.653471142324248327e-02,3.127618333572249054e-02,4.025845854246757893e-01,8.570439237485984185e-02,4.388814561771727657e-03,2.209408149299297089e-02,7.015758278925347813e-02,2.376729287739615289e-03,1.713861995760539436e-01,1.427481852135343843e-01
5.008781087293617817e-02,1.800641473118393468e-02,3.701942916913990023e-01,6.258396306472244208e-02,5.445920558008985300e-03,2.662193337640497010e-02,8.348508757810964298e-02,1.418233640998208369e-03,1.139999707182190875e-01,1.429956772260692344e-01
3.940052438821763786e-02,3.363177529728445317e-03,2.519244745811894948e-01,2.910334224883299667e-02,5.849871504753319414e-03,2.317634862024203421e-02,1.131712579973286337e-01,8.320764343031290030e-04,7.487427678309360735e-02,1.199859155968217295e-01
7.305881341822435121e-03,1.783987395687644875e-02,4.367855920885720805e-02,4.793429413552307075e-03,6.950688476806964576e-03,1.701151258246888162e-02,1.551796889366797438e-01,2.840940964653358085e-04,1.177343759383898264e-01,8.521286965285963799e-02
1.842839853374133099e-02,6.165115772914497166e-02,1.917966892867447593e-01,3.765060483484442694e-02,8.671728812979092108e-03,1.596877203727192426e-02,1.828336382896929846e-01,1.407557807193360799e-03,1.860612504415990742e-01,6.040215226287753980e-02
4.603770396271611443e-02,1.190454012714078635e-01,3.513874872340809752e-01,6.310009562261742477e-02,1.042992583806371526e-02,2.258120027085174994e-02,1.762939753685759670e-01,3.480583936902087797e-03,1.769033327816263990e-01,5.859697691887554710e-02
8.644626183550951914e-02,1.555769505920482076e-01,3.968246462487035053e-01,6.531991038337871258e-02,1.429748343961729715e-02,3.351848991830674168e-02,1.436155585983964755e-01,3.960911516845100691e-03,1.002644314463061737e-01,6.923402605051919012e-02
1.056100673603128093e-01,1.430421502931812361e-01,4.013991785378580035e-01,3.936836356885793642e-02,2.347914451758668919e-02,4.648551331073511039e-02,8.666583223929866242e-02,2.908421538463769242e-03,8.123949705322794368e-02,7.167432599743682464e-02
5.796118098204909586e-02,9.426979025319870420e-02,4.500836704025107382e-01,1.125962835232343674e-03,3.611648333563510088e-02,6.184460020606018932e-02,1.163863494879642871e-02,2.274352693453920039e-03,1.777548213555996404e-01,6.223777897106069074e-02
4.053435683524148764e-02,6.667310533611460477e-02,5.289845493092637518e-01,3.063222388490753623e-02,4.501295693011901633e-02,7.649524127612938873e-02,1.375529756896692046e-01,2.629913468013981084e-03,3.002435821108619396e-01,6.025253232688302513e-02
1.195596381346852449e-01,1.074290371596481747e-01,5.595378463878860620e-01,5.094700078965064965e-02,4.571733268057391608e-02,8.279120031856634920e-02,2.344352282647995112e-01,2.644545292167119806e-03,3.468594733449922862e-01,7.790094871238736896e-02
1.343124413456417976e-01,1.904983251206975037e-01,4.977173422701038352e-01,6.127921450362643768e-02,4.037247599032178086e-02,7.569851820174913759e-02,2.638458509418656339e-01,1.739572034346272130e-03,3.082167936880438885e-01,9.476507182410588703e-02
9.895887347377638199e-02,2.408036608745904583e-01,3.631480770987814410e-01,5.424339830017922692e-02,3.227761054775783733e-02,5.689249954796254255e-02,2.358742825082602301e-01,6.638781871722757412e-04,2.219823325564599104e-01,8.609135616215182751e-02
4.663268639272658000e-02,2.238166378870415363e-01,2.242961399254686794e-01,2.010694509583288436e-02,2.239834028708354019e-02,3.280846008349680432e-02,1.794158571834094940e-01,3.114472298571177838e-04,1.363728987160926220e-01,6.416883466397438340e-02
8.448048101179685826e-05,1.708888374306337110e-01,1.688048290447889677e-01,2.921742299745202359e-02,1.271672353156190656e-02,1.304719102706737230e-02,1.287050657616877480e-01,1.323651645287298329e-03,1.115577072233243094e-01,5.801158837604142304e-02
2.032952506863176106e-02,1.168910077951933330e-01,2.271478523850282982e-01,6.018207725015786019e-02,7.102584295421047328e-03,6.373902471805680328e-03,1.233670915530746537e-01,1.587546785959632889e-03,1.588144265908845720e-01,6.496034905395829673e-02
2.304575840314278343e-03,6.385851973206020660e-02,3.328337081346368631e-01,5.591294053464473945e-02,6.550099297944042900e-03,1.156132844404484869e-02,1.693773992108474624e-01,3.177147857141333779e-04,2.072926859263991006e-01,6.150465335868341571e-02
3.984001824637944944e-02,1.027794417670869695e-02,4.025262920251460041e-01,4.261483689316889617e-02,7.467204307815624408e-03,1.651545093395108063e-02,2.129515172794345934e-01,1.505778009872544990e-03,1.958672220603241976e-01,4.974334911730061287e-02
7.911897884556645666e-02,3.465837599828643784e-02,4.087089320005269921e-01,5.813505309632694545e-02,6.320758954955396115e-03,1.201393342282564697e-02,1.945621952540153854e-01,1.996464280775753653e-03,1.421799336960538618e-01,5.011055878463371860e-02
1.039365509653939618e-01,7.012019742816558154e-02,3.474018156930643308e-01,1.011353349022828252e-01,3.667452242569193763e-03,9.293129134193582261e-04,1.141651218804092816e-01,7.120798783622277976e-04,8.559932068598635757e-02,5.441840438566941662e-02
1.117226991564639893e-01,9.296687490213259575e-02,2.280540172734102922e-01,1.351052719790538093e-01,2.590068785976227736e-03,9.314792808193046031e-03,1.699754840593804828e-02,1.173077481372342828e-03,3.740731372225241519e-02,2.966382654851771813e-02
8.961055636609557840e-02,7.868440287773212360e-02,1.202912497126248093e-01,1.399291522381808095e-01,4.299597623569684224e-03,1.553389203341640559e-02,5.854435567377454241e-02,2.768159445800551927e-03,1.330347865591382031e-02,2.697260077158254721e-02
2.756526440477143416e-02,1.992164247946284772e-02,1.021669571514747937e-01,1.332231025141820679e-01,6.353847031587518332e-03,1.701260133470940128e-02,9.426643027054076862e-02,4.009820009694872386e-03,4.614747972835644974e-02,7.324679122611939264e-02
5.655751702465564024e-02,3.810799222071494657e-02,1.467932915703598629e-01,1.380909309570240717e-01,5.633396947957110962e-03,1.283442709522067231e-02,8.301583044545311763e-02,4.506769197956214668e-03,1.399256513943033797e-01,7.266073475177275975e-02
1.218685314951341581e-01,5.027410131420648881e-02,1.593590456804655220e-01,1.525004247991419981e-01,2.596976307695264205e-03,4.366265400757721529e-03,3.556336806499216241e-02,3.722986749455500007e-03,2.523465342089062924e-01,3.294546456875366292e-02
1.320580842645826813e-01,3.365185272181149545e-02,1.208827137422880810e-01,1.571519796030000637e-01,1.125823045438031998e-03,3.960605820385662904e-03,1.788550476555427968e-02,2.341664835617889798e-03,3.383562395106575749e-01,1.602989384146688567e-02
8.110247228080692816e-02,3.308614052697897434e-02,9.906177247698710886e-02,1.382618578040342716e-01,3.134020325641986415e-03,7.489684360769644118e-03,5.190527988187667446e-02,1.650337917731989129e-03,3.772716259626146540e-01,5.891127907062994329e-02
5.537258400125515817e-03,5.187399893923272387e-02,1.201609243255534754e-01,9.514275888261829184e-02,4.528486301639416539e-03,3.704308333294790978e-03,6.184461292127012982e-02,1.649601715155216619e-03,3.472575709136350719e-01,9.620633276222949337e-02
3.582535632350586363e-02,5.538158960573293793e-02,1.186473130178565538e-01,3.753748472027056138e-02,7.886988783024745896e-04,6.470329448923639072e-03,4.603245415234221566e-02,1.507580710356200629e-03,2.244984460443090468e-01,1.237242941624325104e-01
1.351042801032800549e-02,2.462634061535655394e-02,3.582215356443199661e-02,1.338741439180810358e-02,1.209127837466219407e-02,1.895535389156833769e-02,5.994192034247145667e-03,1.519305160555030516e-03,4.103525059436630845e-02,1.277212787106918046e-01
4.451277809447420214e-02,2.241280414458845724e-02,8.581504078039647876e-02,3.124139931069190579e-02,1.983496979635425081e-02,2.925847247085873806e-02,8.249502089501833946e-02,2.513247059040158750e-03,1.011800621733097705e-01,1.040026881899050876e-01
8.755267163248708906e-02,5.622220273260175594e-02,1.405989213768801815e-01,7.439338117421524094e-03,1.556364252631241112e-02,3.474663682080293692e-02,1.278217401383051066e-01,3.682820355337876155e-03,1.217828529942726334e-01,7.113529299156438890e-02
9.903848314228407002e-02,6.908176276617777889e-02,8.208589140720481958e-02,3.481444827106897760e-02,2.373186615785328329e-03,3.521947229064847223e-02,9.112566078166212113e-02,3.506041618424277171e-03,5.098498338761303650e-02,5.145282316657317362e-02
1.055485443037456894e-01,7.761875117068782470e-02,2.002606855496712537e-02,6.065880899096079415e-02,8.348005951395582463e-03,3.326381623411792110e-02,1.200428642555408446e-02,2.495673515158138706e-03,6.837470922764217474e-03,4.508585095192599312e-02
1.260565092123136222e-01,8.911815759444807750e-02,6.598936394470210354e-02,5.507897420023964707e-02,9.847844274031057957e-03,3.229015639748079175e-02,1.175358335921772301e-01,2.334525803665354806e-03,1.147085933855686996e-02,3.855708421246224066e-02
1.342993708114741946e-01,8.526766059444501611e-02,3.442022376038046672e-02,2.694264492461655169e-02,5.106973927383027037e-03,3.219457253638258187e-02,1.794900067581406689e-01,2.850399720815322349e-03,8.646031119625585681e-02,3.121851079574822566e-02
1.020230272115343340e-01,6.148115603276006064e-02,4.616624193841327439e-02,1.147970405917460475e-02,7.773369149790386066e-04,2.996837810231661389e-02,1.930403007767705903e-01,2.662273071235334628e-03,1.858234078215093565e-01,3.191216745568034585e-02
5.905540369263525408e-02,5.128423780002362709e-02,1.762214831314033170e-01,5.430037842764148803e-02,7.303552964504347531e-03,2.616793046348931187e-02,1.694759893751906499e-01,1.956275855764911566e-03,3.099171001696242600e-01,3.291021634692819359e-02
5.747007186126961570e-02,7.397150730196042079e-02,3.392268616528090197e-01,9.033645740629049625e-02,1.491978815999783596e-02,2.551033688151362749e-02,1.179089057114923178e-01,1.885799584246444695e-03,4.346688000198487001e-01,1.062704966628111661e-02
8.936633735589216698e-02,9.327542159545844369e-02,4.334783314224975315e-01,9.896351318347479387e-02,1.933804489662653905e-02,2.790009177354779712e-02,5.198166123206393596e-02,2.161318332427602552e-03,4.797307221190366122e-01,3.967815406700254260e-02
9.970874836200600833e-02,7.201432680176099443e-02,3.680612136620393660e-01,7.129435839226280769e-02,1.465732100607127115e-02,2.438826782399312540e-02,2.257047724935571514e-04,1.635648138032485361e-03,4.014471887563096364e-01,8.577529310556773756e-02
7.136132025533999113e-02,3.429885204930859660e-02,1.922769802430142616e-01,2.642890640019618376e-02,1.285629535427959720e-03,7.221600455392974960e-03,4.704626652435005274e-03,4.768207689478094844e-04,2.670327413337313383e-01,9.092993843226047923e-02
4.192081695370549616e-02,3.137066605431530070e-02,3.874747954517690496e-02,6.979056448175041324e-03,1.280315450604297550e-02,1.879833880382508760e-02,4.165866951967552717e-02,1.901581741048723694e-04,1.710943785154160623e-01,5.828496726824605734e-02
4.508383686947252389e-02,7.245345226574265163e-02,2.118172596873781760e-02,1.696484160938898159e-02,1.891403397420350629e-02,3.939113933393211670e-02,1.005680773575393927e-01,1.686022829370829521e-04,1.296461194872955691e-01,2.540684456413626335e-02
8.031505469316971291e-02,1.246250615751399310e-01,2.754211155895990026e-03,5.588298963963600138e-03,1.430896028569820719e-02,4.470252438269866485e-02,1.238102574706672621e-01,2.809927825754317938e-04,1.175758359893397248e-01,1.749019884426384827e-02
1.268398969102718377e-01,1.625705353052190050e-01,8.976721720652054703e-02,2.294059373320507175e-02,3.047035125849237303e-03,3.723227641598968879e-02,1.002600849925132792e-01,1.213675687933061208e-03,1.476596497706212929e-01,2.595068133120646131e-02
1.522899006699366398e-01,1.867953040127058872e-01,2.213672755224154187e-01,5.386077075017940696e-02,8.271183893084090716e-03,2.572976784424485172e-02,5.536878000601858779e-02,3.047567970122901440e-03,2.328499410676296011e-01,3.323372236974084237e-02
1.253133282782921132e-01,1.978289056318408845e-01,3.469614838665407985e-01,5.847645848734753238e-02,1.552401402188748405e-02,1.487141533130541607e-02,1.203671610386821897e-02,5.030792049346386428e-03,3.149943786330532958e-01,3.653346910411447296e-02
4.574544633034356711e-02,1.818654135958079621e-01,3.982744905621289355e-01,2.240128317060198146e-02,1.811317743813501552e-02,4.101727748268159564e-03,2.672750244388428370e-02,5.757161542046576250e-03,3.152423671146411532e-01,4.019678359850853422e-02
4.826346047461738120e-02,1.332422820888527759e-01,3.559847814880265915e-01,3.095162895591654917e-02,1.650150020357950970e-02,6.273609552505103604e-03,6.024660554448675598e-02,4.743921548753112297e-03,2.382822535349649329e-01,4.260220681367124507e-02
1.069222059917636081e-01,7.054821084251966523e-02,2.783138920568992147e-01,6.163163543459289351e-02,1.183280836178928278e-02,1.382306281997879895e-02,8.208004889727421594e-02,3.282645848185620965e-03,1.595436872745925050e-01,4.332387153488050091e-02
9.958325340592562303e-02,1.597000040099617185e-02,2.394650997284966665e-01,5.104622556464695482e-02,8.065277692448918553e-03,1.848898001335892716e-02,9.378495266853392742e-02,2.708110204508371727e-03,1.209463685132494415e-01,5.312214416985960169e-02
4.157499740765665391e-02,2.418436622173497641e-02,2.479112428171758864e-01,1.037484039009260207e-02,9.680777564247908598e-03,2.279735482046429257e-02,1.047217158148323057e-01,2.801176542553705361e-03,9.563868348242557382e-02,8.051501545445528818e-02
4.228359096812314352e-03,4.876051143876010407e-02,2.458025873710641684e-01,3.459732011569780635e-02,1.476961401849236077e-02,2.699361169379748543e-02,1.140436029943773383e-01,2.477447401676857383e-03,4.291263083179151783e-02,1.106536144464672217e-01
1.844550708323549129e-02,5.215114698055769993e-02,1.780895288264617848e-01,5.721625622580177317e-02,1.473910618423158493e-02,2.826623874537333506e-02,1.109666535309833668e-01,1.217273633381699138e-03,4.877546506827976774e-02,1.142335439845393458e-01
9.793181054041825984e-02,3.410099428529243110e-02,4.566301891306253496e-02,4.516637599109896151e-02,4.348328080296846691e-03,2.510585763778689847e-02,9.496981283169914079e-02,1.671141723086140454e-04,1.595510931879499106e-01,8.081509966330195638e-02
1.659877371909080912e-01,2.905733138734250404e-03,9.266250210347080907e-02,1.532894946385398270e-02,1.142046392707941199e-02,1.950248275199879117e-02,8.180833721965893868e-02,4.105232287380738781e-05,2.454608452704767352e-01,3.116225906277548738e-02
1.692139707316601960e-01,3.328157527136961502e-02,1.590325194591780678e-01,1.263048571151174221e-03,2.314022113996072605e-02,1.518035165471405545e-02,8.811558021762787296e-02,2.077472933508836550e-03,2.648184341467816894e-01,3.792966842550314285e-03
1.166302647652022739e-01,6.565934638646910015e-02,1.182941747952138828e-01,1.675678060423243382e-02,2.613369592254765478e-02,1.504534534779225149e-02,1.161954866922252499e-01,4.459975593754500998e-03,2.181518855243128885e-01,5.867545516613805606e-03
5.570113341041704746e-02,8.106383583905317491e-02,1.090742434130666239e-02,4.458607409420023426e-02,2.185581864088010154e-02,1.909535844954695846e-02,1.525458978841101321e-01,5.141244914666040500e-03,1.423483717012370420e-01,2.312742700985317285e-02
1.550639068548111642e-02,7.355173695557569447e-02,8.704789384280847697e-02,6.536245844265040073e-02,1.359394086605184016e-02,2.449627871410194405e-02,1.805641125102122324e-01,4.326117973102313989e-03,6.118884790631444470e-02,6.414490987324857063e-02
4.150928351962234440e-03,5.465777022732318940e-02,1.308254157169629339e-01,7.715620038143281012e-02,3.943263032856832509e-03,2.869762560257919926e-02,1.947994553252598016e-01,3.689510934022129617e-03,2.320302582110848888e-02,9.251983786681117206e-02
4.357045103696076394e-03,4.185069865636199121e-02,1.234394050333307707e-01,7.946339178470002151e-02,4.635631835567304015e-03,3.064692576006971744e-02,1.975069931531837908e-01,3.863788030934474978e-03,9.377529604425352550e-02,9.447160747801028324e-02
5.521484375280218126e-02,4.129466150286387888e-02,8.869120261604362954e-02,6.329378889919452800e-02,9.765424577756797245e-03,2.804650520329861688e-02,1.864992043507303909e-01,3.826654336570217523e-03,1.228409498085549084e-01,7.572966623996707503e-02
1.224845459614833931e-01,4.571565157169060062e-02,5.454326600088788696e-02,3.280673539189957189e-02,1.081735038012792381e-02,1.806015469803543688e-02,1.597605857564788345e-01,2.587497960646385157e-03,1.112981787454376398e-01,5.601596961937273245e-02
1.531742454648050145e-01,4.401931292784876798e-02,4.412656935528303653e-02,1.451538995466488541e-02,9.856589901819215460e-03,3.278662550694257452e-03,1.229016221433953393e-01,5.127473169913269882e-04,8.273091780292508857e-02,5.122231267802113824e-02
1.412328617013219600e-01,3.220447551150801280e-02,5.348620440146628630e-02,2.600383702311382175e-02,1.029555138183818087e-02,8.135596096012692735e-03,7.680715153475210777e-02,1.195347369634659285e-03,5.164182865808784884e-02,5.646710574434585933e-02
1.309366974934085825e-01,1.599262596162587258e-02,5.411883411892295936e-02,5.157500156774325745e-02,1.403571545573250971e-02,1.161387168884967999e-02,1.566803020338484315e-02,1.799821546471520222e-03,2.941979336925434896e-02,5.366604630073453647e-02
1.382823124098854772e-01,1.423155438989359353e-03,3.837044523910729948e-02,6.395125497592304975e-02,1.939874785885042918e-02,1.091994966371235935e-02,4.650209655276135029e-02,1.502583516491490245e-03,3.396464687501741381e-02,3.989582254639799375e-02
1.265003134024801912e-01,1.132625565717265519e-02,3.355803566881383759e-02,5.618853112144522183e-02,2.309655098462010808e-02,1.066770035994860262e-02,7.416241671208718966e-02,9.918140027591825728e-04,6.044017474675937585e-02,3.485160249397886018e-02
6.858388946350685300e-02,2.077646426208828306e-02,4.873462902230177307e-02,4.016569581417956530e-02,2.509713655205914398e-02,9.022539961871710312e-03,5.419772626956984030e-02,9.689474902805621931e-04,6.908849588323802415e-02,5.171585319730587910e-02
1.103876390264958880e-02,2.151169919451670354e-02,3.976392237653388756e-02,2.624050001963397147e-02,2.878083417174920680e-02,2.187656701828220168e-03,1.486401566540677954e-02,1.738228632753284313e-03,3.130048339553534453e-02,7.456497032173160788e-02
6.527128796869481608e-02,1.405150271174691705e-02,4.514387042359473134e-02,1.800233694286684782e-02,3.470153219900148911e-02,7.294797015135941545e-03,1.349021965490260211e-02,2.814794122164402529e-03,3.027431828538014458e-02,7.742039225188185325e-02
6.704657112503509264e-02,5.921385120822686421e-03,1.948396922406823717e-01,2.016345577018613042e-02,3.822709894981269479e-02,1.190226196068974902e-02,2.893043606725921590e-02,3.419706836219987573e-03,6.760188690939529510e-02,5.587011507950018913e-02
1.953624332727926793e-02,6.703994071084889723e-04,3.266009225995806786e-01,3.539995100038336590e-02,3.559904555654357095e-02,8.127819326620412677e-03,3.948335915740704138e-02,3.474689223044564144e-03,6.189156053357050546e-02,2.569924404442180260e-02
5.530128670034836769e-02,1.484151929329640546e-03,3.638545393057971977e-01,5.076217621469422681e-02,2.806498474409559879e-02,4.685240369241283620e-05,4.259445426103371929e-02,3.329139590936225791e-03,3.672161424370985056e-02,2.984676293749094836e-03
1.232577255757905388e-01,5.359546934019684267e-03,3.175189315608105134e-01,4.306841069359586965e-02,1.840473151497168044e-02,6.466366566146214412e-03,3.396357502528795508e-02,2.729217241716999642e-03,1.861136285427440404e-02,3.338946037906047326e-02
1.420864670847628852e-01,2.389025478344032963e-02,2.587462046254856429e-01,7.719952289795378210e-03,7.800828196407556120e-03,9.418020772632908211e-03,1.730447864721238252e-02,1.254261439425735820e-03,2.223262989892303698e-03,6.557869596088204689e-02
8.922226013555376034e-02,3.915738205180673004e-02,2.229621048536593042e-01,3.114389803627706441e-02,3.009230820852559860e-03,9.880574988098531422e-03,2.360625104112209181e-03,3.590349197472976830e-04,3.036697705175135653e-02,8.949831762622639797e-02
2.886356074150163951e-03,3.465789908063814789e-02,1.902718037064805578e-01,4.922462517601848553e-02,1.326886431987640141e-02,9.364808954999435942e-03,2.329712357184550095e-02,7.351477006268702279e-04,7.080029260573905692e-02,9.854000464491310951e-02
6.452685988568690467e-02,2.173485591850821824e-02,1.445727383467886873e-01,4.670007087973222781e-02,2.288541773288430697e-02,9.322256610110624467e-03,3.966316566414182510e-02,4.271365314564425455e-05,9.142481531198218270e-02,9.753139037648925203e-02
5.788295972114305965e-02,2.857774091327074106e-02,9.189624807713378529e-02,3.607412560962162951e-02,3.113249431296055691e-02,1.026670819288285665e-02,3.822931987363203249e-02,2.209052674669124419e-04,8.360610404435836474e-02,9.270763396375138188e-02
1.095463796058544076e-02,5.760212780648240466e-02,2.676512179024540666e-02,2.156365743953293432e-02,3.579926681415390721e-02,1.085455369588014980e-02,1.334944777778185841e-02,1.139580306219338361e-03,6.563606804356438007e-02,8.400820232325509340e-02
2.333231556853438554e-02,8.026489265280960239e-02,6.648003367181955225e-02,5.494831068691588376e-04,3.516919964989063258e-02,1.003392179825248788e-02,1.719899120715480748e-02,2.774172514493037679e-03,5.763951300421726875e-02,7.133095740945261110e-02
1.893797249886266382e-02,8.064031131506402272e-02,1.706056517528983518e-01,2.581566581175050515e-02,2.928890796729480619e-02,8.797169097275460772e-03,2.599570488141923763e-02,3.180314510737578589e-03,6.459381825794502374e-02,6.020041961492375582e-02
1.757624952022177056e-02,7.638860532602972930e-02,2.292732537747146915e-01,5.081634585699151135e-02,1.914659312455001608e-02,7.890196332378762029e-03,7.362047452574724260e-03,2.653415299402790001e-03,8.144878222056345374e-02,5.838608792194154712e-02
6.568182225569862975e-02,8.531521216581131051e-02,2.068556809555065212e-01,6.412211310234469663e-02,7.265300876822109420e-03,6.884722396973077911e-03,1.954188787540746264e-02,2.102224619962499933e-03,1.068605580394169502e-01,7.000451372079910528e-02
1.006574807015868378e-01,9.651688521767100293e-02,1.420683694204512015e-01,5.485285123742049407e-02,1.597625685815690783e-03,6.964262902008648906e-03,3.812968339604292517e-02,1.175893437680471630e-03,1.494448057547446695e-01,8.895501147343604087e-02
1.050184002070516237e-01,8.929187816747713446e-02,1.143766778047044241e-01,2.322560586211788736e-02,4.441722157910138469e-03,9.963977448622861680e-03,4.733677862808671061e-02,6.525848334599417943e-04,2.163229298955567925e-01,9.570358780954693612e-02
8.579737374278544049e-02,6.371175684467891842e-02,1.546631856757789414e-01,1.121779560177717239e-02,4.453647623388679901e-03,1.353173326265140995e-02,4.722000847877533963e-02,2.382637001589410410e-03,2.914412555471806998e-01,7.025742745527084610e-02
6.589054131554564209e-02,4.106045824526583649e-02,2.173475084519180811e-01,2.720385169706571876e-02,7.389257665046691965e-03,1.239741476257833798e-02,2.880414913823490033e-02,2.772018811702666244e-03,3.325468866188507344e-01,1.547301395340786902e-02
5.244310956067806812e-02,4.172618166127330802e-02,2.493686907784183338e-01,2.775559660611502319e-02,1.373254634714251611e-02,5.121194409210507413e-03,1.554052583269950258e-02,2.102669803540530707e-03,3.095917408514453073e-01,3.952514927338991735e-02
3.827072749320862416e-02,6.533450512387886655e-02,2.539466493801975644e-01,3.323380035454782250e-02,1.817377066208208589e-02,4.756002865742934432e-03,7.540704900284277146e-02,1.304015548944765677e-03,2.537841530035312432e-01,6.753465500057048709e-02
3.548541846189110643e-02,8.866350625113170181e-02,2.684378883740047295e-01,4.931122496980436948e-02,1.693735005248087067e-02,1.357001573571782992e-02,1.181297540052394512e-01,8.339364629549104839e-04,2.442432923284655333e-01,7.116477155325137693e-02
6.508998059471504671e-02,8.555715195233438986e-02,3.136108823088157305e-01,5.758181795463112457e-02,1.248518775979977694e-02,1.974350044242526719e-02,1.098501245532606529e-01,1.072346612367308183e-03,3.260950927749983186e-01,7.322949553564069014e-02
1.044121145225713893e-01,5.146991468970980865e-02,3.900680956597147864e-01,3.783697266869840564e-02,1.031693795638871300e-02,2.289800315681767007e-02,5.229140031027414148e-02,2.109766633578224072e-03,4.614338851863331037e-01,8.129443841759834144e-02
9.528054559403686952e-02,8.227467028172603600e-03,4.887056647767130668e-01,1.095199530474365475e-02,1.320039515582313236e-02,2.410667335760977026e-02,8.740777697753851147e-03,3.026549932754611302e-03,5.778996617801769320e-01,7.639664432674436734e-02
2.137497530362769682e-02,1.257173354811913155e-02,5.765076050189281709e-01,6.972175034034899799e-02,1.929728753021216214e-02,2.516918173511866613e-02,2.801867665491570430e-02,2.851704511607718474e-03,6.394901405071085065e-01,4.395004309185344959e-02
6.750833175678876141e-02,6.295058782315897036e-03,6.095513004242471000e-01,1.136905604917835683e-01,2.473027438057943256e-02,2.577497702067102492e-02,6.858816706914710147e-03,1.959351402629707153e-03,6.485299561549161540e-01,4.075065278379219960e-03
1.206835222592027024e-01,5.110026089556704565e-02,5.816490864884596990e-01,1.315729767931782812e-01,2.740038822605958546e-02,2.412632197328491365e-02,2.294629743453508591e-02,1.357956797605905808e-03,6.093240340151623302e-01,3.792591499627078963e-03
1.325821180728274096e-01,8.664107655049413381e-02,5.217674093966415683e-01,1.328622089008965890e-01,2.859095264837941894e-02,2.096809873401197719e-02,4.549050972138329180e-02,1.107157041038088182e-03,5.276122170942081357e-01,3.253142036904609763e-02
1.135848006692189716e-01,8.913916352011785893e-02,4.454869063440960453e-01,1.347616024746473296e-01,3.074065966769042382e-02,1.862201119675668468e-02,6.142988091861011080e-02,5.774365843390766567e-04,4.279931317822341930e-01,7.877224567662191590e-02
5.950602250078751432e-02,6.536374209266690438e-02,3.609056711590359900e-01,1.478754387209116616e-01,3.414592038835324861e-02,1.549759781144777540e-02,5.612183242101592695e-02,1.802675385718896278e-04,3.297491416992653357e-01,9.193802173086684792e-02
2.743454224953403853e-02,3.753610769901143118e-02,2.935031094641630256e-01,1.747272269570968040e-01,3.663773472186548225e-02,6.886965795017668118e-03,7.183289005463418600e-03,4.966284696138572848e-04,2.083162925207274474e-01,6.974719553615454926e-02
1.159204380427667075e-01,2.021641128265089932e-02,2.229004209733102815e-01,2.025699099529305325e-01,3.475138186703752990e-02,7.901520063405704716e-03,7.466304675205734376e-02,2.946327845938667852e-04,1.285512032441846371e-02,4.320186633017567696e-02
1.701126490734994889e-01,1.386349549008788172e-02,2.981750499928954162e-02,1.913093720223598693e-01,2.357511833769261600e-02,2.411167116247466685e-02,1.441028059015512230e-01,2.625680422789956501e-04,2.792044132975304294e-01,2.344536267592245773e-02
1.838340572503105452e-01,1.000342000482275923e-02,3.804851677887765571e-01,9.945011902886186084e-02,6.684716034103480725e-04,3.749900336804166262e-02,1.704107933771876471e-01,6.981914020210595873e-04,6.468420482798045157e-01,1.175800279971108558e-02
1.684737337766464005e-01,1.585689610086623083e-03,9.108601810861640669e-01,5.914208406968517184e-02,3.376991017241733756e-02,4.723531736190499791e-02,1.694368583439459786e-01,8.237532402996052862e-04,1.051606979197679648e+00,7.002218045138096369e-02
1.223246507995491283e-01,5.293816012979136662e-03,1.335824576712585809e+00,2.113801863267701642e-01,6.320886092764378683e-02,5.335075248282777211e-02,1.756555373512571072e-01,1.227931383917815159e-04,1.443960099759058480e+00,1.209581471895514598e-01
4.598443737395068592e-02,4.175426762423311428e-03,1.525833471374367534e+00,2.950062431951426811e-01,7.964440220172590290e-02,5.564433173436292984e-02,1.957090095726777557e-01,1.385584636173785777e-03,1.742125755259853692e+00,1.406904138131281345e-01
2.230961266946805688e-02,2.931052688855655813e-02,1.509425645500261481e+00,3.084921240621835703e-01,8.514546588575218344e-02,5.489581028106012284e-02,2.066041821283992053e-01,1.403115606634338817e-03,1.847030800382736926e+00,1.431534328338676665e-01
3.164023560007338254e-02,4.443069326838217786e-02,1.346745546187913201e+00,2.849320945940018168e-01,8.633423779287681399e-02,5.206531480149518415e-02,1.928287409619415804e-01,5.978414334456982491e-05,1.714257356267145926e+00,1.444356511840174939e-01
1.625897307217578913e-02,2.800298448694777190e-02,1.073984249263287394e+00,2.494565788655686844e-01,8.482304700986040280e-02,4.684591521756811816e-02,1.631709581435506762e-01,1.081423587172475114e-03,1.401309660345718688e+00,1.326158559228335365e-01
6.021258069619072478e-02,5.790539914895555078e-03,7.606382917070247940e-01,2.125311580696409297e-01,7.872414320075916960e-02,3.872844626374403326e-02,1.292878807026292542e-01,9.198234979378203764e-04,1.022907623767117524e+00,9.707871569313687721e-02
4.718023792603295852e-02,2.214262839657120743e-02,4.954074625755133798e-01,1.760620603224290481e-01,6.791294739297218386e-02,2.820530171500789524e-02,8.843456638311478213e-02,2.178970523542038623e-05,6.684255332814434958e-01,5.542825755969303658e-02
1.305543679337562227e-02,9.862680541406198056e-03,3.005866058521940443e-01,1.338639420062480434e-01,5.322074000923550374e-02,1.625472824272082908e-02,3.730775980436634720e-02,7.026303990759844844e-04,3.700901535134370479e-01,3.009991814479699018e-02
6.849936366396859599e-02,7.934879840584975474e-03,1.371441061646129222e-01,8.137452161661047623e-02,3.498575027727210407e-02,4.504091879926220426e-03,1.159518099423556027e-02,8.184769115153236714e-04,1.318440416973033213e-01,2.275833830599353208e-02
8.385854175260357146e-02,8.606266642116642412e-03,1.062185844475484198e-02,2.705133439512321866e-02,1.576739865847461702e-02,4.621328002595364096e-03,4.455777291950737545e-02,6.935797050368322416e-04,3.106029427242096297e-02,2.301938088194167842e-02
6.127237443527984440e-02,4.702388502885763467e-03,1.192317262592271776e-01,1.417145851380650565e-02,6.007951067344193680e-04,1.049577432071438152e-02,6.967978330387812613e-02,6.653618118213238709e-04,9.294887572725044067e-02,2.154198523872287788e-02
1.748552245909829744e-02,1.834542834849684292e-02,1.827040670652155252e-01,3.322549306824408577e-02,7.932974154139450090e-03,1.560192079874031523e-02,1.012811313470426966e-01,9.015058742709891907e-04,6.153103035274544441e-02,1.128970153717469976e-02
2.286181946974216034e-02,2.865363382899935307e-02,2.204812092127378387e-01,3.003706096840726841e-02,1.221939291884417689e-02,2.117557838727935487e-02,1.255566008194499150e-01,1.249568336764611369e-03,2.451453463600553051e-03,8.044068967081279345e-03
1.912253035805885210e-02,3.696806809652580100e-02,2.319680660392334504e-01,1.504008921361678006e-02,1.614310329145849515e-02,2.400399785148381662e-02,1.157985587765870267e-01,1.152462581584853991e-03,3.028060188447433132e-02,2.979370516546047884e-02
4.910880232710397586e-02,4.065690387508279907e-02,2.068802612907498228e-01,7.085517087276055684e-03,2.135149422996454605e-02,2.166563484321300942e-02,8.160266181911482453e-02,4.370169093424648580e-04,6.477973852333382410e-03,5.157515124814698870e-02
1.335590628273271296e-01,3.974081615485046404e-02,1.793909260152335428e-01,1.794442475489040414e-02,2.701055271086501980e-02,1.797810236946244256e-02,5.876192463417448386e-02,3.477190074578744288e-06,9.550690518170192045e-02,7.409974031195210031e-02
1.524227492820771634e-01,4.043086456469795892e-02,2.013023654117200023e-01,4.143536740959950782e-02,3.099799063923623643e-02,1.776730869877981081e-02,4.559035529006733728e-02,7.364282097421031518e-04,1.988952364807337614e-01,8.581820095188710806e-02
8.281328914290098098e-02,4.420611330174929743e-02,2.635305007557961487e-01,6.624680871738593269e-02,3.151779935181544395e-02,1.885056909335755537e-02,1.704160289717641073e-03,2.152752110588098972e-03,2.698898427066073191e-01,6.907368723328008442e-02
1.562983192716604214e-02,4.336596859879164600e-02,3.134279085114143881e-01,8.797353370774549375e-02,2.903084863336020255e-02,1.529046965791269752e-02,7.884067837759357877e-02,3.179045484914685797e-03,2.853020090460192115e-01,2.796101421151065899e-02
7.670246002725730761e-02,3.337623225986104114e-02,3.330214298933584782e-01,9.733368650439655489e-02,2.581217514334173402e-02,6.525258469136622705e-03,1.464511584290633384e-01,3.511227867762597033e-03,2.563225767623122375e-01,8.283038657691629836e-03
1.002771088885739403e-01,2.114552473876454147e-02,3.322801227632815602e-01,7.616501382448900848e-02,2.302735540805490866e-02,2.245089763051487906e-03,1.613131654881521659e-01,3.289164113384019858e-03,1.999305478117095192e-01,1.712163678114108495e-02
1.270341566455563120e-01,1.557152621244662846e-02,2.950649227302458155e-01,2.408762227154880031e-02,1.981799921749533011e-02,6.682466746604018813e-03,1.325045425621040607e-01,2.570489346277045686e-03,1.294185983023570796e-01,3.304641682432528978e-03
1.545734452827116634e-01,1.625053384991481317e-02,1.980906543743891635e-01,2.883266316847766381e-02,1.542624094101614600e-02,5.852709495000921538e-03,8.391039933773802861e-02,1.783047219391281895e-03,7.486578161166157486e-02,1.782962851925006323e-02
1.281011032498801938e-01,1.696891941340628387e-02,6.343232196435083514e-02,5.403619861988125800e-02,1.043979146137241805e-02,6.316094335557687501e-04,2.627415480788162366e-02,1.323814886845943667e-03,7.080267653364716307e-02,4.035434130249234558e-02
3.223010846255375261e-02,1.651132451144602872e-02,4.674725761473440960e-02,5.295539356018760108e-02,5.940155121736015280e-03,6.332435773312457446e-03,2.746776065857707561e-02,5.876912548021956135e-04,1.198167678501670108e-01,6.045211292603325931e-02
6.163697315673429683e-02,2.100487434307450260e-02,7.248107419316396349e-02,4.023379363213420989e-02,2.908905487755310357e-03,1.094956156642915013e-02,5.674048506687363880e-02,1.062290713326287167e-03,2.018340175199528352e-01,6.663793951221248790e-02
7.364976722974807266e-02,3.619078540791655779e-02,9.557931908396367221e-03,1.710530219404965413e-02,2.255667080456519747e-03,1.144364438250464883e-02,5.804308264304101905e-02,2.837227294554521290e-03,3.089431597196831136e-01,5.578224983876783893e-02
3.203244919391980139e-04,5.970716878091041069e-02,1.578073062600654497e-01,1.761515900626067430e-02,3.747749987155849991e-03,1.048155535918474102e-02,5.263562038809814492e-02,3.649659925760863777e-03,4.309592205563254064e-01,4.561351022579517023e-02
1.047418003089396615e-01,8.130551728950805024e-02,2.719390835810108209e-01,3.956208790950255239e-02,4.728949406719388723e-03,1.066615354641045968e-02,5.621379555632353975e-02,3.899919018732830780e-03,5.179584565817437758e-01,4.821064977226090925e-02
1.833781684934485956e-01,8.993093006230318265e-02,2.701559963123605912e-01,1.171848145898987670e-02,1.910759256727648193e-03,9.615364940137779634e-03,5.655704763019494402e-02,4.735013900734249929e-03,5.102085049919016235e-01,4.151500450593839653e-02
2.073946314011125558e-01,8.073024598528047435e-02,1.659613863151069846e-01,6.564003605615408021e-02,4.656836738357987733e-03,3.550442570057024596e-03,3.701815218234037058e-02,6.296057121190348424e-03,4.159118712951044849e-01,3.967994430185928408e-03
1.800123567064324248e-01,5.747575596112684815e-02,3.954230660167033784e-02,1.427630843353837609e-01,1.109389478045230693e-02,5.373797512591660559e-03,8.533990896920938540e-03,7.664943428720017403e-03,3.130103503589582448e-01,7.483696048974020076e-02
1.263884283859160185e-01,3.030432696020235461e-02,4.991027046040349274e-02,1.726131422295550666e-01,1.366903721587984892e-02,1.023814269646846492e-02,3.841057147670366972e-03,8.055936149485524306e-03,2.541959992419277614e-01,1.221608953454181717e-01
6.475923511121946252e-02,9.347121082615705845e-03,9.200132459436134724e-02,1.556031076077744046e-01,1.165852166989759728e-02,7.884379347536961402e-03,4.444904905636702305e-03,7.480835709505736196e-03,2.177147557965232461e-01,1.202282596084282701e-01
5.507471877233836681e-03,2.194437802944907215e-03,9.840567460291885227e-02,1.221875032926241916e-01,6.789165943414489542e-03,2.029038075738287539e-03,2.035336659315965455e-02,6.316274746791389338e-03,1.783285151049529005e-01,8.969392651879276590e-02
7.643398748613208782e-02,7.980577174462691672e-03,8.585116063539922904e-02,9.281095304132458423e-02,1.872400498422389058e-03,2.647992327571888505e-03,4.016766726194721804e-02,4.715791529044882982e-03,1.662928931647106867e-01,5.920143870416095383e-02
1.158406190576434930e-01,1.110578828016380373e-02,6.560543794806750206e-02,6.890627025041527742e-02,7.720187802002010692e-04,6.133745080444474342e-03,6.837178731657206354e-02,2.875246427255551390e-03,2.060007443998270182e-01,3.140008515740370237e-02
1.071004559446383786e-01,1.016756887200461618e-02,3.618037007647482289e-02,4.758702938194817739e-02,1.041302479080732576e-03,1.104784867741265449e-02,9.600829483969545997e-02,1.302298808654172614e-03,2.483327001701310377e-01,2.796290899448924949e-03
8.783019843894587786e-02,3.608243606559783864e-03,1.063672289752910782e-03,2.887709197347341702e-02,5.096313469245518845e-04,1.649908633682901568e-02,1.022387297789016519e-01,2.164846510733548120e-04,2.279929391478641154e-01,3.708115413797234694e-02
1.087107316032518700e-01,6.824356504051251431e-03,1.914155171601292574e-02,1.233892168494553875e-02,1.096385524747391441e-04,1.728102530016654634e-02,8.013037054855330632e-02,5.153525871924195334e-04,1.545705629056467745e-01,5.418576409995109339e-02
1.586595518672595795e-01,1.801976293098508583e-02,1.462577335561427577e-02,4.278509942771065860e-03,3.041313084171954478e-04,1.080147953102530978e-02,4.835239828280513824e-02,6.505006710297602229e-04,8.672724420821811830e-02,4.917543451572583407e-02
1.805203034776682314e-01,2.681364210682260149e-02,8.316988352102335988e-03,2.343806203460091844e-02,4.850377782523211060e-04,1.571673975971677167e-03,2.925534964985161690e-02,9.019671772836194718e-05,4.581147228942959032e-02,3.352923831828549806e-02
1.610427146769954354e-01,3.049822297835255019e-02,2.287873691820278138e-02,4.763070335141960515e-02,3.727682722029089686e-04,4.684719896136209892e-03,2.166098863227164384e-02,2.490521922502136193e-04,1.516649362244761740e-02,1.917806834115996784e-02
1.436834772003535154e-01,2.947144901976295542e-02,3.803436885948852098e-02,7.640908806514525031e-02,2.065118306558643823e-03,8.307800275107395799e-03,7.543434209265287294e-03,2.758472826618385055e-04,3.542440896973898801e-03,1.089551905302614358e-02
1.522057666142330179e-01,2.622038211841352592e-02,1.289039470837342362e-02,9.905134269635627875e-02,2.870914310403303339e-03,1.251351262894864064e-02,1.913897717717577551e-02,8.103176191173722381e-04,4.448769748108344357e-03,1.068063898575909165e-02
1.719629884183841995e-01,2.050339937029894630e-02,4.927909082825458059e-02,9.673244268689761005e-02,1.435493660453456173e-03,1.605971485410468205e-02,4.698990422745849549e-02,6.088328548532576405e-04,2.057527616850905738e-02,1.433744905621598884e-02
2.012091607504723767e-01,1.126695160066791893e-02,9.719379712438290519e-02,6.171797168272587925e-02,1.392649742036635623e-03,1.501037524506724022e-02,6.721969236856216445e-02,4.591065974254219910e-04,1.657098323513628291e-03,6.334627305432436947e-03
2.445398287842982799e-01,2.677819829091676943e-03,1.083533650413501942e-01,1.083605190188931429e-02,3.382179716650949436e-03,1.004388187788368518e-02,8.155273590543586637e-02,1.283193950373608984e-03,8.579591908251898991e-02,2.411435242808366783e-02
2.626395424538008339e-01,1.038554075104742430e-03,1.254407303048070688e-01,2.891442692847727425e-02,3.311148531415758489e-03,6.302373959873909526e-03,9.099174343134960874e-02,2.702757902838314602e-03,2.054246159451470488e-01,6.212213642082002607e-02
2.039641177267834671e-01,5.899907746371043336e-03,1.825693894879140133e-01,4.437087956893580321e-02,2.159674502284185480e-03,6.521765942090522461e-03,9.177452815299130817e-02,3.658031174809693153e-03,3.061691049262233455e-01,7.907088107435747415e-02
9.026282608770994087e-02,8.703734880128648210e-03,2.396982790412028053e-01,4.013054736591933902e-02,2.066959282369533295e-03,8.776309482973592910e-03,8.495917621291682043e-02,3.649429662207700608e-03,3.487616759969424107e-01,6.645903048066396923e-02
1.256915891502944152e-02,3.593733226222059311e-04,2.391654817718602555e-01,2.638863208295754922e-02,3.935084277092049110e-03,1.063594481305963832e-02,7.871160519487657714e-02,3.314637482028888645e-03,3.330343151237343258e-01,4.446595456466174989e-02
2.580841200877338065e-02,1.931743582465309320e-02,1.912910509020704919e-01,1.027916422534403545e-02,6.061703973163188805e-03,1.157789358119333187e-02,7.576434346853495871e-02,3.691878705210846750e-03,2.883097639646675647e-01,3.637729521868698912e-02
8.230719442007561337e-02,3.860001794696919092e-02,1.499509351556784220e-01,6.211526296620796701e-03,5.766516817421688673e-03,1.105013868439418644e-02,6.731559929487541949e-02,4.684435052472906910e-03,2.452063560981720680e-01,4.538825393637903327e-02
9.423812293296048026e-02,4.373767296686101314e-02,1.294359024425699722e-01,2.463899058698598016e-02,2.252251765908620633e-03,7.636287750621988460e-03,4.648857955418782967e-02,5.192089712416849030e-03,2.098667674158971319e-01,5.732691442319935021e-02
4.242641315836020999e-02,3.365297040139667017e-02,9.986506537735866107e-02,4.404227837598770345e-02,2.754311873487551125e-03,1.621663082052634403e-03,2.027777505902914404e-02,4.863688976723947940e-03,1.654876393890486741e-01,5.715623374217461417e-02
1.263150605508437524e-02,2.113557015781579104e-02,5.280226824677536346e-02,5.805715942015592101e-02,6.809223225190677402e-03,3.766016518510437346e-03,4.607961058024053272e-04,4.373762575924249919e-03,1.091960454013400500e-01,4.054470114409906845e-02
2.539834059411152922e-02,1.873895366600514603e-02,2.160286950616571028e-02,6.223723180210569139e-02,8.783609792132926475e-03,5.593329130952663826e-03,1.065870347253239370e-02,4.134017896507006899e-03,7.354160048414319639e-02,1.473612755417707740e-02
2.597539612118744679e-02,2.680905625395750211e-02,3.043056336528646502e-02,6.074214625376725407e-02,9.612235652535897068e-03,4.466194190550314830e-03,1.920538833832379291e-02,3.867420215474498806e-03,8.560302079881852710e-02,9.888737029712213467e-03
6.275051829265397563e-02,3.541574582814357997e-02,5.713060046950312054e-02,6.142556048408217423e-02,1.108365644825292165e-02,3.013250876020326027e-03,3.037065614657271859e-02,3.182483745059394228e-03,1.196032928573465270e-01,3.027586331586856055e-02
1.218543675724250014e-01,3.542511884485589208e-02,6.106103648618265572e-02,6.797335678943716708e-02,1.356001452253449528e-02,2.741152662948690040e-03,4.443549405055086804e-02,2.049782672560635649e-03,1.227693882682403953e-01,5.116106465207609366e-02
1.482404869017007187e-01,2.639371664014091359e-02,2.827785667847840592e-02,7.964901728971802986e-02,1.559051424731128233e-02,3.775193629445592475e-03,5.861697356575860940e-02,8.684232888949591734e-04,7.757370249348745361e-02,7.490619086343447419e-02
1.285761347067235494e-01,1.355048594734671423e-02,2.410663999357512063e-02,9.459225211649135989e-02,1.606049003415705237e-02,5.670780339314308686e-03,7.048120933013152234e-02,8.382879125468258160e-05,1.146781112853668787e-02,9.519047984650529093e-02
1.034129441752403983e-01,4.511040687719346763e-04,7.468834734600801606e-02,1.112826574702490412e-01,1.536413707146265864e-02,7.363613350559659182e-03,7.934160931817875462e-02,1.254254605409562979e-03,4.294252591379310591e-02,1.030981193202916008e-01
9.955326776475131867e-02,1.585955971115762808e-02,1.148927614865553198e-01,1.291427890335044015e-01,1.418051114739063250e-02,8.008298674129731703e-03,8.468178403872056448e-02,3.169616407907512555e-03,7.483308525954873724e-02,9.729934919847160746e-02
9.690044536475589387e-02,2.763904944671200306e-02,1.459880491003084368e-01,1.457649093368624804e-01,1.267704868859070334e-02,8.017778516478307749e-03,8.602210878442760611e-02,5.160362221718979049e-03,9.202176916500391657e-02,8.549405292396264344e-02
7.264591817116669570e-02,2.488750789520082288e-02,1.706761970423451846e-01,1.502201956531765414e-01,1.094778318634427594e-02,8.288524720650057229e-03,8.471428929112252704e-02,5.779371885362245484e-03,1.083412234768232479e-01,7.526265216735621155e-02
4.269841834741373854e-02,4.517158340596919008e-03,1.892521598298247121e-01,1.258335074930082009e-01,8.685326076237037674e-03,9.314341234242190168e-03,8.218904335740219447e-02,4.786183026830132144e-03,1.318179481050438528e-01,6.683556666119060130e-02
4.262430125799076402e-02,2.024366791191793691e-02,2.007241850379064552e-01,6.927590851152606866e-02,5.001022381273951579e-03,1.132686319154286442e-02,7.724328847933638331e-02,3.564432871446378791e-03,1.574048411512807832e-01,5.750986264232961498e-02
8.650191767821166500e-02,3.258126598159972326e-02,2.051379568228704209e-01,3.326585416139502156e-03,3.595659616276141845e-04,1.378686690320999469e-02,6.863625680031283649e-02,3.029385904977501247e-03,1.713489546288878285e-01,4.818748855377204959e-02
