6.330725955118428339e-02,1.463599492939950467e-03,6.073200433808108312e-03,6.000882690479992371e-02,5.729546628873757180e-04,2.621214342006289791e-03,1.939326886214688336e-02,1.069066605275932700e-05,1.191793997718638455e-02,1.843516224430033490e-02
7.185193718813753794e-02,6.647882336984612013e-03,9.946838936240374671e-03,6.517636730114896582e-02,1.069654778385432676e-03,3.233686371441225806e-03,2.848731357752075539e-03,8.088645473073268052e-05,1.290972410318084324e-02,1.050222971243354279e-02
1.806757972260759071e-01,1.644014655983035145e-02,1.013411510230649397e-02,7.024702372097184344e-02,1.787475869912603281e-03,2.810974510913138991e-03,1.368036831488984688e-02,1.499682173725331116e-04,1.507971004551850874e-02,1.797724277905004891e-03
2.183377432066654911e-01,3.225163192504146986e-02,3.572509555166755203e-03,6.983052599613912004e-02,1.272591959911846407e-03,1.883929946459953928e-03,1.751863694965491436e-02,8.883371967320155549e-04,1.908656556080430555e-02,8.320578008300043293e-03
1.885582979886974708e-01,4.397610474740840797e-02,5.960867335008151330e-03,5.517850214359703437e-02,5.695339249691425089e-04,2.020799691500322921e-03,1.930145096937348898e-02,1.669536000173651568e-03,2.701059184178743189e-02,2.164371461522082360e-02
1.420223441620597216e-01,4.278031428966753286e-02,1.372074564171106223e-02,2.511468524821486650e-02,1.920180388730321217e-03,3.143036086408276027e-03,1.546446398438645377e-02,1.382393816116437874e-03,3.958351277369444310e-02,3.866488796331999517e-02
1.382596030923703145e-01,3.290997136246120308e-02,2.003589235241564140e-02,1.094248863237496858e-02,1.213524734294607003e-03,2.912822179469547971e-03,7.382246732248048948e-03,2.972361182233816982e-04,5.310231716321493767e-02,5.448089943431187743e-02
1.858250550993996442e-01,2.519590180392900294e-02,2.962161167413224563e-02,4.096097663576515197e-02,8.403846726368322017e-04,5.941719625412196894e-04,7.507699804512287141e-03,1.982707340723742842e-03,6.459304149321484778e-02,6.288739156697965849e-02
2.405455257271371938e-01,2.446346351788674517e-02,4.559700355766049817e-02,5.747934833671816679e-02,1.931234600942510586e-03,1.041165521572002314e-03,2.109462520347986023e-02,1.791438801072861705e-03,7.758130936808309286e-02,6.476867599788968533e-02
2.659998926124968466e-01,2.791809857113125917e-02,6.456460132697573739e-02,6.019242131823275554e-02,7.904565684946716214e-04,9.419885961394256326e-05,3.421362075430108007e-02,3.901265835147537937e-04,9.328611768341149579e-02,6.698507749757130758e-02
2.573828358736813815e-01,3.078836797311393023e-02,7.624449786273630736e-02,5.589421527121857941e-02,1.404420751214476883e-03,2.261530376668327048e-03,3.218027318314175406e-02,2.575243207740164110e-03,9.801187882933548590e-02,7.235857481187436824e-02
2.146203175309857603e-01,3.031611034439739283e-02,6.892008722466330672e-02,5.229178525394359567e-02,2.592914588846986345e-03,2.871668739903858198e-03,2.199707527473071522e-02,3.116430796114022690e-03,7.415130376741181639e-02,7.577301764583699306e-02
1.386762600169459403e-01,2.815888964660290261e-02,3.922926574737969213e-02,4.971622104814490961e-02,2.256105007699839900e-03,1.555063608298784582e-03,2.437566183347371698e-02,2.666672722941994603e-03,2.482407664040845591e-02,7.160512010301076091e-02
4.837755308548900152e-02,3.026726222473174674e-02,2.230130197416136696e-03,4.297271570791923179e-02,1.717982137398883346e-03,9.243658572699338773e-04,4.601320046764897920e-02,2.811523420934919967e-03,2.771431510762382630e-02,6.031494225543140852e-02
2.793378070419974199e-02,4.128119139161919027e-02,3.710025810838515209e-02,3.012600964719975433e-02,2.333885280175049780e-03,3.926771235471750512e-03,6.946080009505779806e-02,3.573344582909781207e-03,6.711770486460959251e-02,4.498212391828093626e-02
6.909804409681336024e-02,5.709843440090758143e-02,5.250806718071175661e-02,1.484141296478342156e-02,3.952757763483608251e-03,6.292715746652796822e-03,7.204087050836086026e-02,3.808991626851096924e-03,9.091039600955519440e-02,2.556209723109179738e-02
6.761008022034584175e-02,6.436144847563572691e-02,4.886857669138745808e-02,3.824059631460882160e-03,5.211750547168507788e-03,6.533058797658767604e-03,4.929025962849522408e-02,3.526581762261431913e-03,9.850588957001341073e-02,1.402879374236473946e-03
4.182418459172379532e-02,5.307796923090320890e-02,3.537304230613518702e-02,4.992603399914887635e-03,4.911060234277047493e-03,4.511988293303187056e-03,1.729652649247696156e-02,3.640465846836611966e-03,8.830137109789344685e-02,2.125758178567049156e-02
3.106495807307007098e-02,3.318022291168746390e-02,1.944570662924639814e-02,2.099580641859193075e-02,2.854770320336914510e-03,2.165472816703534111e-03,4.955850435405212244e-03,3.777792174346553556e-03,6.407767090286545231e-02,2.963902384634392248e-02
4.654707619396490637e-02,2.856492461284398932e-02,3.070790754037000699e-03,4.121735143776676658e-02,3.033763209629349039e-05,1.728594564419359521e-03,1.246544552557415919e-02,2.835204981946556207e-03,3.301149082363195181e-02,1.894994477769418317e-02
4.461349144634620123e-02,4.415567125215123095e-02,1.197296708336521506e-02,4.775736798939093225e-02,1.411496101434988595e-03,3.139680443883178639e-03,1.467810994788416867e-02,1.179161791365639003e-03,6.583982875711271018e-04,6.195138222459869309e-03
9.131205437594235030e-03,5.131191617007668793e-02,2.128299626115211229e-02,3.428077671383038955e-02,3.967462325863554615e-04,4.016015289676568706e-03,2.170063226934733705e-02,6.407768352898242793e-05,2.531113544533294957e-02,1.832737488497648143e-02
6.957495677612567098e-02,2.248454912306656339e-02,2.249689558586158433e-02,1.412639908865538467e-02,4.419945158223100197e-03,2.407739501308379243e-03,3.165033461552065053e-02,7.776137961442678315e-04,3.425025304721304037e-02,6.199188520314525414e-02
6.290700964357860692e-02,3.248501059836847449e-02,1.862765460106475049e-02,3.962467160085371073e-03,7.121765915713683219e-03,1.425581633650264404e-03,3.476295573056267102e-02,1.056011167948358491e-03,2.582507355302591373e-02,1.155784595513153074e-01
5.426617976042939079e-03,7.938317671794489772e-02,1.441887025534219907e-02,4.209013644346574524e-03,6.832069201326855003e-03,5.872431846751271535e-03,2.990066984053462579e-02,4.513601906420480346e-04,1.571102472496414826e-02,1.542109991079288756e-01
5.936716818024447700e-02,9.171190968763981433e-02,1.239174081182260051e-02,5.453976650301431764e-03,5.916861545062277253e-03,9.422243552139091677e-03,2.766168291504140370e-02,4.939206897437367497e-04,1.458026187151444629e-02,1.705421062393765730e-01
6.577608409215007779e-02,6.309091487465467996e-02,1.315080389346732527e-02,8.739504029159400958e-03,7.178778108211862456e-03,1.145995432525757397e-02,3.227928656765607224e-02,2.523410423514293316e-05,1.109137979976163729e-02,1.694711927100353011e-01
6.952159747248819188e-02,1.464796901083194325e-02,1.497412578762281031e-02,2.326345018204733009e-02,9.705343264752742255e-03,1.232244387625561731e-02,3.244897809651895587e-02,2.429944926386639562e-03,9.468916466728984418e-03,1.561188061734369026e-01
1.045238572388603043e-01,9.564166024348716433e-03,1.250791665343888720e-02,4.600584599477334363e-02,9.919127519721460118e-03,1.237526517114965335e-02,2.059668582627670330e-02,4.527410316273787483e-03,4.122047897417346202e-02,1.343799639096473486e-01
1.384416153723155296e-01,1.332498689808683454e-02,1.820894862283659391e-03,6.089047259761604103e-02,6.124979938371575769e-03,1.149381316352862843e-02,1.097493194422052495e-02,4.328085516521028818e-03,6.618789459393029095e-02,1.098092931538632716e-01
1.371959335960235282e-01,5.282065821919323251e-02,1.192178850879139530e-02,5.904432205105111797e-02,7.197124480151827425e-04,1.014482444221078902e-02,2.265850399776083920e-02,2.811636939005097806e-03,7.471817421445865748e-02,8.803834542093501303e-02
1.278294042977904943e-01,6.689398164622660514e-02,1.766334468582613643e-02,4.568165938305102092e-02,2.328815487368966070e-03,9.549271566205110376e-03,4.704918880444052681e-02,2.411722160927796520e-03,6.737445241541453744e-02,7.119784486459235229e-02
1.477482287780541304e-01,5.480381085592968965e-02,1.074723019460568571e-02,2.695279864047505150e-02,1.538276042048408471e-03,9.297957150572862262e-03,4.906762659376884966e-02,3.767750644413880162e-03,4.817347319399205990e-02,5.861011832555405171e-02
1.688546562964912956e-01,3.947975644519945149e-02,2.735866690345679485e-03,4.288358936031751167e-03,9.541114885445021619e-04,6.519454255299191557e-03,7.809591971907853085e-03,5.510443690984677748e-03,2.355468165102902675e-02,5.028824300010863863e-02
1.283254321980681067e-01,2.934633934867234700e-02,1.312442837413073556e-02,1.598553690325640875e-02,2.012497121359643065e-03,5.150336234879878284e-04,5.492433238720918764e-02,6.524599925915527260e-03,1.267369984407173793e-03,4.656422200476824369e-02
1.905166482723949159e-02,2.511266297839331169e-02,1.330934063058512688e-02,2.053328435610622671e-02,7.578342324703044898e-04,9.177967045590618503e-03,9.659681139267593808e-02,6.966599515897518684e-03,1.231807079907989294e-02,4.481450247364186790e-02
9.321025604858457214e-02,3.115232719982279422e-02,3.891559510705973552e-04,3.714631414580556873e-03,1.029388919296774342e-03,1.470723128074607512e-02,9.641416805749901398e-02,7.228775206632874657e-03,1.130312178949735569e-02,3.969423977953157046e-02
1.369892840838260184e-01,4.001264696276277816e-02,2.210080457496063286e-02,2.205338490315006394e-02,1.413251738381021173e-03,1.494253694113167885e-02,6.486521188173037522e-02,7.049177330055071168e-03,8.143594211924023996e-03,2.647749700302553730e-02
1.006989706071380331e-01,3.386685369952874280e-02,4.522380373697193479e-02,3.735133761566464955e-02,2.684994038778546139e-04,1.151256772813132913e-02,2.050156644354738864e-02,6.196516171051006695e-03,4.022010303125536645e-02,3.729910852267903296e-03
4.320296214860203099e-02,8.925130731853053723e-03,6.210255106364135497e-02,3.399515572976290201e-02,1.513367409064657852e-03,6.699775330582235892e-03,2.451579024208484781e-02,5.271670789878893197e-03,7.120445596831448398e-02,2.453053581043652259e-02
4.199680823027933385e-02,2.404871612748380252e-02,7.367346212845779507e-02,1.788944550167434477e-02,3.472963207467959397e-03,7.879018915043561541e-04,5.948240082149590380e-02,4.743540095554139337e-03,9.486970691565183023e-02,4.918774451639083833e-02
1.141361154612216960e-01,5.962548571406980913e-02,8.596551809171325276e-02,2.876343320018311285e-04,5.248498030031785964e-03,6.228472692796279200e-03,7.513389243674274687e-02,3.909627597274646128e-03,1.169860557088631819e-01,6.242810307812748927e-02
1.981172600410840701e-01,9.850919680395317513e-02,1.012174318157735980e-01,9.719463931731689432e-03,5.896337430192673777e-03,1.132018614434404831e-02,7.243066886918399228e-02,2.191132430348229857e-03,1.397501916652571785e-01,6.394050156274869168e-02
2.280472880029811023e-01,1.336642939408640707e-01,1.124199636894435278e-01,7.746846641855501849e-04,4.936704380226070339e-03,9.992017277851247825e-03,6.147750183719225686e-02,4.452816073237825809e-04,1.532277886448201454e-01,5.876463663840417184e-02
1.967879717482727553e-01,1.484490171225368027e-01,1.112777563650794999e-01,2.670825804476049600e-02,3.397500437012881958e-03,2.514257400552799906e-03,5.055298638686671342e-02,4.454607793555729776e-04,1.469092057498727621e-01,5.261139899218925803e-02
1.307422205455220920e-01,1.280649544589574362e-01,1.009539419886932854e-01,5.725942051953573919e-02,2.267129634704786664e-03,4.367749822738095297e-03,4.146790900755772252e-02,9.468653547960656502e-04,1.211270460121304932e-01,5.165228956650625564e-02
4.886185993468618316e-02,7.396810243585523470e-02,9.168596308817121565e-02,7.191779121057333135e-02,4.272095395833853601e-04,4.571612609044217908e-03,3.347690658676497760e-02,1.676357489647063628e-03,8.587303017841804720e-02,5.988417318796633582e-02
2.536831396359671628e-02,9.236420451478025498e-03,8.428168746966011038e-02,6.841639714004839334e-02,3.693788685120980714e-03,2.298669746898669686e-04,2.481312604608849545e-02,2.418741876872364076e-03,5.392131652825904453e-02,7.157866458158100575e-02
5.388652029346086003e-02,4.007285660753837075e-02,7.117713864738028917e-02,6.133046878587830597e-02,8.627808531141327800e-03,2.799222457053158856e-03,9.374602944305950383e-03,3.088611481384142404e-03,3.232961797595090142e-02,7.332388364664474412e-02
2.288980399241412333e-02,7.267632454735649394e-02,5.355583718105338259e-02,6.001740641903248463e-02,1.100093513464881802e-02,1.358663760929068424e-03,2.067308801682269173e-02,4.061033723280299719e-03,1.696949805302277320e-02,6.038215254779623342e-02
2.944358063098507020e-02,1.068455102639285365e-01,4.105354123183858894e-02,5.581320175164233843e-02,1.043279705010277843e-02,9.232190019275283988e-03,6.255060768372290581e-02,5.029756010629741689e-03,2.997298448366731566e-04,4.420764754984162631e-02
4.970943126601104489e-02,1.471553235045699182e-01,3.376411987530302666e-02,3.690655733262802191e-02,1.013591111078652671e-02,1.388331109969917487e-02,9.761096362313542718e-02,4.925902806306304942e-03,1.586175712983606961e-02,3.525220463185354397e-02
2.187831866425982846e-02,1.789679662696501417e-01,2.093591890884701628e-02,7.378961040827009162e-03,1.223848103840844033e-02,1.235914490930909403e-02,1.071679877860113178e-01,3.593084681568394466e-03,2.587933991625211358e-02,2.575815413432612153e-02
3.080544367252456908e-02,1.955533610881027007e-01,1.947429342258822499e-03,1.721109946489607009e-02,1.554232955048530027e-02,8.543202384989265902e-03,9.316251759628306484e-02,2.453114398688740604e-03,3.573393244118319712e-02,5.801963348889228531e-04
8.020015027983717903e-02,2.029605747351155565e-01,2.829273760898678991e-02,2.716331789002572605e-02,1.836531135119076272e-02,7.166613032725648209e-03,7.566787700534093053e-02,2.516912811266394830e-03,5.325653713443194437e-02,4.082807907033691314e-02
1.081607638357187373e-01,1.980076291925579601e-01,5.045294480948969706e-02,2.404822643490043405e-02,2.086075739880910787e-02,7.747568145286863953e-03,6.914223160052275496e-02,2.803795775002909923e-03,6.323621516758036465e-02,8.274915390869436171e-02
9.817002828201752684e-02,1.692937355241760089e-01,6.345106094112565320e-02,1.569884742088664686e-02,2.342337273851281126e-02,7.233982619689562597e-03,6.950909244866013137e-02,2.206411785317952297e-03,3.963290306142838726e-02,1.074802607073897381e-01
4.602418390618829430e-02,1.213770465338286364e-01,6.231852025949534413e-02,1.231685654183749257e-02,2.442309203525695749e-02,5.527687266786531980e-03,6.575951965731301196e-02,1.542554413945652295e-03,1.126571815639253703e-02,1.055416828697833542e-01
1.890223757034667842e-02,7.530467037953296472e-02,4.624413495526748935e-02,1.890092076011341479e-02,2.127506183584658081e-02,4.297208056659802128e-03,5.295132947772979853e-02,1.873101754339113805e-03,4.841935719206703903e-02,8.095489659024161788e-02
5.941843992059108598e-02,4.309132022521315608e-02,2.473316631859948100e-02,2.625678227134081374e-02,1.398695246600983703e-02,3.077520682862096117e-03,3.238263332813326456e-02,2.433203632003555928e-03,4.634686134832030624e-02,5.119649358548752915e-02
7.752059620288700992e-02,1.888645048788626518e-02,1.262980218653671216e-02,2.027598297313145878e-02,6.269896291814110699e-03,8.208184980749496252e-04,1.066202086472370011e-02,2.111848863832789958e-03,2.103267326988495639e-02,3.281607888903027848e-02
9.510194620915848884e-02,1.290711102686189354e-03,1.702809679774135165e-02,3.901177196577060215e-03,1.949702942536009733e-03,1.081547486481761102e-03,3.176422956203636596e-03,1.222673920706269547e-03,4.020004347290471319e-03,2.498589107253414154e-02
1.042528440991271760e-01,8.058509096376634262e-03,2.998588175300029648e-02,3.307238090595023342e-03,1.114092184498906507e-03,9.336601533749533648e-04,8.998163183304590251e-03,3.299939670464699707e-04,2.902929848654494174e-02,1.492746974969873935e-02
8.880961091540226504e-02,3.447254860866468679e-03,3.375673291729884562e-02,8.744672277651181769e-03,8.940903718791047127e-04,3.498642318522799657e-04,1.465989915878226565e-02,8.640958684799865484e-04,5.913785705421873568e-02,2.442878688285147083e-03
6.586169632590757606e-02,1.946198843026459777e-02,1.598412389042659296e-02,2.788887182404656273e-02,8.079885875899603474e-04,1.172990521286063851e-03,1.654612864863913915e-02,2.335991671704390829e-03,7.893829654473237534e-02,1.947987246697741037e-02
4.873739218276340601e-02,2.386898820765270823e-02,1.630963191564813522e-02,3.646808822533824379e-02,3.442177820215763621e-03,1.807992212424301475e-03,2.540941797578746657e-04,3.078773967177613965e-03,7.038349542349796317e-02,2.953765445440046170e-02
7.480578416476492062e-03,1.564091880818827343e-02,4.143109192234250421e-02,3.087483796938658015e-02,5.086695435947596183e-03,2.690231937165027398e-03,3.325011876611640160e-02,2.504343651408804522e-03,4.502285172698775734e-02,3.663721880780206053e-02
7.465295360259333046e-02,2.396420171537382189e-03,4.543323539052745302e-02,2.196954692966434849e-02,4.590786252005193101e-03,2.450111990460501418e-03,5.602782470192178149e-02,1.230779744114302932e-03,3.430491141814655254e-02,4.784138455266022383e-02
1.441759769814558445e-01,8.812456775045909158e-03,3.392531800302815009e-02,2.158482060273622660e-02,2.270579856844338971e-03,1.685809163288895724e-04,4.991446424977653146e-02,8.262640163186733572e-05,4.715864101246994289e-02,6.164405617381528424e-02
1.366970571359726327e-01,1.169670195648701838e-02,1.876096541235021051e-02,2.900989642700753726e-02,7.205225476985207839e-04,2.341298579917713146e-03,2.317465759766879074e-02,1.447227414302405682e-03,5.681881188831860302e-02,6.997258607773602923e-02
6.468659673617348227e-02,9.529306677901369996e-03,1.529419234587815930e-03,3.121159832333850540e-02,2.577567937749686289e-03,3.241885601184072048e-03,6.626264696993239799e-03,2.627227953688229724e-03,3.898515260480093364e-02,7.081621402479927607e-02
6.823172029978095271e-03,2.351212153362938415e-02,2.388725909799956776e-02,2.041694418868851557e-02,1.046036145326854905e-03,3.948101625049186755e-03,3.279627014546839664e-02,2.764932141672510422e-03,8.281281785506362791e-03,7.375958271690337409e-02
4.899632475339307791e-02,6.762716322718613504e-02,5.669547456441553779e-02,7.098852483121198542e-03,4.054145377355410258e-03,6.302181697833143283e-03,5.642538218183194149e-02,1.516681539676655336e-03,9.256739030915703964e-04,8.877715914483054471e-02
8.386233743718518596e-02,1.133378477650782701e-01,8.555137567402898435e-02,7.291013996409969125e-03,8.530474814980145565e-03,7.892898104654696989e-03,7.306849814831881118e-02,2.684901316945664113e-04,2.852192431675535517e-02,1.107416725613115799e-01
1.259904096903636805e-01,1.131909447690599008e-01,1.036313538668310053e-01,2.187147867871554879e-02,7.660898595098908706e-03,4.813054828257026969e-03,7.233337401762138241e-02,1.418926187821713519e-03,6.398888372220525034e-02,1.221174427546029700e-01
1.584982365379951907e-01,6.707150268910218316e-02,1.184149376147852067e-01,3.697781110861095288e-02,2.928619625249288469e-03,1.698821099958574936e-03,5.353880749685913099e-02,1.659346460155137429e-03,7.106745206670832260e-02,1.122516565902769020e-01
1.663150983255362592e-01,2.612447423446648959e-02,1.343152899433108227e-01,4.103283848644338760e-02,6.350327837212694148e-04,6.675255649582640012e-03,3.428917321676960145e-02,1.761183309671447705e-03,3.863878105313512529e-02,8.629095359878163896e-02
1.511927028490409886e-01,2.077029192215058828e-02,1.347457547960580759e-01,3.554855646703627275e-02,3.158196283960511188e-03,8.594072121721814395e-03,3.424621572975612011e-02,2.385903690002745894e-03,1.206450411891052052e-02,5.509790040024812457e-02
1.057888836332545324e-01,2.633349032283205035e-02,1.021401584727097411e-01,3.140932135257642338e-02,6.441036462794420651e-03,9.718849374641810521e-03,5.222008278639168888e-02,3.040881709054698689e-03,4.652913901383139150e-02,2.530951054046709503e-02
1.583033862040307896e-02,1.321437589394100498e-02,5.072080263136915373e-02,3.670274831971784973e-02,6.718789700181727886e-03,1.090184230309588186e-02,6.564088902643036572e-02,2.690179138721460542e-03,4.280386712769277541e-02,5.780221288069807908e-04
9.188128452709419525e-02,8.879714088126123075e-03,1.627136026022333801e-02,4.881371906242313458e-02,4.796263445194425858e-03,1.117015360261216887e-02,5.334214530040913560e-02,1.154212454767505284e-03,5.519739814076298628e-03,1.375855426672739461e-02
1.464897395357155629e-01,1.621629195033729570e-02,1.567512382326470555e-02,6.073949583713026540e-02,2.883691795675321495e-03,1.075912075000983251e-02,1.719328525124613066e-02,5.683663430224713750e-04,4.264418184087342967e-02,1.348288670749966944e-02
1.114208150578309964e-01,9.441009466405816952e-03,3.546437246992403813e-02,7.185430494246421163e-02,1.340770223541336292e-03,1.087417189767395792e-02,1.976995656489641609e-02,1.169278375974125471e-03,8.557528730792332561e-02,5.035698301757127876e-03
3.463352115703281081e-02,3.927594375175883813e-03,5.310524745952557163e-02,8.570470136968323660e-02,2.583257818593616547e-04,1.169760543398035667e-02,3.703896271775206084e-02,2.251398653746931964e-04,1.238249273826560748e-01,3.962550361999252202e-03
7.077623657052533809e-03,7.577417784364196343e-04,5.240806891220482766e-02,1.017334796199727692e-01,1.447940998173772361e-03,1.218573235886979272e-02,3.598157412780936260e-02,1.167371802179615432e-03,1.539629440564921348e-01,1.776157651334970763e-02
1.573974426631855050e-02,1.459663691136868849e-02,2.975004620405703390e-02,1.176616278551055189e-01,1.400705539156056958e-03,1.109405368548505889e-02,3.232332020968122638e-02,1.313625157725908628e-03,1.553268575719319866e-01,3.974888390909388225e-02
8.248843834846864009e-02,5.386054100764521568e-02,2.322297078181034206e-03,1.326964704970270414e-01,2.037965950747874181e-04,8.142174929964720101e-03,3.180042652942974279e-02,1.800144316191874003e-04,1.196938510755908291e-01,6.143535845740052265e-02
1.566420883057643154e-01,1.099475629024170981e-01,2.777182162511000751e-04,1.398408994130387051e-01,3.548230125985010492e-03,4.134362286066245278e-03,2.139825937411060641e-02,1.908212791530692178e-03,8.012640374144110178e-02,7.593923978594295521e-02
2.001391443131632919e-01,1.511399625386202483e-01,3.618959041260218223e-02,1.282791810170048064e-01,8.987343710288597104e-03,5.104955223589932155e-04,1.117078099280457287e-02,2.365937771148017219e-03,7.944159934522322664e-02,7.036745356436149845e-02
1.870150160453509514e-01,1.424739274124274535e-01,8.564467672832278000e-02,1.034380958244550675e-01,1.611332417557544833e-02,6.033193480013302606e-03,5.642402780177432214e-02,1.628619669196190202e-03,1.151323503819285526e-01,3.362643629692534802e-02
1.266014298070846922e-01,8.785928630942069217e-02,1.068075089428407315e-01,8.682119778083535744e-02,2.276891943914570796e-02,1.146714890823856241e-02,9.114963601362549572e-02,8.868354626358414088e-04,1.440058615142952858e-01,2.434559566720150003e-02
5.977024772150037885e-02,3.591276761046569010e-02,8.276107475536069458e-02,8.551916708320178584e-02,2.600513481577619926e-02,1.480507988920911483e-02,1.047994842292670759e-01,7.806105418519433551e-04,1.400622751544424172e-01,7.286070648013069639e-02
2.407443986932799457e-02,2.723340787307658092e-02,4.175002679749726525e-02,8.238790162623901847e-02,2.500573754870582741e-02,1.582096527251783749e-02,1.066045130469515795e-01,9.762771361730147087e-04,1.209720095919710331e-01,8.587345835730460231e-02
2.569183599071120372e-02,5.168024725205635356e-02,2.837922579203242673e-02,6.584299824975912985e-02,2.306791495574129006e-02,1.642880878468178443e-02,1.067218983223708201e-01,1.089893316978118214e-03,1.134603539815588480e-01,6.411717785400805614e-02
3.793073403199854338e-02,7.492069166604356512e-02,5.619363164727998738e-02,4.711325793480057589e-02,2.502316866584742075e-02,1.794417544905796413e-02,1.031596653768891286e-01,1.081534968847880059e-03,1.172291828829467725e-01,3.077629675403066242e-02
2.525670597475841717e-02,8.903910281630485202e-02,9.862027493966064873e-02,3.667362638967466143e-02,3.086748503712230529e-02,1.974842214898077028e-02,8.970446623054445512e-02,9.393956421861033267e-04,1.132342607865973183e-01,9.706637980421385301e-03
1.881725263247407270e-02,1.101389888198743006e-01,1.228552615123704728e-01,2.357366169307587023e-02,3.330172660232780246e-02,2.029394746248794693e-02,6.671321343580033369e-02,8.288157736740887687e-04,8.933019308027845273e-02,9.106076388797798918e-03
5.851329938547045195e-02,1.341530370126882699e-01,1.195656865836894900e-01,6.169100216051270034e-03,2.534690708281964883e-02,1.850127203387569655e-02,4.286805834654429381e-02,1.173098521030444073e-03,4.949951374490349498e-02,1.994773238686899791e-02
5.173687068505750108e-02,1.274138145773416608e-01,1.052497059646857747e-01,4.202872891344697909e-02,1.021429806792436591e-02,1.496180740814055318e-02,3.078766274866224020e-02,1.856451778498034982e-03,1.364005516065783241e-02,2.683156376602594678e-02
4.779285323198623550e-03,7.194642048708857485e-02,1.055005834884449462e-01,5.597218653912940795e-02,1.057355164432353207e-03,1.173853937895383281e-02,3.619067575817600663e-02,2.133518082552445395e-03,9.471360757129204666e-03,2.387655823342113917e-02
7.214450827880303230e-02,2.758739514415077879e-03,1.237741723525923876e-01,3.730427753976092026e-02,2.260063695950548148e-03,9.978376978754800036e-03,4.832096137107968342e-02,1.934873426374562758e-03,4.257550295274358659e-02,1.949144866310682442e-02
1.045550711390736409e-01,5.251817223970582649e-02,1.262759500349479869e-01,1.222251861253084715e-02,2.350117986681054660e-03,8.635801755037551819e-03,4.864420152373141043e-02,1.979219723404063592e-03,7.527796776897437148e-02,2.170808545777763721e-02
8.872491506355785484e-02,6.697399953362941083e-02,8.404074851349860320e-02,1.997279271098437170e-02,5.022214089954796755e-03,6.723263316767365966e-03,3.326852425184627371e-02,2.250903977594706420e-03,6.311556576710536381e-02,2.542660898011386145e-02
5.532174368889294230e-02,6.274642718900527716e-02,2.576703903501468412e-02,6.583785718198731374e-02,2.497416995362121417e-03,5.133785795784023831e-03,2.023861050878413004e-02,2.045261396524767055e-03,1.072172305474698543e-02,2.392898889592110986e-02
4.915903497425509056e-02,4.548694708297951889e-02,1.184359179600890516e-02,1.090819679849534957e-01,2.588199796175483843e-03,4.740384254617535653e-03,2.720617815145435006e-02,1.474796608323328999e-03,3.788248464120708148e-02,2.374264552373098539e-02
8.789849949814618202e-02,1.157958094706279702e-02,5.568597046654687188e-02,1.092388031688734662e-01,4.925008933707755027e-03,4.744863279375842111e-03,4.513106280536410830e-02,1.238100739798517593e-03,5.623284339196957249e-02,3.128522526889627314e-02
1.490621755359587963e-01,2.291196658559560562e-02,1.042502110144456900e-01,7.228896772155715689e-02,2.178676002328991650e-03,4.484770615596130397e-03,4.702081687921139813e-02,1.371746200934383358e-03,4.923812718992006537e-02,3.420479072310073088e-02
1.861103917729616808e-01,3.153576628699405332e-02,1.008797950819204509e-01,3.668564937406467580e-02,1.493133843814335683e-03,4.673545150620568404e-03,2.538981876684752448e-02,1.563615504497108122e-03,2.311341159559651345e-02,1.872913099278064597e-02
1.630355853242625996e-01,1.441531499425797135e-02,4.562565862052062743e-02,2.667062677067106105e-02,2.233839362982253246e-06,5.259019822715754224e-03,3.146530802782743740e-03,1.827071923230448461e-03,2.122262892503537154e-02,2.571943364473531363e-03
9.380583140260494168e-02,5.400286111980344937e-03,1.193700453062159113e-02,3.630046846772826130e-02,7.330707634118589777e-03,4.159703223353907256e-03,1.327353856742082092e-03,1.910235892513258106e-03,7.052829245568147110e-02,5.954474025313957926e-03
3.945189988317991669e-02,2.262043464498907780e-02,3.057599643233918987e-02,5.136958524039485219e-02,1.626095945432348006e-02,3.390920761907177281e-04,2.190531032260436411e-03,1.200590966068347575e-03,1.000312474560250270e-01,7.346779988612922759e-03
4.612286494323244307e-02,5.479054519113261967e-02,2.283423066562801154e-02,6.868407716255267581e-02,2.307817056191893354e-02,2.985701181352183597e-03,9.033456522479330238e-04,1.120547467837813537e-05,8.846412049475051165e-02,1.502849717531512530e-02
9.513501692831147216e-02,1.008471640738351910e-01,3.648962378424432107e-02,9.022983732019849989e-02,2.576240167992594615e-02,1.190274783687146707e-03,3.535451787480712801e-03,4.692155669459144090e-04,2.600941001498761548e-02,7.263529242670888064e-03
1.287969502461753235e-01,1.255414505199216602e-01,9.042587416789191201e-02,1.113702480469348777e-01,2.264560052577726038e-02,5.272133834656561775e-03,1.813473869146278381e-02,2.129741370635591490e-04,7.841687513420411704e-02,6.492674192099489455e-03
1.186102564654263475e-01,1.017448314943836529e-01,1.500737653843962072e-01,1.257357701022205065e-01,1.411936815073967788e-02,1.044392274968868571e-02,2.182318313539989216e-02,9.969640615483769952e-04,1.920601850180702896e-01,1.827186803079088040e-02
9.299341355069065673e-02,4.875674217778799835e-02,1.827291947091997104e-01,1.354129996528121160e-01,4.453036518756241582e-03,1.028137750315193284e-02,1.971120141026860839e-02,1.001843018502623136e-03,2.750570019657824217e-01,2.879526720937942291e-02
9.098364401454238359e-02,8.867631821800269279e-03,2.114548539940750427e-01,1.465676053093445952e-01,5.913824600459544533e-04,6.868550979324958977e-03,1.010730219810059421e-01,2.441997942364541223e-04,3.099512910340259664e-01,3.671649710361770541e-02
1.040417032857147289e-01,4.653520735302354994e-03,2.768997382260745543e-01,1.609385839374762039e-01,1.451632948147030082e-03,3.353065802642222776e-03,1.703199180310229210e-01,9.390628037408685130e-04,3.071627135415639365e-01,3.749435768212368292e-02
9.285646041150848184e-02,1.419924393655628767e-02,3.599208689963824259e-01,1.773640214326683839e-01,7.019556452271878515e-03,4.426875961053888310e-04,1.893729420627432436e-01,1.806916370034309608e-03,2.810247643877162860e-01,3.723969341093298635e-02
5.808688116185643097e-02,3.340647581065306349e-02,3.887294849061026514e-01,1.918400707161907748e-01,9.686067333484614517e-03,4.138987460185683184e-03,1.807494531754420264e-01,1.456934111148445055e-03,2.323623944193959900e-01,5.662906970893676062e-02
4.808038271850750139e-02,4.271533801948741021e-02,3.258565055635539442e-01,1.943192649610100964e-01,7.923874101973852127e-03,4.034835800624667762e-03,1.880373866470284316e-01,3.031541786180005763e-04,1.578321759361406285e-01,1.075169448591557914e-01
7.917396689827559120e-02,2.265154940828715407e-02,2.140461217895609780e-01,1.799051179968592651e-01,7.483949337007475035e-03,1.212110944134226929e-03,2.083437221785462978e-01,7.116669174658175781e-05,6.864436118191154235e-02,1.678936491643755191e-01
1.025979096294134668e-01,9.373661380572667276e-03,1.318387968008317424e-01,1.615385950505590917e-01,1.299142685321534423e-02,6.886243836466836993e-03,2.009849410502805023e-01,8.851499030702035834e-04,1.906845656637241870e-03,1.975322892552588139e-01
8.614356686128431251e-02,1.712455571561032758e-02,1.225081005176397592e-01,1.540268987942514656e-01,2.073516862710469977e-02,8.741605303455869322e-03,1.523077361671038021e-01,2.163964085720802843e-03,1.106572663842221582e-02,1.808666269475491528e-01
6.330814196769131430e-02,6.433175692186450696e-03,1.628234152286773539e-01,1.493584123624907556e-01,2.378661017035192324e-02,9.471732604215184897e-03,9.129676358889560195e-02,2.788370204806045471e-03,5.789023065860079975e-02,1.375854363718556628e-01
4.442255489483024761e-02,2.458415274675513490e-02,1.923035785767801820e-01,1.262352043897640164e-01,2.044927608611811845e-02,1.409261137072613176e-02,4.502064782458423120e-02,2.720352557761046650e-03,1.623424435962463885e-01,9.241213336817642732e-02
4.328809436570980884e-02,6.687641421345105752e-03,1.811915198469901955e-01,8.070483915999228375e-02,1.448414927973271267e-02,2.031413169613963121e-02,1.724045137910030709e-02,2.695947974552732104e-03,2.220402639331264527e-01,5.686911580566099411e-02
2.406281428577458914e-01,8.986256778532970835e-02,1.634104183463851168e-01,3.141844579334177046e-02,1.071001535605505678e-02,1.819975221109512015e-02,1.028100266276922754e-02,3.554284907894989225e-03,2.000192460996049748e-01,3.981679645777834453e-02
4.501866802411567670e-01,1.773781310642648101e-01,1.821203034812743926e-01,3.826739494003550748e-03,1.149368655846479126e-02,2.551225712847980144e-03,2.997354363292877716e-02,4.969840500994048005e-03,1.525214795971412407e-01,4.700425140166831356e-02
5.397317637661086520e-01,2.164272135498843119e-01,2.203555133158293378e-01,2.431434977083019727e-02,1.407445274359482926e-02,1.710610931781878299e-02,6.217366858028167131e-02,5.413265400500655647e-03,1.671188111054285885e-01,6.340676769445978411e-02
4.992338890169315535e-01,1.967607450048523277e-01,2.217996255361528446e-01,3.900275168637764439e-02,1.254976631053359055e-02,2.555993040045166295e-02,7.578907784525154567e-02,4.258028380878453416e-03,2.504812317725838011e-01,6.379662426933147001e-02
4.176543344613951048e-01,1.496343064258342515e-01,1.647452063419502233e-01,5.288444683461807766e-02,5.906388776778169827e-03,2.052332245449097620e-02,5.977946454002933119e-02,2.575464525168467706e-03,3.141189481436227338e-01,5.004370816747132078e-02
3.540964894856305500e-01,1.115619736195911094e-01,7.943930056271723827e-02,6.391492067971858704e-02,1.239853067924083637e-03,1.418536270105274708e-02,3.504780527663094170e-02,1.024189387335572689e-03,2.873264440748006243e-01,4.943545991599067324e-02
2.992410371834696159e-01,9.618229582354159701e-02,7.041093566268204207e-03,6.834801913116804462e-02,5.393418329720245548e-03,1.572488468776191139e-02,2.290009352797333156e-02,9.389427077801249921e-04,2.055057569915964555e-01,6.758864317384480347e-02
2.294200372592955228e-01,9.121969951744147986e-02,3.073123417948639760e-02,6.614889681538330124e-02,1.635183680858592198e-02,2.149365839624181249e-02,2.182130498578622665e-02,2.862239101483879389e-03,1.516142271855793477e-01,7.652168610667840765e-02
1.492687454667498970e-01,7.737204328150187882e-02,3.573659821122221469e-02,6.141529632685575890e-02,2.614525608343249222e-02,2.439627479856735712e-02,2.172811366351198176e-02,2.885669047198940497e-03,1.425049447809008107e-01,5.945538706605382057e-02
8.849608597270862409e-02,5.244843827052741991e-02,2.604992574639229327e-02,5.843467122101197314e-02,2.940525928326878299e-02,2.387681833550114527e-02,2.132934427433294186e-02,6.845411130515639776e-04,1.229983151492478471e-01,3.212434046580148889e-02
6.568774332389701320e-02,3.219337148453520203e-02,1.704541511067425921e-02,6.040584075972992711e-02,2.587501899454156679e-02,2.300830265838078523e-02,1.960515921476382525e-02,1.539642291781514669e-03,5.528174764138356345e-02,8.853710694434852382e-03
6.269797783962349769e-02,2.516785421812869211e-02,9.137867774525682343e-03,7.100129136165683752e-02,1.754771447114992014e-02,2.248908181427703573e-02,5.069728091013614955e-03,2.156024840958816347e-03,3.572271095299459770e-02,1.806525031584389415e-02
6.005189592749314575e-02,1.983149797734169023e-02,3.260244866280591347e-03,8.980228173043673656e-02,7.987414326396338748e-03,2.128640730836680803e-02,3.009651151750006304e-02,2.085528499814447330e-03,1.036082719537600311e-01,5.230852745986862978e-02
6.818458718671689678e-02,7.840540093003113900e-03,1.530613306788214910e-02,1.069719374718621357e-01,2.366894820999187066e-03,1.908574888626900570e-02,7.388460549747667694e-02,2.624012467621749268e-03,1.314356487937004547e-01,7.695303493499303094e-02
7.633047827650767114e-02,6.471606867877514185e-03,5.584579609957354002e-02,1.124027028388322330e-01,2.667998821580105148e-03,1.599532465433881057e-02,1.084974748047450865e-01,3.311560504977506710e-03,1.362720727245022301e-01,8.050240461098198685e-02
4.055502759921375544e-02,3.376794090985028168e-02,1.082595534486692768e-01,1.087286804618872449e-01,4.287755476768354695e-03,1.323268769113253134e-02,1.312617349985178983e-01,3.161829996390715276e-03,1.404772620052029963e-01,7.707320416921795148e-02
1.146512572252366205e-02,6.882209658456631129e-02,1.489967222033484195e-01,1.053211737556149497e-01,2.387458451395240919e-03,1.437709467282038793e-02,1.436634595980451901e-01,2.363399215747386505e-03,1.472685937582339510e-01,8.309297278325197822e-02
3.055087309943538970e-02,6.869734825986126281e-02,1.739115250881572428e-01,1.052247913764391973e-01,1.307925620108482505e-03,2.120362098781342075e-02,1.338152409641430174e-01,1.843412204751761988e-03,1.439232516499004411e-01,9.092318662420495468e-02
1.899599229808715817e-01,2.505239574311327391e-02,1.823421706215309912e-01,1.087287227877169055e-01,3.194794086566328691e-03,2.833706516831079741e-02,9.490963352107140150e-02,2.261163974820561140e-03,1.201465911464070641e-01,8.359189076308190525e-02
3.330976764199319318e-01,2.691583160533147362e-02,1.632537366773231802e-01,1.186474657424045065e-01,4.848100804264532729e-03,2.786830714129652151e-02,4.657943509106307611e-02,3.460007140316886769e-03,7.392882776680932688e-02,6.335883468454016343e-02
3.355079171235416102e-01,5.909866358363093791e-02,1.254554328162696131e-01,1.298222613313307072e-01,9.474924202062452727e-03,1.978047832497150174e-02,1.081929737903624539e-02,4.101300798158024480e-03,1.073937876280434307e-02,4.899110983101326311e-02
2.325401287650023519e-01,8.183332342868436526e-02,1.030548501303819170e-01,1.257465632569134961e-01,1.524090716666868031e-02,1.202898387529675178e-02,1.653212916496437854e-02,2.768022184239008355e-03,4.736980992393889645e-02,5.220506936077368154e-02
1.562737993783960833e-01,1.146509732848182417e-01,1.017202048471593095e-01,9.632298594397849245e-02,1.792932823475066814e-02,9.179076871982090255e-03,4.348439569567746216e-02,9.121248123306935124e-05,6.672937495315407752e-02,6.873574737924048605e-02
1.705317470375394551e-01,1.438919460517563143e-01,8.834690717065439569e-02,5.112008129856354666e-02,1.794183884947619240e-02,6.709627634618141150e-03,5.381903108142328807e-02,1.763086769682365882e-03,3.548580177440063821e-02,8.722804109098535041e-02
2.113658653058092807e-01,1.293396327511416588e-01,5.721607822115884479e-02,1.238279203089530899e-02,1.950655092294173790e-02,4.860215224637223514e-04,3.544927854868271805e-02,2.176679645982618899e-03,1.979189674786617850e-02,9.888473860282198658e-02
1.914963602170899337e-01,5.895583196510950641e-02,4.458347505589587562e-02,8.081085295702679361e-05,2.352768442612775818e-02,8.520468422322799787e-03,1.842679389431162162e-02,2.658154450688319376e-03,6.335840856376730168e-02,9.986156351861462388e-02
1.168317482164922816e-01,1.826116160454941198e-02,6.004217944208713881e-02,1.751554831875837964e-02,2.613988978017675602e-02,8.057787013522556621e-03,4.585085753668971531e-02,3.911451083819222213e-03,8.309713935629460535e-02,8.530793778119621917e-02
4.939643007686975174e-02,3.696526798014774379e-02,7.174976982820088778e-02,4.711160267744372854e-02,2.539979467673896679e-02,4.082742049649640617e-03,1.136617729107685104e-01,4.618004006590413317e-03,8.502490902531517625e-02,4.553030427928408258e-02
4.914482884995748091e-03,1.246012912308254277e-02,7.018574366789327723e-02,6.193905366180155886e-02,2.420809841073768079e-02,2.011319068012831085e-02,1.706756455504414571e-01,3.911708620632599852e-03,7.118091653534031060e-02,1.741529373225848484e-02
8.660742050457403973e-02,8.068597724388261450e-02,7.945218539585394146e-02,5.247759939142075669e-02,2.398320115864822563e-02,2.831223935640067926e-02,1.746138345786807378e-01,2.929283415463055425e-03,4.295187773510309587e-02,7.049621150754910304e-02
1.751566412708783771e-01,1.206926883885854479e-01,9.923812438178530870e-02,3.318877435561705391e-02,2.096248563909226814e-02,2.390476471194608390e-02,1.257393640296336490e-01,2.848785718065611258e-03,1.966953934133690296e-02,7.394043519124574027e-02
1.871217466752072012e-01,1.246894322309964054e-01,9.249759526005656152e-02,1.685837671367707361e-02,1.268574873401320108e-02,1.242835737753530435e-02,5.313458896528537589e-02,3.107246515821834171e-03,2.821472994618217517e-02,3.389633445336522055e-02
1.058030525115180032e-01,1.081596378222982463e-01,3.864786434934595893e-02,3.530544071449001273e-03,3.169578015203989695e-03,2.520078155511338430e-03,1.089420087535863599e-02,2.746199901745928311e-03,7.053282171189978467e-02,3.418968877674814430e-03
3.218784792927295579e-02,8.842016409335154425e-02,3.672688743192360772e-02,3.240851526550874578e-02,1.941059178081680665e-03,2.913053463852933143e-03,4.702210864797783108e-02,2.178190533473753875e-03,1.195821176717346834e-01,1.644916554590877822e-02
5.932576328718103253e-02,7.980127308697153310e-02,8.950459683566876212e-02,4.932855139687499640e-02,1.027114413605297559e-03,7.046430538026311231e-03,5.620218424509633437e-02,2.221326542949518708e-03,1.489948820045060851e-01,4.924229568544722518e-02
1.578504670335331428e-01,8.815196590327187276e-02,9.410929329843499558e-02,3.247035076652402680e-02,4.579556940658162725e-03,1.251343059606481109e-02,5.456839177346610448e-02,2.449026204709678876e-03,1.591759030309471135e-01,6.666779784115937912e-02
2.384394976936330401e-01,1.070016642361397707e-01,5.337703887937375602e-02,9.941820720578710066e-03,1.285506173760387998e-02,1.772506443876577936e-02,5.926134213221716934e-02,2.067343418773909779e-03,1.778181693090119808e-01,7.295165651548743413e-02
2.777207758395818238e-01,1.279896602054203525e-01,1.243511014753995170e-02,5.201178024856507182e-02,2.102290217569869127e-02,2.024104608966129093e-02,7.763426751195527664e-02,1.407603022088518840e-03,2.279515152835642211e-01,8.686191120243731689e-02
3.291687539550866015e-01,1.494253396115050592e-01,8.125182616971472760e-02,7.821951126584680836e-02,2.655523742850897720e-02,2.070174031423973812e-02,1.034321142787181930e-01,1.024370012281315429e-03,2.897790393356350913e-01,9.691508069117103774e-02
4.364759988647179956e-01,1.691239989201536453e-01,1.403451632541228844e-01,8.352542026415919751e-02,2.896953372840517862e-02,2.145673175792492740e-02,1.227352889508051270e-01,4.772057302783645500e-04,3.218854861584578564e-01,7.248140486617797584e-02
5.701808777688994745e-01,1.810943113727484510e-01,1.876717637440594166e-01,6.671756705116144159e-02,2.921073594179975780e-02,2.292902498293446570e-02,1.308476623901822511e-01,6.888389873884012866e-04,3.265320505278517249e-01,3.953103823957988122e-03
6.414765779621264263e-01,1.858795745920012177e-01,2.221659129511873998e-01,3.982134993942242768e-02,2.803866258229107886e-02,2.309723088359656035e-02,1.378911441731163201e-01,1.839535402730712059e-03,3.406259719979327083e-01,7.924551273850186095e-02
5.821896155444834520e-01,1.884187157042786775e-01,2.317526084067748071e-01,2.336175959996161788e-02,2.646602833558367798e-02,2.071923760220154356e-02,1.514448249590622797e-01,2.016159951259328259e-03,3.523716505992752768e-01,1.258142513553045794e-01
4.312132410353661793e-01,1.769872017924156438e-01,1.999053830517124875e-01,2.042808148612400287e-02,2.626756657711444218e-02,1.820364784859387214e-02,1.673518355455032025e-01,1.124710481341564816e-03,3.044556424973252073e-01,1.122336923655083973e-01
3.167269889902151747e-01,1.274973126097870280e-01,1.333317662383969315e-01,1.618732061927075083e-02,2.732674583038451760e-02,1.892625546656277746e-02,1.812566669383842421e-01,1.100460188956694629e-05,2.007664256689382642e-01,7.509192991939496464e-02
3.128252930754593097e-01,4.653352181680606853e-02,6.552183325336091713e-02,8.387151508566019834e-03,2.577980065561465833e-02,2.143927219061930387e-02,1.898554684543752868e-01,5.280295835485758439e-04,1.232384605050247106e-01,6.527518245363134186e-02
3.505456284890153817e-01,1.863916384926599112e-02,1.539364835454675937e-02,1.332356719055389355e-02,1.873130634201529074e-02,2.061057439218230355e-02,1.814183343175639340e-01,3.579869343476548265e-04,1.111735175908057788e-01,8.112305028895615278e-02
3.269715640916837640e-01,3.802149291266122832e-02,2.769983927120783437e-02,3.281028177417615044e-02,9.596346016495374900e-03,1.568115466323628457e-02,1.477453686328573657e-01,9.101541018680822073e-05,1.043497103088148470e-01,8.627939110414432899e-02
2.472820181681676388e-01,3.235613743575411344e-02,5.900271446875342274e-02,3.749616531348758802e-02,3.896877340795941360e-03,1.218870977666718265e-02,1.038887873141109974e-01,6.360112740276288958e-05,4.150015684129126914e-02,7.490150100889904350e-02
1.826898652271950196e-01,2.355951145850360140e-02,5.043437462896893653e-02,7.049232949223132282e-04,1.393677337999321524e-03,1.431701574863082811e-02,7.681535531787726800e-02,2.607010391388254371e-06,5.558727020081786346e-02,7.280011571774562540e-02
1.553184993242963385e-01,2.064622171578397655e-03,1.234075807001890936e-02,6.114292833992112514e-02,2.016771955639743655e-03,1.994117691859466704e-02,7.895640204755863256e-02,3.073753717174818587e-04,1.355479415368729401e-01,8.988441663009924532e-02
1.538050349544776985e-01,1.935802310512626384e-02,3.492595657961771252e-03,1.020198645578634655e-01,6.954507676608425934e-03,2.495907111596780414e-02,1.056439266785251657e-01,4.078025218454296849e-04,1.925685092158771206e-01,1.128985987846942152e-01
1.924009816390914729e-01,2.165212514800018972e-02,7.971116241784738377e-03,9.877409559834506025e-02,1.112975213716676549e-02,2.876616451528582821e-02,1.459682896294652588e-01,1.992496272552938240e-04,2.383897697029798146e-01,1.317018586914240341e-01
2.599666184062223717e-01,1.538155212972328323e-01,1.112051527020167623e-02,6.990716292817833466e-02,1.419627073373360207e-02,3.288281188654175458e-02,1.818135096490269276e-01,1.270028660732503084e-03,2.481698835004335912e-01,1.385768553499378830e-01
2.716127722066429273e-01,3.085584536229770691e-01,7.049840202283966240e-02,4.093244843614803063e-02,1.647145010298025139e-02,3.603251856707331141e-02,1.861829964301051910e-01,2.094751458428365312e-03,1.941268287238260004e-01,1.145764437978962630e-01
1.639547986230338872e-01,3.925970909604550307e-01,8.208059109792494035e-02,1.675781181259343097e-02,1.680085840444918779e-02,3.411047255480827156e-02,1.347525696550522512e-01,2.215154608900874161e-03,1.054848348493307719e-01,5.041431945406561754e-02
6.504107252502815822e-03,3.820480580632732992e-01,2.026150282249438578e-02,1.768736767715534293e-03,1.589595719053810488e-02,2.602031975233192601e-02,2.434406672938080676e-02,1.595438381973767090e-03,4.169310576733523122e-02,2.491050575284234694e-02
1.354622489235844940e-01,3.080734994142379501e-01,1.742462397505838423e-01,1.338106083847839627e-03,1.631339718598683042e-02,1.661933640548090077e-02,1.115545093711815261e-01,7.450241326189310830e-04,2.028607863370977121e-02,6.821484671884289752e-02
1.916467118729611174e-01,2.043280042149979436e-01,2.659222223967888654e-01,2.082529778207140025e-02,1.612666645189065120e-02,1.182372259301624033e-02,2.129507081989316930e-01,5.247746035547509779e-04,7.523347228627521102e-03,7.464756774935121797e-02
2.025069006393314663e-01,1.061954644704611039e-01,2.605434710251984254e-01,3.798209469263660876e-02,9.727395705175608670e-03,1.314818543062833654e-02,2.416080350823362199e-01,9.340049683485122673e-04,3.029765496156853338e-02,7.627970490363862599e-02
1.857001986788110737e-01,5.124737039251728993e-02,1.992747287964267700e-01,2.801034043304365811e-02,1.630713444897588169e-03,1.835244270769051389e-02,2.168590446132909189e-01,8.319937435564318676e-04,8.431191108332487805e-02,8.798277866605339059e-02
1.637067601411024143e-01,4.273950658441620643e-02,1.173969598688382465e-01,1.196721143506369878e-02,6.997374871859185323e-03,2.408787983045749051e-02,1.866870278610885114e-01,2.335481864864937082e-04,1.024319497509812021e-01,8.833863714850737070e-02
1.874571468616802739e-01,4.175194564671694253e-02,2.556647644330112962e-02,2.574019852698145733e-02,2.072769945455189312e-03,2.628818955352560729e-02,1.741053837811283034e-01,1.229458076191506993e-03,3.836189455252378422e-02,6.073441140664794652e-02
2.781278371506697988e-01,1.446596003575281730e-02,6.300794721555103006e-02,6.507578682087024335e-02,2.114968717293847292e-02,2.131948840317663199e-02,1.679634685863852783e-01,1.371658658425992539e-03,7.855049151218608527e-02,2.056139705288560077e-02
3.785491971133260747e-01,3.419103331174401517e-02,1.347792707506971499e-01,9.210204381357893488e-02,3.845616174092961886e-02,9.046823753879284363e-03,1.540706690000646639e-01,1.119131370628994281e-03,1.488298050751516721e-01,1.212734429455814868e-02
4.103222520433439935e-01,8.122219838793162672e-02,1.868163032108870747e-01,8.677355828908329960e-02,4.672663328202648902e-02,6.403235845685894753e-03,1.370655248947177662e-01,1.037954551488470128e-03,1.169483765494609417e-01,3.982373461516215685e-02
3.581705847872083126e-01,1.181768062283883175e-01,2.125673236355635765e-01,6.224218150434256830e-02,4.631880461631620455e-02,1.961185444675463824e-02,1.288148748045135072e-01,1.097960175498292152e-03,4.732635459255670612e-02,6.960103150029448016e-02
2.644279586427978335e-01,1.506084092211699421e-01,1.999891115270250597e-01,3.898759989993093311e-02,4.116899986927721050e-02,2.727181791165610159e-02,1.230443875929768949e-01,1.214190339164837682e-03,3.422268631648604786e-02,8.881468907703675419e-02
1.711343123786603915e-01,1.778076202918308091e-01,1.586070288898488723e-01,2.863206742204638458e-02,3.606464520050491757e-02,2.929574519127767923e-02,9.572281514583277917e-02,1.324348967314196773e-03,7.180511512315594647e-02,7.888605176383456374e-02
1.073714173962405510e-01,1.894356502240728823e-01,1.198700073030334740e-01,3.341816021222369232e-02,3.440170884877974400e-02,2.772088502241558394e-02,3.597843356746346921e-02,1.073740611354466077e-03,8.021614348797584393e-02,4.330503037724921928e-02
9.137382378744550449e-02,1.788268239780938518e-01,1.002913340418188637e-01,4.085790863958330826e-02,3.446667259420046342e-02,2.477967936344488420e-02,4.014677192323662380e-02,3.802321499136376436e-04,2.996028154720358286e-02,8.993218923249658020e-03
9.234651755555345343e-02,1.494230703754257372e-01,9.878403043117661708e-02,2.674924593806970313e-02,3.029118787290476303e-02,2.088518734503803931e-02,1.158812276502942662e-01,1.012076023206675803e-04,3.348693766009483430e-02,1.620227266038347510e-03
3.447135529010377647e-02,1.152598947322583806e-01,1.284183405379057952e-01,1.953830325265348833e-02,1.897292254819939877e-02,1.430816993718075567e-02,1.856176024440870653e-01,1.475191767302498277e-04,7.053920252363259091e-02,1.878407955901114507e-02
9.966002387066132118e-02,9.858165334027300941e-02,1.926075625209656139e-01,7.559575685609322415e-02,4.957929096419113821e-03,5.105236015696477947e-03,2.225742929376972601e-01,8.683521560218802806e-04,8.606870551282129467e-02,2.586323633284337217e-02
2.004232435650842858e-01,1.068677715418377139e-01,2.288965088173002260e-01,1.024020936598319109e-01,4.654558001064966304e-03,1.058565458971633295e-03,1.795573880653961174e-01,1.741010052659043225e-03,9.585967617079557690e-02,1.233562888349704588e-02
1.291733073327215042e-01,1.102818272411422856e-01,1.535170433201798745e-01,8.126965683735482004e-02,6.937147544502787755e-03,2.316433347342953131e-03,6.131905665821852508e-02,2.735853513865629198e-03,1.067066297370020816e-01,9.202676685332124296e-02
1.139348357422053093e-01,7.352634890814886692e-02,2.002834174886489529e-02,3.220633301482420108e-02,4.445435353850929645e-03,1.337648841927409002e-02,5.089195819459294001e-02,3.500168260125111671e-03,1.261791568283554543e-01,1.712165863947765765e-01
3.661110276247219186e-01,1.033080179142214713e-02,1.760756616850208400e-01,3.105217851434680099e-03,1.699999786010115716e-03,2.264368987336025027e-02,9.367002704919610845e-02,3.449285474877421525e-03,1.524829271025155697e-01,2.088266096256786719e-01
4.638746482971819463e-01,3.291244185506791292e-02,2.289846413413288706e-01,1.151831937489736311e-03,1.069704818636380353e-03,2.415363100417068642e-02,9.211361072681378825e-02,2.618021279349561168e-03,1.540868588633144687e-01,1.936779288926595843e-01
3.905218478421724759e-01,4.070883448886260247e-02,1.991073037777014165e-01,2.845625477907756662e-02,1.531445015408066952e-03,2.108874431688707168e-02,9.385460973985131072e-02,1.576017833604623350e-03,9.216781301496823620e-02,1.422830573779892416e-01
2.422935368420972568e-01,3.172986023140253464e-02,1.458206970202587105e-01,3.377081566733473872e-02,1.369775664042193787e-03,1.883160537910766319e-02,8.993502592958409203e-02,5.861661377424364329e-04,2.682125511842095925e-02,8.396712004055782719e-02
1.105621791499023926e-01,1.780512674933713499e-02,9.253468971740588800e-02,9.048279002822168932e-03,1.447108744697475028e-03,1.693865263990424960e-02,5.074560456518294876e-02,2.657071217453770267e-04,1.391670781361935005e-01,4.439866589270055619e-02
4.952361492131637788e-02,5.853948835279950552e-03,4.241641398944670516e-02,7.831640699899826419e-02,4.687639197873461061e-03,1.086652830082263273e-02,9.783914309115668284e-03,4.881591884352246176e-04,1.740817611650176122e-01,2.860183951301204300e-02
9.278077993336761309e-02,1.330476654239176257e-02,1.100407106341258663e-02,1.287389819491318310e-01,1.211871490636868588e-02,1.345867137706915472e-04,5.487216381447192898e-02,6.013789275246205455e-05,1.195568907271347403e-01,2.105412986545452531e-02
2.135254956138521454e-01,4.113638900964836781e-02,5.097383484360543462e-03,1.346153067746845566e-01,2.053325422564745983e-02,9.640508490184036480e-03,7.295704293093886739e-02,4.658410529047209018e-04,4.773082657073964702e-02,1.118838125049984727e-02
3.102923158120395875e-01,6.029917769878576778e-02,2.185964405392135101e-03,1.028689863907798624e-01,2.547830518643155739e-02,1.045100245387521956e-02,7.099063504679345438e-02,7.761092294722001721e-05,5.855723538040799592e-02,1.001484933502721358e-02
3.131672153010768844e-01,5.130684917735685996e-02,4.257142999655024601e-02,5.774685293306763834e-02,2.576156904797601357e-02,3.421071644230957130e-03,5.483745912210713502e-02,5.433910648979636869e-04,1.735919035608252670e-01,2.957167961842995310e-02
2.628850961273033748e-01,3.260331477640240894e-02,1.051649467683176548e-01,2.351051883193153516e-02,2.320079602471693259e-02,3.580037902838232450e-03,4.076664068932873974e-02,9.740386880288366906e-04,3.111167710333254122e-01,5.708523920327918111e-02
2.235462713788130551e-01,3.930783281615943259e-02,1.391100296059096797e-01,1.250262460835128292e-02,1.958137619708390925e-02,4.932235839270462247e-03,5.020399381673952555e-02,1.593195941994133245e-03,3.883363859860655132e-01,6.568032062761448853e-02
1.807125723134311024e-01,8.922061588718564751e-02,1.059534301069790796e-01,1.846593289691035589e-02,1.645099566779725450e-02,1.336349441968714795e-03,7.140809217283172750e-02,2.194896084909862995e-03,4.006128324481551539e-01,4.457085925217801198e-02
9.158557072452802594e-02,1.663007621024076566e-01,1.552243992970291087e-02,2.202497888806095178e-02,1.565101631985838307e-02,3.583580674886393570e-03,5.877601463540828991e-02,1.807972798513264980e-03,3.802933777102129875e-01,5.077266892194899975e-03
1.541984665738574747e-02,2.338869040387618337e-01,8.804968756615835779e-02,8.164289168253015608e-03,1.667707584735569556e-02,5.372002559468135735e-03,1.331959139242214554e-02,4.285564500462115279e-04,3.457818183726621974e-01,3.646699783597134176e-02
5.295254890023347316e-02,2.734776549974672344e-01,1.599491327319813305e-01,1.998766231886823022e-02,1.556565905275620124e-02,3.970238731985341329e-04,1.214056758319944918e-01,6.055295385768824689e-04,3.144034973999744742e-01,6.477235146194902649e-02
2.188024500169840139e-02,2.973508285742966217e-01,1.808635933600459822e-01,4.520748083808773937e-02,9.896272354305596375e-03,1.342968037088645289e-02,2.190888395124599153e-01,3.211089195577643686e-04,2.956629056687486434e-01,6.204015337806211006e-02
1.474886633528588731e-01,3.101991906014008316e-01,1.662190555792123769e-01,5.192449492427255592e-02,2.872851100462750149e-03,2.644041122987642045e-02,2.689729762557596660e-01,7.497364029152964833e-04,2.552981204638692936e-01,2.417540936758102998e-02
2.204115769789649626e-01,2.869087970721392322e-01,1.469124897979815214e-01,3.717873715752342823e-02,1.173842094520184459e-03,3.219143962295269168e-02,2.620023706405319452e-01,1.348931410861855000e-03,1.509402460783197397e-01,2.025670809559764265e-02
2.037004600713321345e-01,2.076100719576730869e-01,1.423664222991777584e-01,1.095477752069580826e-02,2.953518573238375633e-03,3.092910172872129562e-02,2.278325257440114715e-01,9.281256492663032863e-04,1.013319357049748473e-02,3.294935973342973112e-02
1.380545347868679662e-01,9.123921051997249676e-02,1.592930463122779194e-01,1.076334998436541228e-02,5.758247471836867512e-03,2.762182453271531252e-02,2.073670019009240528e-01,6.865190986749919152e-05,8.528422520670889129e-02,1.029740231346359773e-02
6.572556535633325425e-02,1.386402460636973304e-02,1.989603315091533209e-01,1.818348197013127526e-02,9.174765501485080549e-03,2.470146522201063094e-02,2.035125686642708098e-01,2.460116769068600184e-04,9.594125054364308069e-02,1.577464635607573815e-02
7.317813028966980993e-05,5.661079861659286394e-02,2.539051163761757435e-01,1.955119493248061099e-02,9.886373626171604534e-03,2.091942179459879703e-02,1.833488594763928448e-01,4.176896809068805804e-04,6.131012507980235920e-02,2.343171327154143155e-02
4.589963756873595424e-02,1.247644846045633388e-02,3.141207459303309579e-01,3.642092206265908766e-02,7.744379680405012734e-03,1.567443682693914556e-02,1.312668967996793445e-01,1.388127487481749045e-03,3.837003065709015254e-02,2.550588514176234736e-02
6.063625467769931388e-02,9.106303378329283493e-02,3.709157974740297514e-01,7.674349679138406377e-02,7.015964231081878860e-03,1.163057470850339947e-02,7.144833358188026895e-02,1.541819384099127766e-03,3.880776005026514985e-02,3.477815473707203398e-02
6.735723995486625482e-02,1.856635054694159015e-01,3.969682299459230124e-01,1.173617085103787483e-01,1.075333843085037738e-02,1.184873834775771427e-02,3.116073884899761559e-02,1.065240399364906013e-03,3.763095686287333541e-02,2.457497150506805783e-02
1.062734617447193691e-01,2.124788591485130551e-01,3.524124323349151489e-01,1.262112085794837302e-01,1.635792310778707431e-02,1.435766943007516644e-02,3.863624099746821444e-03,1.428958154306630545e-03,2.660086457519782177e-02,3.971612944096081232e-02
1.769568490936172522e-01,1.641918311363451122e-01,2.390250205598849209e-01,9.557075358752180338e-02,1.867803623448532555e-02,1.302389985048027499e-02,3.233962286741180747e-02,2.725101741928148431e-03,3.430934206063691871e-02,1.344032899187368457e-01
2.302420166266515855e-01,8.270435058851963173e-02,1.163787988580348987e-01,4.257007117596042778e-02,1.631031225499268364e-02,7.243871669117112229e-03,6.704315244980495192e-02,3.032724472758376380e-03,7.741826940094642673e-02,1.890127228561267192e-01
2.334167053522183399e-01,1.699209995610045237e-02,4.200348634206017839e-02,9.304010752536902296e-03,1.247669517280337696e-02,5.732716156050228842e-03,6.092251674003114348e-02,1.659416194870995138e-03,1.109479722225401449e-01,1.707069169767114203e-01
2.176051460908217106e-01,2.078543822448596090e-02,2.522871780280159376e-02,3.706706375302687428e-02,1.038098077193410490e-02,1.384059117802578266e-02,7.526685277575169419e-03,6.777821090323075254e-04,6.717430181596460714e-02,1.143847081928560244e-01
2.356223131519879777e-01,5.363742120042517408e-02,4.788225585729737055e-02,2.611304037227080849e-02,1.025609609585776544e-02,2.283700673471689493e-02,4.485729185006384623e-02,1.746266738313739146e-03,5.315138679166061392e-02,6.470451381013428427e-02
2.892875767063797787e-01,9.740902704249650157e-02,9.285261618007666085e-02,1.118403030966163766e-02,1.054806579210473133e-02,2.111364697122769876e-02,5.157569489188184447e-02,3.473639892712367290e-03,1.658255327172737104e-01,3.037624443250091025e-02
3.259724084849424663e-01,1.382922481621852717e-01,1.368521538173115004e-01,3.852018439727778604e-02,9.549657801107697130e-03,1.058068210327572575e-02,1.752418179766856987e-02,3.605396473553072918e-03,1.924345900003761878e-01,5.835375420475564373e-04
2.998613348680372881e-01,1.567746764617930499e-01,1.429394137874304138e-01,3.025228210471734430e-02,6.148928592260394059e-03,2.032729201414870505e-03,2.745453893996710817e-02,2.284446520739503474e-03,1.335347089718750269e-01,2.993674100097211410e-02
2.128379778085376373e-01,1.559858315561285791e-01,8.421643880030849072e-02,8.106423366727663615e-03,9.831579142061297634e-04,3.403700487264057183e-04,6.268675439367803193e-02,1.374696168367726783e-03,3.604236688299334440e-02,6.030603779676568105e-02
9.918895269173944040e-02,1.545319461103088210e-01,2.966096205463233937e-02,5.803277750761206416e-02,3.521589372080236729e-03,1.533943420069250069e-04,7.744344995236676632e-02,1.585842496087503826e-03,7.563712631271707343e-02,8.560022780642502493e-02
4.492229767740916341e-03,1.601775915206547218e-01,1.579891130363093033e-01,1.078153039669238755e-01,5.550391129697815860e-03,2.111727965590662857e-03,7.026581139433407674e-02,2.019287561608202903e-03,1.952074243997796166e-01,9.698997388937219410e-02
6.931116778653891031e-02,1.649927174417209486e-01,2.538028077549599471e-01,1.453105219203728038e-01,5.465155672752157121e-03,6.226728272602459653e-03,5.483364153283658282e-02,2.010572580678686092e-03,2.850376335844703735e-01,9.279022150698243432e-02
7.550175703660394477e-02,1.648840218454367124e-01,2.825777402620185397e-01,1.503307011621038969e-01,4.436934126137355786e-03,9.423643735833115570e-03,4.634826676315757787e-02,1.929817592032553528e-03,2.926581283905748676e-01,8.425928089194170689e-02
2.005838616274895070e-02,1.681246460355477201e-01,2.384188108520085558e-01,1.138299415274051929e-01,3.348330937596281053e-03,7.297589478136110724e-03,4.420885479768155851e-02,2.188589077247239754e-03,2.230322323591328315e-01,8.208013232000470338e-02
7.831125536803755505e-02,1.800760868089318345e-01,1.557036893225708651e-01,5.782851417550676637e-02,3.375117100454429458e-03,5.722663620770974567e-04,4.216395190875590199e-02,2.390762148844560644e-03,1.428102163761740262e-01,8.782193036958657606e-02
1.872220187709376094e-01,1.915520656399857524e-01,8.893570621320605329e-02,1.899757804088948038e-02,5.199814852135168503e-03,6.665919525551590279e-03,4.538240759211619596e-02,1.834783980430134851e-03,1.021771500399725890e-01,1.022052412699351043e-01
2.766243261680875754e-01,1.876915185968438260e-01,6.766649898463855672e-02,1.328258391498286783e-02,7.538085483412862615e-03,1.326865939839165509e-02,6.166594232564300004e-02,5.497929477801560176e-04,9.637357939499259507e-02,1.237678443135308282e-01
3.295857531012391650e-01,1.620717323440813984e-01,8.248375763056695065e-02,2.853864012300257047e-02,8.876093478424270516e-03,2.092791273379739081e-02,8.279861483001357825e-02,7.028102271142481995e-04,1.058932705291915355e-01,1.353267789536883314e-01
3.431381756896425550e-01,1.208275730561789996e-01,1.166949455938201125e-01,4.964598323564829024e-02,9.719319747549887145e-03,2.918125442153887000e-02,8.865440317190730057e-02,1.618324694208779415e-03,1.270243991987764220e-01,1.128676115628317739e-01
3.296806861893372131e-01,7.826436661084328061e-02,1.647859562437724301e-01,7.633540727911278245e-02,1.061994357618811259e-02,3.467432581391226287e-02,7.013214867556021026e-02,2.892040156997288235e-03,1.560840390247227594e-01,5.631832133223496628e-02
3.156637740010557192e-01,5.076396166036413471e-02,2.123287594668497869e-01,1.094818107087189157e-01,1.027066924048615840e-02,3.574034105512988863e-02,4.110858673168705374e-02,4.940891772631434732e-03,1.777582727596093704e-01,4.324008766408955241e-03
3.144178870915195767e-01,5.045424355152634821e-02,2.322014695722440236e-01,1.295526440681915026e-01,8.414272392741804774e-03,3.493842939383670632e-02,2.454641931676429523e-02,6.724682640464416800e-03,1.765405214900950537e-01,4.030516634677793614e-02
2.983707453443469326e-01,7.483551088602266588e-02,2.166912515208087309e-01,1.080687572009556563e-01,7.713160274118521439e-03,3.545351543206309852e-02,2.947790088633379935e-02,6.880993862106029972e-03,1.480111833166659063e-01,4.876468762685888525e-02
2.346880201660802301e-01,1.005384171820089545e-01,1.827061667923010058e-01,4.625480123935539478e-02,9.787338934528676260e-03,3.662584334965059835e-02,4.721301298518139344e-02,5.523072011069799989e-03,1.027287423572287167e-01,4.187677537131334615e-02
1.491982968178433844e-01,1.008333465418931180e-01,1.337128783113516461e-01,1.716307422530190252e-02,1.213323424825644460e-02,3.570018108997144446e-02,6.905266672184436072e-02,3.878441325762340113e-03,5.903524554248895662e-02,2.581139346773351356e-02
1.044528231969085175e-01,7.582773685967313104e-02,5.368664583582360983e-02,4.841372299559059539e-02,1.145123388298111521e-02,3.314250891560935330e-02,9.627798745727290941e-02,2.698468948274987487e-03,2.297945263328186882e-02,3.706056753931506742e-04
1.086122885661149617e-01,5.243767622132936707e-02,4.546346130319589562e-02,5.078401457237041033e-02,7.900617387867374039e-03,3.246300291270904498e-02,1.272498720633204738e-01,1.805082362234693800e-03,1.431342889597989401e-02,2.932095850983374927e-02
9.892073137637549807e-02,4.824315131491176134e-02,1.095740998376146247e-01,4.467695196279988096e-02,4.430462173259120187e-03,3.435922212078646593e-02,1.472892633207176227e-01,6.268632229503461918e-04,4.880480672053277846e-02,5.284181399693087949e-02
2.772685150728241427e-02,4.938797432819293232e-02,1.004817793047738939e-01,3.653297719001448451e-02,3.535887525371779645e-03,3.496516493413318050e-02,1.442735904676433756e-01,1.078765974398969906e-03,5.396061862977914736e-02,6.384889882699765207e-02
7.929680114048141826e-02,3.288011732330735348e-02,4.164024349406261066e-02,1.988021570958645873e-02,5.612588474738947758e-03,3.131326079860861228e-02,1.271674670026017584e-01,2.474046044731983453e-03,1.472647993213551526e-02,6.154110730414733693e-02
1.644601799295394295e-01,3.194336561808909167e-03,1.552950912039124595e-02,6.660747196675068441e-03,9.104574744500760347e-03,2.473066762848112957e-02,1.139635004287531256e-01,2.152940776413784715e-03,4.843335814531476990e-02,4.595394252654896872e-02
1.996668587337561696e-01,4.240329629634547598e-02,4.869176051208795597e-02,3.268546678818643608e-02,1.137604797960624185e-02,1.672066940196434773e-02,1.031973767633595634e-01,1.520458510163551625e-04,1.014057684633805634e-01,1.925430021571989184e-02
1.888618955378829345e-01,6.774219239768967948e-02,6.935419619112359602e-02,4.474928619956860393e-02,1.038475336427830721e-02,5.831375142357302782e-03,7.502020401756200052e-02,1.744239060644904322e-03,1.239231624980071250e-01,1.051050523512169627e-02
1.437070791858604535e-01,6.668575991171740713e-02,8.911689306497419527e-02,4.026996038723837379e-02,6.502609828512478582e-03,7.449309355281966485e-03,2.660912281101917437e-02,2.541373970956693068e-03,1.106501480564340417e-01,3.285388545117600562e-02
8.779590256810070048e-02,3.840502202589980707e-02,1.008156590061372732e-01,2.982409383511541029e-02,2.340749585917097433e-03,1.679368302711689229e-02,1.178670625431967912e-02,3.146648993197112814e-03,6.806028893406655678e-02,4.212573186537138525e-02
6.223877344882430135e-02,6.210149923573156198e-03,8.729647518086181002e-02,2.236315204969331269e-02,1.708216543268981482e-04,1.692403304471103848e-02,1.156079712753454308e-02,4.177729144583672977e-03,1.754189418716337046e-02,4.058133918871142248e-02
8.681502228248316744e-02,1.376103872294524855e-03,4.243577993264795178e-02,1.542125729284560265e-02,1.058036539967107531e-04,1.169668344350960169e-02,1.779133707735479700e-02,4.872769036700105513e-03,1.516262795605471600e-02,3.567563314675448877e-02
1.245195608332861359e-01,2.607277979268954327e-02,1.290482429144065683e-02,6.038591675821313245e-03,1.335897938120413986e-03,9.028225260103349414e-03,4.481157134694706279e-02,4.959833757340431984e-03,1.893372664881072878e-02,3.302945137674572623e-02
1.247245002755209692e-01,5.107939435375705162e-02,4.264625930876883575e-02,6.337617783929634131e-04,3.799149834443675544e-03,9.835669288000399579e-03,5.469673425201938138e-02,5.192014868789239339e-03,1.337194908551924549e-04,3.053944451352100242e-02
9.396662945023792624e-02,5.341162587556703284e-02,3.161971355667934219e-02,4.305807687537586796e-03,7.178036858961424176e-03,8.523921729354179758e-03,5.280277006199189660e-02,5.281027472605464082e-03,2.925206622474396667e-02,2.246285572309048711e-02
8.069319255619611386e-02,3.881817652183111589e-02,9.364871999046377182e-04,1.003041904915797158e-02,9.354253013935755201e-03,3.099472272300313625e-03,4.407666364955377392e-02,3.847399275278039123e-03,5.589085653057773717e-02,9.455743873853783565e-03
9.808342149175759694e-02,2.488545148115027528e-02,3.130006561905654405e-02,9.138191681945361661e-03,8.164750203224577924e-03,1.720430954589702646e-03,2.920687004952084165e-02,1.240717280887720974e-03,7.113652951258374324e-02,1.491645509014745711e-03
1.053953158236883014e-01,1.609453789669468282e-02,5.757394558242465848e-02,5.589338535145679625e-03,4.754762894478430611e-03,1.759963051766311312e-03,1.201508583777585910e-02,1.510162644789602088e-04,7.051749680583452307e-02,7.146774387011389784e-03
6.134447158134589961e-02,3.552037808072706481e-03,8.521922417578381426e-02,1.032977655572213035e-02,2.863502876749395281e-03,1.312471744804792877e-03,2.387121901090450381e-03,6.539190551747967907e-04,5.034071152237595131e-02,1.083726386471051649e-02
2.656469386323722509e-02,1.382059430648301807e-02,1.048696850813602005e-01,2.438570949606892052e-02,3.837591580958828793e-03,3.446740509234616501e-03,1.102047383326442212e-02,1.792565667313898020e-03,1.043755199333419419e-02,1.552304935083257016e-02
9.152379492609077904e-02,1.931349588354427591e-02,1.024140211480785434e-01,3.365248455238022129e-02,4.654622325257327768e-03,3.587486337941868039e-03,1.177496735176383411e-02,1.396391090107886512e-03,3.586187787005729738e-02,2.140015844849740834e-02
5.275110623313544744e-02,1.014424770975447428e-03,8.123917581584721992e-02,2.200476313233849443e-02,2.374060414913896529e-03,2.974052001422463308e-03,4.353433436771291312e-03,1.700308661967717496e-04,6.805531664924831248e-02,3.033708678124067207e-02
9.174073753778677620e-02,3.620677343227320794e-02,5.841188704617172878e-02,1.036542115120171921e-02,1.863848453808161386e-03,1.373994965466147477e-03,7.919532925726023576e-03,1.608435537397731206e-03,8.105780002039443544e-02,4.588969638487025438e-02
2.412167835279938055e-01,6.216918464839915615e-02,4.334973127134678084e-02,4.423861391595303172e-02,5.058670699814896490e-03,1.536262344296209208e-03,1.598593180850389067e-02,2.528154025917961258e-03,8.832020473873471167e-02,6.558674898619207272e-02
3.054412735436596305e-01,6.865917297300634659e-02,3.334917235023024396e-02,6.052226514200234608e-02,6.316690797573604188e-03,1.846681979620004880e-03,3.285861470491283250e-03,3.188106320132002951e-03,9.957117393214125201e-02,7.616197750924283416e-02
2.987136922304801101e-01,6.287229652650960787e-02,2.736448460195194804e-02,5.883864092869376533e-02,6.931882650092308432e-03,5.601603060534348505e-03,4.032286653974988255e-02,3.416687302094494668e-03,1.094359418597453532e-01,6.371257658123093137e-02
2.752664318720662862e-01,5.554939134541653223e-02,2.946859749607767115e-02,5.233975846686143157e-02,8.177581197928419920e-03,1.875484063310294339e-02,9.757007239844121826e-02,2.821082390255749955e-03,1.081023212283377805e-01,3.054918226288779598e-02
2.338375186376774328e-01,5.485851184237312828e-02,3.594054015150253273e-02,4.933818194999670809e-02,1.012156356826609573e-02,2.835824019078370811e-02,1.366852660774431627e-01,1.988504750519313677e-03,9.057217512842227758e-02,7.136829622802861282e-03
1.492751821357872488e-01,6.433289187064918091e-02,3.261544966680550439e-02,4.705081052571700312e-02,1.157880062449200692e-02,2.820704277724802450e-02,1.479775455705161780e-01,2.240895258803924598e-03,5.836371419474863098e-02,3.858042577501315240e-02
5.147115849660240106e-02,7.704757015446699053e-02,1.286654440526368431e-02,3.983616386276047500e-02,1.079286037036720526e-02,2.100102392526141670e-02,1.437799922554174048e-01,3.534674298706515488e-03,2.193552399504663381e-02,6.068516406483796116e-02
4.142605101836768777e-03,8.092899014617949138e-02,1.177158389991572046e-02,2.740549911906950756e-02,7.012489216483744348e-03,1.278913567995761461e-02,1.277633008115570679e-01,4.113045688819241298e-03,2.627517892865921176e-03,6.520615224702711044e-02
1.958551808055815704e-02,7.650786086337234282e-02,2.805020733167335606e-02,1.565199489458247648e-02,1.684514141395712650e-03,5.964478480664616236e-03,9.514566726976442235e-02,3.268049126038623416e-03,4.849011382616752810e-03,4.686425158308629019e-02
5.062281293765599766e-02,7.769620413458874775e-02,3.926717327613071795e-02,1.124743579527800325e-02,2.621645082595320479e-03,5.387822059090344173e-05,5.717443702581308934e-02,2.551118606326156606e-03,1.374763632032944237e-02,2.117081733880037467e-02
6.597771034098806608e-02,8.806097583806356266e-02,5.566566304382715435e-02,1.420836761317332414e-02,4.720673015185247907e-03,4.488975761798137676e-03,3.541165508949992852e-02,3.045409601256945931e-03,4.268078469131839775e-02,1.085892771641902566e-02
7.551296945418314865e-02,9.097310377675758841e-02,7.409446163878974367e-02,1.613803998494358488e-02,5.437037544872682163e-03,5.225509742892663761e-03,3.429953873711118206e-02,3.635479292766037162e-03,6.998712402176020253e-02,1.696190695695127398e-02
7.439549426985160585e-02,7.347978300694700537e-02,8.135174692640408101e-02,8.845386103624900548e-03,5.725875614078347262e-03,2.414888935967258576e-03,3.961417597901704946e-02,3.235808353289741819e-03,8.857893399566875436e-02,2.212491045773480255e-02
3.344625109281597342e-02,4.541614644075292473e-02,7.310586024586590570e-02,4.213512346785421546e-03,5.778316018101116447e-03,1.276241332023155288e-03,4.048265534496905960e-02,2.451703786005362748e-03,9.438446441707228074e-02,1.892381399958919727e-02
3.281642527442382024e-02,2.295999224227756805e-02,5.594305142657259033e-02,7.722052279398150532e-03,5.766222487167964490e-03,4.262612209417477108e-03,3.828461585069662526e-02,1.955730014533275767e-03,8.069470876508073875e-02,1.702197892671471896e-02
6.008021882734501662e-02,6.958997878369500151e-03,3.582061131412071775e-02,1.163454440215762331e-02,4.574993227236639516e-03,6.767884175856849968e-03,3.570992330870054188e-02,1.440681936702213920e-03,4.467864982586475936e-02,2.201526025893961805e-02
2.933362448776214229e-02,9.617314039059498762e-03,1.856196882232606302e-02,5.128965428196786969e-02,1.550184056328330479e-03,7.997526745741150717e-03,2.970846322371998444e-02,8.720587512393521840e-04,1.577010588604840433e-03,2.343158833720624182e-02
6.487578430373289878e-03,2.436943818704106340e-02,1.530846763801837346e-02,9.336983217356215059e-02,1.449314436974492339e-02,6.432348410456671314e-03,1.974815010742905774e-02,7.258965782781685860e-04,1.952961724979123542e-02,1.054748118718292459e-02
4.787031473909313800e-02,2.880378611615390383e-02,3.149833062903203973e-02,1.178378601632373707e-01,2.895142492484883978e-02,3.211695823692944235e-03,1.339168285403302509e-02,7.122070373527043374e-04,1.276831181855755254e-03,1.010991874532076937e-02
1.123219891879905230e-01,2.229783182670810188e-02,5.517347371786174293e-02,1.151547063693663109e-01,3.673139054755730770e-02,1.527334184956376587e-03,1.426004315474352878e-02,2.810177692166425812e-05,4.607015550250401215e-02,2.139504464534534162e-02
1.151558455799486930e-01,1.355818215440403665e-02,6.944444493079575398e-02,9.006756590852586786e-02,3.576444741901402269e-02,2.203196423849099628e-03,1.260226307274538160e-02,1.192538594625198838e-03,9.598556680405037622e-02,1.472196776008837839e-02
4.795617339651969679e-02,1.186175697816029689e-02,7.083241938376258484e-02,5.630827729798283665e-02,3.055324942477390809e-02,2.752990556749532192e-03,9.197087419385470419e-05,2.090703421585072587e-03,1.258307087116521117e-01,3.211377076921283213e-03
1.146365469507637513e-02,2.077030220555291934e-02,6.503574217030518023e-02,2.565021268024537948e-02,2.497310205737960156e-02,1.140771879808446425e-03,1.596264020281952523e-02,2.340177235610636612e-03,1.261933580881283434e-01,1.934099851904166889e-02
1.405088474299718074e-02,3.712733548211446383e-02,5.309209470820768634e-02,1.341549037727832183e-04,1.871181927413223881e-02,1.919047416738731528e-03,2.334204589117681167e-02,2.102315767453320945e-03,1.011775132183787146e-01,2.518534881245889506e-02
1.003350491593181385e-03,5.492330531498221258e-02,3.356698163488075481e-02,2.287019629079492522e-02,1.035432350825477195e-02,4.870121786533574207e-03,2.291482749103745248e-02,1.425393122779610323e-03,6.401454093223306330e-02,2.140365785713616714e-02
1.945064549215728619e-02,7.052121347997471201e-02,1.265668299373998856e-02,3.933121380493014019e-02,9.718689837257717123e-04,7.029515519863670410e-03,1.751432873261848586e-02,5.051712297198570744e-04,2.732429257879904344e-02,1.577499340336390929e-02
4.163634514529469810e-02,8.098529605876478299e-02,5.748456303125617367e-04,3.970140569068916769e-02,6.251209293289853967e-03,7.424187446277029714e-03,6.033373692649612874e-04,2.196765431999355550e-04,3.838442884743283046e-03,1.582493087372571425e-02
1.844838116988099797e-02,7.984051956049068033e-02,4.940590397092929631e-04,2.264463015104915822e-02,9.132395090719320693e-03,4.783851371837513460e-03,2.892516762475953740e-02,5.166533853472547039e-04,2.761095349450662720e-02,2.112499348650871689e-02
4.283244111503928947e-02,6.344275931166334925e-02,2.984652594909948525e-03,6.325841368498390238e-05,8.481697722823011362e-03,3.309669143674439859e-04,5.393309010980908841e-02,2.377230931590269749e-04,4.131665154590533073e-02,2.443544189307282274e-02
1.088314321951825980e-01,3.962862850842615442e-02,5.131837241691276572e-03,1.506405497305699989e-02,6.836334785295192923e-03,2.130649508417653982e-03,5.623002750048388537e-02,7.345050559777847876e-04,4.906172245405890364e-02,2.165348962223781135e-02
1.758027776690010979e-01,2.012633594872174220e-02,4.316067315829097070e-03,1.844960844001991909e-02,5.867169367867085088e-03,7.303867823646513317e-04,3.837647240893712897e-02,1.784724555917834455e-03,6.238143122058441292e-02,1.731715658743065295e-02
2.365313688627198041e-01,7.404463774787361022e-03,7.629040006373218052e-04,1.351434549320860469e-02,5.706440248605787122e-03,1.762826245240049512e-03,2.081071373768172972e-02,1.861631038497475917e-03,8.149649517077704741e-02,1.841955956912774001e-02
2.401824827719082345e-01,1.709564046627175650e-03,4.753273150563638513e-03,1.786624785174213952e-03,6.025001184233255702e-03,1.200551407412714031e-03,2.280685875236003815e-02,8.928727730200420329e-04,8.863219103359476492e-02,2.554038728815638537e-02
1.531622431134067319e-01,5.001701529009082089e-03,1.194178679417270787e-02,1.982363554161476263e-02,6.427869174133508945e-03,3.011746880049235350e-03,4.603503056908384017e-02,2.328962183281324430e-04,7.404907714310170197e-02,3.214021298024944545e-02
2.827802152879158037e-02,1.210594103518258802e-03,2.065100281521772829e-02,5.011100608372716370e-02,6.371666391181076902e-03,7.402541616867330983e-03,7.255317252291493269e-02,9.481040790462385908e-04,5.469638130088415318e-02,3.263121113205143253e-02
4.749514234819887659e-02,1.061368607281467161e-02,2.748487759428583366e-02,7.292982873330595972e-02,5.901558258406415514e-03,8.380871892674104581e-03,8.224286298723355870e-02,1.244110209486927899e-03,5.160846021773611569e-02,2.970009923007591382e-02
5.107481815453109725e-02,1.071630326752578619e-02,2.702386423539357430e-02,6.611938576752503238e-02,5.674294515411550978e-03,5.433371674202635768e-03,7.177575548083076074e-02,1.263630126354024427e-03,6.203449655412451164e-02,2.963708772509872358e-02
2.046252711350203882e-02,1.249215902202306921e-03,1.753343682235474627e-02,2.834974950106954397e-02,5.644604628732855824e-03,5.282340336573575386e-04,5.078227436104190001e-02,1.351775661765369655e-03,6.790063810499571972e-02,3.055185961707398284e-02
1.912303505664207648e-02,1.475055967825360768e-02,2.454552340163968643e-04,1.352440495197744161e-02,5.099749912689090746e-03,4.060690612173008078e-03,2.550627511314026638e-02,1.649799896535404696e-03,5.829594771885798776e-02,2.313943366907012314e-02
7.007029841009312920e-02,1.997335796762366583e-02,2.626516363724032410e-02,3.279620794237713549e-02,4.133544254461746226e-03,6.963690698066488105e-03,3.373134307090219428e-03,1.490399083174497128e-03,3.086090596702968994e-02,5.609673834558150801e-03
1.135074567865168166e-01,1.840337994828388987e-02,5.440171637594192616e-02,2.758148492009492025e-02,3.545998065639310252e-03,8.204652061790527334e-03,3.202909520857272901e-02,2.580938895943178982e-04,1.385995211825014756e-02,1.147400920911512655e-02
1.012847273043823437e-01,1.780287799917895999e-02,6.943936803747578768e-02,1.054579481355491163e-02,3.477125503452496453e-03,8.933994599603516801e-03,5.346848271061803437e-02,1.433755994967751300e-03,6.400029601277990032e-02,1.912789712779476570e-02
1.363991929904252026e-02,2.261555816566318197e-02,6.197207423713418234e-02,1.177324317237640576e-02,3.381584344543375146e-03,9.469320622628436476e-03,6.441166238206985639e-02,2.478372046569636555e-03,9.454883867196547942e-02,1.846938138048614605e-02
1.032731054127517395e-01,3.049859117113634319e-02,4.059520884248820488e-02,3.964589384430525221e-02,3.027482741359371638e-03,7.926617716022248822e-03,6.601787036958631227e-02,2.491842005384025446e-03,8.935956524917920696e-02,1.157810830650910471e-02
1.751520343151901082e-01,3.506626955436092929e-02,2.069971389559552635e-02,6.915465225227185320e-02,2.713029737003517291e-03,2.877892707409069641e-03,5.996070684912260806e-02,1.486796841992697217e-03,5.807354356203812962e-02,2.961245297506232260e-03
1.681287726380541470e-01,3.282414356849967796e-02,7.681349784941583596e-03,8.944105402739338517e-02,2.663206950446958977e-03,3.177254926707658543e-03,4.803749445268769291e-02,4.737130719740872357e-04,2.308656494914517257e-02,2.016236135594126622e-02
1.112024057946682798e-01,2.693179761402951511e-02,6.396204625766172339e-04,8.965171650708619877e-02,2.619258887413444988e-03,5.780463318973919767e-03,3.457195094797371748e-02,2.577672083752437747e-03,1.099316383072240734e-03,2.823080860322555591e-02
5.469629068609721534e-02,2.068556854263360265e-02,2.103781549617205794e-03,6.692065205340599898e-02,2.248840760769919931e-03,3.482904883359489497e-03,2.640905926087749184e-02,3.461100559876541336e-03,1.214721445503459674e-02,2.331579837321190798e-02
2.616361473301931015e-02,1.159937955289218857e-02,6.991173830918621067e-03,3.055528024690093436e-02,1.938597932887961344e-03,1.452107963311148522e-03,2.844801207942575932e-02,2.699093315080396734e-03,1.702930325484517185e-02,1.242812623168494841e-02
3.291601701101094790e-02,1.412661518168559227e-03,2.023021755578457287e-02,8.390876506812613381e-04,2.365735410412652534e-03,5.922714175180044879e-03,3.803930427372290146e-02,1.238663291088110737e-03,2.713025298741390812e-02,6.656036633995983474e-04
7.639840433524598684e-02,1.093427780829735359e-02,2.576365937018245539e-02,1.286733341441712725e-02,2.757250002723384604e-03,7.760341925841096090e-03,4.681691318741875579e-02,6.580813542895618028e-05,4.324740335358759347e-02,1.063178452095462842e-02
1.424933681534405194e-01,1.041656261799876575e-02,2.203827044567498866e-02,9.827918730541432626e-03,1.048969072558120176e-03,6.948437592252817117e-03,5.141125077635480545e-02,8.859279605656341988e-04,4.949863986021523637e-02,1.460475820315362827e-02
2.002384138234914734e-01,5.627638404905853549e-03,1.656770916917969447e-02,8.498589644711486424e-03,2.927293064125407757e-03,6.132164928604038126e-03,5.669336792232870792e-02,2.171039559382983986e-03,3.686076271147575162e-02,4.240901999792936854e-03
2.300504982519147312e-01,5.802591163444826422e-03,1.145300526368736756e-02,1.470045122000137802e-02,6.222330043384508534e-03,6.976008160194197005e-03,6.173658111125036874e-02,3.591369660004108295e-03,2.259764067418534861e-02,1.359711192659477513e-02
2.396757299157238341e-01,7.169842768665261705e-03,2.517409170756850466e-03,1.814474837657415948e-02,6.433815986664401070e-03,6.466660832679137390e-03,5.294520723117037558e-02,4.149707452672309234e-03,2.748464762081508778e-02,2.457520484066717803e-02
2.372615793596550837e-01,9.441296271761014580e-04,9.775575034735601437e-03,1.398343661665476731e-02,4.638922336856544579e-03,1.227575640354086660e-03,2.553378334969778202e-02,3.364577329064896531e-03,4.422333205421155600e-02,2.514479657790622685e-02
2.033094820544769366e-01,1.509407862150219902e-02,1.896411096405856839e-02,1.265194598618684871e-02,3.065298665354566736e-03,5.645768945039746772e-03,5.575992416109515001e-04,1.937639278492340415e-03,4.900049735479290042e-02,2.055178920411177002e-02
1.202775786340600089e-01,1.857740768630452427e-02,2.086124088692051931e-02,2.210623613417877706e-02,1.953587127405685513e-03,7.866231309757646187e-03,7.898011534327037397e-04,6.398385137214694391e-04,3.584412801564704903e-02,9.845769911164316615e-03
2.545105486315212343e-02,4.727821662638419936e-03,1.718755199515489135e-02,3.654024854001029776e-02,3.192873515415810769e-04,5.405737598013021783e-03,1.953689841523450349e-02,6.810760094587408340e-04,1.688973871917569605e-02,1.117593841294034843e-02
1.385828028396002103e-02,1.433837274877833648e-02,1.140601865341864252e-02,4.778733133280726325e-02,1.865567873149582851e-03,4.536903821823778417e-03,3.236295896752040824e-02,2.222655205070869170e-03,5.704480310993756409e-03,3.503330472312942562e-02
1.065393244804032843e-02,2.364931318470123514e-02,3.662132300632031223e-03,5.319514092318990833e-02,3.579717030146937519e-03,8.467735122668263240e-03,2.929421139136675900e-02,3.301447598527232439e-03,4.103160796659797993e-02,4.535667104001241817e-02
3.224934966889687199e-02,1.924925685022249935e-02,8.486138410842860441e-03,5.034515528262211576e-02,3.977260303722795001e-03,1.367413383331590911e-02,1.999892074804039688e-02,3.401236740864698772e-03,8.183309195499333111e-02,3.634577902109253911e-02
5.705288911647590083e-03,5.641584820459987978e-03,2.367144541799469371e-02,3.706851790210569098e-02,3.180994908266057339e-03,1.572637623314485783e-02,1.852613213656578023e-02,3.115977020209958950e-03,1.014148986014034998e-01,2.110848955491352943e-02
9.188839123081740667e-02,1.094260143475421325e-02,3.407857547036632906e-02,1.641981419194404532e-02,2.281996712575074145e-03,1.377249903084548817e-02,3.323916593909202744e-02,2.895328024370569762e-03,8.423776591590713403e-02,1.797650276843442557e-02
1.784550019755455352e-01,2.345914560592557777e-02,3.258353362108559748e-02,6.822923657951540308e-03,2.382594821209399992e-03,9.348307717080747356e-03,5.947990618192265655e-02,2.227449470382822372e-03,4.313307254628259008e-02,3.194253291069498041e-02
2.305599031021453027e-01,2.494918128030334387e-02,2.015459944825581315e-02,3.048154971031468916e-02,3.300750166502376421e-03,4.599046875343172809e-03,7.716126991413946312e-02,1.141866383570217533e-03,2.246265810158004812e-03,5.192671625975898292e-02
2.424901390800751344e-01,1.440376565972331310e-02,3.135228581999632835e-03,5.098813136406493002e-02,3.754093320582544899e-03,1.158021805214396426e-03,6.907993935482671655e-02,7.225541217609025022e-04,2.781908562176075086e-02,6.437056113125090573e-02
2.339034735067339332e-01,2.444781784348695405e-04,1.331815637498395995e-02,6.252558988327504286e-02,3.128239998618506570e-03,1.234723183526000023e-03,4.331279081185946539e-02,1.205050993919655825e-03,5.299727885179454645e-02,6.512527473670219613e-02
2.284029155565867053e-01,9.061177856610268949e-03,2.600517688284087123e-02,6.444364184299611331e-02,2.220314309595340825e-03,3.664774572486580260e-03,2.388050311314491095e-02,1.470678735111434834e-03,7.384868339001392223e-02,5.763684033044506883e-02
2.170215841499660570e-01,9.681031493357398002e-03,3.238757860477396722e-02,6.328421656062006850e-02,1.878973258936529481e-03,5.137056977085236592e-03,1.924374159298404205e-02,8.642341440314307366e-04,7.065274631849145781e-02,4.475398550103661111e-02
1.577550319219348796e-01,7.343142186173186661e-03,3.168061211386972303e-02,6.436292723745098976e-02,1.938476003707491520e-03,3.050848283221366166e-03,1.440061683900109926e-02,2.317494645724397964e-04,2.719533798379880976e-02,2.654070607914313373e-02
3.583392250343515190e-02,5.518096965868583142e-03,2.407174554895604932e-02,6.473879963093939760e-02,1.882934667880423445e-03,2.837870745033789152e-03,4.134313537512086627e-03,1.246527096425028430e-03,3.631037108595349533e-02,5.640668588386217076e-03
9.238181386272971418e-02,1.332440792749348211e-03,9.823901612596131275e-03,5.651298492930806328e-02,1.605324787578588487e-03,8.890257945398431783e-03,2.954973883845463459e-02,1.382206570840048380e-03,7.757377638215140481e-02,9.744202372884275959e-03
1.439083308010802864e-01,6.322022150989299247e-03,6.360047292721219409e-03,3.799987909316503154e-02,1.251155333819864218e-03,1.101462895042706197e-02,4.527242023295677265e-02,6.346897827252263706e-05,7.797889624520615293e-02,1.310415180272437446e-02
9.297000251979367635e-02,1.046436242665415260e-02,1.424723465244110213e-02,2.061453474446158646e-02,1.014431395602951322e-03,8.433752698429127989e-03,4.230210090182250776e-02,2.174988344721358758e-03,5.371985150933671072e-02,6.735169591638760604e-03
5.452131496345019590e-04,5.262515468398777825e-03,7.843204565876997492e-03,1.675859652393756408e-02,1.017911309935493969e-03,3.239779051151271076e-03,2.210679922322554558e-02,2.730245799007628357e-03,2.514031673634450903e-02,4.533635562775051656e-03
3.710564107699230313e-02,3.448306437816921980e-03,7.003227441609110281e-03,1.771617115756178584e-02,8.691023543289874437e-04,2.159115324053737916e-03,5.971932586828255368e-03,7.783516195381516177e-04,3.355304074805349340e-03,2.036028426766726962e-02
2.393945935548790968e-02,4.975497767736822632e-03,1.927967107764285912e-02,2.189635755403624307e-03,1.558314121183745210e-04,5.797077178607606442e-03,2.662688506982812189e-02,2.278730635532643951e-03,3.043552570005009228e-02,3.744148593812969550e-02
1.341853568361707771e-01,2.691805972635448116e-03,2.423266349539893172e-02,4.954747142085109968e-02,1.845719834416553002e-03,6.141084349547696122e-03,2.687205216124283896e-02,4.308108497812540051e-03,4.437614480430019520e-02,4.436262560145117634e-02
2.046574429968807951e-01,1.306417043055036961e-02,2.510610203610126948e-02,9.558129531153350400e-02,2.769755366827550153e-03,3.275570739175921210e-03,3.694704390365978735e-03,4.388121458094784363e-03,3.619566669996062552e-02,3.408145738120483409e-02
1.937251324085418058e-01,2.125654416163887464e-02,2.479265447960088062e-02,1.091934927470113725e-01,2.140820589008339374e-03,6.997165354660870185e-04,3.778404303073448767e-02,3.371983979240713095e-03,1.563364146403079316e-02,1.452589020372823184e-02
1.246682596594796966e-01,2.674473513748635775e-02,1.898231295365657156e-02,9.194444509001710453e-02,1.041483615462686189e-03,3.586872030065904691e-03,8.475738517570058361e-02,2.826489081892498596e-03,2.837868327001671735e-03,5.446868761470819234e-04
3.403149431315068835e-02,2.790982461403462150e-02,2.059854231324553548e-03,6.764963068451901318e-02,7.074961779377536737e-04,4.848403335468116221e-03,1.150943996994650276e-01,3.258022337686676106e-03,1.990848001163584083e-02,1.282687767580643380e-03
6.544136504393972820e-02,2.076046568600136213e-02,2.020209670389876838e-02,5.054089044033217848e-02,7.103045111114938753e-04,4.886418719194954470e-03,1.102307413400219621e-01,3.845013338007101031e-03,3.827022923439866997e-02,1.739687482861745904e-02
1.710409396443629826e-01,4.144127265190486811e-03,3.312043245146855525e-02,3.667244174188542816e-02,2.428845598452176167e-04,3.366194475959366408e-03,7.311608924056722802e-02,3.994249958747140769e-03,4.539543913971815642e-02,4.378703341429884821e-02
2.644695972124764261e-01,1.695557981906035960e-02,3.285176666540433332e-02,1.893390239577490142e-02,1.057839891713112943e-04,4.208600558742964064e-04,2.464436712452102232e-02,3.941366528514672098e-03,3.440603875567543185e-02,7.193743152357361115e-02
3.134284669563555115e-01,3.380743869183536199e-02,3.221736150821666311e-02,1.640135153759008377e-03,4.270646550569241794e-04,5.486086171771919866e-03,1.547018326260761294e-02,3.687989553507625175e-03,2.489266111063972650e-02,9.289806222112283185e-02
2.986431840144511130e-01,3.968291886533229645e-02,3.975047224714012978e-02,2.039241352531228832e-02,1.117279542335279435e-03,9.132089307532719261e-03,3.947252006091725440e-02,2.913024806602612128e-03,3.590524949245435526e-02,1.012257006945545962e-01
2.380289828681383668e-01,3.544777482697634985e-02,4.579396071527884471e-02,3.821426839101725592e-02,9.255100608047340171e-04,9.892253646961914754e-03,5.100301106007119889e-02,1.946056630205131180e-03,5.383820472565277460e-02,9.686358765473387922e-02
1.795898915065394508e-01,2.959036747381817156e-02,3.770982894446202327e-02,5.945463343126035360e-02,6.480341311130432972e-05,8.953235978041783338e-03,5.877016813354922486e-02,1.247479870804935227e-03,5.093002816791314391e-02,8.277727239112757374e-02
1.636821145986690484e-01,3.047083512060543356e-02,1.726218095798636581e-02,7.999163777186968360e-02,6.255263258264775073e-04,7.820783730659138649e-03,6.668593288192199708e-02,3.228662655743427855e-04,2.094756446042813150e-02,6.238998157715613946e-02
1.904648309127449091e-01,3.794576965452352985e-02,4.447395923241101445e-03,8.693781939913358681e-02,7.581147192754519697e-04,6.586950794050548674e-03,7.144673068706680619e-02,1.349916115150463433e-03,2.178839797113238039e-02,4.333616570141608781e-02
2.269946020956165600e-01,4.404092159762466874e-02,2.095612141321746141e-02,7.775437351501363059e-02,5.861399266763082320e-04,5.468425427895429874e-03,7.139401226721278637e-02,3.169545081404548208e-03,6.315067317312453299e-02,3.852846398110294779e-02
2.469022170124713367e-01,4.313423192115430072e-02,3.340726335895510823e-02,6.753418915647109444e-02,7.217506124119165952e-04,5.492705556551897954e-03,6.933075784273810827e-02,4.365012805239338461e-03,9.405510644622143424e-02,4.736325507048037842e-02
2.546777155282812233e-01,3.954785018077181663e-02,4.301845808444294816e-02,6.335876550194827206e-02,1.236830345282267148e-03,6.464986570757169648e-03,6.341360943334613254e-02,4.903700882973894074e-03,1.089977569077257014e-01,3.844362458341248762e-02
2.611136632047466044e-01,4.072719632733624168e-02,4.619829547411045262e-02,4.704111180388581559e-02,1.280013467937732383e-03,6.941387795250242645e-03,4.388052602436121052e-02,4.945480282234208588e-03,1.108611237712474884e-01,2.077245674415306720e-02
2.498815664626626021e-01,4.449146419952683396e-02,4.039180777145880141e-02,4.534696142660657979e-03,4.655110306866109627e-04,7.005510248240576048e-03,1.750519585500453536e-03,4.719158210116088797e-03,1.062240176345273512e-01,1.132660727402242801e-01
1.969291719166512411e-01,4.065997745678938402e-02,3.132113955230869662e-02,4.305449047429432685e-02,3.021330103408815821e-04,7.954719495703093876e-03,6.174704118087286780e-02,4.526730560138401450e-03,9.314473419915991759e-02,1.828841021031877845e-01
1.136533167916847498e-01,2.594653457749152015e-02,2.829857419155720755e-02,6.277760695597718599e-02,2.562926194437665497e-04,8.798891089281524538e-03,1.309279081319001670e-01,3.723894395863379132e-03,6.744554733990638928e-02,1.987214178453290403e-01
3.958322710667080274e-02,9.852322831018769586e-03,3.436461834788632347e-02,5.216359271571473222e-02,2.125959828299039619e-04,6.801956367530699078e-03,1.809573592672437670e-01,1.129878110004418727e-03,4.040977152386645427e-02,1.778367658286819364e-01
2.835261184167771689e-03,3.937556720332845497e-03,4.553228273813863386e-02,3.493183248810560748e-02,4.881780482979592470e-04,2.197984552569848000e-03,1.945414486672061294e-01,2.646124230323589326e-03,3.292235562599898913e-02,1.468255931921397250e-01
8.801128660382982749e-03,1.046045914199679114e-02,5.572903772782072246e-02,2.391510132526630111e-02,5.279156188160793279e-04,1.337249175452688392e-03,1.736239204793465496e-01,5.342377069110428034e-03,4.925645503749726678e-02,1.146405379092286098e-01
4.143829799192123853e-02,2.278891227119527602e-02,5.906073644800057670e-02,1.197448900193187095e-02,5.507270194770707682e-04,1.818604848023300377e-03,1.319782757573812471e-01,6.045158300116138667e-03,7.009644103628376310e-02,8.262211134990056494e-02
5.904485233626425439e-02,3.219451691405290916e-02,5.294787363739252017e-02,2.397979200105445838e-03,7.388492205130695826e-04,1.406260282210316202e-03,8.285006095029018303e-02,5.799709388158031005e-03,7.604790585150082716e-02,5.591900604150317616e-02
2.219363445104984012e-02,3.216326723075080274e-02,4.194152852218737543e-02,3.088374878847660512e-03,1.106001873547951542e-03,2.939833690188183718e-03,3.859123014242833022e-02,5.127737300767039146e-03,6.911490584190040087e-02,4.373291122147157650e-02
6.060214348140080531e-02,2.069136109255963196e-02,3.305201525389526301e-02,2.140572321305458242e-02,1.195063033820185265e-03,6.299308349312093998e-03,1.131977224074684311e-02,3.377661948538270183e-03,6.371685043105472512e-02,5.438891340008000785e-02
1.346334434997320806e-01,3.277633164956604214e-03,2.720982087583535131e-02,5.800119784292195185e-02,4.521911827510034657e-04,8.735602558383253127e-03,1.250563225887169755e-03,7.317717432993690874e-04,6.154357736657762451e-02,8.144451089299725721e-02
1.505895303916444938e-01,8.682912740615639224e-03,2.167477201043491869e-02,8.262209787684361706e-02,7.193426532445849290e-04,7.716763550769540833e-03,7.831869924258407639e-03,1.323082346724762997e-03,4.912022577240720417e-02,9.934690348688365868e-02
1.190111762174108495e-01,8.778625081263554883e-03,1.805986800177944093e-02,8.491110383087474567e-02,1.016196749855409996e-03,3.473218005250893175e-03,2.680780788020555028e-02,1.930370479686246716e-03,2.329262653875022529e-02,8.930102763503938723e-02
1.134540261373162412e-01,4.333169264433889278e-03,1.978982265830761186e-02,7.002503760058495508e-02,2.559437076838221459e-04,1.140749666060773522e-03,4.287339807516470092e-02,1.718343195959713080e-03,2.527653221801601756e-03,6.152560026447358166e-02
1.879740951128228976e-01,7.315958368562938859e-03,2.505197708270950896e-02,4.539226981328788046e-02,2.223976490770993193e-03,3.716860122808279820e-03,3.914628003050220351e-02,1.510169392290874272e-03,3.773575475969365850e-03,3.694824705912477109e-02
2.968824466767323589e-01,1.694401475531077950e-02,2.885097573392231274e-02,1.716907542657397992e-02,3.289298862029775214e-03,4.583207279020723793e-03,2.330545542737721271e-02,1.476113370692781626e-03,2.258216894036008809e-02,1.955209365867394480e-02
3.477074403639813793e-01,2.095007447885442048e-02,2.713066791962004398e-02,5.760386823631509501e-03,2.865830434325766958e-03,5.397071797137250986e-03,1.899880114371570866e-02,1.620864192975204465e-03,4.204072390505037005e-02,5.557795881773273244e-04
3.114946026388239475e-01,1.537785320112724022e-02,1.576574757891852779e-02,1.441373609648791479e-02,1.871302140009659500e-03,6.644461031603359630e-03,3.618016342396549595e-02,1.838776297173426791e-03,4.373332010867087005e-02,2.305631035538614065e-02
2.206300369992937049e-01,1.152743926138249247e-02,6.418044027157017439e-03,6.376632013071489337e-03,1.056241992319774392e-03,7.485733547962133624e-03,6.252745106829477040e-02,1.552263713702891398e-03,8.891236230991698269e-03,4.543791143678292677e-02
1.085879556196861911e-01,1.925789424513633594e-02,3.118151558428294834e-02,1.301614721727550363e-02,6.372404692087162235e-05,6.957011502015437825e-03,7.641298574539019672e-02,6.028454711549368619e-04,6.418160460983722559e-02,5.833773476245946582e-02
2.555347224450214491e-02,3.435917416548547876e-02,4.536663479115009279e-02,3.421708627338338610e-02,1.425656414735885147e-03,4.541544033860485385e-03,6.371864577534872010e-02,1.503256044083685502e-04,1.395828851488065125e-01,5.588812617426451579e-02
4.679158969007585905e-02,4.772984165083022506e-02,4.430715148839829698e-02,4.679893850234345676e-02,1.390739489841340227e-03,7.335735344222352574e-04,3.163379814300405768e-02,1.237944492677022813e-03,1.707953118191312680e-01,3.989641609886486473e-02
1.797402797440995903e-01,5.735398407791015424e-02,3.593592570280485649e-02,4.323847160829488723e-02,5.453594867515162981e-04,2.370048474103393296e-03,4.110628898004702568e-03,3.093950628183683715e-03,1.554211166154850776e-01,2.094151615118040183e-02
3.174870878608778701e-01,6.503865601286659692e-02,3.047920986022307349e-02,2.361758243366203838e-02,2.020757988014207970e-03,2.499737326629931575e-03,5.379987501124633247e-03,4.247947287344338609e-03,1.354066412461468472e-01,9.553681887081746232e-03
3.533837040410300889e-01,6.872164998287935700e-02,2.942889210929785018e-02,4.915271356748286864e-03,1.116763661963565126e-03,1.338076054692177328e-04,8.535745721248436807e-03,4.481539468236320906e-03,1.370695463486605314e-01,8.200715686489289807e-03
2.947969724559961202e-01,6.499137387251244236e-02,2.673237370605768132e-02,3.539831239561103127e-02,3.992740376665024305e-04,1.262420041923046406e-03,2.108128779496220781e-02,4.614824115139536803e-03,1.400071320674094455e-01,1.381365370429663009e-02
2.180966984565975431e-01,5.626114851840327558e-02,2.015053168399490516e-02,6.304298945607775262e-02,1.268394128648007882e-04,1.011953212264598808e-03,3.867406565261066048e-02,5.149133974663403987e-03,1.179476310428442531e-01,2.258700015727207674e-02
1.612580414845981858e-01,4.956008864768340211e-02,1.756221369294453868e-02,7.759182263515621014e-02,1.175949775717736708e-03,5.753377667345912529e-03,4.466576529491298603e-02,5.701001319209898777e-03,8.500621694758186964e-02,2.964557000065919795e-02
1.076715123950934550e-01,4.693222479370522809e-02,2.712460675733482582e-02,6.456885858308392123e-02,1.796214730707731489e-03,9.308957630131476160e-03,3.310143701595318066e-02,5.500315159586505014e-03,7.638155424183890041e-02,3.108249847304542929e-02
4.821593879859334408e-02,4.155091122685345556e-02,4.349494591066333654e-02,2.356840210849768871e-02,9.390214035541183737e-03,9.368270242219587859e-03,1.412838949131227373e-02,4.413615161764818627e-03,9.432060172037773360e-02,2.988041120974563661e-02
1.276262387214138067e-02,2.822798349243095528e-02,5.237518219789703833e-02,2.333284810407770110e-02,1.589813054013449953e-02,6.639738822243055824e-03,1.277780464001863686e-03,3.258525658774965097e-03,1.032536579031246571e-01,3.200863434438619426e-02
3.185767796750745007e-02,1.413402675583047378e-02,4.870586623813338151e-02,5.125528133257668817e-02,1.607268946211384136e-02,3.731036627778711035e-03,4.486043693853469794e-05,2.749014129175629106e-03,8.083957555467283229e-02,3.411186420112614220e-02
9.216882494790018532e-02,1.100787199188046732e-02,4.103006211012726751e-02,5.406588790300307507e-02,1.126470959300134890e-02,3.182405876378512424e-03,6.316075849295093442e-03,2.266238018766606171e-03,4.647885243391378096e-02,2.550756197269753514e-02
1.474026632366429168e-01,1.862795371240909617e-02,3.698539581317684954e-02,4.081593495248350689e-02,6.317944359363793748e-03,5.644680086288557039e-03,1.140537705385111927e-02,1.515448735345685028e-04,2.986844212147224051e-02,5.139888555193180067e-03
1.645530633324025771e-01,2.493666954644895711e-02,3.410667235391341007e-02,2.010711773530523411e-02,3.243072510825719020e-03,9.089471023797790136e-03,8.967467653937934852e-03,4.175367698187692697e-03,3.303603332880878513e-02,1.450780496468461606e-02
1.500687058647053318e-01,2.166948938684717940e-02,2.745888252486367725e-02,5.184282206643333647e-03,9.475441822375686024e-04,1.065115764316396270e-02,5.179047320235065019e-04,8.707501780656946508e-03,3.530448773691310244e-02,2.269844225623772471e-02
1.312592411584881380e-01,1.174014477360067234e-02,1.774755298878465115e-02,3.343047771663028300e-02,9.934980270344872730e-04,9.683332938724312916e-03,1.074911771898887959e-02,1.077320519540063241e-02,2.051103286141588503e-02,2.033331160078846039e-02
1.162491129807392831e-01,2.527080206759709305e-03,7.841192883968154184e-03,5.962759519833005922e-02,1.703999113450945999e-03,7.865510510985326137e-03,1.570332660664393309e-02,1.018536087528001087e-02,1.072878757039353106e-02,1.439792103933570412e-02
8.652786465343341449e-02,1.133036934653667421e-03,1.810162799383941562e-03,7.515171788407935816e-02,1.279118599960313296e-03,6.409412867242230902e-03,1.568813333129349952e-02,8.932134648898715570e-03,4.373603874026432692e-02,1.072494235247432176e-02
3.097559524768105088e-02,5.642355632357251571e-04,9.396561123010278502e-03,7.404243283981097601e-02,9.961840802078952319e-04,4.859881676486183834e-03,1.643747489951445304e-02,8.325439658102085430e-03,5.767971547351807143e-02,1.194772522141253346e-02
3.600590757615569626e-02,1.981235063341619737e-03,8.843092858345736815e-03,5.986759305447180574e-02,1.506774676211038774e-03,2.731781565590366175e-03,2.182927427253207597e-02,7.922847018728461713e-03,4.189368410402072307e-02,1.589662582355710549e-02
9.003172169011632031e-02,2.809992865056043596e-03,3.138824539934942370e-03,4.141806698389903507e-02,2.392729131740854026e-03,6.279628019228418543e-04,2.972828927889140452e-02,6.614232930421366091e-03,9.019461711224212655e-03,1.536662184192600158e-02
1.076905851267374870e-01,1.243267887026511427e-02,1.977091096046219854e-02,2.196026291119573468e-02,2.991028728720908879e-03,8.215729182927653017e-04,3.513401755194961451e-02,3.883345989781924676e-03,1.628338472577033416e-02,4.166067798220486965e-03
7.532041662689964445e-02,1.991043070771349177e-02,2.998791929991142038e-02,1.935779198608670627e-04,2.839124459318105413e-03,1.777188421337778977e-03,3.357343703864069245e-02,4.321287217769114526e-04,2.153503572409471573e-02,1.453413679404178503e-02
9.351381764800411125e-03,2.168910466071232238e-02,3.028415027585958791e-02,1.927130948548173850e-02,1.975339313515869950e-03,2.384691954718365110e-03,2.190016093713362255e-02,2.355217969324155825e-03,1.231112527590224118e-02,2.812871225111884463e-02
