2.767098397477960655e-03,2.810876384236965508e-03,2.213133943462303123e-04,7.615943276863016364e-05,7.217252304297219539e-04,1.050941603830203401e-02,7.625889293390740453e-02,7.664889574702545352e-03,3.218556884005261591e-04,2.467392631930975799e-02
5.829316803787887562e-04,1.877083238935628321e-03,1.127506744253643865e-03,8.373428565466186605e-05,1.017053691460394118e-03,6.397451123260822735e-03,1.597785149135975413e-01,1.302564640710234152e-02,6.515712359711748778e-04,2.353433205871796260e-02
2.095326167106600045e-03,8.377315529556143489e-03,2.608224635063251251e-03,9.257449544815920899e-05,7.925063218834122901e-04,6.998499046605758354e-03,2.323504364032308034e-01,1.256167321340148635e-02,9.884758869517663166e-04,1.082350163614920549e-02
4.025517474017250089e-03,1.103856962834335632e-02,2.643739193938394409e-03,1.024253310748419489e-04,5.964847692048771922e-04,1.156123153735173423e-02,2.268437552832984483e-01,1.635078795573017500e-03,1.332237041772225874e-03,4.219326106536353330e-03
5.537964940634467273e-03,7.518103833455955232e-03,1.466255571821227597e-03,1.129908977125637100e-04,6.145689772029140890e-04,1.837676160853232016e-02,1.603804355273690252e-01,2.400950513658371699e-02,1.685208708237873184e-03,9.333344174915275335e-03
7.696670663959029324e-03,2.278203553085930699e-03,6.210994478070646068e-04,1.239408666253788091e-04,6.131081764329042146e-04,2.408939192490444636e-02,1.197374889907322215e-01,3.931326823174162433e-02,2.044813504591033379e-03,4.583644361320734183e-03
9.753607459506952529e-03,3.263919306003938768e-04,7.495854757249421733e-04,1.349180391896767975e-04,4.992372902566326711e-04,2.458263442829939499e-02,1.463010422722347548e-01,4.067216065760409505e-02,2.403506510224905426e-03,2.911366034459493719e-03
9.989468987890838189e-03,1.569739928178350051e-03,1.141078639220930542e-03,1.455465573368780159e-04,3.815432707443865753e-04,1.939105439630129171e-02,1.833397823977097885e-01,3.364811621786442664e-02,2.763928925904797843e-03,9.522676389697410509e-03
8.691660941213564043e-03,3.516524862048849877e-03,1.199861095711761633e-03,1.554405677927448847e-04,3.067849739019702952e-04,1.241236045698321591e-02,1.616917462766495062e-01,2.400038094578279754e-02,3.138864703592831457e-03,1.461418493519302426e-02
7.827308933129512730e-03,4.260255670398316839e-03,1.115245306422191609e-03,1.642131247451548742e-04,2.268690401420762805e-04,7.051033629025159170e-03,9.871976673674622005e-02,1.301682143183305849e-02,3.519355181207163043e-03,1.691742677911233644e-02
7.815342397186553908e-03,2.014392670058818158e-03,1.173795866762162958e-03,1.714850888146397811e-04,1.216789195529439585e-04,4.275237326957843052e-03,6.688803984378861867e-02,3.365990772431946658e-03,3.874170723428969204e-03,1.451410512832246660e-02
6.865156787094055593e-03,4.729721236401139323e-04,1.284121900916574029e-03,1.768938077906233341e-04,1.604587576990865931e-05,4.949806852721832552e-03,8.633297380145785183e-02,2.169270390524434024e-03,4.217766883258181401e-03,5.031546146118592508e-03
4.164303409472998319e-03,4.495611728884610489e-04,1.261818416403158102e-03,1.801014187961756110e-04,7.761472976672214186e-05,9.314752948519893633e-03,1.058361080791686282e-01,7.423484415924950890e-03,4.613327846224569984e-03,1.156171532309109920e-02
1.813573164923133708e-03,3.215143428825104933e-03,1.167517040058285542e-03,1.808025670072743111e-04,1.680172180553052719e-04,1.442665001178403301e-02,8.812269505929330726e-02,1.726254996931846433e-02,5.025324875412839724e-03,2.805336627670545688e-02
1.770764848313458300e-03,1.784961902703592271e-03,1.194148795801527017e-03,1.787312483286855299e-04,2.583171725284171038e-04,1.573437087380104987e-02,5.560384502029856735e-02,2.470968237630166708e-02,5.300051531581874073e-03,3.430388084632700341e-02
2.308097983160878938e-03,6.658182175558547203e-03,1.275128548721608671e-03,1.736666208527334822e-04,3.417702131503332422e-04,1.126124574180856208e-02,3.939426340571089424e-02,1.587891632424068278e-02,5.522560230509207350e-03,3.036644080396774803e-02
4.871487198546398914e-04,1.683922572638184637e-02,1.090899719331096850e-03,1.654378796793176925e-04,4.142397164916806042e-04,3.314652108904668232e-03,3.605895256019560347e-02,8.795980643127546128e-03,6.321508337323804294e-03,2.995895137273552403e-02
2.918460346269131749e-03,2.065472039105912747e-02,7.431197491742775035e-04,1.539280742132174745e-04,4.764436050061793292e-04,3.532917568429487509e-03,2.892858796266156371e-02,3.009403399085642389e-02,8.447758805112474609e-03,4.529668613771653529e-02
4.622147530113035994e-03,1.623133683970852045e-02,9.183262448522971997e-04,1.390762904081705418e-04,5.281810225748783446e-04,7.296393592178682802e-03,5.713733258479590515e-03,3.185288268647413351e-02,1.172589783141038226e-02,7.009502348722911058e-02
3.974466392921066626e-03,9.060449366380115416e-03,1.687195324461910955e-03,1.208781597566692959e-04,5.672592633295121377e-04,1.149627592765970104e-02,4.596233442591824564e-02,1.769195683445990916e-02,1.445864268562328803e-02,8.442746364180959973e-02
3.121681341226505233e-03,4.660004866617672298e-03,1.938589026681073477e-03,9.938574366109712357e-05,5.922280080550410995e-04,2.012613181074555252e-02,1.117839148958818113e-01,2.336302322567181469e-03,1.453173871611187877e-02,7.796815206920727770e-02
2.945321190576936053e-03,2.779597140886017233e-03,1.130905716579337075e-03,7.470681989770892916e-05,6.029521959622730163e-04,3.009505015402989467e-02,1.326627407481236753e-01,5.153114679589078893e-03,1.176742169318716925e-02,6.010918205252078345e-02
2.343660587988096594e-03,4.551203709632610245e-04,4.588095241693922080e-04,4.700135311109282819e-05,5.993633930190903633e-04,3.352281743585609070e-02,6.956848324537520667e-02,5.939816360526349766e-03,8.591335508995039116e-03,4.366317978956960055e-02
7.715534276910810275e-04,6.645747428204303205e-03,8.621553814184435699e-04,1.647515700535392597e-05,5.811888679385954042e-04,2.793041065430227829e-02,2.926213046024126602e-02,5.433261814304555203e-03,7.401937990530995694e-03,2.888004628243359337e-02
1.164217774641740670e-03,1.331153417471129564e-02,1.371639133852371045e-03,1.662429380544647582e-05,5.485426902369462199e-04,1.919351835984563215e-02,7.741186930753268802e-02,7.675690993339382741e-03,7.939844845727454803e-03,1.025918925267483781e-02
2.832612535461440789e-03,1.711729384434545337e-02,9.043052331763321884e-04,5.200947631014499477e-05,5.020650011539351271e-04,1.323944844720045116e-02,4.468147625067998840e-02,1.408579149655352775e-02,8.364718818657860405e-03,9.880303209150939625e-03
3.739466200820669439e-03,1.668941386697996368e-02,1.377009302931822912e-05,8.936203637515110348e-05,4.426270897716654863e-04,9.575467077385747816e-03,3.849221452930159937e-02,2.317613284830293691e-02,8.119820568274460290e-03,2.413018970220065160e-02
3.494549007057561139e-03,1.291890882566481928e-02,5.216304994960055700e-04,1.283503157839219362e-04,3.712209010284208874e-04,4.871235033154696671e-03,1.307202162397021750e-01,3.005562004258376108e-02,8.226366875785300764e-03,3.190826900610171935e-02
2.409007159342124900e-03,8.964844925893803926e-03,6.199264752843521584e-04,1.686329341159170170e-04,2.890769418653957703e-04,1.726728243640499125e-03,1.890010067573461017e-01,2.959496657549651188e-02,9.077698027304979822e-03,3.869307076073857932e-02
1.487959589407245303e-03,9.026765854277337200e-03,3.985872316469220734e-04,2.098457594806664070e-04,1.977173383577603800e-04,8.946674230249793136e-03,1.768793798446579024e-01,2.218243626779387717e-02,9.600965254373894711e-03,4.244360654804529148e-02
1.449622051581173597e-03,1.434589973120853346e-02,1.474569583495633277e-04,2.516191139226937792e-04,9.882663914954355850e-05,1.494724687633457345e-02,1.164581907485149198e-01,1.456919160745696190e-02,9.026752266552934972e-03,3.168626237755128167e-02
1.938603658807314589e-03,2.119285164297884244e-02,3.965203362631577588e-04,2.936314988255195541e-04,5.914510633998685521e-06,1.769021485113239298e-02,9.227506657328490847e-02,1.395239440868922473e-02,8.079833658681456407e-03,5.546616767721746291e-03
2.031790631622226208e-03,2.490027087070985704e-02,1.774329074837572391e-04,3.355993265532380737e-04,1.147732678924627504e-04,1.711430920990806431e-02,1.508356711341735656e-01,2.055346220881794708e-02,7.687096918171564854e-03,1.584550934956711205e-02
1.352579481309511365e-03,2.494716174283367199e-02,9.713368102482962440e-04,3.771859935847324892e-04,2.257613716213010017e-04,1.536645014534138848e-02,2.274224950759214381e-01,2.514042347293169929e-02,7.686462693712495242e-03,1.738858317830999783e-02
4.653762643161212745e-07,2.475228111762153155e-02,1.276499249637214929e-03,4.180439303496229653e-04,3.368363557453473768e-04,1.236525327361517705e-02,2.269947527537858611e-01,1.770560635969695498e-02,7.485939387400929526e-03,1.355664369508247785e-02
2.075533627156242369e-03,2.700207673480553572e-02,1.388704368856839106e-03,4.580302456776831708e-04,4.464628098949769384e-04,5.783345394221092901e-03,1.549057557531869633e-01,1.148413226050082553e-03,7.020976015557045188e-03,2.431725408722545598e-02
4.431736615467935653e-03,2.947865388630457537e-02,1.557558848487424971e-03,4.971402912455162842e-04,5.533533509261747557e-04,1.671018950245949878e-03,1.065921069183169284e-01,1.048033532896344537e-02,6.538846031801354153e-03,3.962393387141113776e-02
5.657499615793061369e-03,2.628638464905726918e-02,1.058667332198905218e-03,5.350600903694717426e-04,6.554007179516315156e-04,1.571098192863998365e-03,1.405247060660027025e-01,9.915702596569701821e-03,6.095609466829046003e-03,3.655669886638576727e-02
4.888466631073073304e-03,1.459569618207453776e-02,6.075540707610842250e-04,5.713078553235089157e-04,7.503173028984376882e-04,8.202111466505020154e-03,2.219505076308118940e-01,3.696434211904887045e-03,5.586044893483407998e-03,2.067468630742798005e-02
3.040269419977117710e-03,1.407992891795458064e-03,2.604281200596617399e-03,6.062012006093921677e-04,8.380434568831989298e-04,1.610080969689570499e-02,2.840154989336806657e-01,4.933850868508509943e-04,4.932478751617722611e-03,1.834605635000687712e-02
1.577631059223982835e-03,1.475228680221087225e-02,3.523705467487855091e-03,6.405840269333953245e-04,9.195505306321980019e-04,9.978015788618288529e-03,2.928746454802759192e-01,3.348153601542927429e-03,4.153200639905695393e-03,3.430553711224963026e-02
8.809822231195497347e-04,2.102093731792088055e-02,2.538044782991150800e-03,6.737537941627813522e-04,9.917542058438984232e-04,5.062949646476159679e-03,2.635907096609089173e-01,8.656321493986294385e-03,3.381562103251831847e-03,4.723147533449538471e-02
6.001883459084079086e-04,1.960811527967671469e-02,7.186102926484743076e-05,7.039868790288613971e-04,1.050004987309447087e-03,1.335370673239255103e-02,2.517266660274999901e-01,1.706589010986628990e-02,2.668873978847132247e-03,4.411950078214203069e-02
7.256431896070032663e-04,1.472598619744425533e-02,2.589388569989963841e-03,7.329713132127608621e-04,1.099065957044297525e-03,1.300481125607093509e-02,3.078865602198126994e-01,2.830421580640717430e-02,1.738100324021285082e-03,3.262957947625692162e-02
1.274754531088087475e-03,1.402377454354541628e-02,2.762572872678094316e-03,7.647894482320711281e-04,1.148111778553667769e-03,1.807120580572296742e-02,3.997277258907857567e-01,4.333401112696291801e-02,4.132295000990875589e-04,2.244197981450245932e-02
1.592568333556675488e-03,2.042448850401767241e-02,4.319243028943941707e-04,7.964105147101105788e-04,1.187163836012500306e-03,3.332620263628388591e-02,4.082901749383968104e-01,5.892192310459819227e-02,6.960680230733981089e-04,1.613772383292110674e-02
1.099763191108444086e-03,2.745111881463986950e-02,1.492414435856545801e-03,8.195981634466757313e-04,1.197143859361960404e-03,4.452002151743806452e-02,2.588635996598612765e-01,6.408957645699527028e-02,8.846515941402223427e-04,1.464323402997418609e-02
2.417754451371096627e-04,2.709584879397509971e-02,3.133365529107685985e-04,8.412452179141227410e-04,1.200430986620183065e-03,3.988779917429129129e-02,3.310335957023325532e-02,5.064955037321575149e-02,8.518013402199930322e-04,1.564516549908539361e-02
1.478597873727804685e-04,1.828357934054215470e-02,2.923768014943962934e-03,8.798092375848585306e-04,1.240664775063337992e-03,2.557121127753706272e-02,1.112285644258844269e-01,2.669817765706674825e-02,2.156335580135530002e-03,1.167870943783970786e-02
9.180457070187295694e-05,4.261116017281200465e-03,5.009526666515014444e-03,9.217692554131975535e-04,1.274170847631192049e-03,1.358959633124975572e-02,1.097213879116204771e-01,1.060851137045109617e-02,4.904381837226176599e-03,1.120752241094503986e-03
4.151749949838570578e-04,1.248501250432306094e-02,5.008131881781637158e-03,9.280787936717529258e-04,1.210047969110292568e-03,7.252518557093936419e-03,2.074454501710178145e-02,1.113113054942646910e-02,7.478841398064801568e-03,1.890240068021534214e-02
1.707016354272974132e-04,2.832310224187004066e-02,4.964198638357318789e-03,9.273095708845836057e-04,1.142983345152500524e-03,3.687003471193435727e-03,8.268119697748911590e-02,2.121965260191385413e-02,8.902060493736293004e-03,3.617342413260899586e-02
6.789124564560408736e-04,3.615015459822763094e-02,6.134166603576018950e-03,1.004282748205821739e-03,1.276377691027638520e-03,1.700960317493378868e-03,1.811540240759037523e-01,3.072928097363646777e-02,1.009191572833047917e-02,4.785581649755792089e-02
1.464060901429476303e-03,3.015441161981850457e-02,6.554868932341390009e-03,1.100693721792238636e-03,1.426633613760430351e-03,1.997928420641388852e-03,2.791456097026264738e-01,3.698500207893620773e-02,1.220630522563875484e-02,4.935129620288571106e-02
2.030425457010544624e-03,1.209457128774773724e-02,3.855888317289481171e-03,1.033888534767315450e-03,1.118302096058390680e-03,3.451049894016830055e-03,3.574304850589729021e-01,4.089639418309989893e-02,1.455966990872673006e-02,4.163883082799195445e-02
3.345242685458807343e-03,9.213242089403779478e-03,5.008227250901169060e-04,9.257529687386162982e-04,4.951043655454052603e-04,3.021093102895339687e-03,3.680499799546534945e-01,3.795558224168653350e-02,1.509360747481991276e-02,2.946878274016865099e-02
5.688691658292084966e-03,2.437114496675966274e-02,2.580892422599384301e-03,1.183237247044949996e-03,2.306016501650760570e-04,3.788554922541614682e-04,2.746678133078567230e-01,1.951288772015345729e-02,1.287726082523060235e-02,1.294555568594039224e-02
7.297586073844950991e-03,2.992712359879478451e-02,1.804919594890362113e-03,1.536499344897099143e-03,7.756387318817751445e-05,3.994591320648496063e-03,1.097368256395485353e-01,1.453342995184045069e-02,9.154986208248155205e-03,8.570974107849628834e-03
6.409106696343493635e-03,2.979041996106288059e-02,1.679795012012912352e-03,7.915463657991455996e-04,1.095728679058969235e-03,4.530548478894474117e-03,1.974989303819989911e-02,4.971395044941892549e-02,5.914086373466969845e-03,2.638925159840371099e-02
3.835295471896871689e-03,2.948303036320538625e-02,3.587463118516796574e-03,1.407102648026062200e-03,3.152557126908908137e-03,1.617130688813861027e-03,2.525276785762145537e-02,6.946639820550888633e-02,4.682383389931979965e-03,2.859416758739771747e-02
1.924300562239287344e-03,2.922447510045181329e-02,4.226205478356762427e-03,3.340042090932060590e-03,4.137568262502074219e-03,2.412237543626989580e-03,5.869343381424522305e-02,7.002357858605524898e-02,6.252920405233897139e-03,1.489394118131568898e-02
1.374669901701320619e-03,2.461040754819130913e-02,1.262664488976775450e-03,3.231039930311410159e-03,2.673468634155763517e-03,3.670822558227158309e-03,1.089098075959713391e-01,5.876355877390906923e-02,9.840859733178400348e-03,2.807699406626102887e-03
6.826118212083310058e-04,1.308849391876139127e-02,2.620594917601874654e-03,1.791087828872733054e-03,2.639004558184763517e-04,1.183340402543846303e-03,6.400921365966173726e-02,4.342759929020297699e-02,1.303080362357965892e-02,1.343659469242443685e-02
1.204206808638445250e-03,2.215500922481303172e-03,4.108115956313320057e-03,1.218234673659681537e-03,2.330897304362774310e-03,1.060639207968209694e-02,1.845229434000762031e-02,2.817352482815259004e-02,1.407557017422128229e-02,1.586493744732190778e-02
3.402667705090077748e-03,1.427074619148890194e-02,4.443998659320112614e-03,2.419962811908937111e-03,1.701228973736558991e-03,1.764643725895052861e-02,8.490354592460906680e-02,1.605080551102952904e-02,1.392545324596046463e-02,1.637952995685552568e-02
4.578827725608969335e-03,1.742717410753277102e-02,6.645956650554851915e-03,4.440091479029407463e-03,1.615291363460844357e-03,1.691967545780889703e-02,1.929499340062534873e-01,9.545530889095009408e-03,1.494391391526170808e-02,2.211164950464263382e-02
4.155235626885234873e-03,1.093629231116486321e-02,9.405750421783870899e-03,5.740540437214095362e-03,5.177920153042295769e-03,1.102221078966120031e-02,4.147659891470563132e-01,8.415191777295612241e-03,1.758052397749204979e-02,3.827501221707613893e-02
1.921059709242026788e-03,3.808077447107059265e-03,8.211310725296568774e-03,5.335033392031307900e-03,5.673282305425400227e-03,7.586976464381601365e-03,6.735902086423991575e-01,1.006133772735700455e-02,1.962219677596520676e-02,6.608615618866504893e-02
1.574682441782594439e-03,2.571172820000466874e-02,2.457816887958963990e-03,3.497047633421112526e-03,2.491733442228854113e-03,1.017997095192035156e-02,7.847693620196171116e-01,1.328857915755386580e-02,1.988183241281712629e-02,9.993383541592103236e-02
4.395097402154097069e-03,4.932907036341988016e-02,3.155930070520838668e-03,1.459583288701194869e-03,1.241092476232558009e-03,1.519766009550217560e-02,6.710876985866471856e-01,1.882957818510582262e-02,2.062098811547105268e-02,1.308368919734194391e-01
5.042796654642846439e-03,6.347152179595232091e-02,5.339273241536834219e-03,2.293841562316440070e-05,2.559347796892760124e-03,1.901585780149283450e-02,4.477571595037948549e-01,2.456890795209490733e-02,2.354460800425586461e-02,1.534612289486843584e-01
4.441897006175343429e-03,6.040111803765411264e-02,5.494406801637823252e-03,1.150278059277824640e-03,2.186536505926170090e-03,2.320883955153033029e-02,2.687245496380925025e-01,2.486774917791982967e-02,2.626807272058782547e-02,1.661399792715068102e-01
4.407490918408389288e-03,4.260411527025519118e-02,4.894492030306851066e-03,1.941032878673065168e-03,2.415924536043246966e-03,2.887973765689787545e-02,1.801204262035201453e-01,1.816844742393311160e-02,2.729457260582785968e-02,1.670547939641656709e-01
5.243052541329936388e-03,1.916431926686732942e-02,2.445139775385335619e-03,1.872421506562541027e-03,2.930701300576086122e-03,3.129179709037887419e-02,1.711537922843247295e-01,1.064574533041359738e-02,3.021481973798741810e-02,1.547906511973895505e-01
6.037136295475754345e-03,4.431603823918121767e-05,4.299073589231097552e-04,1.043090080046369696e-03,1.481725403965572507e-03,2.585281274391103973e-02,2.607960802277650147e-01,7.792843816391281653e-03,3.577513700771454974e-02,1.320526593607926902e-01
5.678420563602596879e-03,9.311807832638343760e-03,9.741261208800190653e-04,5.081198897132733431e-04,1.781260942231851791e-03,1.546654307696145036e-02,4.336670564630054625e-01,6.779008755265277832e-03,3.490548387772091782e-02,1.091473919920894070e-01
3.038826068771469970e-03,1.199358405609495318e-02,7.247428068119720138e-03,9.390072079477502229e-04,3.834005912700172956e-03,6.617997976261490514e-03,5.758205682432446793e-01,2.369065110035272620e-03,2.005701156389904163e-02,9.913011328128633337e-02
1.759145454171818579e-03,1.655454165819109091e-02,1.237560883650376184e-02,1.830507285696893107e-03,3.156646690905567931e-03,1.091621242767109885e-03,5.920026642899910430e-01,3.811094778796983613e-03,1.456807801138457290e-04,1.011243646174258826e-01
6.166210557076940227e-03,2.339388296740132350e-02,1.187629146888015061e-02,2.292276788640171606e-03,1.721739899141325322e-03,4.326818966607511550e-03,5.224727959522783571e-01,6.219160478366594219e-03,8.965265988233064864e-03,9.833822055748332736e-02
7.420058872006871434e-03,2.221357508887753657e-02,8.470649930811723072e-03,1.902924499776273166e-03,1.675178934374320361e-03,1.284701242246253511e-02,4.493959135514818959e-01,3.791473245737841599e-03,2.675516439629443272e-03,8.553833212006810294e-02
5.783389565776651114e-03,7.756170139790480138e-03,6.718945836782380839e-03,9.696120980470690660e-04,2.335493837204220997e-03,2.519732917922181542e-02,3.704661323625986213e-01,2.111447883142312555e-03,7.066129749244573488e-03,7.902923369001679799e-02
3.994107314148414092e-03,9.518348131603323117e-03,6.200194192946617035e-03,4.877101407814557520e-04,1.648529300985122166e-03,3.827841838007487590e-02,2.545176642824547031e-01,1.421083828007325967e-02,1.202223327752127008e-02,8.265996021480125078e-02
4.106112612335569706e-03,1.579599441157136797e-02,3.101950286779588811e-03,1.167640748735218744e-03,6.553016643650944658e-04,4.438481468640154137e-02,1.307026957148185731e-01,3.366554872667103238e-02,1.727095853777418227e-02,7.399501895083508696e-02
5.915834600786427575e-03,1.104553779179095162e-02,3.441956169180014104e-03,2.151350130217724414e-03,2.405382491116215150e-03,3.732408198346809369e-02,3.732666097498028163e-02,5.078170057464211767e-02,2.767065814316912314e-02,4.408768908421416971e-02
7.715489064450659074e-03,6.146973795474815379e-03,9.091483675369603154e-03,1.678287022389788035e-03,1.286367988782130024e-03,2.209815540174168286e-02,3.632375841339224171e-02,5.319586592453483254e-02,3.496213996289258830e-02,1.332990799180513650e-02
8.128243600509687389e-03,6.502907822521260782e-03,9.309914939308367929e-03,6.271653483883967480e-04,2.607279972776938969e-03,1.265517547649559586e-02,9.542419714791722241e-02,4.214573442978435114e-02,2.949127829883547644e-02,1.151326733360314748e-02
7.696830635497805412e-03,5.984885557132280966e-03,5.866546280415056887e-03,2.947019910970103546e-03,6.488712854589288002e-03,1.602091620799140845e-02,1.063858060891230972e-01,2.936774756542774936e-02,1.882273663245842901e-02,5.222440046793569435e-02
8.264178954123730172e-03,2.511855508702420369e-03,5.101649016032775569e-03,3.135721894485797665e-03,7.197204035518207747e-03,2.366991511570379000e-02,6.641046528020681794e-02,1.951981435805043991e-02,1.958165255967496063e-02,1.122416979745171628e-01
1.039722563515569145e-02,1.579302878219045539e-02,8.641830100006461096e-03,1.152559771855833420e-03,4.173286211586124499e-03,2.245069202697502417e-02,3.999175314804327003e-02,7.860210206833714505e-03,3.062760196661331799e-02,1.568340185116927077e-01
1.246015701847677515e-02,2.386447656202705589e-02,1.048394332262396825e-02,6.217281773307213903e-04,1.476750786751486423e-05,8.866958653612659960e-03,8.761845813265392580e-02,5.696422176353577171e-03,3.019561022831262348e-02,1.546017023873413332e-01
1.276269399864767180e-02,2.359703431786204161e-02,6.141272030602312054e-03,2.631160459332891204e-05,2.414326117466227776e-03,1.021150307923707722e-02,1.998453286097707782e-01,1.369654181332057713e-02,5.410564481050071824e-03,1.083904805484306177e-01
1.138611305912412552e-02,2.280087967249566291e-02,2.710207459487071723e-04,2.216894535118904552e-03,2.857010889076786256e-03,2.428965629930487230e-02,3.187335201775345350e-01,1.377547242554685858e-02,2.925381336142331146e-02,4.758454966957609972e-02
9.298635722699236800e-03,2.795083342121006814e-02,2.165358260695794852e-03,2.913115683777989934e-03,2.715369166215981546e-03,2.449530433802957902e-02,3.918883633170303638e-01,1.192933330926594301e-02,5.064236449246067168e-02,1.353287167663709024e-02
7.011934910472843868e-03,3.482564236931212642e-02,1.068782382584518645e-03,1.068683517836870565e-03,2.370457104632379009e-03,9.754613116169390599e-03,3.970974256827330406e-01,1.103291040854893421e-02,5.129078552011205605e-02,3.439846424200852099e-02
4.933839546532077167e-03,3.768006184015840893e-02,6.447696983443441422e-03,1.202268934533445247e-03,1.458722589130417380e-03,9.368490469711891061e-03,3.335576518183168693e-01,7.674339671947428762e-03,3.784485213000880061e-02,9.467672280276689945e-02
3.881512105110412284e-03,4.049530894734662545e-02,1.309745558491133034e-02,2.047914215607113397e-03,8.562247858444854524e-04,1.854989849334299362e-02,1.990187823108829912e-01,2.506666284294229059e-03,1.927534309809668736e-02,1.515660794282678026e-01
3.987439169489113457e-03,4.853875616247123326e-02,1.967296921947682756e-02,1.896022760616046954e-03,1.623078815885064391e-03,1.408755034956005354e-02,6.280997673577274655e-03,1.089719594930503794e-03,6.195819098520262240e-03,1.842548546332953563e-01
3.635086262813049147e-03,5.439805545474203641e-02,2.124449667641263584e-02,1.522410048665181126e-03,2.479134848656930779e-03,6.432985951321284340e-03,2.315543113823392285e-01,1.290376844608286284e-03,9.419466563394852943e-03,1.951999613194101424e-01
8.732808611941737407e-04,4.612272470300834287e-02,1.572866193328483625e-02,7.964896537424587643e-04,1.354850822455906222e-03,7.293664187327947475e-03,3.635205533280572721e-01,6.148004277460879241e-03,2.829145356221707264e-02,1.765634883396451915e-01
4.135477614643581941e-03,2.644786061164235147e-02,8.368904474521488002e-03,1.055635309839126604e-04,8.320728845611424307e-04,1.572342359518353813e-02,3.247231276743404171e-01,2.029754606031712941e-02,4.876360768584824673e-02,1.259599383331101718e-01
9.120550750301263665e-03,1.105796509162404809e-02,3.046440520499837760e-03,4.701040787944246496e-04,1.238135243008573133e-03,2.067793415685198477e-02,1.741590901208500686e-01,2.820420918899132351e-02,6.082881110998273472e-02,8.181190643848924859e-02
1.201718430782352728e-02,9.920670368258303548e-03,4.274448500089868958e-03,1.629592202159074765e-04,2.925755260365113302e-04,1.564556380780128195e-02,4.155881440566403656e-02,2.395269383675890235e-02,6.943208767527517256e-02,8.484424344673226204e-02
1.261231368791259494e-02,1.934725370971342520e-02,1.643850356889222167e-02,4.797406982761556857e-04,1.273718531444760233e-03,5.982249679433187910e-03,2.974608603532266637e-02,1.466999188864652470e-02,8.129606144602422035e-02,1.137896301446544023e-01
1.225517735151641224e-02,2.785220707027881437e-02,2.737020194696558606e-02,1.180529705052560212e-03,9.347071056773484984e-04,2.223841768735608428e-03,8.929741153305920109e-02,6.899534825574902414e-03,9.021331596228553129e-02,1.132655133750927606e-01
1.226525837157504614e-02,2.478936184143549701e-02,3.055037604730187831e-02,1.391652668539405209e-03,8.263064768956667958e-04,9.348943790638712670e-03,1.397615721762539287e-01,1.922685982600918966e-03,8.440474816598271535e-02,7.551890067993874411e-02
1.242985769021769799e-02,1.009467680568528793e-02,2.772047159752302412e-02,7.974082684816718915e-04,1.515227685325753245e-03,2.196358938984787484e-02,1.112995613519498217e-01,2.175519882140739252e-03,6.289335466006003295e-02,4.662589566434672400e-02
1.149903772517669315e-02,4.292379118733933956e-03,2.383361700112054948e-02,2.389890320924153392e-04,1.979620128815581109e-03,2.911792437893344354e-02,3.139887771814230642e-03,8.386383457856172105e-03,3.714819291754228175e-02,5.912676742279101422e-02
9.411523309713473381e-03,1.069434797264386811e-02,2.038810952546547470e-02,6.163727741046664491e-04,1.801398329684886874e-03,2.539573995968805176e-02,1.061296028779649125e-01,1.432107997828748966e-02,1.901671236880610183e-02,9.690481704780182226e-02
7.915176013043310685e-03,1.683003024999198821e-02,1.716928293550914336e-02,1.405279868969478568e-03,1.580343294011713742e-03,1.602923239987147017e-02,1.270326755061910173e-01,1.435924433719219101e-02,1.112288887307601171e-02,1.248732676491837446e-01
8.366829273809902809e-03,2.965496035468574709e-02,1.433944402727900524e-02,1.628811232878939847e-03,1.653731156499665088e-03,8.686519273702317939e-03,9.767691355470010939e-02,1.002526924056734194e-02,8.066698639403985238e-03,1.249902240640715645e-01
1.009697762856133670e-02,3.902501075124361479e-02,1.044826357216590076e-02,1.384470197410293032e-03,1.800547445108406728e-03,3.669771075948011826e-03,6.778301875215071715e-02,3.149109243666098346e-03,4.346272076728606090e-03,9.769619308999198670e-02
1.160291954991232201e-02,3.241118808512727378e-02,2.968536046712685287e-03,1.294582534226774431e-03,1.814459245057589926e-03,3.717349939780445305e-03,2.437272999044206787e-02,7.790509776899557856e-03,1.514374027474516340e-03,5.070974980438894969e-02
1.222609376922644854e-02,1.592298449771748989e-02,7.502954076872962903e-03,1.368314128722523991e-03,1.712351259982749065e-03,1.462017420621953244e-02,7.132468622305164485e-02,1.925951089248071138e-02,9.797696732876490233e-03,9.267814009360809957e-04
1.190122129746626518e-02,5.457858307844752621e-03,1.658467777020601261e-02,1.308765181874988739e-03,1.673006658286891029e-03,2.496637126030501475e-02,2.065002412077674432e-01,2.152917292428284737e-02,2.016961696583638095e-02,3.055524047264992354e-02
1.018005281684849009e-02,4.491283164103519396e-03,2.107360807503522171e-02,1.257100951165039237e-03,1.876015683697733819e-03,3.070716684639179447e-02,3.109219680488600202e-01,1.253785612781246721e-02,2.782051128270959101e-02,4.019422537098338299e-02
6.764798723920728736e-03,4.034642726608964579e-03,2.227472382035648735e-02,1.423518488743913532e-03,2.045167233154842300e-03,3.175231461078230344e-02,3.322057007915474869e-01,3.543732516158577209e-03,2.585353358790611761e-02,3.858761238821254574e-02
2.884824962684193455e-03,5.631553050175201096e-04,2.269064197527465021e-02,1.397223478390950072e-03,1.387463025813897265e-03,3.051881568324798025e-02,2.914614951445573254e-01,4.428980006001344283e-03,1.457267192841064235e-02,1.954360293980348176e-02
6.629564199093706481e-04,4.048402276607862907e-03,2.201628142371252900e-02,6.092806889525646157e-04,5.117466137668627351e-04,2.830325093003746573e-02,2.446977269931635002e-01,1.155798309724580426e-02,4.141487066694605687e-03,3.099468920550822737e-02
4.856755119821620434e-04,6.564216636053008327e-04,1.886468954938687326e-02,9.007686406930969164e-04,3.070725756519973246e-03,2.500462422417374167e-02,2.165908588468281326e-01,1.644089447199888893e-02,3.976688838434105921e-03,8.940854621831023641e-02
3.484448832981568937e-04,8.476574209781737729e-03,1.333162782383783170e-02,2.938304155175112866e-03,5.306480487369963535e-03,2.151860641473605368e-02,1.988530329419449794e-01,1.900944572849232184e-02,9.519665259862411175e-03,1.039474962653367390e-01
1.381802373118437306e-03,1.810301421905505248e-02,5.327897952465712912e-03,5.462259701056636912e-03,6.358882277200970240e-03,1.978723156057019331e-02,1.888647740592692692e-01,2.534833864381684163e-02,5.224802985600217504e-03,6.003842085532479916e-02
3.946329136430845944e-03,2.484727988044508479e-02,5.517541273164500507e-03,7.413153660252230076e-03,5.408354190304530580e-03,2.064226306748109460e-02,1.977228218625477485e-01,3.703363515753523710e-02,1.467705543610403791e-02,3.887284393278395492e-03
5.816081741351004745e-03,2.778082542219022580e-02,1.596924366946752757e-02,6.791435313468903792e-03,2.479395735615627996e-03,2.271528227777382461e-02,2.259519296078810191e-01,4.915704493265150160e-02,3.543093411401470466e-02,5.118725210256033081e-02
6.862699984457724424e-03,2.530182640312565387e-02,1.983427659616838340e-02,3.399577536864894535e-03,6.128438283850414035e-04,2.309260918175628369e-02,2.544360837035943290e-01,5.705304361292036497e-02,3.838881765061544910e-02,8.157239195023559264e-02
7.762534526315397268e-03,1.558429797944153178e-02,1.469599872682446351e-02,1.296059719205294399e-04,1.869238732084454535e-03,1.991368258302109867e-02,2.651081734509266874e-01,5.962177240098256309e-02,2.033754295906380766e-02,1.060481642708927946e-01
8.421818630820830653e-03,3.606765688790949682e-05,4.761327384736706997e-03,1.445202516978116598e-03,1.596297695542089629e-03,1.542750520903546016e-02,2.567115721427159492e-01,5.526803881607103563e-02,7.845737282509271382e-03,1.202879492260961747e-01
8.276046759322055330e-03,1.708121013701762933e-02,3.893821504777168416e-03,1.032397599400865749e-03,1.447343075430678654e-03,1.467053356566754702e-02,2.324515408076117118e-01,3.997342838395733650e-02,3.074099489101816962e-02,1.160604638584347981e-01
7.490706552644034455e-03,3.278729225960841376e-02,9.002500004035841191e-03,6.275652202942265043e-04,1.482171657654067498e-03,1.918630211918674611e-02,1.815611003339963614e-01,1.449274344187020253e-02,3.506149964667099050e-02,9.816654457871823447e-02
6.806876244201990993e-03,4.550066146725613436e-02,1.249179803641000536e-02,7.478257453389176770e-04,5.217028146119008026e-04,2.335343633635615299e-02,8.574525157159192112e-02,9.994476301528974066e-03,1.935812491458617154e-02,7.678164033973192137e-02
6.535126547284624346e-03,5.015776507672228823e-02,1.546393005134815563e-02,8.605709114499879211e-04,9.605328414849672626e-04,1.988519295833317269e-02,4.841109007545064263e-02,2.070005167656353839e-02,2.051914791895336800e-03,5.557967860433008639e-02
6.365152229323641463e-03,3.917231514229727735e-02,1.469027189646188343e-02,7.400404772382848835e-04,1.049436453593561528e-03,9.052770094001164405e-03,1.679730785623674005e-01,1.649338174426913731e-02,1.254530202193321342e-02,3.648725599818523208e-02
5.828740687720808909e-03,1.292263043318285683e-02,7.088497881813916185e-03,6.221512557803359714e-04,3.357240303441838439e-04,1.400475394587398330e-03,2.048155884536313476e-01,6.128569931929098505e-03,7.137241872602983692e-03,2.766035334340544508e-02
4.730420195424091777e-03,1.549267905263309458e-02,3.984397436825867778e-03,6.143151074948800111e-04,1.053288039325336271e-03,5.977624668401118266e-03,1.403965541145164309e-01,4.894394575416416600e-03,9.794159447398705087e-03,3.986444748608927030e-02
3.584305860294398523e-03,3.159572456652150890e-02,1.126258299523028375e-02,6.082581209041457203e-04,1.646905808981889230e-04,5.728153888135191843e-03,2.910115545664872239e-02,1.806271156018934843e-02,3.057251818945483368e-02,7.390661666511298689e-02
3.231075993357777898e-03,3.257777904644499484e-02,1.166568059881012247e-02,5.529082160452801487e-04,7.439810359411693158e-04,3.134527690380097507e-03,5.358206475140885050e-02,3.278567086459974189e-02,4.419966658802478715e-02,1.098154206537332728e-01
3.413588087818082185e-03,2.531200712181221057e-02,8.561285950243949575e-03,4.987416165142997092e-04,3.672475375964181360e-04,8.477274390637518781e-05,8.396270127282359774e-02,4.311319864490487791e-02,4.197877608491082380e-02,1.174985610279082188e-01
2.785542978659818342e-03,1.556957186028311291e-02,6.493165252268546725e-03,4.706144253713173296e-04,4.797158620857167478e-04,7.427318442620881381e-04,1.050778686963771830e-01,4.746946837342051750e-02,2.873289585766379203e-02,9.160863366825425236e-02
1.060663789135568406e-03,4.955011143681303451e-03,6.375109240397563298e-03,4.454388874386848614e-04,6.282088313386382291e-04,3.170911000077498119e-03,1.629559951228565784e-01,5.204352882687743320e-02,1.913227378873091911e-02,6.355053638526884929e-02
3.046795881244585588e-04,3.553324409022697722e-03,6.450636700300553701e-03,4.115424906401917078e-04,2.568726708595487425e-04,9.032464961228491365e-03,2.358236512872524671e-01,5.703786871591680352e-02,1.950740839821205400e-02,5.851530825170917632e-02
3.438500401673378086e-04,5.072512899253023115e-03,5.611213521405137260e-03,3.798353576326752353e-04,7.379445541315464831e-05,1.337667070532707649e-02,2.539042611765598423e-01,5.022127421048130924e-02,2.309843429523080610e-02,5.834186972558197404e-02
7.974697809991616957e-05,9.102861473971458721e-05,3.694225080615465458e-03,3.559425895241808704e-04,1.669448649386439071e-04,1.570879567006951139e-02,1.912242917533308328e-01,2.524994041307276893e-02,2.476298434051867753e-02,3.429922925012307555e-02
9.252724714546372523e-04,5.116406219779535275e-03,5.578591825276846576e-04,3.346427197891229028e-04,2.198293272295475753e-04,1.632018835794951661e-02,9.473607248754334353e-02,4.688928557529778614e-03,2.729672272653385287e-02,4.159432148605798907e-03
2.301244945754911050e-03,8.673332848012265187e-03,2.371303299849168884e-03,3.132925028409982863e-04,9.234654704205531742e-05,1.536957837822858913e-02,9.224089142321856977e-03,2.398445808574268048e-02,2.980188769362086473e-02,2.541040442219451301e-02
1.845970060804992281e-03,1.507168861213573942e-02,2.330089662764742425e-03,2.945906593724556262e-04,5.762057628993137802e-05,1.456717221949218460e-02,7.437028578324553219e-02,3.367450645430979800e-02,2.434477820480012919e-02,2.148553149747656904e-02
1.532067116450561671e-03,2.287939412687738788e-02,7.469129152137615139e-05,2.793838429719160306e-04,3.531417125050963717e-05,1.451674708465720137e-02,1.693972554569005418e-01,4.141128586091801650e-02,1.065650538962909129e-02,8.108895971555930837e-03
5.707325410565109759e-03,2.234238499787388060e-02,8.761906919111145560e-04,2.652808061783561220e-04,2.879444813922793305e-04,1.227774756476376905e-02,2.444782948231846720e-01,4.490683630148093602e-02,8.105534163870336747e-04,4.109230139873758583e-03
7.611828831377278823e-03,1.327922387177392881e-02,6.595912765146166043e-04,2.520309690152832001e-04,1.097216492842492111e-04,6.932013014139446448e-03,2.624488857911636552e-01,3.828256737617001526e-02,1.860013717666508457e-03,1.315196271446568768e-02
6.567131290660640011e-03,1.265181861326544407e-02,5.739432485816736706e-03,2.423202899794185943e-04,7.041698936883706347e-04,3.511952406099136132e-03,2.282807756231693963e-01,2.550705445677198258e-02,5.982626250728803607e-03,1.472042337926664050e-02
4.166225753945144994e-03,3.184153215498846529e-02,1.725939556806172989e-02,2.349598178719709655e-04,1.242118536684084064e-03,5.656935440558686842e-03,1.662019589033091327e-01,1.594942915550423210e-02,4.726319289371637422e-03,8.622762708451688768e-03
1.836852790223364321e-03,5.691448575866080856e-02,2.670349264741157108e-02,2.241711241818159319e-04,6.388077643012121882e-04,9.506767840990084165e-03,9.029401788742885682e-02,1.161643519295289459e-02,5.609225206577757306e-04,5.254469682408785189e-03
3.845783088964392464e-04,6.529051552432819927e-02,2.702406783109451843e-02,2.119787364216748704e-04,3.958860963077338391e-04,1.053885293177124829e-02,2.457224658823318683e-02,6.885553976897891559e-03,3.060817705468809637e-03,1.032408817134867519e-02
3.077382178030910360e-03,5.327208065923992597e-02,2.112792632996019632e-02,2.095202608007548932e-04,4.345279587072262183e-04,1.081917285769752775e-02,5.283111636776902098e-03,1.424400944636763054e-03,1.009588714765687241e-02,1.244347996179138820e-02
5.969234993308160896e-03,3.395115966128831736e-02,1.493527315832798505e-02,2.116405796527947301e-04,5.228639472066297931e-04,1.376461481610698374e-02,3.228297630129654816e-02,9.184523869711877161e-03,2.118095955876913780e-02,8.359367180706027758e-04
7.709924300947350317e-03,1.659871288397037070e-02,8.831852148518384502e-03,1.937282354051783411e-04,1.048268602438706546e-03,1.692518290050753008e-02,5.550996619465559112e-02,1.034585974624400648e-02,2.617198787989446704e-02,2.215662627260156503e-02
7.612606149237422827e-03,1.852385090861721371e-03,9.166479901527144116e-04,1.654460049801007786e-04,4.382941936590497222e-04,1.577074086476829701e-02,3.615198357475108565e-02,4.615184830670110427e-03,1.719984854079443376e-02,3.219757712367613683e-02
6.667460596120076098e-03,9.222551693719402074e-03,6.541286821192759948e-03,1.787805757269300710e-04,4.266229663413009603e-04,1.099219890194271139e-02,6.066404729829350667e-03,1.534078854607223881e-03,9.904793946381366780e-04,2.392745605695756339e-02
5.572190943632981952e-03,1.429883097029037084e-02,9.304169648597562098e-03,2.137319586214410610e-04,6.388742164831783844e-04,6.970460972610107407e-03,2.749040001661140833e-02,2.007162508982467120e-03,8.844914203423369023e-03,8.343308406430171437e-03
3.151067808815702798e-03,1.525304911621886729e-02,7.355236973953591627e-03,1.580876882594809351e-04,4.304493849965769481e-04,5.102985208270670661e-03,1.850689361699537142e-02,4.615275626458461341e-04,6.724845369723751742e-03,2.108329157449054594e-03
1.315156560557508882e-03,1.579564564396747361e-02,4.852488094477877198e-03,5.092293558857754251e-05,3.779515917174642659e-04,2.545044490261163909e-03,1.916619596212323917e-03,4.177796416433620340e-03,5.186380038017610744e-04,8.366629936272599807e-03
5.553272960274444753e-03,1.586740189755143915e-02,5.136653820578260428e-03,1.350360572306599891e-04,4.993938507357780420e-04,3.282177825756921012e-03,3.864033013248469386e-03,1.958402274546813468e-02,1.201662428101621903e-03,2.229765847564886896e-02
6.336987378777142986e-03,1.371970530540119956e-02,8.181596903598780182e-03,3.422421932881070171e-04,5.526152477587045102e-04,1.123991912741987252e-02,1.118090076690780518e-02,3.479060291904037538e-02,8.270217223869153964e-03,5.003882606712659054e-02
3.247180753902405900e-03,1.011817514067863376e-02,1.136792335586665412e-02,1.093986162770177651e-04,5.169080286686717710e-04,1.706672816220073871e-02,5.033524591827836375e-02,3.689004534343362507e-02,1.685321674885019438e-02,7.705295818264867869e-02
1.246162141936749557e-03,6.861369161276035036e-03,1.153256185992595356e-02,6.864979470804986579e-04,4.848164672845575122e-04,1.644014896075614296e-02,7.659329769429844281e-02,2.835108719360885515e-02,1.048681130838519972e-02,7.639053700673265057e-02
4.635022537497761504e-03,5.651030742388511371e-03,8.586050187271128745e-03,1.175533577088361996e-03,4.753398583961562633e-04,8.526124320148636276e-03,2.215621494013386011e-02,2.283350891057872242e-02,8.977643233282832716e-03,3.990631142070384663e-02
5.914352989090830397e-03,9.540891482680866759e-03,6.752207298306392262e-03,7.192644088356343500e-04,4.859134558010867961e-04,2.029800912273829402e-03,1.180355760474074700e-01,2.605046354173735923e-02,2.497016365098627885e-02,5.402464503856737633e-03
5.097163117001965449e-03,1.825399836464220923e-02,8.672971824246453881e-03,4.421378999058461832e-05,4.912356220124283485e-04,7.375526346716884674e-03,2.463580913871327993e-01,2.983233636133393249e-02,2.707352918110464760e-02,2.398594887209494486e-02
2.857860029064771684e-03,2.268427255603741935e-02,1.017573510340315929e-02,2.453259766116499619e-04,4.059194408588484245e-04,2.943416788230396666e-03,2.659316491660416171e-01,2.557611020538021890e-02,2.054679569470548375e-02,9.144560622586284104e-03
5.105294425967047463e-04,1.413203918818757218e-02,6.137600466996083297e-03,7.393547985787086226e-06,2.748786988891638739e-04,7.978873550698675071e-03,1.941329647121484703e-01,1.591088494445488249e-02,1.426355956521572869e-02,1.833410221314580452e-02
8.760186559078014887e-04,2.132991508650988396e-03,6.369330542600893773e-04,1.061505800737411079e-04,3.287859527233983866e-04,1.779868611413238863e-02,1.366478620079716044e-01,9.057306012590048139e-03,9.655632121429714304e-03,4.114492006149766956e-02
1.214329046385538742e-03,1.286524231102000211e-02,2.616036844189951853e-03,2.686151879731217708e-05,4.939298238346984246e-04,2.257770535203634799e-02,1.629340961217641270e-01,5.834091361464247005e-03,3.971352363893839582e-03,5.778873664356164175e-02
7.440187243852984262e-04,1.344409186203750911e-02,1.908066805644577455e-03,2.680926779466418561e-06,2.162921903133550904e-04,2.404731206087393214e-02,2.365913720346315974e-01,8.939230707525431738e-04,3.449496920721397374e-03,6.837733866986171749e-02
2.408765975633454337e-04,8.824897389402813763e-03,7.414067444331673765e-03,5.644030377053866612e-05,6.138981704072865716e-04,2.354848109649764973e-02,2.741110958570832645e-01,1.323759378817187214e-02,1.136618109290041950e-02,6.849135914160539573e-02
5.888541193863423753e-04,3.098158230032207420e-03,9.270467308173119952e-03,9.191075707903212117e-05,1.132964369372739403e-03,1.835994249746349116e-02,2.435635848960271133e-01,2.293851255589018229e-02,1.840675562119788167e-02,6.062962100644564423e-02
8.603464034886328105e-04,2.470380588337543065e-03,7.942841800018392642e-03,8.365989259811189868e-05,7.259991586170860042e-04,7.496794622761883062e-03,1.811853332585076637e-01,2.405096701037582468e-02,2.250740496435503848e-02,5.629213927891695002e-02
3.087678403629686482e-03,5.991249548931563973e-03,5.817629714852980138e-03,8.365608438680002443e-05,1.904198420965941914e-05,2.685773601102423719e-03,1.349078541586363755e-01,2.186988932744659067e-02,2.256301463734574839e-02,6.063073407068228504e-02
3.578536836470471230e-03,7.062902251273345255e-03,4.424858229843676473e-03,1.016569693078162804e-04,1.718704151885205194e-04,4.783273536970264472e-03,1.195462534786462666e-01,2.043965675347523062e-02,2.201256350786879104e-02,6.512305753248803786e-02
1.555740083676453471e-03,8.809763459738875410e-03,4.435880607568818725e-03,1.132191311924182721e-04,4.891503568877873662e-05,1.027713091110136990e-03,1.107190978591305053e-01,1.164376020956979507e-02,2.544485302314326500e-02,6.043139632887213619e-02
1.239119417801741452e-03,1.375927652134666807e-02,5.190855296559993871e-03,1.132956771520502852e-04,2.295548249346357158e-04,1.525855676932527400e-03,6.583932166313910539e-02,1.031795528856919129e-02,2.946167621490649105e-02,4.779171834504106903e-02
3.059297543102255327e-03,2.015497824357097290e-02,4.895046106785098244e-03,1.131481507333878566e-04,2.625081215381897784e-04,1.045878468479664175e-02,3.166611648894917391e-02,3.348165178261563318e-02,2.380482686928046127e-02,3.118527580227485260e-02
3.904274648454328540e-03,2.396651615946285632e-02,3.114997186501133539e-03,1.152157791374931034e-04,1.464163090359757533e-04,1.968828746327875787e-02,1.343815214415917947e-01,4.217052024093415064e-02,5.798949447752104781e-03,6.659602035959524997e-03
4.681605045759181308e-03,2.340573577352614634e-02,1.701952072300456269e-03,1.142562206139707479e-04,1.405058880151580000e-05,2.038972614193380190e-02,1.547311359692422617e-01,3.831984663874067609e-02,1.328256211980069317e-02,3.014543297536270358e-02
5.630322112926797358e-03,2.079287035414542975e-02,2.084444331550545666e-03,1.091270642610632681e-04,2.329015589334225878e-04,1.581202324500708550e-02,5.418593288966705446e-02,3.464998053832531871e-02,2.164454924790693360e-02,7.273194004930723378e-02
5.570942372331582834e-03,1.954065484789345095e-02,3.316394522366043068e-03,1.023945625092709429e-04,9.949907905607848716e-04,1.503305360836069103e-02,9.780016806768815352e-02,3.433940557571689423e-02,2.022878284616080533e-02,1.113586966908016451e-01
2.660689716528603314e-03,2.007951928430913233e-02,3.775740776464941040e-03,9.481003508130584321e-05,1.452428988857010564e-03,1.811065948215391519e-02,1.868192533252520937e-01,3.131676006335901152e-02,1.697820851042939130e-02,1.434618568667759553e-01
3.135632267203432300e-03,2.035589147937895763e-02,3.305011251542143945e-03,8.542139154847855700e-05,9.669222936486136137e-04,1.685208917686708413e-02,1.720695540651759892e-01,2.476442546238094219e-02,1.435413006211663789e-02,1.653085883310216331e-01
8.586578654080530282e-03,1.915090144453785240e-02,2.739316644476429575e-03,7.415447853005657189e-05,1.572241445840037027e-04,8.624318981832870823e-03,1.051825515382025789e-01,2.024898222524944280e-02,9.420057738707994857e-03,1.652436570413553518e-01
1.000138945560582159e-02,1.710093180803475346e-02,2.450477078665348057e-03,6.178602440200349694e-05,8.936751579784073176e-05,4.312222551231800543e-04,4.362885777446727509e-02,1.898468889334894300e-02,1.882961401495325104e-03,1.380344700600134589e-01
7.288033490799468092e-03,1.570735360336819597e-02,2.243378560605448213e-03,4.872913428960488154e-05,1.074521885784547322e-04,1.619426087437622012e-03,1.370792293504242629e-03,1.594770000815520089e-02,5.144599735070939581e-03,9.592260046095699155e-02
3.473208682638868373e-03,1.583550141608044970e-02,1.964503447245434953e-03,3.502222110005031436e-05,1.410056452356467957e-04,3.497742925029022863e-04,2.307405832700680504e-02,8.366864399579622760e-03,1.093086548637776413e-02,5.674664339544938096e-02
1.035292353456452197e-03,1.555189909617442877e-02,1.573194567944691258e-03,2.088383794279954537e-05,4.368537948644032469e-05,2.832104471391955636e-03,3.456383662626556774e-02,4.299604500605830500e-04,1.820762632682550175e-02,3.135437647753819279e-02
4.685522555378580272e-04,1.105170799082489178e-02,1.118226250192521590e-03,6.715956091410055229e-06,1.030447512180717145e-04,1.154509168105096774e-02,5.765685017598837225e-02,6.204403798408954229e-03,2.807056575495799067e-02,2.664715279843918316e-02
1.029628464700867944e-03,2.500671685598674070e-03,8.977715148617837482e-04,7.155535290028775658e-06,2.841263878806894782e-05,2.208301380100020223e-02,1.127471938772749704e-01,8.601356477073213505e-03,3.625202293107634977e-02,4.475326613060595649e-02
1.220942927189315160e-03,4.206844254422839949e-03,9.299847661515915154e-04,2.049657355500710944e-05,1.485043490811792594e-04,2.778457714992210031e-02,1.799509039166036495e-01,9.655096562042121341e-03,3.491937171529658351e-02,7.141600146479222533e-02
2.506613041424109948e-05,5.229966287191231689e-03,1.850778831549882851e-04,3.307408376074553406e-05,4.247026934714158712e-04,2.600191659754639770e-02,2.254983553954728881e-01,1.057695835624551661e-02,1.909413337527082755e-02,8.160600574326788703e-02
1.891179576056715994e-03,4.204623190293625690e-03,2.397846324595099415e-03,4.465368023537365195e-05,2.927543628172146360e-04,2.007009491421925598e-02,2.518750634233720698e-01,1.177594615381160476e-02,6.895402787711128224e-03,6.604621773201273249e-02
2.882319676380209160e-03,5.689365206853895171e-03,5.728110298963009529e-03,5.500482606427791181e-05,4.019605510591719067e-04,1.427464333595272576e-02,2.826663553025331455e-01,1.365075688039626804e-02,3.086290502330107585e-02,3.933507907540917392e-02
3.004415873631592279e-03,7.717457546481863717e-03,7.047609155069074587e-03,6.391332777417381992e-05,8.786320084028341601e-04,8.790028473563978040e-03,3.031927485239752640e-01,1.513739347626925219e-02,4.285980943487305989e-02,1.912321588299586983e-02
2.975164287315617672e-03,5.704621821350445987e-03,5.405085949370148045e-03,7.128200516808700011e-05,4.557581506181336431e-04,2.711244553955973781e-03,2.604699326459891107e-01,1.352325729176191531e-02,4.227780554087999521e-02,1.211628373031773190e-02
2.420888204816902534e-03,2.626580131817974825e-04,2.892202462994424017e-03,7.712417901495538161e-05,4.587730725988106370e-04,1.653927561863129721e-03,1.393485545028173012e-01,8.229698463236902531e-03,3.458901149380754630e-02,1.824367734691744597e-02
7.828255327141681475e-04,3.700417152418071336e-03,1.717481624614019230e-03,8.131258465478724020e-05,9.237667859629327760e-04,3.494349042691769717e-03,5.271769779377249304e-03,3.182828167736234150e-03,2.531144362943239454e-02,3.133130214073048814e-02
1.153723435379502144e-03,3.800865830063230449e-03,1.979217696823560354e-03,8.359004565080246495e-05,5.042717288123953461e-04,8.220898551138226124e-03,5.678620469638436669e-02,3.033030461986593439e-03,1.904428020584792228e-02,3.800201761398980943e-02
2.351807987148843166e-03,2.076479510477402535e-03,2.661330801158206995e-03,8.413050784038707535e-05,3.590771769237432521e-04,1.938948443216268955e-02,2.814040760334030750e-02,8.150119865759267168e-03,1.979114713942653134e-02,2.913758707250851260e-02
3.169582201459902795e-03,8.959975954204661263e-04,2.960684201108536393e-03,8.353283109654877168e-05,7.321205735792263823e-04,2.980602089194222398e-02,3.904386462955451720e-02,1.491217432478566737e-02,2.774728898428159563e-02,9.619845405022548618e-03
4.476184242790516229e-03,3.135655726346811794e-04,2.612201996435964749e-03,8.160968988530423586e-05,2.194774823591556692e-04,2.951575930228977213e-02,8.645541217967106506e-02,1.949578187677238755e-02,3.742202293830152598e-02,9.140414574631534547e-03
5.826019703537596225e-03,4.707950558676672441e-04,2.062874771832957487e-03,7.736238784902392963e-05,5.051425883101426633e-04,1.923944255761044289e-02,9.699459420312349367e-02,2.017658131685759124e-02,4.222361880532763539e-02,2.004997366599017838e-02
5.817139630318220178e-03,1.470316402546818085e-03,1.984837122220065378e-03,7.156249420641049930e-05,6.834687592670632937e-04,7.542289956510862467e-03,8.392777319912698986e-02,1.762322504478589305e-02,4.011136635385709887e-02,2.104435644877673817e-02
3.935299084325741444e-03,2.313387670999770586e-03,2.291234678998512429e-03,6.686206985518727917e-05,4.531761884316572262e-04,1.383184235226612904e-03,5.625012746140809622e-02,1.459758881838474180e-02,3.342813408020236382e-02,1.256578863221096722e-02
9.980910481818432763e-04,2.980827911274939318e-03,2.323512982536296047e-03,6.226722472696883716e-05,3.282966163338108673e-04,8.011929018331642727e-03,1.056539584884889742e-02,1.433462343492536428e-02,2.494277519037645455e-02,1.776987455659225466e-03
1.885720257077411460e-03,3.637748733366989208e-03,2.050317633965195296e-03,5.274252144487979251e-05,3.795194459190428843e-04,9.373504153897552205e-03,4.558103207988990074e-02,1.754256981177590782e-02,1.532735143241053047e-02,1.481279161234209593e-02
3.801324706007372378e-03,4.286793312667837481e-03,2.212927629637261549e-03,4.098676187569019145e-05,3.844355935333636535e-04,1.711656797083664465e-03,8.021174710792983165e-02,2.143110154735953024e-02,3.978960511791695964e-03,1.890515305773854057e-02
3.910114006909026427e-03,4.840463291815172431e-03,2.986753797027639611e-03,3.856677757941487491e-05,2.855068866011115786e-04,9.832578016617262925e-03,6.497499207895070239e-02,2.276118088855093660e-02,7.972705747197241649e-03,1.191910245115613588e-02
1.969414436227736719e-03,5.288710829120195529e-03,3.413414134475410006e-03,4.077865910103673023e-05,1.945638706784021251e-04,1.447930946073107752e-02,1.395349824300065947e-02,2.104492255358606997e-02,1.677390591677056786e-02,5.928235962228229836e-04
9.999460824161468617e-04,5.671901384365660853e-03,2.835192849982463154e-03,2.355077775850602923e-05,1.824554300439434494e-04,9.191043616598415858e-03,2.755943810400491786e-02,1.805576318824455434e-02,1.990649022231552601e-02,5.762128817965827057e-03
3.135044268223162456e-03,5.993254200791575149e-03,1.953330196494042041e-03,2.968220974392881699e-06,1.837102452977366733e-04,1.032255488626064241e-03,3.527235155768717462e-02,1.570744081418501414e-02,1.921419124504335565e-02,6.085412763522302787e-03
3.054946128378401883e-03,6.220563939964934147e-03,1.642832063883162535e-03,1.359023396627823136e-05,7.876176355377706353e-05,3.567459531600667821e-03,2.328727334003074384e-02,1.520215418809003211e-02,1.778899936827478198e-02,7.915460768501048419e-03
8.895738962172621347e-04,6.346130407040948863e-03,1.714154304476608057e-03,5.355481544228441165e-05,7.017020892790895039e-05,5.374506020931534532e-03,1.081683390578770838e-02,1.673353265664572626e-02,1.595738986073064886e-02,1.710800454302217888e-02
1.906262163943417366e-03,6.408600771461528747e-03,1.620604932987216879e-03,4.999211679118726959e-06,1.475267596711513801e-05,7.937668287900663533e-03,3.924763114281284472e-03,1.918302250982890228e-02,1.313191179935026959e-02,3.216836223842355069e-02
3.856143176295868339e-03,6.425590247115709960e-03,1.416839692635312202e-03,9.279235662274839668e-05,1.676877812213103751e-04,1.146700592844639849e-02,1.240599954113488085e-02,2.057670921833075137e-02,1.094492957734797579e-02,4.705411202055768266e-02
4.745099620322526003e-03,6.334891053143077225e-03,1.312474413057976817e-03,3.096645354893391179e-06,8.728576261823748272e-05,1.258761929389897241e-02,4.506734378114188311e-02,1.900335590925932711e-02,1.116582834601822539e-02,5.499947748335455577e-02
5.641988900512925204e-03,6.108574235667497965e-03,1.103151975835339315e-03,2.245191843560483136e-04,8.972541953761062426e-04,8.192169403901541566e-03,7.713439605878569250e-02,1.392946827649407630e-02,1.258428924230383869e-02,5.281132173374045863e-02
7.397437189092025654e-03,5.886029650818413138e-03,7.464223462683507474e-04,8.294008012563569527e-06,1.390751632841373672e-03,1.292883667605783469e-03,6.497729489537862335e-02,7.464337550302859413e-03,1.285151708723054724e-02,4.401481285594200515e-02
9.032717282997456201e-03,5.746918138768633035e-03,7.900503146707167157e-04,7.687015038166523494e-04,9.312723493646547432e-04,1.164279830748157774e-02,9.129886839685640715e-03,2.816030096161848198e-03,1.177501518926275630e-02,3.417054903587161269e-02
8.396966453441786354e-03,5.415952803315903299e-03,1.412536118919199401e-03,1.236752167394380292e-03,1.573902396776805709e-04,1.765519340723022482e-02,4.305749594048708523e-02,4.768066923607765413e-04,1.070939415798810579e-02,2.481233323918030295e-02
5.018149908012458152e-03,4.726665291652544683e-03,1.755546665720937984e-03,7.576839186788220234e-04,6.218065483523408320e-05,1.705565840812707512e-02,6.717181151657354576e-02,2.312131534609130658e-03,1.016890283404272774e-02,1.629793343581500270e-02
1.331781994377018640e-03,4.319065381347884230e-03,1.158179386363798660e-03,3.007493578433314402e-05,1.493542686386949278e-04,1.221804030206590473e-02,7.562401311052625863e-02,7.767253097631856597e-03,9.679209721416446796e-03,1.140825884111336744e-02
9.237624982713778894e-05,4.887733278156266258e-03,2.558314419812727993e-04,2.565616251081078401e-04,2.296178888388506595e-04,8.078197239705273494e-03,6.107447850302222259e-02,1.463772645157323908e-02,9.003560412548289663e-03,1.112100327185228631e-02
1.305330863866248879e-03,5.695189397467900413e-03,6.888282785543338406e-05,4.466432129963372689e-05,1.110571352912804885e-04,7.895660094258880740e-03,6.623395789851868609e-03,1.920860375066284209e-02,8.352802092205385137e-03,1.189808771627160269e-02
2.593473347662197427e-03,5.243280460038827681e-03,6.420722627410670093e-05,4.265089220251359724e-05,3.695378457922929966e-05,1.033032096921493274e-02,4.166937040530469677e-02,1.905253486940513413e-02,7.836631172759884675e-03,1.074154979524800935e-02
2.013724458016692871e-03,3.539559941042326810e-03,8.715223831298274599e-05,6.257276397512952009e-05,4.722301514552180470e-05,1.092676098248897797e-02,3.359310425569437229e-03,1.592668317183792981e-02,7.356076565986684190e-03,9.461632956095897967e-03
1.997318126754102862e-04,2.097759789247527831e-03,6.918630359622779955e-05,1.172584071228908141e-04,3.083592615015801487e-05,7.469370577363292074e-03,1.170402710808798041e-01,1.384918777402453088e-02,6.857343632439657187e-03,1.217855700362497490e-02
2.278673500995810532e-03,1.674299223834698576e-03,1.596839542638807874e-04,8.199559151604614965e-05,3.097525186161407125e-05,2.844976128233726084e-03,2.151605058454992558e-01,1.401565420491906327e-02,6.381252707099214702e-03,2.043547290638998010e-02
2.720002955679172094e-03,1.595014991902497488e-03,1.451741257657976542e-04,6.862184570177212695e-05,8.498707059902969234e-05,7.295205828252669927e-04,2.056798513628924074e-01,1.316395751649198850e-02,5.946235997431958444e-03,3.211702650205591064e-02
1.568233688331123693e-03,1.229828498665699529e-03,1.397952983283453840e-04,9.675948696875352913e-05,1.201530065868772293e-04,5.627605671617228996e-04,1.007156559106316407e-01,7.601414662407338096e-03,5.532870235987362960e-03,4.480937221476079951e-02
1.258679492196671077e-04,7.468080495561548165e-04,1.649136331216027092e-04,1.140320191969512070e-04,1.595649087395702257e-04,2.381178951122535619e-04,2.627278471628004264e-02,1.419526049374586832e-03,5.136436393523132783e-03,5.696287977007118836e-02
6.159107056782507552e-04,4.414132144250528921e-04,1.693561588310322119e-04,1.103242178121778766e-04,2.069452940115304180e-04,2.292932431356068182e-03,1.038145918215643143e-01,6.982304495499097423e-03,4.755564330243850814e-03,6.316646071069574597e-02
8.747461364518821589e-04,2.683231689883894700e-04,1.447819468625970586e-04,1.097816194575676094e-04,2.498936156633982473e-04,5.965996906367948029e-03,9.898919000472991558e-02,3.480487368453617433e-03,4.371608247796048355e-03,5.408276108959011313e-02
1.064767694756957360e-03,7.736880136233062824e-05,1.176160676114149681e-04,1.172205575579028073e-04,2.850145635545813026e-04,1.249779214200698318e-02,3.723065675372436850e-02,5.503404790006249589e-03,3.995189621631912297e-03,2.910858469554054861e-02
6.750726724931195447e-04,1.522664332951498365e-04,9.495424115166516436e-05,1.212222378484104811e-04,3.165367103581896626e-04,1.971764398881659108e-02,1.230388527918142676e-02,1.073190237111663545e-02,3.668968471641408102e-03,4.327459834754606230e-03
9.544630542288710809e-04,3.182172384084546325e-04,6.758982941609589638e-05,1.192677789445802870e-04,3.445740821882659565e-04,2.214141783374383443e-02,3.899476819582521452e-03,9.251038390688786500e-03,3.357364659765571004e-03,3.183366441157221838e-03
3.374283493818742031e-03,3.211841411432040782e-04,3.509092749987729369e-05,1.165996800506606269e-04,3.661045698007423053e-04,1.890042414282476144e-02,7.319580857119258044e-02,6.644501353328354995e-03,2.957759652004733099e-03,4.040691422272518936e-03
5.423062535604045685e-03,2.777442047232467261e-04,4.615350350187292952e-06,1.144403293073642232e-04,3.804989349125517282e-04,1.556092334362487936e-02,1.302163798337207801e-01,6.796016786536275556e-03,2.541898061269879262e-03,9.903305779870408970e-03
6.424738603166450963e-03,4.341078158617077106e-04,2.048463337551047539e-05,1.103816723170543906e-04,3.882068041683231214e-04,1.499705442832804936e-02,1.214419777788674770e-01,6.821088075821653100e-03,2.329160126038107292e-03,7.635734024316735181e-03
6.496770156961509564e-03,6.066894044096361955e-04,4.033162007274990473e-05,1.039058271253803556e-04,3.881589467358905767e-04,1.322993369995145371e-02,5.720641492508942577e-02,3.764028190069964534e-03,2.167455734430085747e-03,4.074224070867596068e-03
6.058072916275901790e-03,2.659170813818477214e-04,5.420159517994225552e-05,9.626801532922944315e-05,3.803814174307756034e-04,7.852439575508214989e-03,9.708170913760721943e-04,4.131539146531595062e-04,1.580410157654159016e-03,3.598473172894962706e-03
5.221050592185022890e-03,2.126348743761230032e-04,6.070076859333816929e-05,8.790684600024950459e-05,3.673213392761154913e-04,3.438355787248246771e-03,6.507716563198969427e-03,2.916258064407561447e-03,8.837830657722769122e-04,1.593884265818278252e-03
3.657135385403872604e-03,3.734772818688377209e-04,5.782789724862017643e-05,7.846308373180122084e-05,3.483252542355594404e-04,3.615156725349415526e-03,2.413934017692141373e-02,4.193690018455324860e-03,1.133495465249284399e-03,4.456262442669021995e-03
1.277966228090421288e-03,1.221388576397985665e-03,4.286558348168526038e-05,6.798707827550291231e-05,3.186740513227893533e-04,4.215022909062227097e-03,3.786358979140504871e-02,5.726965456371813264e-03,1.652142314991600401e-03,8.766361885016085015e-03
1.181819574673457010e-03,1.194662534853672183e-03,1.669673986481522382e-05,5.693842233623024718e-05,2.813437254833449819e-04,2.986359918290370889e-04,9.380549264679009791e-03,7.969675821961582848e-03,5.073626143911947380e-04,6.437701049828744096e-03
2.618501301128862372e-03,7.898210103569589663e-03,1.579999578738411546e-05,4.561354225185792967e-05,2.483945128059669412e-04,5.172012676327083884e-03,4.213976730414888822e-02,1.215420034242657536e-02,5.974466134223372325e-03,1.189172637398593600e-03
2.457619247595952284e-03,1.358444913412099400e-02,5.695714531452610865e-05,3.413128552092493251e-05,2.158261228793350065e-04,5.440032912939782826e-03,8.927700392628301618e-02,1.868368312916014046e-02,1.017923094444411931e-02,6.459510840463428792e-04
1.156388259445665853e-03,1.238156582445244444e-02,1.174559719983633409e-04,2.269283351868230331e-05,1.603403575876979231e-04,8.901761661545327421e-04,1.137987791044883651e-01,2.159300776508851077e-02,8.804337049312539049e-03,9.722790569036158723e-04
1.026553580530868530e-04,5.792782130289577530e-03,1.914778224993285297e-04,1.158352026691490291e-05,9.290539747767519619e-05,9.054494300052087080e-03,9.814918008395059901e-02,1.216658900502344716e-02,3.908173399717537744e-03,8.560497352730436250e-04
