6.930862783021771167e-02,2.270822493897619448e-03,9.304635270187754884e-04,7.430413694981876651e-05,1.983342389110943904e-03,4.777831865107437688e-04,2.818410956497442374e-03,2.418583399870039181e-03,1.234788939265085532e-02,9.379092187553281505e-05
1.224353852356559191e-01,3.499557429296702282e-03,8.962591158807142570e-04,4.724353406649504987e-05,1.714558466272382824e-03,8.326908582455968492e-04,2.918893342961106224e-03,2.357407596246956227e-02,1.574661038828097451e-02,2.812824442882341271e-04
1.224554158613595234e-01,1.735223655616022556e-03,8.432090567171965151e-04,2.801830096839318085e-05,1.096411040577135228e-03,7.658202499265850255e-05,7.885013204743645393e-03,3.020236694630190621e-02,2.029002724154447407e-02,4.358144044801475349e-04
1.460794293067660399e-01,4.456191990781381389e-03,7.698281849750260352e-04,8.971218040994278760e-05,4.018797613758240471e-04,2.194516033314648003e-03,1.406505267423764638e-02,2.828412228853090585e-02,1.970678280201941177e-02,5.550661092285171828e-04
2.149304610755447265e-01,1.112878606162966307e-02,6.828205157528336681e-04,3.265513775569927886e-04,6.800914346332435575e-06,3.317240641183622635e-03,1.972439384308436253e-02,2.425787768484502158e-02,1.193565170766685071e-02,6.377654980488161544e-04
2.566779384215520099e-01,1.269441463603242920e-02,5.852579156415531900e-04,1.213614725691788764e-04,2.844670102845580891e-04,1.953368222165793172e-03,2.123408190819284572e-02,1.074580389846575487e-02,3.194490124492592800e-03,6.836908049473880769e-04
2.134833104206678156e-01,5.788540765633887024e-03,4.766643772439125562e-04,6.380065182383953294e-04,1.039306561391206999e-03,4.234993907473506326e-04,1.809776996471072069e-02,1.289405210855913177e-02,1.060572547491679457e-03,6.936501913487958318e-04
1.169171984801791048e-01,2.441127250013302129e-03,3.584990773827970265e-04,1.087057786641422571e-03,1.374491286115435851e-03,1.575283661623016595e-03,1.232780271888313066e-02,3.495963391874318260e-02,3.068183083945991586e-03,6.695197133162595054e-04
3.429346125474564549e-02,5.235109927020555748e-03,2.345541669431992727e-04,6.121170362750870137e-04,7.847261065556897491e-04,1.422589750770986324e-03,5.665352891962439907e-03,4.636115149181957440e-02,7.037680156839394921e-03,6.142468359510281674e-04
6.221754965707940177e-03,3.830154538099997830e-03,1.083036534135748980e-04,1.582088450265332989e-04,6.997766407210216926e-05,1.290343767344416959e-03,3.995236438961026048e-04,4.347921371898817028e-02,1.248827639405861514e-02,5.316464111730442735e-04
2.028733915492835632e-02,2.549878280178818728e-03,1.834952651351366552e-05,4.061066009853862846e-04,3.772116169719096686e-04,1.650774464029195095e-03,2.449170213696838950e-04,2.276636755579466986e-02,1.659723299201967817e-02,4.261857355843521504e-04
3.647602400967890623e-02,2.410604621303524906e-03,1.439500799782741415e-04,2.346873401140325572e-04,2.673920610612812252e-04,1.986251560192739060e-03,4.396341063091402553e-03,9.797549889768749146e-03,1.814767417106354086e-02,3.031383729118031049e-04
7.632799541593092429e-02,1.861028988226703842e-03,2.649657882896174280e-04,9.500022934158717613e-05,2.732496859721269601e-04,2.041564204682117661e-03,1.055495858258994127e-02,3.313978972411831675e-02,1.693106110858680347e-02,1.687034758286618734e-04
1.427307279077874025e-01,5.306260471207055289e-04,3.763056504381847136e-04,9.441049153276415617e-05,4.554633722842634479e-04,2.159165049063988765e-03,1.380730271608747277e-02,3.145122111265238884e-02,1.297544318315593456e-02,2.927759726156528943e-05
2.151999442485133529e-01,2.042156372643931603e-04,4.769138437691304447e-04,2.329947918727406778e-04,5.817774520257276228e-04,2.543984539897347751e-03,1.301399472155925253e-02,1.086319927424481309e-02,7.270807502157052710e-03,1.092711783941782727e-04
2.585480676908818443e-01,2.554783454731109028e-05,5.699529927609256388e-04,4.035390499754461582e-04,6.132918348112757377e-04,2.762254113429963784e-03,9.591599311083470747e-03,1.344436175531908521e-02,1.630713575661563554e-03,2.405572997783105677e-04
2.405024851810683151e-01,1.289565408676195644e-03,6.510681966525782086e-04,1.551378117259196506e-04,6.540425426696223161e-04,2.237296727175784160e-03,5.662594331532639844e-03,3.306238514056973610e-02,1.465281063094793631e-03,3.566168011389599969e-04
1.590052429762416342e-01,5.933632184112165933e-03,7.074183595705716907e-04,6.151866940552151979e-04,7.209325814722716743e-04,1.101004173482239036e-03,3.659408943047259052e-03,4.381116532914091505e-02,4.115720415086848586e-04,4.506435469171206701e-04
6.046431866328575572e-02,1.169508588628940735e-02,7.428520660007462183e-04,1.089496316846665352e-03,7.632347782061705155e-04,2.268678081494791214e-04,4.815815636348037831e-03,4.239834612841898720e-02,6.585479052505101814e-03,5.198573635814752363e-04
1.325585793411055389e-03,1.485605769259722674e-02,7.809682250233900523e-04,6.390718639962416920e-04,7.706203836853744516e-04,3.913621800860931439e-04,7.709198020996443738e-03,2.948657140641290988e-02,1.268408999071132283e-02,5.602540312041546502e-04
3.872923257360267463e-02,1.609682588425667693e-02,8.115385786360837040e-04,1.224959587989544552e-04,7.654545086038324914e-04,1.516948642791000283e-03,1.016854620957497943e-02,7.814869645172813073e-03,1.594931361684985560e-02,5.608369433852540250e-04
1.147447598715121142e-01,1.876934550067085872e-02,7.825411754479006613e-04,3.307687669145457053e-04,7.521536937434317128e-04,2.753384655193440080e-03,1.142070345296597803e-02,1.814663938073621252e-02,1.831679966148615571e-02,5.151356932478661291e-04
2.361671162397864510e-01,2.202153479972803612e-02,7.144143399411557582e-04,9.794909303146914553e-05,7.201908966582467849e-04,3.422024803685233454e-03,1.129281682395483037e-02,3.736379684777425825e-02,2.140477474424619386e-02,4.342347130981824219e-04
3.251590461980068403e-01,2.167074360152557166e-02,7.202358074418074851e-04,1.477884598624144803e-05,6.678498075381439749e-04,3.656723922531876590e-03,9.802082242967913306e-03,4.049498209084492761e-02,2.264375687415329935e-02,3.228648997764950283e-04
3.203598963349161277e-01,1.747072318465475727e-02,7.622299661153465874e-04,6.644912380943794898e-05,6.010987119328604260e-04,3.646830833595388673e-03,7.986444333106751045e-03,3.345121557258731032e-02,2.004489336060491511e-02,1.512397885271599151e-04
2.427549948373981248e-01,1.344566315719082639e-02,5.993281076673695864e-04,1.003591819283538032e-04,5.224304925787334958e-04,2.907256667818942063e-03,6.556148523366027089e-03,2.644919687773837624e-02,1.662039635684323460e-02,9.440833352099274633e-05
1.462787448836757598e-01,1.146292276853001953e-02,3.018179887511728021e-04,4.573759029013733956e-05,4.312167490601129271e-04,1.373825673327387078e-03,4.609681023831990222e-03,1.628063440457648559e-02,1.626708406847049426e-02,3.502232925516433220e-04
6.863702724543759015e-02,9.858099464192797423e-03,4.352320653791170199e-04,1.451104470994100441e-05,3.288883267447931138e-04,4.571557755376768261e-04,2.138982304640386911e-03,3.417508091309350363e-04,1.868046433583947508e-02,5.809944661305605157e-04
3.973435496300643799e-02,7.916554243247820449e-03,1.125198629421538107e-03,2.788847717731177800e-05,2.187719314075894385e-04,1.404247030954039856e-03,1.662266842431564962e-03,7.204397244787154493e-03,2.105884057619228020e-02,9.146683686786903243e-04
7.308609458712070350e-02,6.897971346061480824e-03,1.504658137717921132e-03,3.398651203806691775e-05,1.035914979734826717e-04,3.032620808964229565e-03,4.876909051543544191e-03,1.269421249086261777e-02,2.179271333303425817e-02,1.419164332747180606e-03
1.345279473815275961e-01,6.640737232392506136e-03,9.381700880997226105e-04,2.266786504377203473e-05,1.456502476252371722e-05,2.900681557385263384e-03,1.001156026677531459e-02,4.732106703235688244e-02,2.092376996395274233e-02,1.806579189243123990e-03
1.671254586010136600e-01,5.504540748767954364e-03,6.678100334516943407e-05,1.873883065768387131e-05,1.331617296318728994e-04,7.035395127829700444e-04,1.431256482517702898e-02,6.836988744827150744e-02,1.973013418713472078e-02,1.895570556915889340e-03
1.555461628660708695e-01,4.316277574382535766e-03,2.371047704910771343e-04,2.714509922893202561e-05,2.492759675970883100e-04,1.412972055081120407e-03,1.691064980350455091e-02,6.803194374919328824e-02,2.062678620136242438e-02,2.310151157154731374e-03
1.332421164341623665e-01,6.393776673905023251e-03,9.391284077252311387e-05,3.547169331620933432e-05,3.601988941775806081e-04,2.153886151605556055e-03,1.845261100362495868e-02,6.198572932967644916e-02,2.511826423871623554e-02,3.728723703794175476e-03
1.297524976885188197e-01,1.249926347645991150e-02,6.419925912182611447e-05,4.165390645795729490e-05,4.635064026236816043e-04,2.590757741352562194e-03,2.001497312535040554e-02,6.069878747016557025e-02,3.137805504687672664e-02,5.396383137423989111e-03
1.400665578235798514e-01,1.890836327131866640e-02,2.141880454312643310e-04,5.321988822836774889e-05,5.568688359983826842e-04,3.808503247617380134e-03,2.205982040856335064e-02,5.730157167449310279e-02,3.549859095173244633e-02,5.796673781067753460e-03
1.399657520070824168e-01,2.125147598946031113e-02,2.997940363048102151e-04,6.999793135767583784e-05,6.381011103854756844e-04,5.017577527290909348e-03,2.266177780515505127e-02,4.225747003404283636e-02,3.496352061192137262e-02,4.921183232258615099e-03
1.106407557797516317e-01,1.811999325473157355e-02,2.801602426597454886e-04,8.399754648977247754e-05,7.053316334945996732e-04,4.967469901053827436e-03,1.844729707221535314e-02,1.643132783743221637e-02,2.965229103573900973e-02,4.269746065706246478e-03
5.603826151023930113e-02,1.151386394945911294e-02,2.652559752797607534e-04,9.671510534123893088e-05,7.570517196066601888e-04,3.924386808649405443e-03,9.479775308813187876e-03,8.545993035238976659e-03,2.134674043627316636e-02,4.581217798286395596e-03
7.583621166301113964e-03,5.749842621212106729e-03,2.750187406853535745e-04,1.202249783028916516e-04,7.920977955863509924e-04,3.069274485157503021e-03,1.031819733285461657e-03,1.606685199613177781e-02,1.455461278787100778e-02,5.161963506038072004e-03
1.877440418125257693e-04,4.439844823026642580e-03,2.596953731678280182e-04,1.494721301425422724e-04,8.096771284124174928e-04,2.443004968822416311e-03,2.173271823530859015e-03,2.338624793083041165e-03,1.444484137608176462e-02,5.373760706203452482e-03
3.433448284905660230e-02,6.659319598623848757e-03,2.086022376758478675e-04,1.591863214594520378e-04,8.094127490949182789e-04,9.437713885515231372e-04,1.423540295017651633e-03,3.436430488753801360e-02,2.037674195472171171e-02,5.385190140795767175e-03
7.261045286033374069e-02,7.840318689575870997e-03,1.417414426103082647e-04,1.586963952894972880e-04,7.913545216587121846e-04,1.439411469560706106e-03,8.317585986073227147e-04,5.667688579513103370e-02,2.513657361175065594e-02,5.473326567464490908e-03
7.930687663862612258e-02,5.752407018576770510e-03,6.793850518204493137e-05,1.999633145556992738e-04,7.559664704939664378e-04,3.097824798092891577e-03,9.173362670597605233e-04,6.025316400824824031e-02,2.345512446410500523e-02,5.561266424820797936e-03
4.901971168076160734e-02,3.291023500706907051e-03,1.098185061207278791e-05,2.627698310396996118e-04,7.041150858892643999e-04,3.142528516237535693e-03,8.236414285229234824e-04,5.484158792267972149e-02,1.685505508890304191e-02,5.513554044691746335e-03
5.805201355314278285e-03,3.972304457187125250e-03,1.001552068703210501e-04,2.345054166536221995e-04,6.370543923267693413e-04,2.679831785899439850e-03,4.408238639244907095e-03,4.870579879968272435e-02,8.637446496168276616e-03,5.360084565839639235e-03
6.984530798842403243e-02,7.196659221354824443e-03,2.158905928142182548e-04,1.539104683144684445e-04,5.563966364593218947e-04,3.003391080111184400e-03,6.610356385417730241e-03,3.892264251512533163e-02,8.322697305800010742e-05,5.162800314796036835e-03
1.210371001294647114e-01,9.883414964438921174e-03,3.440785218683707234e-04,2.635204286570206299e-04,4.640710113214762365e-04,3.637827969935292401e-03,5.535389518765149695e-03,2.222323895070306768e-02,7.657873312632264631e-03,4.908161888086477916e-03
1.422652416757297644e-01,1.045101844586261708e-02,4.320033054332088123e-04,4.948561922930332828e-04,3.622767341235779261e-04,3.013131738858215985e-03,2.488008528236757173e-03,1.037957042079504320e-03,1.103296947595848627e-02,4.566218051546649254e-03
1.479999927928587478e-01,8.715494231877748618e-03,4.968018684064203980e-04,2.844552839170110762e-04,2.534313105634470090e-04,6.110435475013286950e-04,9.738133991114283905e-04,2.227772510916834620e-02,1.047556086105835838e-02,4.143680032849130813e-03
1.694454763000164954e-01,4.309412723438819579e-03,6.455509823991014643e-04,4.909715044498178405e-04,1.401128337390889606e-04,2.680744268890645089e-03,4.692406219772885315e-03,4.521841726536542788e-02,1.064691348828449534e-02,3.660994017813772039e-03
2.027610083750649717e-01,1.360749612250117648e-03,8.351928321972842918e-04,9.617539109308677163e-04,2.499680406667307550e-05,6.402158042958276500e-03,8.238518429397691245e-03,6.005355994635731831e-02,1.347615437166313664e-02,3.122749817611295692e-03
2.097985431024778080e-01,3.998423250235178146e-03,8.208582437331783275e-04,4.896673772026131650e-04,8.921019557271958047e-05,1.090324345207576741e-02,1.070773432695343828e-02,6.171947904770673510e-02,1.430275445411918755e-02,2.518833947230418504e-03
1.844302430709412466e-01,1.258467656679167733e-03,6.678890401421099746e-04,2.870019659645872885e-04,1.998358284666228190e-04,1.523239000481212482e-02,1.233212521168363524e-02,5.790884023620325449e-02,9.684492675894818686e-03,1.847099848919400321e-03
1.679361132824611080e-01,3.416062542839298777e-03,9.343652066965155243e-04,4.985336881132604965e-04,3.043044442920485510e-04,1.695594011779033919e-02,1.332286902212662279e-02,5.656495608485433146e-02,4.643725262139720977e-03,1.132463768287587198e-03
1.761430179805458796e-01,5.007480777439230098e-03,1.739898036362390451e-03,2.681530175991286759e-04,4.002008100362561944e-04,1.531686918338606013e-02,1.202567334425287161e-02,4.982270224962344340e-02,6.555905382011582849e-03,3.976053787243161077e-04
1.703705545895320139e-01,2.450120305126273716e-03,2.216244739819779250e-03,1.592431214804883137e-04,4.853353444082270768e-04,1.236348739211892700e-02,7.700727072225878149e-03,2.859845067610132519e-02,1.527130359108003904e-02,3.888484700731836808e-04
1.307464831963467411e-01,2.304187513783537925e-03,1.724632464452671233e-03,2.402465353056184932e-04,5.577970472046279689e-04,9.733560461142676604e-03,3.939906758322727492e-03,4.131131775184037312e-03,2.436472053905098037e-02,1.260669026491805780e-03
9.727170054928557796e-02,7.687868718789274240e-03,8.935958966035491757e-04,2.686310874697488073e-04,6.159883084764692339e-04,6.580525408209048424e-03,5.763794872442332823e-03,5.252761673301903703e-03,2.968872257440208565e-02,2.138050000988188544e-03
1.036786807753136003e-01,1.281036971481298165e-02,5.885095203357622968e-04,2.055764225497549091e-04,6.586667616824293942e-04,2.009265854023111440e-03,1.384042189829057419e-02,3.144336521885260881e-04,3.249488080088586833e-02,2.930851571664609256e-03
1.281053752896529341e-01,1.669189634038006215e-02,7.031314293837174524e-04,1.635393036120439878e-04,6.850036826031600861e-04,2.648128721848057917e-03,2.392311748924714696e-02,9.028801193814333867e-03,3.557569371194532065e-02,3.791223223501533936e-03
1.440311177398702069e-01,1.920094829699496228e-02,6.819211571281940743e-04,1.627746366365479739e-04,6.946021682979392799e-04,5.559427063889683072e-03,3.094359004590460649e-02,2.034105348711532507e-02,4.000631774316195516e-02,4.907198939593040293e-03
1.639540756054591042e-01,2.157173998201424719e-02,4.203894894293033085e-04,1.515365443489796770e-04,6.874505814288174588e-04,6.490705677470657090e-03,3.132404946995924477e-02,4.080351837823875671e-02,4.545670704292685549e-02,5.969363948191116868e-03
1.924990002114732035e-01,2.448803967297030759e-02,1.451902212204306025e-04,1.203227024656736062e-04,6.639298914351419089e-04,5.760266191872108477e-03,2.334684631419861947e-02,6.248748161789318550e-02,5.068564909712698630e-02,6.502732476172575111e-03
1.875111399509152010e-01,2.638361915719898698e-02,2.473533869801188359e-05,9.385821066648444171e-05,6.249291670315402711e-04,3.084357237577592826e-03,9.452370127800167887e-03,6.666980966806421161e-02,5.316576755316530789e-02,6.631249445988312771e-03
1.171622537542192227e-01,2.534032288764114307e-02,1.605885130327386887e-04,7.749113060083940880e-05,5.718167967421840031e-04,1.086462290362513175e-03,3.420649654878475665e-03,4.987128459789692131e-02,5.057925017854883465e-02,6.118043791487545735e-03
1.866304961188357259e-02,2.253049469607039390e-02,4.458504064484720151e-04,6.027346357111291027e-05,5.061452507089097413e-04,4.913047947508045361e-03,1.011140199044850349e-02,2.840819598432095874e-02,4.404343957862698333e-02,3.230928062840758303e-03
4.913028370671525952e-02,2.157373396282896011e-02,9.129697267039978874e-04,4.008451881028426842e-05,4.296263350865759008e-04,7.033975903108648231e-03,1.132394865427716404e-02,1.506368082563872002e-02,3.884540912473279095e-02,2.665103096099067769e-03
8.369904680703184330e-02,2.350739079885840258e-02,1.196184663826136297e-03,2.248248007005172429e-05,3.446537067659500675e-04,7.662964546655868549e-03,7.940280406289927997e-03,7.005042830306569546e-03,4.020941152517262807e-02,8.464994253443127586e-03
1.206175698731713347e-01,2.505143357587950176e-02,1.119208803679077073e-03,8.915199929322048549e-06,2.542356472839949659e-04,7.415063523098393110e-03,2.626851347250445771e-03,1.290629535440702795e-03,4.797155531357491509e-02,1.123679100532436193e-02
1.565403017198048197e-01,2.422023990425205622e-02,1.440245449787470227e-03,2.895541846532942145e-06,1.607205005714583813e-04,6.373423294421761733e-03,1.889593880544385845e-02,6.156460310357647452e-03,5.735545945704631499e-02,1.286129813125414315e-02
1.431230512598697380e-01,2.393997117583368528e-02,2.630237235429158486e-03,1.343654552087830876e-05,6.573059145874874049e-05,4.547734212574510403e-03,3.158628976252205595e-02,8.058733711386167203e-04,6.520409012492056622e-02,1.613413889617467539e-02
6.559312133819096557e-02,2.529782554890538243e-02,2.954721636694048609e-03,2.152088300261057865e-05,2.730917646488867346e-05,2.438970479523443462e-03,3.464735451278102424e-02,2.057232257594029251e-02,7.072112625607815395e-02,1.910230765474274159e-02
1.140018763484335756e-02,2.196217013527335810e-02,2.038009299447678861e-04,2.687550306839164106e-05,1.131665664523290738e-04,7.099855349481629151e-04,3.315012780040064999e-02,4.002382041354197312e-02,6.860255718692846727e-02,1.809279217982993557e-02
1.270433750308177200e-02,9.417244475566596482e-03,4.374047549861584047e-03,3.011794638638547072e-05,1.904101991852675787e-04,7.439593285256746380e-04,3.316372219441728747e-02,4.203757818697024390e-02,5.040690966732837286e-02,1.344701105040362055e-02
4.777072755470741783e-02,4.876919569277906458e-03,6.794138801784843293e-03,3.154253151092413087e-05,2.617750194117906496e-04,2.830288787336457564e-03,3.112563821669014907e-02,2.576210571248152212e-02,1.878606481134395198e-02,8.262447022960320298e-03
9.260745365996859990e-02,1.053839196120132278e-02,5.315796121288168113e-03,3.111202932540861377e-05,3.223995459273945054e-04,5.793308962471563003e-03,2.168983689363707806e-02,7.361840141442894427e-03,9.092816773431393676e-03,3.837037027761102184e-03
1.022946589244787818e-01,8.750796357467879871e-03,2.181127425395600408e-03,2.901843074447948883e-05,3.589339188225601105e-04,8.323162472582346788e-03,9.827970807860486949e-03,4.623924238192364880e-03,2.049561481378492020e-02,7.332329973530672153e-04
1.281764985398139434e-01,6.979826807913388706e-03,5.838498718725186262e-04,2.568423079165623292e-05,3.748190049021857305e-04,8.832018041665442437e-03,4.459645969701518664e-03,1.923154209827054525e-02,2.041947764650534070e-02,5.829051889985932197e-03
1.745301643993630858e-01,4.470090514895682862e-03,1.435897520340752688e-03,2.149017564535003991e-05,3.930141764175960417e-04,7.143561511477933453e-03,3.195628256319145433e-03,3.937923843874363561e-02,1.819777956046991080e-02,1.059721227416403171e-02
1.701089554916111468e-01,5.143426340462103376e-03,2.603422450893800363e-03,1.675968330458480279e-05,4.022216906396743259e-04,4.560543172798837107e-03,4.292646753795173638e-03,4.695682401421583801e-02,1.158717213132415269e-02,1.512157840292232408e-02
8.462504015330943319e-02,2.042468410214114821e-02,1.354405008472578473e-03,1.186952581072921729e-05,3.497669305383941133e-04,2.887458549748115819e-03,1.687556948670808007e-02,2.629849752446070110e-02,4.764467200725870481e-03,2.086519782157611122e-02
2.028725333708751577e-02,3.234490400305167074e-02,1.963142677842501932e-03,7.241450081378908024e-06,2.563504367399556936e-04,3.502577272990080835e-03,1.916624430541125773e-02,1.143489859924299787e-02,2.246770848777648877e-02,2.712718316135213567e-02
7.870818570502872979e-02,3.618331850056526883e-02,4.370697669498834620e-03,3.280347238419934585e-06,2.344359479692264062e-04,6.426403450000935623e-03,3.960610159056298339e-03,4.012714199465775011e-02,2.431100073603360487e-02,2.972112183044355038e-02
7.826656976505391716e-02,3.524102702993973935e-02,4.710501070142225112e-03,3.662557102048556075e-07,2.436948641067615963e-04,9.944767935278304646e-03,1.406238208393920282e-02,4.559751993141231835e-02,6.180088275982346599e-03,2.621262438882704035e-02
2.996247930749989380e-02,3.443568019663335866e-02,4.841601718178207073e-03,1.144369225112228547e-06,4.243588952408757669e-05,1.190956230404135313e-02,1.596327402173728857e-02,3.438158440663268561e-02,1.632869220277536476e-02,1.975318623253094832e-02
4.071238343344923960e-02,3.531245001688871482e-02,5.958601265540375280e-03,9.401816160911950920e-07,2.953231722229577964e-04,1.158006514200899881e-02,6.628255113211921172e-04,2.366058704339582541e-02,2.781777795425539879e-02,1.441776808473445304e-02
8.382004799043324406e-02,3.495104832458549582e-02,6.628081664856125092e-03,1.255268106257792573e-06,2.041296990506116641e-04,9.612922714086735362e-03,1.874823906472880553e-02,2.367611790537592006e-02,3.107960810471363522e-02,9.853465540613816354e-03
7.294997052748845856e-02,2.800234702092222611e-02,5.310421463816090634e-03,5.703249675400107631e-06,4.324125458598707247e-04,6.829826554190666227e-03,3.061988536726321236e-02,2.516366948687114719e-02,3.721052335476528888e-02,4.374258441758384873e-03
4.358250299004405581e-02,1.395116495327110816e-02,2.763038094889414247e-03,1.258065486595478629e-05,7.461974357891326291e-04,4.034290203606265800e-03,2.969674243166105232e-02,9.282070152402286875e-03,4.575051561215070367e-02,3.163758106442684332e-04
4.343274419455520063e-02,1.508815758073682976e-03,8.522151169826989439e-04,2.191119943877829816e-05,1.208209253159957399e-04,2.095164984793911403e-03,1.911461615208622303e-02,2.731346520510030684e-02,4.658268951570640470e-02,1.215442540360487430e-03
7.755896004764353813e-02,3.262283090361302578e-04,7.530886919640108405e-05,3.370227759883149865e-05,8.002408002356441565e-04,1.020124186061838103e-03,1.317839859669369708e-02,6.730888279977093047e-02,3.648374279729357100e-02,5.259656001048744131e-03
1.182167778270316189e-01,6.216128306482316540e-03,4.253375350818819301e-04,4.808198830074283443e-05,1.185110721681907663e-03,2.271151404237725007e-04,2.388808994509988154e-02,9.260842103547357873e-02,2.159711492509882105e-02,7.474529193053618820e-03
1.265173305289103434e-01,1.208267977536127934e-02,6.187927616318041274e-04,6.499641474176714670e-05,1.160013466044868165e-03,5.299163313642481742e-04,4.075077711116491253e-02,9.605086923583588954e-02,6.661740018106782762e-03,8.118487299193183002e-03
6.975410953908536826e-02,1.470063627588923463e-02,1.035627190977609063e-03,8.390442460093782589e-05,1.198132554339824667e-03,3.667921529993726192e-03,3.890785537359202351e-02,7.679358683963459498e-02,7.269034959898505038e-03,1.185691228123060895e-02
3.170729797607056005e-02,1.815313102839589965e-02,4.930055290813554689e-03,1.044195330171622857e-04,1.349387088742146296e-03,9.088319120229147036e-03,1.076957873292244683e-02,4.230793424090802807e-02,1.666074736896583364e-02,1.777103813944181862e-02
9.226491316132147402e-02,2.272630867355393894e-02,8.083826369981384624e-03,1.269851992452437624e-04,1.556326123988450820e-03,1.392133711352702176e-02,2.364783444142647822e-02,1.266051441255287499e-02,1.664641918475175467e-02,1.871949602372057278e-02
5.204538604950445513e-02,2.561624478019244519e-02,6.549123522762914131e-03,1.515323403693566266e-04,1.827025169997572576e-03,1.661855502146333471e-02,4.136987954997622258e-02,3.398806353481280580e-03,7.469462712089110397e-03,1.285030615851943253e-02
4.019898175628872083e-02,2.990380664456167986e-02,4.588156622234522398e-04,1.760185705566594619e-04,1.840274658570871915e-03,1.736177627509521981e-02,4.015294197763506767e-02,6.011361573220019849e-03,6.124819332286415494e-03,6.614258013863592162e-03
8.624838256322649166e-02,3.857479208597703463e-02,4.896895659850264773e-03,1.992786946727980433e-04,1.212220816653943869e-03,1.502141689576148506e-02,3.278210257021415414e-02,3.399723988681088716e-03,1.948020988331609915e-02,3.613722186144266435e-03
5.373222149706208262e-02,4.159177683652438146e-02,4.379176399651172648e-03,2.242438868597486173e-04,1.856505427806580790e-04,8.093884732877521665e-03,2.862599140034705059e-02,2.085999918940030680e-03,2.777153906854326268e-02,3.010878156701406010e-05
1.345376248038540785e-02,2.679770769034536468e-02,1.563599882844773567e-03,2.519663659637622847e-04,6.480032748577115378e-04,1.175328765124134629e-03,2.988478816918982428e-02,2.812837111703598517e-03,2.588793918395443025e-02,5.851331444035064340e-03
6.488673913596409992e-02,2.483800422275472819e-03,8.169343702560463716e-03,2.746196639336573818e-04,9.524765178275158449e-04,8.091514370654417920e-03,3.701173498818203372e-02,1.545081797967102523e-02,1.494776127152307003e-02,9.103292378416213970e-03
7.563172105627627428e-02,1.104711710515169677e-02,1.164987614306509447e-02,2.881103232033732490e-04,5.158270773126256547e-04,1.107525141507180629e-02,4.625172316337988754e-02,2.326768126760663663e-02,5.144721363564324149e-03,6.601623489375422170e-03
4.309164140624669598e-02,1.088397141420506878e-02,1.142623832180889552e-02,3.073903682141260153e-04,5.174104545377249988e-04,1.197950001237523161e-02,4.918985743838912711e-02,2.787903119130176466e-02,4.611077960040598986e-03,1.825349118168839713e-03
7.821198742694844552e-04,1.066177587151708947e-02,9.082259168018035761e-03,3.399571534478608610e-04,1.207832994424993351e-03,1.152875824662677635e-02,4.475516891467527097e-02,3.896064029106801468e-02,8.805804983163405264e-03,1.693903814641785528e-03
3.231961866653617135e-03,1.296497789847771490e-02,7.264584745218481687e-03,3.524881551593169035e-04,1.087853322646574342e-03,8.571761300634962027e-03,4.232747090111721455e-02,5.030402513772973955e-02,8.768968968877520129e-03,4.818034900027474976e-03
5.170385536231509455e-02,7.277094780226573030e-03,7.771213419436341467e-03,3.265987464385734329e-04,1.116185229450088493e-03,3.679856792807409578e-03,4.392281066949587504e-02,4.456922447770052947e-02,5.216783496716745003e-03,8.580009181605677965e-03
7.360286164278831422e-02,4.549025777335740858e-03,9.344402563700249589e-03,3.317180845243782169e-04,1.503467196934832025e-03,3.771547514058093604e-04,3.553544126015782678e-02,1.965459309563059517e-02,4.953755399324116966e-03,1.152479564798690459e-02
2.283676652461614706e-02,4.733206949394344609e-03,9.216334707669021978e-03,4.080857745729991447e-04,5.013546697865349077e-04,2.159678125897150289e-03,6.878746790467024121e-03,6.572737857199389966e-03,7.730225170976660204e-03,1.349737930606863777e-02
4.727026090683200676e-02,1.590741335007479773e-02,6.606730201513686708e-03,4.053298368950533745e-04,2.418747761311570814e-03,9.018211067318116295e-03,3.223255182414319631e-02,1.587220229133768507e-02,8.294944977036221301e-03,1.713153705897968448e-02
6.419723660779845520e-02,4.867112601058202342e-02,2.315685148708993089e-03,2.214888444381355099e-04,4.816227514581911985e-03,1.696472471953756542e-02,6.607423457193506433e-02,3.784803719186134903e-03,9.995663810190229259e-03,2.214455689846599878e-02
3.975172777210489450e-02,8.120749414464355220e-02,3.359814001894400031e-03,2.057875057992720135e-04,4.701121926293372680e-03,2.128345365390840044e-02,9.068922575409944786e-02,1.956971295693495441e-02,2.230784087400493679e-02,2.196595340528790380e-02
3.678738114174692070e-02,1.037936236990547878e-01,9.262356147329925404e-03,8.697730466335356920e-04,2.936327534865386217e-03,2.027384324513940503e-02,1.052758254628790857e-01,3.526354752619749455e-02,4.136496631174233635e-02,1.158254455439423902e-02
6.982430022183552798e-02,1.064035167699350221e-01,1.257453918766551770e-02,2.098104382848439524e-03,1.177523739741918743e-03,1.527971365118309041e-02,1.008470222121115312e-01,3.021012714174631936e-02,4.995141281457788490e-02,3.278330481521135771e-03
9.022840698093645417e-02,8.829115069924249604e-02,1.260221743050535421e-02,3.069056203341785378e-03,1.465741503081797038e-04,8.074439562365288980e-03,7.457935166888467193e-02,1.113057604876395261e-02,4.610423650144285235e-02,1.120577698680076846e-02
5.563658487676710618e-02,6.662339255956321871e-02,1.245211105148617131e-02,3.036099095052776416e-03,9.223204979147401109e-05,3.086879167160921228e-05,4.431974337526597973e-02,4.817237241949394802e-03,5.135296578535841067e-02,8.683958504704412246e-03
1.946242039765413989e-02,5.928379127788201142e-02,1.423498467515062552e-02,1.999442476497424129e-03,5.973556173241747862e-04,7.078716460429094678e-03,3.130496917025366033e-02,1.391860847778750646e-02,7.543631042278539645e-02,3.031165909069976142e-03
8.348789715201039574e-02,6.324451919217816132e-02,1.582933251626111176e-02,7.060068774034978546e-04,4.672135395157481176e-04,1.189955764520076592e-02,3.471859916719924333e-02,2.670532507607454448e-02,9.503535487042999441e-02,2.176037396648160087e-03
1.033573409276692806e-01,6.405021785093270581e-02,1.475075731607939332e-02,2.207026855028857470e-05,5.908187067995832780e-04,1.480673331495628922e-02,3.661877881097858750e-02,4.497250306742864301e-02,8.712871236535456310e-02,6.444460037470681885e-03
9.348052693112088307e-02,5.987749662971351278e-02,1.202718220664742918e-02,6.896992537977429650e-05,1.446687207840966763e-03,1.680890727388190120e-02,2.672700505162060869e-02,5.710730970539656948e-02,6.235066174083695595e-02,1.116078141739482166e-02
8.936813480593147618e-02,6.031754265868843889e-02,9.885126116030269749e-03,5.407072632339129914e-05,1.580998528016710992e-03,1.785067594430739951e-02,1.130609699423081559e-02,5.910272811850026536e-02,4.456207983321437693e-02,1.321827041083014319e-02
1.006801264238747079e-01,6.711331207544277144e-02,8.272795614861013988e-03,2.154725292064844336e-06,1.699255017526680837e-03,1.715688841434445666e-02,1.794619027139461153e-03,5.954635806539872872e-02,3.619150383198656978e-02,1.261970827895626986e-02
1.043624517546593716e-01,7.051240231220820553e-02,6.371501201057241937e-03,1.354531495405549393e-04,1.803839887949582142e-03,1.435272434063950692e-02,2.829470943537523014e-03,6.024167533854800360e-02,2.406256773985562120e-02,1.026965901000466592e-02
8.180504628635852649e-02,6.210014803625624885e-02,5.539668149603062773e-03,1.947661341837369825e-04,1.015606129310946126e-03,1.039689359364129838e-02,7.915177727343881975e-03,5.289383989456798024e-02,5.669039748539899184e-03,7.529241867974365010e-03
4.582418527239567885e-02,4.416068129258773900e-02,7.240386760859266781e-03,2.203099219151736176e-04,1.685669015125355061e-04,8.286661338709507343e-03,4.359379179496158420e-03,3.737633156578724219e-02,7.991202785523073004e-03,6.453351749407768012e-03
2.882400789631566970e-02,2.706668471398906983e-02,9.142402490970100506e-03,2.827146596393816818e-04,4.451734089785875021e-05,1.047213286709306607e-02,1.309910384596287697e-02,2.390986409331870982e-02,1.026435832934798065e-02,7.930159244323546630e-03
5.183440204114341671e-02,1.661201299190638234e-02,7.517993948013245754e-03,3.636525176038479194e-04,1.685637993211653793e-03,1.376411337885796379e-02,3.655468242182482314e-02,1.766236591414113016e-02,8.739538655352620949e-03,1.058894999299860550e-02
1.001436553799597978e-01,6.526591837756223757e-03,3.428683648680063735e-03,4.274614179431843121e-04,2.372508929291384898e-03,1.077554488804647465e-02,5.483837316060869577e-02,1.541615943314121953e-02,1.496600942642683368e-02,1.234471593470782939e-02
1.280888503591998961e-01,7.268539944118457968e-03,2.096417859159061762e-03,4.819334659848253607e-04,5.691178880608558158e-04,9.950816816624414272e-04,5.869365829196655088e-02,1.167192498144258364e-02,2.712737255457352628e-02,1.207581189565061497e-02
1.033411354962568418e-01,1.074561751024701375e-02,5.333265818906311913e-03,5.477485132831227390e-04,2.355374392350092008e-03,1.577983378063453623e-02,3.827379323525059024e-02,1.060014166860160419e-03,3.037602075990419523e-02,1.025184322174211085e-02
4.949254276232589039e-02,1.172595729494745748e-02,8.817893183778723401e-03,6.212886352592178474e-04,4.107600375978281808e-03,2.686424306007996823e-02,4.893430048722366248e-03,1.324358628907337972e-02,1.752812577200219685e-02,8.189161079129482837e-03
2.590747835505110772e-02,4.844276053237790008e-02,8.489577245487670010e-03,6.836758747922834414e-04,4.188883128126029767e-03,3.243697188289544620e-02,4.628853092135491731e-02,1.371301213878893706e-02,2.347117481014144441e-04,6.853094014955590264e-03
5.950374561573904680e-02,6.849701748948541780e-02,5.663514436007091243e-03,7.360163118747427551e-04,3.809953957309750172e-03,3.333353125829150582e-02,6.121933006189363147e-02,1.041512988805752202e-02,5.996370179772039267e-03,8.141813555264366953e-03
1.114673790141510884e-01,5.808344002630599912e-02,3.296532729106810972e-03,8.063611610947173320e-04,3.772530763057501367e-03,3.020975182000673262e-02,5.465969089840279349e-02,3.919264876034119632e-02,1.346510427802894002e-03,1.479869912673112756e-02
1.157146773485512731e-01,3.182152638211309392e-02,1.058075422426421434e-03,8.957261729580906755e-04,3.512195926676253167e-03,2.448367362387300974e-02,4.783792456958956690e-02,3.964061054790780914e-02,1.480066367334446041e-02,2.479050397117828555e-02
4.027568610257074855e-02,9.769081020697522461e-03,2.286518930049610213e-03,9.502041263234043854e-04,2.507733823324850408e-03,1.867374994978428585e-02,4.470143265049322107e-02,4.265237979103663445e-03,2.674773265228385863e-02,3.053429636006556314e-02
8.605581195967421104e-02,2.194679707899755902e-03,5.068800963169073186e-03,9.654849421714036808e-04,1.612036567959130532e-03,1.445965559274057372e-02,3.296443659745555699e-02,4.371925037622063220e-02,3.162526581064058900e-02,2.878734823070052892e-02
1.936792541503193354e-01,9.599811258754725740e-03,5.647433939533577987e-03,1.054448754104599442e-03,1.968107845329391311e-03,1.163346538263003438e-02,9.022470257870521260e-03,7.552234691205818307e-02,2.774103827858460242e-02,2.535875049818130111e-02
2.235438693540044430e-01,1.839553616339633171e-02,6.296397114840810924e-03,1.230444189393562057e-03,3.282976051416558461e-03,8.862515298492473423e-03,1.749815568318157516e-02,7.498481735935588754e-02,2.056315320762550081e-02,2.537094215109364850e-02
1.771288696056144418e-01,2.963302159647502113e-02,9.394251518020034150e-03,1.254557233046864253e-03,4.381709686582766460e-03,4.937359517600152514e-03,3.723597325344769199e-02,4.523337846077629676e-02,1.715425588245473101e-02,2.485175999799912536e-02
1.140303336901027642e-01,4.044374981694755233e-02,1.201580980686840425e-02,1.092024567625097782e-03,4.905459374815020201e-03,1.060006675261742845e-04,4.614614564181154094e-02,9.031481258139562734e-03,1.714933688406077017e-02,1.757665953771498854e-02
8.763103726227730594e-02,4.806180887066581475e-02,9.823897376866348730e-03,1.257090481178480944e-03,5.070274939910026160e-03,3.896505069875881751e-03,4.347393840398194875e-02,9.934787346612582865e-03,1.645903334479687646e-02,6.745800663703508532e-03
9.184147552979057827e-02,5.345956350068830493e-02,4.856958502497726350e-03,1.858861650552227820e-03,4.242338251148819635e-03,6.181932243150447051e-03,3.153829526177904380e-02,1.189865082359695819e-02,1.787082878673793701e-02,2.795309094560305060e-03
8.363005195527783986e-02,6.045252554986729754e-02,3.209700076232138450e-03,1.728462800553058143e-03,1.572708320438669224e-03,7.974784246727175535e-03,1.284086002850262816e-02,1.343124369177553165e-02,2.764136474034752794e-02,8.872708039755351772e-03
4.232241132384642612e-02,7.010371586548054534e-02,5.677044053672988810e-03,6.260576758866443815e-05,1.973403067478226441e-03,1.048552634230335255e-02,1.061629162819992429e-02,1.693892021719839436e-02,4.040805702661574850e-02,1.543823261621453044e-02
1.041302171782517057e-02,7.755890535880211045e-02,7.176703006213519705e-03,1.563003414313121012e-03,4.119465600800658461e-03,1.360987866011546463e-02,3.046795148572398540e-02,9.624089565539424920e-03,3.935994683316548781e-02,1.357259674995949482e-02
3.744404105861275783e-02,7.753561658412645718e-02,5.218296464950342856e-03,1.029402229642791336e-03,4.267881820206816806e-03,1.774882913836173248e-02,3.469980750069762143e-02,7.792424765267993991e-03,1.856153261699632420e-02,8.012408707124314342e-03
2.284856988675631681e-02,7.211693772369130728e-02,2.946876276967238823e-03,1.064037460740554098e-03,4.268085343640719634e-03,2.399729971966786321e-02,2.406085838099547222e-02,1.708042246398616335e-02,4.870761826379249246e-03,9.889156605636256064e-03
1.206166819121617419e-02,6.881265763620819653e-02,3.568087450641097523e-03,2.378949737521186911e-03,5.309867366133812737e-03,3.062455322324679485e-02,1.349609349381898984e-02,1.044911605560844628e-02,1.098389960595066474e-02,1.956206666329268415e-02
3.611326838613550250e-02,7.085674408456897611e-02,6.101661106538727904e-03,2.258486471767783346e-03,5.649702538934543196e-03,3.186907970906169285e-02,1.154329936894973700e-02,2.646336463369475169e-04,6.744544217549023821e-04,2.533219915824725527e-02
5.131615614813824638e-02,7.386800438958206205e-02,7.201342344165449945e-03,1.918740962625636046e-03,3.088133023709765772e-03,2.354989322039006960e-02,1.142122734819332915e-02,1.117531797928975881e-03,1.134274928665391161e-02,1.967168914274431205e-02
7.853114271639843880e-02,7.259983053723843838e-02,5.225298401417765096e-03,2.116455698490531633e-03,1.274193718916623568e-03,9.100472131666871925e-03,7.538497766450043963e-03,5.980640047044400234e-03,1.796440223974704598e-02,8.667111522486501893e-03
1.017779626264024156e-01,6.686663944034004770e-02,1.916404572966927617e-03,2.468042323328657837e-03,3.708323468912959591e-03,3.361911321821078446e-03,6.232641033338350879e-03,1.390839497110204007e-02,2.217786991148831474e-02,2.022407396488968764e-03
7.636549123277427964e-02,5.983005956387753982e-02,1.254389409282547592e-04,2.525680467949689614e-03,2.077685445747998964e-03,9.271697839986367540e-03,1.128621756528678730e-02,1.333220180859709392e-02,2.521529194889411338e-02,2.096735510679094677e-04
6.982670359727482460e-04,5.395693679633700723e-02,7.734313666569313673e-04,2.413463501264487623e-03,2.029207939757999169e-03,9.463624750900264185e-03,1.179728952875656704e-02,3.683700621115182112e-04,2.389813398345786571e-02,5.379292528280132241e-03
8.022457691784044831e-02,5.083585690910108479e-02,2.856683581063544555e-03,2.555694221461883835e-03,5.428628494275278271e-03,6.097737959604254340e-03,2.371527681336360171e-03,1.865329999049169032e-02,1.739643189066360576e-02,1.572569117213586803e-02
1.296509182335265353e-01,5.235916363001395096e-02,4.680344916925944371e-03,3.007757057741893957e-03,6.625369818519537615e-03,1.650576780367133930e-03,2.227480911521986795e-02,2.716093200074579800e-02,9.699729693635746747e-03,2.493813001620815914e-02
1.599687736791542136e-01,5.741287909907039078e-02,4.190208388241724313e-03,3.082651570404113753e-03,6.549194199795721136e-03,4.086062564970462021e-04,3.227804762009436196e-02,2.572952028037800432e-02,6.126846911060229023e-03,2.789444855081608596e-02
1.764744337323490286e-01,5.814962832778022839e-02,8.604167522540113848e-04,2.209243352854549890e-03,6.562785114065933581e-03,9.093646839938942551e-04,3.512760947651002996e-02,2.942209618320832526e-02,9.504806339490487130e-03,2.690749151026534253e-02
1.612000048361773852e-01,4.673696775990846680e-02,2.155644345458094385e-03,1.134118036183826049e-03,6.820270453380137057e-03,1.732200435275450378e-03,4.752605223551500252e-02,4.686743638868842016e-02,1.791436154496389710e-02,2.540785703554102742e-02
1.163109809595507665e-01,2.749780566063098064e-02,1.005362412961306740e-03,1.179266485196789858e-03,6.969098292335871615e-03,1.504054107399650049e-03,7.115077438161766799e-02,6.850745312888248395e-02,2.629488145455638470e-02,2.332182569737058231e-02
7.353656119388819745e-02,1.460409793700560149e-02,3.701030088034738472e-03,2.396163658141096508e-03,7.289918601294975882e-03,6.240866469788794099e-03,8.525766016738740849e-02,7.697862853741413436e-02,3.335976410656484731e-02,2.252322878938705850e-02
5.651445949801392477e-02,1.513729758396153285e-02,7.814534744222795953e-03,3.659691205765537927e-03,7.930252207831162484e-03,6.549839408922099315e-03,7.371780019855027344e-02,6.114315839406620628e-02,4.485403044281115192e-02,2.608513556617365892e-02
6.858176293446334448e-02,2.171235089521699607e-02,9.267407601622538321e-03,4.086188488230407638e-03,7.689758971449199391e-03,1.770511394668796779e-04,4.621040223434231403e-02,2.348750091139484297e-02,6.295647061424405888e-02,2.711781889177178329e-02
9.654170747525434026e-02,2.407500558934122514e-02,9.714574522563022493e-03,3.216877069698969617e-03,5.025392566808352911e-03,9.698408982496997330e-03,2.631173090174769927e-02,1.798114358146135280e-02,7.418082190138045040e-02,1.254439184483208472e-02
1.031196607053150305e-01,2.030568293968980365e-02,1.023560527746245584e-02,7.623725354466411117e-04,1.726504437606825196e-04,1.781557790561611246e-02,2.932953933977833216e-02,3.854082806937674660e-02,6.002940611394083636e-02,1.490168349812839160e-02
5.924756708071636513e-02,1.190512192207766190e-02,7.995554043486181872e-03,2.810641917605318993e-03,4.680166528904236740e-03,2.026607302397144539e-02,5.303985419663218015e-02,2.692283812964196485e-02,2.183038860463963615e-02,3.378957176021310516e-02
2.451039369341020784e-03,5.519506909895977552e-03,2.732161228186856224e-04,6.252506432362892573e-03,7.271999395156659475e-03,1.742057064519001233e-02,7.606538912253922591e-02,1.810695324235453776e-03,1.729021209268736051e-02,3.094480012856902496e-02
1.813045464302177195e-02,3.586235475526688976e-02,1.199548250878407392e-02,8.388594220685141253e-03,7.040233384599045227e-03,1.408062139802268575e-02,6.920979181451596129e-02,2.116598813832466786e-02,3.705500248442208239e-02,1.657518284195371241e-02
2.180493821706906699e-02,6.804792914119110747e-02,1.964484237634273392e-02,8.531505193460567002e-03,5.342000836132504774e-03,1.350073579491484557e-02,2.672795349186576908e-02,2.236930680956826512e-02,3.571712986557545877e-02,5.580244326014747146e-03
6.682409297308604390e-02,8.217561913985499400e-02,1.906892076046656087e-02,6.848385276031352525e-03,3.987970524832100926e-03,1.297434317877772629e-02,2.033257122356503521e-02,1.796637953403844648e-02,2.334503502139433778e-02,1.755346106284293075e-03
7.889141897919668689e-02,7.345854692056066892e-02,1.320587394119384500e-02,4.895031340034810413e-03,3.584123197026825667e-03,9.152053777994727940e-03,3.842502967087994131e-02,1.726860947878748262e-02,1.162783807882922411e-02,1.208438746586721138e-02
6.485146605309455303e-02,5.727982736649629009e-02,6.670404723488131821e-03,4.582712000998310012e-03,3.569692235224582611e-03,3.701046163953449711e-03,2.780983613317335526e-02,1.572244209646990118e-02,8.674197520022056476e-03,2.317835232783114346e-02
3.273034018142405299e-02,4.899234015874118220e-02,1.475553324431621433e-03,6.092709277762377307e-03,3.531699292014309124e-03,3.523266198211862663e-04,1.256070299092778252e-02,7.721683321920317679e-03,1.472424824924942893e-02,2.599103457934958880e-02
4.076770982969083607e-02,4.987019113289156702e-02,1.204774947664508968e-03,7.749894041020927334e-03,3.938381827973922410e-03,2.691130403570858066e-03,1.043125355852606018e-02,8.162452434043690475e-03,2.235817327826439618e-02,1.824294092168944961e-02
1.624445814308506653e-01,5.118979219394180491e-02,8.061168795879354240e-04,7.903284656733702146e-03,5.419371388030508850e-03,3.077784954178293744e-03,2.237682111650996300e-02,3.129743617820821694e-02,2.294608041399998771e-02,7.644543672964397053e-03
2.714073111824664153e-01,4.433018400392460534e-02,5.999950011495772638e-05,6.038851328842479750e-03,7.264775480957589952e-03,6.463050313988034923e-04,3.687561118101698177e-02,5.124649518151728339e-02,1.307031976266640610e-02,1.523334198181978743e-03
2.972766028776456793e-01,3.123319738872992399e-02,2.810810521302951285e-03,2.531812290905857601e-03,7.369397618233302846e-03,2.086469258208723150e-03,3.842418396768747246e-02,5.055210610645123614e-02,2.511365797377278566e-03,3.833565383795658164e-04
2.554843435806334884e-01,2.612361337222921659e-02,8.385882524915783467e-03,1.474991243565311732e-03,4.669200868755287413e-03,5.127059695443610468e-04,2.303663520192051478e-02,2.732671305933387015e-02,1.352493058402504632e-02,5.928714348463958936e-04
2.223506962858275426e-01,3.800503963212562009e-02,1.239193741906867430e-02,4.207180929428165107e-03,1.004971886386493620e-03,4.943668633267875659e-03,6.628672849408948943e-03,6.872309291891748675e-05,1.408091773662563904e-02,2.427908594700379109e-03
2.292398468528926425e-01,5.492955084027047186e-02,1.306595429736057308e-02,4.564783179549908136e-03,4.880155453056651610e-04,8.035966413942415357e-03,8.276676501343623038e-03,1.502910546278684971e-02,1.014519757526809521e-02,1.033128110065830753e-02
2.381664991829926248e-01,5.786811242939847444e-02,1.274995953657453475e-02,3.458550477253618909e-03,1.388122648599873559e-03,4.876321220064473889e-03,2.591776511722703250e-02,1.589038066506177210e-02,1.203972741025244667e-02,1.973198348616548442e-02
2.094443909840429385e-01,4.460105882020768547e-02,1.322056687527488339e-02,2.867999778101244877e-03,4.450360550426191164e-03,1.111439122568505349e-03,3.783392625124087916e-02,7.288756659595647600e-03,1.920864470021819634e-02,2.701426012090324055e-02
1.451905120019389428e-01,2.682718553483320542e-02,1.358257018997319383e-02,3.466750848463503662e-03,4.936515950766150532e-03,4.545723220552598531e-03,2.783699827600210133e-02,5.560836709257704208e-04,1.998671120155388545e-02,3.350329126684582076e-02
7.187052930113481397e-02,1.060465020541098875e-02,1.319269386108989743e-02,4.196008622497166864e-03,1.520806213497627978e-03,5.009621482943789686e-03,1.827356032534580531e-03,1.338280366121408216e-02,1.038580535395682014e-02,3.903409559069101475e-02
1.653012694124923743e-02,5.744696070222379651e-03,1.269915789287501262e-02,4.025779920311664713e-03,2.648246198662629249e-03,6.129519717800193356e-03,1.964042180386660341e-02,4.690997781912582126e-02,2.521404986765239491e-03,3.607170034122380436e-02
2.468146631037544322e-03,1.931599283547500573e-02,1.091761104522926892e-02,2.712802691956667581e-03,3.343158786989179274e-03,9.990233072439402839e-03,2.085581355666331349e-02,6.821615603903403990e-02,4.478330347558167127e-03,1.942016844488389515e-02
7.933578531739130316e-03,2.335810860381905274e-02,4.916465081965745894e-03,2.144622169033596473e-04,3.966885460805583434e-04,1.430003016423251304e-02,5.740673375935435516e-03,4.156414070969872282e-02,4.288018698287194772e-03,2.861137406660497953e-03
1.231140556328333760e-02,1.929336777838749906e-02,4.470266947593325504e-03,2.909989430314829321e-03,2.454082410179701627e-03,1.437764088153059214e-02,5.026595980863475532e-03,2.511928690074856363e-02,1.157490160079949898e-02,1.768576317743355761e-02
9.806511020492255856e-03,1.522101913863529304e-02,1.173627108449559059e-02,5.209777547421274614e-03,2.544234197392994130e-03,7.782926656654564831e-03,4.640840087612283990e-03,8.966960719453132000e-02,3.600587187097686881e-02,2.181107913839329393e-02
2.872691129381714503e-02,1.286130451384069270e-02,1.416334696888319790e-02,6.039210568048057962e-03,6.689181181378177875e-04,3.038887314201161281e-03,2.773228268664533827e-02,1.252159745002492108e-01,5.187845375932353259e-02,2.035758393319397896e-02
4.358597131441479741e-03,7.937492394246504351e-03,1.513824607425385757e-02,6.212426194805445272e-03,1.530690171696737255e-03,1.322075539365072383e-02,4.007021920940803672e-02,1.353110686658541839e-01,5.321265870321462144e-02,1.594154336647783665e-02
6.052290410401478526e-02,1.625662179670882279e-03,1.716334834026314246e-02,5.751777480141048032e-03,3.901567639152432685e-03,1.991810400648037424e-02,2.495873146753007504e-02,1.310081198340610487e-01,4.434122154615657840e-02,7.127880524234436743e-03
1.393703551852136513e-01,1.838073543378729996e-03,1.791598902049356540e-02,3.415331803050280102e-03,6.673184560133376721e-03,2.365486107867676227e-02,9.342499793313981116e-03,1.199902096200868018e-01,2.998906274957511414e-02,6.002070570866597024e-03
2.180878570200826261e-01,5.890429310300760758e-03,1.671322509350387300e-02,8.077476400402148820e-05,8.883345340394688955e-03,2.590116045047479928e-02,3.859336822446483156e-02,1.115317553038397413e-01,1.720013891815921209e-02,1.956602194525217803e-02
2.717567389471122197e-01,1.512454500953604522e-02,1.752394192327907246e-02,1.575609736715660649e-03,9.128006217180519369e-03,2.635013376603237770e-02,4.770648571908393115e-02,1.095881533753754189e-01,1.597115513966654299e-02,2.783331530381288541e-02
2.524644545521039229e-01,2.228541932065362594e-02,2.139902635650756113e-02,1.898237655636715810e-04,7.445780064885240343e-03,2.375787900149924775e-02,4.128068469041797084e-02,1.014542585396387420e-01,2.556785275226448537e-02,2.782093557238891554e-02
1.548258142761960721e-01,1.736102293171595465e-02,2.326835537268604620e-02,8.480791111160641133e-04,5.770326245281730791e-03,1.920899529000418687e-02,3.108246229041983569e-02,7.068630486270167934e-02,2.934572594006388743e-02,2.379078092006078546e-02
4.782589975260215232e-02,4.965188894708150169e-03,1.994449335570494877e-02,7.890912671003623468e-04,5.961051016899937376e-03,1.592437773136509693e-02,2.212814397914579859e-02,2.533232675821673816e-02,1.627446744240156756e-02,2.398123163235018479e-02
1.249690426393303480e-02,2.284989540856848314e-03,1.418791554869448107e-02,3.194420614610548985e-03,7.475351524881733434e-03,1.534208680145715369e-02,1.149809156468789562e-02,3.222097180826575223e-03,3.590785233741474944e-04,2.941402959209036411e-02
5.390281301344423265e-02,3.111542272247410940e-03,8.345474622834065867e-03,3.938643263516643754e-03,8.338100245090556556e-03,1.626640165014132250e-02,4.300938057358239495e-03,1.114566743208438362e-03,9.934691026604368716e-05,3.051351464068787281e-02
1.260501895282268026e-01,6.650614384230368881e-03,1.289578830234259371e-03,3.624685922429909252e-03,8.402608370537084301e-03,1.746742074669375977e-02,2.102252538801694520e-02,1.671110362709442299e-02,1.584848753596218920e-02,2.070599997688701149e-02
2.191319012561640800e-01,1.610654247141249384e-02,6.021739142044881844e-03,3.577086342209846552e-03,8.953023252127321682e-03,1.738880695202693616e-02,2.643282162825228224e-02,1.383419525825935886e-02,2.430446839329979819e-02,8.800043623807402016e-03
2.846064173790344709e-01,2.554472143414006358e-02,8.985001574291683057e-03,2.994740784049390158e-03,8.955467842073476861e-03,1.273236658501873328e-02,1.218815398365026906e-02,6.238032680974133111e-03,1.138007739461553702e-02,9.599993740027996589e-03
2.985643448548369605e-01,3.026599824013342238e-02,6.392886315866411553e-03,8.500431713229458265e-04,5.677290627340000027e-03,2.257494063516476447e-03,1.420693546015174870e-02,1.884331247815367733e-02,1.278582123978369567e-02,2.296538763642091280e-02
2.762230697723446760e-01,3.001465403212029079e-02,3.258818527161541981e-03,1.410712251641259643e-03,2.781784484976578681e-04,9.195071178961065558e-03,3.373981344331037496e-02,1.145267105720880474e-02,2.633175811432674970e-02,2.905042305295812283e-02
2.446523692323030463e-01,2.406407902999333978e-02,3.374943096259071067e-03,1.544717352122841223e-03,4.340243448858195977e-03,1.490552303876069296e-02,3.420837881438763828e-02,8.801954623826147711e-03,1.552153830287465036e-02,9.603314063301258280e-03
2.186298517485153747e-01,1.222899049238000690e-02,4.138742692078371116e-03,1.056395025927089155e-04,3.232516625826806125e-03,1.327899624191813954e-02,2.155197712922965816e-02,3.311467186768925208e-02,1.507281611750773027e-02,2.803536316722091831e-02
2.015039989460934711e-01,4.965606936889075881e-05,2.226571262095723702e-03,1.016366837617468325e-03,1.444638976399741266e-03,7.850553264832443867e-03,1.076428457571084948e-02,5.425845393957802465e-02,4.534742691329544939e-02,5.776674647835795817e-02
1.968726871002482726e-01,4.565028420336801444e-03,5.032975328423901001e-04,4.700018590163186096e-05,5.008836382696942729e-03,2.957313530407791081e-03,8.718895654955078831e-03,5.914743517552284446e-02,5.571535711444643157e-02,6.581904561585451285e-02
1.960080668304018392e-01,6.653994209853570383e-04,6.976298467590469517e-04,1.650535412237424818e-03,3.994497763495920631e-03,1.702305399276281403e-03,1.085653193079785805e-02,3.908279978575544822e-02,4.411649063246175090e-02,6.110750283622391754e-02
1.609596845995871772e-01,8.351200562204084965e-03,1.202328293492381127e-03,1.903826034590033051e-03,8.720280381182989428e-04,4.795751849619638539e-03,1.205829592373230258e-02,4.728051101511197493e-03,2.387703546014362591e-02,5.454169223654765225e-02
6.600546394171148690e-02,9.091322902446016124e-03,2.858165786391502448e-03,6.560228317530356155e-04,5.760459082517743398e-03,9.273823496469378244e-03,1.158722123994107740e-02,2.348180970560165975e-02,6.879981296132777445e-03,4.623092136832519100e-02
4.331920470007454005e-02,1.143041118195205381e-03,3.396755044036185722e-03,9.654707751843386596e-04,7.978555121262644045e-03,1.107760782570862967e-02,7.724583353986451406e-03,3.709578757572875446e-02,3.300799935587179872e-03,3.453111689085722885e-02
8.714757005336751239e-02,7.698516561154605288e-03,2.555646906602428506e-03,2.072518217455722022e-03,8.056963592897203874e-03,9.641996919086220225e-03,7.616839825838976879e-04,4.159819770779409065e-02,5.348054634135537139e-03,2.118812222562065431e-02
5.233365142592970309e-02,8.120021053774722358e-03,1.394020654314832614e-04,2.467746890501019107e-03,7.663005746559651415e-03,7.771786778473445574e-03,6.454666159180446131e-03,4.216976108876493989e-02,7.839629613120885528e-04,7.015402878829687418e-03
4.994484524586187413e-03,1.571098895644078373e-03,2.422485964533109895e-03,2.367667334308716943e-03,7.522907236113432310e-03,7.502249472327247523e-03,8.216617946811728690e-05,4.076405908675700268e-02,9.046184349040573003e-03,6.747963866271415763e-03
2.469636660451746124e-03,1.380707329572869110e-02,2.997589884002360185e-03,2.176847588435264040e-03,7.383467159349779360e-03,7.760165755121245339e-03,1.076764135121164277e-02,4.524305806292391180e-02,1.056565194912385472e-02,1.630692801685287505e-02
1.428243090078955453e-02,1.771044552633434938e-02,1.405134452709491145e-03,2.147030261931491980e-03,6.343369617616065673e-03,5.899937575712231423e-03,6.161402214670791411e-03,6.622817139827778810e-02,3.228082570867747345e-03,2.105352641048531190e-02
2.010698860537055849e-02,8.046602129949627369e-03,9.472399517068779123e-04,2.110188095073090714e-03,4.007215264512237370e-03,1.863438294133848167e-03,1.287641544495283716e-02,1.002905231248631818e-01,6.111477513282492606e-03,2.536263365489922761e-02
6.839799211272970178e-03,8.642276879951608926e-03,3.265942404889725457e-03,1.862873464897207018e-03,2.109112804420968431e-03,3.214814679883403891e-04,1.461647283876459785e-02,1.294785428944955075e-01,1.026096511221788292e-02,3.052799446473023620e-02
3.231861754426414157e-02,1.781457088811415346e-02,5.458392695468037605e-03,1.715242598313793977e-03,2.951220321498641570e-03,5.434106509682708544e-03,2.050775074257976671e-02,1.455331050140948879e-01,1.041389205219286213e-02,3.099467970586504070e-02
1.109571355248057528e-01,1.095445229601536320e-02,6.908039958366680652e-03,2.003506165001464698e-03,5.802659372306405265e-03,1.379052203764972832e-02,6.515732856624575908e-02,1.591230452212902824e-01,1.276938098664420415e-02,2.247327450570973939e-02
1.949862588566625143e-01,4.328695923896758169e-03,6.798011955071896206e-03,2.025023733140333959e-03,7.559687327585232208e-03,1.729387456085581740e-02,7.726397168850049346e-02,1.726988026932348708e-01,1.768328999041344357e-02,9.995112441871345510e-03
2.094491656004781599e-01,1.223771277334725904e-02,5.299478387513100429e-03,5.427167382198816534e-04,7.336089846084461671e-03,1.301633358688209473e-02,5.135190524419402242e-02,1.673446948748639196e-01,1.889412470371900840e-02,2.572901808726036493e-03
1.450815491558618553e-01,6.173674622384036324e-03,3.295787005747144623e-03,2.196584741444932050e-03,7.590079950839884702e-03,5.996788144431669174e-03,1.541282149246739341e-02,1.382031894281812723e-01,1.418113304108979851e-02,1.561857471018581172e-04
9.535959257980262949e-02,5.352649423577986176e-03,1.543459311442349621e-03,4.066536610064853605e-03,1.006007725459490305e-02,2.575420339201133033e-03,8.053670975045468597e-03,1.150013978803170328e-01,1.046156460082717406e-02,6.290259613271567511e-03
1.438000637519130931e-01,8.299382327176838686e-03,1.143437144639008638e-03,3.388137784923998894e-03,1.289137071032151090e-02,3.719471901976296839e-03,1.741521992370645422e-02,1.189722678876492662e-01,1.610721169588347212e-02,1.854169819256229132e-02
2.546327046952780448e-01,2.859101574412828244e-03,3.450722467076008330e-03,9.265779447584920761e-04,1.284037430646408837e-02,4.769007600161726326e-03,1.996778657948487801e-02,1.267267736744674966e-01,2.964224466993724272e-02,2.497301193999573038e-02
3.102948017131948455e-01,1.770378423505754306e-02,8.060421575560401328e-03,1.035668976839231037e-03,9.026415467110618721e-03,1.269014780330745065e-03,2.150727052227806302e-02,1.047332867885597818e-01,3.865411273514664237e-02,1.650334569499884232e-02
2.528795132955943270e-01,2.054163963929866304e-02,1.238308548117935878e-02,1.339631249330625789e-03,3.580659287196919383e-03,4.826618954533806564e-03,2.400768412538509949e-02,5.651999158221809177e-02,3.562536350910498750e-02,8.168210205495668409e-04
1.615784138566696282e-01,1.283293828586014318e-02,1.421129234905577771e-02,1.034867144081960851e-03,6.555179902979089892e-04,6.629781905377883297e-03,2.686061872317760044e-02,1.281461253067815199e-02,3.221932051246380324e-02,1.434106659861948338e-02
1.492379638462723868e-01,1.244889149090246810e-02,1.280025387454267541e-02,1.386538840685794076e-03,2.184690680588998769e-03,8.897323660770055809e-04,3.092589531421498922e-02,9.789748878369232410e-03,4.433314576829746473e-02,1.697500361175316788e-02
2.031844855632122249e-01,2.283793830758435242e-02,7.221713546023499249e-03,1.543876667776775515e-03,1.095271708660190083e-03,7.887461669788185109e-03,3.643784900390677900e-02,2.207661597295017264e-02,6.400340372527942023e-02,6.860174276737804680e-03
2.163810407002853542e-01,2.302728933298438946e-02,2.987189977764296081e-03,1.710751754871654056e-04,1.389036534214644920e-03,1.323080571484480140e-02,3.422267523790269855e-02,3.659656596074854773e-02,6.532370732145442727e-02,1.448820943254463395e-02
1.610400432827420458e-01,1.048648527652949877e-03,1.446895835984142974e-02,2.919169151369446595e-03,3.178500221237713814e-03,1.329020796807232029e-02,1.216738518895909248e-02,4.466477807706990821e-02,4.086749752862797042e-02,3.686663386887837485e-02
1.063360764753348009e-01,2.510370329082878618e-02,2.100038842251708560e-02,3.751134895267380781e-03,2.490694034019606037e-03,1.041511564047287175e-02,2.385339069650976862e-02,3.498156620644843340e-02,1.237524977955335378e-02,4.461481096356673809e-02
7.141613763493252776e-02,3.444312362685091750e-02,1.989075724356619349e-02,1.768521437008463166e-03,2.656822500225622732e-04,7.386341522784316965e-03,5.065404980684201641e-02,2.329244418621563908e-02,4.297858276389354866e-04,3.429831545530718367e-02
1.339436415668537189e-03,2.955920020329147815e-02,1.449998609778593503e-02,6.568626705695852384e-04,2.850492459771043329e-03,5.292656101988364552e-03,5.349818370449176130e-02,3.360363894958359049e-02,1.308122040682456640e-03,2.003238145222452013e-02
1.234106701197653644e-01,2.323178341731632970e-02,8.689521013664196908e-03,1.409049086853562211e-03,3.961724609598963123e-03,3.449893596258453952e-03,3.789568527213103832e-02,5.864800731719570226e-02,3.061015661285091186e-04,1.457426919956721946e-02
2.267755940265390180e-01,1.809203459798659763e-02,2.413357489490149891e-03,9.876006915104274149e-04,4.311578870964750780e-03,9.141251063320065748e-04,1.706328794818823616e-02,7.061836082310452012e-02,9.202461737535801850e-03,1.530345023080634595e-02
2.622083675371765232e-01,1.247913710477176197e-02,4.887273030507165508e-03,7.585343311041362405e-04,4.765938448999442606e-03,1.998584103793454598e-03,4.836224641337511388e-04,6.039123928022781251e-02,1.665153569143636159e-02,1.278985013141562162e-02
2.537678034303910701e-01,1.191180387965047605e-02,1.064889054245122396e-02,9.317003286369072252e-04,4.887220996227577274e-03,4.178804197789579358e-03,7.347426414182839718e-03,4.152428428308381492e-02,1.402265764920234727e-02,3.737955893661497504e-03
2.484544842723675206e-01,2.166867895820265288e-02,1.260821167111775970e-02,1.021259590465379771e-03,3.753673837351554320e-03,4.797219894698336387e-03,7.759116254202244253e-03,3.015716509566025716e-02,5.638749869376084335e-03,6.257981961217859782e-03
2.605411322551832720e-01,3.548814130956966933e-02,1.270004874002247063e-02,9.301209379354820946e-04,1.495865847618574156e-03,3.450282128912480779e-03,8.796567930314219685e-03,3.542382576021713136e-02,5.267178257283832224e-03,8.126813202340961786e-03
2.765603854103590997e-01,4.182940157334268799e-02,1.357011038435623762e-02,8.736238082063020344e-04,3.904961543976118252e-04,8.376810770941794070e-04,1.868808765216726370e-02,5.336310011830318334e-02,1.719998626730919952e-02,4.900398535800385216e-04
2.868752391400395951e-01,3.704329253044023884e-02,1.380500885295836942e-02,9.023178198868386790e-04,2.616525710336063812e-04,5.899647410818272030e-04,3.599151723220902349e-02,6.466302038294736987e-02,2.709529797879174640e-02,4.585810400049340069e-03
2.953362303287346280e-01,2.516624652064851711e-02,1.115502900949810750e-02,9.249685367710224577e-04,2.101019931342918562e-03,1.209923604778329531e-03,5.224051592119609982e-02,5.205614949959921217e-02,1.945243349797619314e-02,3.480824867719876405e-03
3.058695294985768198e-01,9.848465596046159301e-03,8.235187477422667088e-03,9.090056671030264128e-04,5.135143720479891892e-03,5.077987496584559016e-03,6.537400346819903507e-02,1.924608397776284702e-02,2.107796700484344463e-03,1.486637432968846394e-02
3.113112319212379409e-01,6.228412135168957635e-03,9.381640936967344108e-03,8.769325439566187609e-04,7.120128496238367979e-03,8.025436868949917604e-03,7.927239147161629917e-02,1.423315894742707526e-02,2.108668750740292502e-02,1.082564498657879667e-02
2.974933154243673550e-01,1.849981479592686245e-02,1.305363373092562410e-02,8.597328720307967354e-04,8.198298980837374558e-03,9.178710298500428882e-03,8.927497946785602212e-02,2.890136632885532270e-02,2.763144951750719572e-02,7.159919190541918881e-03
2.583189058935301818e-01,2.374395321459776137e-02,1.309837924715577008e-02,8.894059999432141813e-04,9.764775321693753077e-03,1.057910150499936225e-02,8.593985073122234475e-02,1.414422085275918173e-02,2.302177413944543269e-02,1.948877715890240739e-02
2.079299269331714994e-01,2.281232545213921631e-02,7.115679585900584747e-03,9.195624189027903472e-04,1.174394711673257784e-02,1.366541873187450580e-02,7.451707678125329970e-02,2.427061183220204782e-02,1.248719358803123888e-02,1.958182655188402815e-02
1.721565210124832157e-01,1.677281958137967488e-02,1.197733986259450932e-03,8.434882374579557359e-04,1.229304943670191629e-02,1.605520997992533269e-02,6.817825103010834165e-02,6.368491601320365458e-02,1.129925278051804177e-03,2.039943286028314887e-02
1.636911439617085295e-01,6.142359842666029850e-03,7.274404716185251668e-03,7.479089872771781241e-04,1.086694219549781855e-02,1.398053928454591824e-02,6.132776471874861607e-02,8.468253502667588695e-02,9.956629585866324031e-03,2.817191139742124956e-02
1.726141655688196441e-01,3.805698475286408040e-03,9.275771352936694122e-03,8.829221403714057571e-04,9.462235951479885596e-03,8.485926842454282956e-03,3.679852908653427623e-02,8.962129541147569045e-02,2.600217675191797070e-02,3.274449106124813907e-02
1.815950795394848383e-01,5.326730610397785275e-03,7.536380071453357629e-03,1.083799085072071223e-03,9.494854460861535186e-03,5.516174986187851424e-03,6.751523553472972040e-04,9.213488449671872194e-02,4.945653946638974702e-02,2.817508841161369890e-02
1.774186071830986255e-01,1.621610868466471156e-03,3.617210928339488658e-03,7.613657076033573771e-04,9.602980889461617750e-03,8.028578316641792403e-03,1.797129616496905002e-02,9.754659631577264345e-02,7.117054935088032441e-02,2.180473887539520136e-02
1.486665997201242762e-01,9.333568720491805526e-03,5.548972890096629321e-04,1.629115825478346096e-06,8.355345399875360388e-03,1.248829778958415737e-02,4.342627671244977949e-03,1.019448171854440838e-01,7.897477711653608234e-02,1.754072058324140232e-02
9.434693227292191564e-02,1.287967920983636681e-02,3.662137399282052504e-03,2.591364654631971541e-04,6.643011658896135450e-03,1.493684203139852666e-02,2.585984305864625146e-02,9.893751214999876864e-02,7.098585860341034837e-02,9.083068644487267071e-03
3.942401381577283204e-02,1.298575729809758710e-02,4.547038125626572287e-03,1.592782789589003065e-04,5.263167320254164352e-03,1.562687615375501007e-02,4.650808160195444435e-02,7.983645128264228730e-02,5.439843911116325204e-02,4.441954110749228926e-03
1.482020293929792523e-02,1.028002317605683676e-02,1.912152145539764781e-03,1.555562509519664821e-04,3.073232523969520510e-03,1.616570857021357513e-02,4.413636190426112327e-02,3.999457429521931923e-02,3.589911281972039264e-02,1.332866838986897229e-02
1.519748034050110580e-02,4.938629792183283317e-03,3.907184590725486933e-03,7.574335508999196056e-04,4.065976643946426789e-04,1.621433799941141354e-02,2.343401198069598734e-02,5.034948314511396121e-03,1.783160538509555998e-02,1.377337761340094620e-02
7.354941851892764920e-03,7.252649495238029957e-04,9.979054582435899212e-03,1.755987824510945716e-03,3.677416119813671763e-03,1.418352484031214916e-02,1.093198188799182971e-03,2.305539346490491359e-02,5.152269409175545128e-05,1.437805936856645025e-02
1.605870961657608273e-02,2.664072209606311442e-03,1.290507763835791952e-02,2.408420447219630344e-03,5.995458750200682342e-03,9.076924952042146610e-03,1.478743673332311853e-02,1.716990912809523984e-04,1.845053885723271087e-02,2.072131330631210230e-02
2.879864608299047973e-02,1.020250465336982465e-02,1.153907882454413038e-02,3.290924727703144464e-03,8.400565417315406652e-03,1.546852733349848548e-03,1.023162218628873368e-02,4.085630916077295782e-02,3.457773815132562240e-02,2.690676445507966114e-02
2.167481063350999715e-02,1.568295065912561972e-02,7.509160217497590217e-03,4.423530570937164903e-03,1.106535644667256540e-02,6.082773489579337660e-03,1.477931571070446176e-03,6.377266659135676086e-02,3.907753146601197075e-02,2.750314727272613891e-02
2.303903424946642658e-02,1.139390046817518806e-02,3.326666529775979854e-03,4.563689624964398055e-03,1.203446653489409143e-02,1.125716765708850535e-02,7.420530132630431645e-03,5.523823511249804225e-02,2.451237068945654601e-02,2.601605660250214114e-02
5.581961401069467088e-02,1.058539879368722639e-03,6.057523163399138825e-05,2.838417601283325410e-03,9.567042659260831250e-03,1.285834882695223273e-02,4.810074646661239434e-02,2.293640500564979312e-02,4.527836094186301480e-04,2.696191429238740597e-02
9.838051450297123635e-02,1.079359502493807896e-02,2.513112104645035330e-03,3.065206468175801953e-04,4.739221854953242809e-03,1.171580086511522789e-02,9.376873194696210001e-02,1.684773522098039281e-02,1.520356477408039628e-02,2.930590280192589894e-02
1.081853135931318266e-01,9.846839684342564847e-03,3.920170775267036931e-03,1.141086193189535039e-03,1.011331902455369193e-03,1.034945410763961175e-02,1.145289354532753878e-01,4.451991834741040460e-02,9.890886365543079956e-03,3.088701353488810392e-02
8.356630408927434583e-02,1.720046722715239031e-03,3.154476624204324321e-03,1.105498406881688612e-03,9.818961579484187813e-04,1.141312225207808360e-02,1.164678842421437016e-01,4.908780624857077973e-02,3.763754863257236325e-03,3.183807972815937137e-02
8.109209210479949304e-02,5.709801122370744206e-03,6.570374046570081695e-04,7.364510292333446406e-04,3.802871240045142820e-03,1.454531751396673928e-02,1.206408655489986659e-01,4.096675772746869587e-02,7.600626468349381930e-03,3.158825314490762426e-02
1.482691762544932623e-01,1.004280586074308979e-02,2.006580027342767802e-03,7.883282141170711108e-04,6.396520230610197762e-03,1.581414898600118010e-02,1.242215376800042403e-01,3.936573177101600901e-02,2.721166771896797471e-03,2.644595835227262978e-02
2.524271606709725391e-01,1.225007869410982102e-02,3.904607778457698953e-03,9.424922695314144009e-04,6.829097905960799554e-03,1.249831229894928820e-02,1.102080875948889122e-01,4.973515023393792339e-02,1.611830998818616911e-02,1.233856438433276678e-02
3.119377218660279172e-01,1.113543887289457530e-02,4.539393729468993097e-03,8.956064510180454649e-04,5.357859182877725522e-03,6.893697319158964727e-03,7.878515525110024731e-02,6.690416418589001379e-02,2.158965292794992608e-02,8.185600709616255855e-03
2.916187832363131283e-01,6.229501688666943919e-03,3.568242388779242855e-03,9.045872859175569823e-04,2.743030753798978566e-03,3.027869424207331028e-03,4.596706490800614442e-02,8.868451056995822757e-02,1.949907840915466109e-02,2.352299493280916518e-02
2.318384821105092808e-01,2.009428653544822595e-03,2.244011217246917687e-03,1.043384252065786711e-03,4.073331742668593637e-04,1.571479282379751718e-03,2.330724070557017163e-02,1.098893494057766734e-01,1.625376142010982392e-02,2.426043772554642430e-02
1.878187376359581329e-01,3.721191153483315896e-03,2.816950517506768264e-03,6.320597970452647776e-04,2.606554730724159642e-03,6.162919440323690263e-04,1.231878351159822887e-02,1.163986427441738164e-01,1.377579295248110465e-02,1.550259447801465365e-02
1.699660137292910989e-01,1.051386697254997997e-02,5.350238221912662073e-03,1.167513994828571532e-03,2.022138907585612280e-03,1.589317610595535534e-04,7.391240761458970840e-03,9.883009466194714321e-02,9.145194544451793264e-03,9.825908436762148535e-03
1.451916644292562120e-01,1.603447069097908503e-02,7.436171711454137023e-03,4.156701261346822281e-03,1.267727847485482142e-03,1.001395039911071386e-03,1.052665063164645760e-03,6.202155093769932265e-02,1.393146957974637822e-03,1.036472937566544975e-02
8.632213243022286708e-02,1.592589181737461002e-02,7.175597691114167336e-03,6.581965095002717883e-03,4.803622527815840960e-03,4.260938175397349127e-03,1.566181620060466337e-02,1.981679304054912230e-02,7.794565403264978529e-03,1.002051223848112599e-02
1.647418548961675569e-02,1.261826264021913453e-02,4.383699725334190729e-03,6.351094875521282046e-03,6.042185095473753299e-03,6.338863240866997491e-03,2.614798740265119464e-02,1.050857911177046147e-02,1.893633091328226700e-02,5.416518445519566058e-03
1.030452320474899153e-02,1.110097471901651256e-02,1.186030107852083953e-04,3.357607282631164432e-03,4.654924837961150509e-03,4.296117674698932479e-03,2.361901705653264572e-02,1.976337470756334841e-02,3.216304202172835108e-02,1.692420169432070406e-03
2.063974307144263165e-02,1.159382712759219128e-02,2.927887876418581049e-03,5.997397915172671600e-06,2.266911246846170166e-03,2.077369871212162333e-04,1.487787692954845552e-02,2.032011196345756207e-02,4.039633005105432856e-02,1.898569708512268511e-03
5.439569142159822457e-02,9.737510050638529396e-03,1.631040998175578701e-03,1.421973283863665199e-03,2.789023243955491400e-04,1.076891156984748077e-03,1.380169680862330418e-02,3.185290411741598798e-02,3.573120311564881302e-02,2.852498910781325111e-04
2.459605981498666841e-02,4.416863831243585288e-03,3.527441619396526774e-03,1.141646421246482858e-03,1.104480110156735645e-03,1.151928486461190754e-03,2.410077816891666169e-02,5.358369896888977302e-02,2.228472739183397916e-02,8.133571883655110052e-03
6.565074130064074698e-02,1.755003200327066772e-03,7.354942800669697807e-03,7.442298499293068447e-04,1.817142070154860326e-03,2.806798136851973869e-03,3.711488405143729269e-02,6.857223821212708736e-02,1.148433365534458524e-02,1.746494444382359554e-02
1.424369075548504449e-01,7.121416081739700282e-03,5.778650825856782892e-03,8.526347042456987671e-04,1.645971813330689669e-03,1.969062118730950141e-03,4.354469020925444411e-02,6.762839182531055204e-02,6.222197008803295390e-03,1.896702098115322921e-02
1.435684068218756326e-01,1.493949475130599246e-02,1.748456596137459070e-03,1.006946604549000587e-03,1.213740359273490343e-03,1.599666557277847154e-03,4.241271658809168260e-02,5.195916356520538515e-02,9.279392285583521697e-04,1.498480563889900523e-02
7.710580355395099672e-02,1.396304740485880720e-02,1.737451905213659555e-03,9.333780968078264108e-04,1.466329787374986331e-03,3.675380819970698338e-03,3.751588714760625137e-02,2.552429614712587932e-02,5.415190359409207538e-03,1.484352966191714203e-02
6.171223764220648556e-04,2.676149403773517288e-03,6.713172804200992147e-03,8.327295072891120189e-04,2.177630449790930473e-03,5.784938217899292245e-03,2.953396536818209475e-02,1.314415164494351067e-03,7.578682199977908145e-03,2.051107146271530929e-02
3.050917471143610796e-02,9.495078586124540074e-03,1.095681352651187157e-02,8.341313456544073319e-04,2.441105259311836598e-03,5.758463903698506775e-03,1.789837528666412061e-02,3.786816025581653256e-04,3.487169072294806459e-03,2.627652125277974912e-02
1.396530364888166204e-02,1.590351583127780355e-02,1.031302843688784200e-02,8.458274280173596780e-04,2.194729882454989588e-03,4.863654932443024076e-03,7.296316800302817679e-03,2.200172723560935711e-02,3.909171068633016284e-03,2.814428390119967996e-02
9.925528978465804342e-02,1.823387866468527754e-02,7.138004883943045373e-03,8.066629744100889485e-04,2.053995300800944349e-03,4.331517691446087892e-03,3.353195036149819036e-03,4.160522671258979482e-02,1.241398316218861840e-02,2.501216624816594153e-02
1.585119400269135448e-01,1.931979336176980339e-02,5.765877009597477308e-03,7.592195315486772490e-04,2.174733027361013503e-03,3.255873125847027517e-03,4.394284139579030662e-03,3.729570954280365946e-02,2.095435096929978286e-02,1.632493755765713345e-02
1.661589289901705957e-01,1.829538975857092353e-02,6.578950295299346683e-03,7.330664516924362663e-04,2.188352763737331369e-03,1.641869501908688016e-03,6.392970644756947041e-03,2.035503744900034329e-02,2.681981459989937408e-02,5.204965082584282927e-03
1.520354496872489969e-01,1.246541739907724988e-02,6.424771721160136943e-03,7.090783372923668100e-04,1.996024825743764053e-03,1.054963528527387562e-03,1.236255794435452832e-02,7.445933080490272499e-03,2.898653058893826268e-02,1.861523990165290165e-03
1.414603610492431440e-01,8.216744039889462394e-04,3.132590743545170513e-03,6.736506431419415344e-04,1.978001568372902627e-03,9.335202706864594328e-04,2.675503048142609946e-02,1.072427829298761882e-02,3.063849822872553863e-02,2.660588499432162482e-03
1.321688840861835745e-01,1.255942009610733386e-02,2.049884906304467753e-03,6.360599166264329762e-04,2.229126918622257366e-03,1.167377381139168878e-03,4.305548410282160343e-02,4.546507698542325698e-02,3.325940779749442938e-02,1.626013006395737176e-03
1.259912014578954964e-01,1.939288962543603279e-02,6.171585853441346504e-03,6.032795117920766769e-04,2.083825924726082253e-03,4.665609450841778222e-03,4.775125815166041815e-02,7.599963697025667597e-02,3.376986147898761864e-02,2.736678640990142242e-03
1.310648831101916822e-01,1.547629124006812476e-02,7.726943796960619899e-03,5.715326948769102735e-04,1.087899109241407831e-03,5.957628854691650322e-03,3.799306024593310238e-02,7.445772885960676157e-02,3.164485610188325776e-02,4.791851984655507053e-03
1.340913148783939302e-01,5.679136588812225966e-03,7.641974227771661070e-03,5.379718318777862093e-04,1.142872554326762298e-05,4.159061950815281031e-03,2.591761486211885054e-02,4.940314727738059908e-02,3.100294659296032318e-02,5.355929248039830587e-03
1.088236757781275571e-01,4.315606380757013201e-03,7.309682078633365082e-03,5.047667870147951562e-04,2.772238536252482309e-04,2.425316158031855674e-03,2.079061459799467701e-02,3.017137436971642495e-02,3.159006393400919793e-02,5.572420371505714017e-03
5.062556645269192940e-02,1.613892238433199677e-02,6.630400941724031924e-03,4.736773555826929408e-04,5.921088910798411975e-05,3.266902651924715080e-03,1.693764666758400261e-02,2.379722164001189452e-02,2.707305464033444783e-02,8.421770723286965341e-03
1.559552823628964843e-02,3.163622737041892757e-02,4.878049257033646724e-03,4.440647434351895312e-04,3.892532202216073293e-04,6.500059970750135530e-03,9.603419172875994961e-03,2.073731313063837886e-02,1.642435608379205769e-02,1.371253965624330898e-02
5.060772931809887076e-02,4.501136353837131149e-02,2.365296531682558462e-03,4.154020198509591382e-04,8.225540477068816027e-04,1.067423515922897442e-02,1.090808143388562711e-02,2.295667732851320794e-02,6.585264943853105443e-03,1.794097690451457866e-02
2.248415557934253795e-02,5.073357127116003701e-02,3.006510004727590171e-04,3.882305063953570587e-04,1.354382302164994526e-03,1.262751564047248122e-02,3.061108675870593057e-02,3.082688770756536467e-02,2.452355314735274114e-04,1.949853317730687249e-02
5.833773028525960497e-02,5.129675710203691202e-02,3.153399333005423889e-03,3.629919576599154605e-04,1.248989147181515285e-03,8.555275902180034878e-03,5.010012982164952638e-02,2.367772565961215672e-02,6.855413214289974959e-03,2.027574220253674023e-02
1.258855060730462716e-01,4.954891352613562117e-02,5.143940899422379080e-03,3.395639677296739844e-04,3.089186741517311696e-04,2.463098427696867225e-04,4.100414856618217474e-02,1.095143031563951784e-02,1.284414877947663743e-02,2.091118881496334403e-02
1.115454576244578472e-01,4.177625553914548345e-02,3.393888477840703924e-03,3.178001655564468338e-04,4.543525134614744996e-04,6.551801981214841475e-03,6.026068851646465031e-03,4.666419301076337595e-02,7.491182594781929313e-03,1.907776075517711098e-02
9.778389966540089462e-03,2.476640179511972045e-02,3.388429647936492747e-03,2.977549582443227128e-04,2.119389748992136602e-04,6.008557147343973268e-03,2.319693871207393482e-02,4.630619210965362248e-02,1.115760818659649808e-02,1.354355562898137792e-02
1.235670607916658226e-01,3.580089775983565439e-03,1.204769172793677436e-02,2.794354579475167915e-04,5.973063271635144092e-04,2.601802990271773718e-03,2.643466308627015135e-02,8.046214951213923050e-03,2.864761019708022757e-02,5.609421045515881714e-03
2.237178429448883066e-01,1.205474342349391846e-02,1.738277122168303823e-02,2.626968034979470850e-04,9.515556638322307005e-04,2.195123242186024486e-03,1.141971372683583431e-02,3.499802071772463441e-02,2.904165113097350454e-02,2.317205454692831696e-03
2.582140693367749873e-01,1.668736620532967202e-02,1.660612230979901030e-02,2.473619910225031884e-04,3.224436366824507414e-04,4.771628975815902889e-03,4.761090311644409871e-03,4.973448129716754457e-02,1.157246003684837127e-02,5.869097163520031919e-03
2.334276017745430254e-01,1.285480696088744761e-02,1.080054326559042044e-02,2.332785328524244681e-04,7.864676341243751921e-04,6.255296158765832545e-03,9.529550671160791353e-03,2.457857203535355681e-02,1.232981322129634433e-02,8.199556254159269791e-04
1.761099845489456084e-01,6.662967062155815759e-03,3.343979452770445664e-03,2.202702857740384971e-04,1.154405946707995475e-03,5.143544411395498291e-03,3.880404828820039568e-03,3.304657718747297523e-02,3.288506331375685987e-02,9.816263369460200700e-03
1.172388821181299251e-01,1.636834566784976797e-03,2.374500082268363871e-03,2.081184572289263533e-04,4.409947269828592194e-04,3.825682588964391534e-03,2.932545948321553173e-02,1.018943479599679902e-01,4.665104766254841301e-02,1.626395373074321707e-02
8.687939601679661727e-02,1.797768683065225194e-03,4.717177168392863371e-03,1.965927249042823436e-04,4.414120674792819496e-06,3.992435693659960975e-03,4.773042790127782209e-02,1.511310003219874243e-01,5.276730373509005978e-02,1.369175555686690492e-02
9.460924864650709087e-02,3.229212297767801269e-03,4.067444874592513783e-03,1.854697524063896974e-04,7.794282292861389903e-04,4.065024819007722300e-03,4.857300104108212141e-02,1.588102362501392639e-01,5.373713608700775302e-02,8.231290575692579159e-03
1.129256050396351269e-01,1.502445632441662014e-03,1.600816321245044152e-03,1.745282978832425342e-04,1.479930650026752654e-03,2.283569911917164227e-03,4.330519402153013703e-02,1.313033002545289096e-01,5.611166989987909082e-02,7.436596017652538464e-03
1.146282938370625365e-01,3.871337937703506725e-03,1.445952815887116463e-03,1.635499128236118124e-04,8.065694899673602316e-04,3.776604596348827662e-04,4.746548405128980103e-02,9.254367762750351223e-02,6.106535493967954475e-02,9.619155536102513837e-03
1.198831556931594655e-01,1.186050418676982965e-02,3.573939501813891591e-03,1.523304077446093439e-04,4.089968225559800742e-05,1.905414453585827124e-03,5.992283429542377693e-02,5.580139757738986073e-02,5.919077624495528572e-02,7.500399431820373337e-03
1.624224091388087876e-01,2.022689902851302485e-02,3.962670668640360695e-03,1.406883417004680835e-04,6.647341041918659052e-04,1.455069065006960342e-03,6.802222305165939176e-02,1.768223434338307004e-02,4.400483822125871719e-02,7.629184755969672070e-04
2.203957294382811460e-01,2.641061994868046728e-02,3.610710227043908028e-03,1.284677285183141444e-04,2.108271889819818626e-03,1.075176633909228231e-03,6.495763686377492574e-02,2.496116957487733157e-02,2.488166069363163813e-02,9.510351823797898174e-03
2.343551157956412501e-01,2.813313888724387063e-02,3.648372298034217084e-03,1.155411639392552481e-04,2.218225281879749461e-03,4.977850122246196482e-03,5.609929426195980895e-02,6.426789630259606423e-02,1.722993705922779006e-02,1.362229641884308597e-02
1.886480323484653332e-01,2.471909604551417519e-02,3.340379951784556208e-03,1.018145905357256643e-04,8.728873108497835556e-04,7.652740529829769357e-03,5.035314301833863221e-02,8.772197021209771073e-02,2.402077146649360395e-02,1.425895487531506078e-02
1.222133310230281156e-01,1.924227973492627017e-02,2.046304686195367113e-03,8.723066436507378172e-05,3.427673574170622076e-04,6.142724270051706272e-03,4.679619945782795970e-02,9.054384774200258112e-02,3.462340511330097570e-02,1.558730542192232095e-02
6.633283898028871639e-02,1.689454143622753229e-02,1.515302779152306965e-03,7.177000167637816500e-05,5.676049001106133049e-04,2.940899268303365818e-04,3.462703629227149166e-02,8.017426110834456610e-02,3.864144791793699268e-02,1.871385354207234439e-02
2.742986515764536670e-02,1.902842033294610893e-02,3.408812481425117866e-03,5.545163743589257097e-05,1.176931888530407492e-04,7.044981226950906492e-03,1.075536041154816214e-02,6.935537856863124850e-02,3.352088673831430526e-02,2.179927077290868750e-02
2.014904779259581169e-02,2.134182279960594730e-02,6.287185966950530752e-03,3.833300448282232368e-05,4.832878868829982438e-04,1.300376813821650657e-02,1.114737833374109498e-02,6.748793412637066336e-02,2.051219341360303178e-02,2.507273095392763620e-02
5.545478864407382691e-02,1.966171810865698436e-02,7.629860959343989259e-03,2.050880475492909873e-05,7.364239719278675537e-04,1.697874402766807317e-02,1.673753710654777779e-02,7.671430441025105240e-02,2.210304420697761525e-03,3.041096647760965430e-02
1.010706876741702814e-01,1.454011744747371777e-02,7.024554408027768385e-03,2.108648303521558007e-06,2.898472632953094153e-04,1.960623285690598142e-02,6.489003890428185310e-03,8.859590752623325294e-02,1.439512384660952132e-02,3.457102486517942691e-02
1.128010160459876204e-01,8.797431327606828472e-03,5.462638466047295936e-03,1.670618317767720844e-05,6.011034272457356107e-04,2.023920032954781498e-02,1.080290340472516222e-02,8.655139701585221057e-02,2.109503922141250584e-02,2.997559004127128834e-02
1.025340239290791489e-01,4.119985668466371286e-03,3.587885869341346599e-03,3.574668761514087170e-05,1.196764314499993657e-03,1.729466148296151390e-02,2.791765637126714453e-02,6.280430278956872225e-02,1.838654305263492245e-02,1.587011434327537454e-02
1.133645605610715118e-01,1.598416524629635163e-03,2.106404219794233250e-03,5.480084386069122122e-05,9.233902932236405254e-04,1.128042866670678213e-02,3.795099536773094417e-02,3.016577374230361777e-02,1.538572694713064015e-02,1.545550656195394815e-03
1.326414740311941398e-01,2.535652148792245236e-03,1.943968441916824009e-03,7.363898053318324163e-05,1.687814610334530683e-05,5.419141143276117248e-03,3.529961068434389615e-02,6.717728594569823131e-03,1.752123532559417968e-02,4.833538379362554462e-03
1.099880241906506378e-01,7.536199569647963718e-03,3.089655341929362607e-03,9.201961234882601146e-05,3.853217840006546995e-04,2.776889586205534034e-03,2.147646150871024284e-02,3.327063478736242384e-03,2.191796667880290331e-02,3.631784959172482639e-03
5.348712220734740119e-02,1.550696029283012145e-02,4.641593870342471118e-03,1.096955778421297760e-04,4.520323169765552446e-04,3.529326559385177666e-03,3.219112388568823053e-03,6.079206430842005494e-03,2.583191593045775988e-02,6.571347072841576473e-04
6.095566155065876984e-03,2.227521594026397184e-02,5.476684210183426979e-03,1.264203531534103771e-04,1.440217085567505268e-03,4.427154729947159126e-03,1.222151409498560028e-02,9.685929242559961072e-03,2.964008428346084217e-02,2.683380795408157275e-03
5.403432953940497802e-02,2.152194884085881221e-02,3.742783723504184909e-03,1.419543919027460035e-04,8.056429061358810328e-04,1.403177115028957523e-03,1.673497249395030501e-02,2.313641483244342073e-02,3.001959834351410061e-02,4.344404984323462643e-03
1.683524938869682686e-01,1.113419898883451394e-02,2.066852725264768046e-03,1.560713181550695136e-04,1.337214011996346172e-03,5.753482416814914048e-03,6.307135910301355300e-03,4.621792736755098163e-02,2.092157088034455811e-02,2.293795767714085221e-02
2.846069932687159132e-01,3.075964002729460797e-03,9.944781865742470528e-03,1.685638128325719399e-04,2.926087506368969283e-03,1.259925169561772369e-02,1.006028322100514447e-02,6.228743418268101184e-02,3.968079586491054730e-03,4.446928260684950007e-02
3.132287449867622864e-01,1.388792751064674494e-02,1.508604712126411507e-02,1.792490525998955808e-04,2.483856499534286763e-03,1.491239088629786429e-02,1.654282705996296468e-02,5.493661911092618394e-02,1.102601386786975467e-02,5.517984441302582060e-02
2.613310503634070359e-01,2.004371803392182225e-02,1.515990394293756718e-02,1.879735673884322150e-04,5.925735736357739657e-04,1.222648347721594364e-02,7.178910975946625750e-03,2.477728668817835711e-02,1.772440349269253576e-02,4.947565892967807633e-02
2.078998959152860704e-01,2.386616248227310666e-02,1.229583530253007713e-02,1.946173923308302416e-04,9.805037354480438012e-04,6.930393136020579319e-03,1.076397081207820967e-02,1.520838452717914423e-02,1.799204607557880822e-02,3.392559759983533596e-02
1.850121058264508622e-01,2.530805333128491319e-02,9.516054021496942600e-03,1.990974095395510294e-04,8.139859995366134507e-04,2.723036023496164942e-03,2.688557555488678766e-02,4.639654892489541993e-02,1.484664917822916055e-02,1.977542879696192468e-02
1.640370263218646762e-01,2.252217009531968378e-02,7.890181215508761461e-03,2.013697978466267267e-04,1.010785612340982112e-03,2.623915401102744002e-03,3.473329147751303553e-02,4.835942292482930949e-02,8.749541697399162293e-03,1.347466808753260657e-02
1.311318544328126945e-01,1.653920343777001353e-02,7.105758406848624448e-03,2.014315300070721826e-04,2.693402713576982348e-03,5.965169369730002891e-03,3.361240889911160101e-02,1.647048719422037136e-02,1.537122407670967654e-03,1.293597276184018513e-02
1.125926264725653492e-01,1.137459058949277964e-02,6.291307322798644040e-03,1.993208794398717925e-04,2.408190006392358154e-03,8.810295108857087512e-03,2.910120870556753142e-02,2.544235392094475884e-02,3.407890791276509818e-03,1.209123231559879573e-02
1.230902692999958914e-01,8.881318697179431398e-03,4.253643154371046856e-03,1.951169235697377841e-04,5.322462884922638231e-04,8.476287356518032862e-03,2.876598114843277251e-02,4.650948036902533694e-02,6.371713745550224191e-03,8.555692774586273752e-03
1.262804078726777191e-01,6.244787848644659661e-03,8.358463258793345915e-04,1.889380562286969501e-04,8.763202343454547022e-04,5.879601282574440334e-03,3.478461313191313908e-02,3.870519119778297740e-02,1.131601076276159308e-02,4.893612838540033726e-03
7.159863122570732374e-02,2.506851186125902929e-04,2.213574675428886269e-03,1.809395458939041601e-04,8.604428971719057769e-04,3.005952803221762643e-03,4.352842308419117845e-02,1.381982294256580389e-02,1.994933926846868127e-02,3.025041059049956779e-03
4.018986233829255350e-02,7.757049914547822257e-03,3.338634285071177214e-03,1.713101998177798198e-04,3.647586335119583530e-04,1.655676133550142213e-04,5.203883590208910337e-02,1.803380199234331377e-02,2.998771198185659972e-02,1.309762005586759042e-03
1.506487674802391430e-01,1.343868363183421503e-02,3.277390588856511980e-03,1.602682161846642230e-04,2.781391586061923629e-04,2.932323822766929808e-03,5.982877953436344792e-02,5.051723337171711709e-02,3.868756008353671505e-02,1.907894615173173292e-03
1.964530592109933749e-01,1.483342608108091133e-02,3.243781304481231295e-03,1.480563264677058218e-04,3.337895612267224562e-04,5.057579608466672427e-03,6.439521573976915436e-02,6.917686098683868690e-02,4.333478753156523589e-02,5.368129345055709829e-03
1.504374692609719844e-01,1.326366985068965984e-02,2.461598081988497326e-03,1.349363474754475549e-04,1.802757146327095940e-04,4.998418863173387933e-03,6.200098381166149752e-02,5.757688124752931291e-02,3.951476150894243228e-02,7.120175869336874477e-03
2.812182413555806837e-02,9.623493166190757661e-03,4.861897573754962384e-05,1.211832768837961863e-04,1.214145631473264193e-04,4.369363704994850932e-03,5.505617557617349667e-02,2.122878435691803040e-02,2.515265119616500941e-02,7.143922024180512226e-03
1.157724998619749091e-01,3.571415081155591455e-03,2.097260245906797625e-03,1.070790770925132771e-04,2.729902516829256671e-04,5.892509806294661881e-03,5.150054141590548057e-02,8.586700381829572362e-03,5.845917598316768479e-03,6.539945834447421016e-03
2.120351151216179064e-01,3.560302839987772479e-03,1.451497113378797180e-03,9.290629969870609994e-05,4.787701547083065347e-05,9.275871188774889586e-03,5.296619717990822679e-02,8.502600231557615879e-03,9.487305377029029221e-03,6.181507860167973455e-03
2.311824395657592068e-01,8.643483816883755499e-03,1.102904743860562593e-03,7.894170652324498071e-05,7.617009291697740287e-04,1.138544442588577087e-02,5.061830408591593000e-02,8.617746968428019114e-03,1.706074863568383948e-02,6.758750824069515752e-03
1.988229153825726570e-01,9.399984695551632033e-03,2.571684733391889181e-03,6.545004290744383855e-05,1.274618780263631415e-03,1.038653042198447139e-02,3.814810147297716808e-02,1.682893606975813250e-02,1.765344698699920778e-02,8.485393957422251651e-03
1.380035398480868314e-01,4.668753292880505751e-03,2.297791728229956355e-03,5.267811495224020385e-05,8.121275519320894946e-04,7.987152815235449427e-03,2.244484010309154981e-02,1.830517002594086312e-02,1.170687162140973334e-02,1.070735748026293774e-02
4.444606564000627702e-02,5.008682097187411308e-03,1.935572676755235172e-03,4.084931459591135500e-05,1.713203883382588273e-05,7.115241829713515355e-03,1.455243352573072982e-02,3.307845826309843001e-02,1.599228000170170583e-03,1.242390798330291792e-02
4.768558469990577531e-02,1.328156420284633960e-02,1.837715314708841417e-03,3.015872511004758590e-05,2.212814519767335305e-04,7.816011695063551298e-03,1.467384156078286456e-02,5.310375829376646345e-02,5.349398754654821272e-03,1.237043838610771967e-02
5.290147506516820058e-02,1.011278125253211452e-02,8.594919983375361085e-04,2.076892503161617429e-05,2.731380745973575332e-05,6.768975540104428187e-03,1.381132215673089303e-02,4.450175093460527476e-02,3.937767948539898540e-03,9.405258962955376570e-03
4.857265259562466853e-02,5.312468878932421514e-03,6.168089383622895033e-04,1.280659111293401081e-05,2.810654351220219908e-05,2.249580821732023294e-03,8.637750718218269175e-03,2.147741311892159121e-03,1.161557747722658223e-03,5.125953547733274468e-03
1.536660874947730349e-01,1.980714543406263822e-02,7.726539811455529223e-04,6.359980993933937754e-06,1.211175651414616629e-04,2.329628859599043676e-03,6.518922277988564370e-03,3.446580985759471749e-02,9.744555990491810763e-04,4.377802427676797704e-03
1.611676801555969041e-01,2.169346410349884749e-02,4.243539887512786952e-04,1.477354477311483203e-06,2.265126723019403581e-04,3.064211933593837065e-03,1.274319026000821260e-02,3.234326500154102724e-02,6.670594081313319101e-03,9.266190679465024713e-03
8.536709753367847930e-02,1.444951792284241213e-02,1.091864324980404465e-03,1.833630934856969797e-06,2.473632924244748899e-04,1.578573034490019997e-03,1.994703695950968830e-02,9.760661342267246132e-04,1.656159038563529556e-02,1.440412835340772017e-02
1.792283634518215298e-03,8.124550117451480313e-03,7.739811439248555150e-04,3.605538628981609943e-06,2.955062210115422510e-04,1.919963050364041288e-03,1.727546600133921667e-02,3.184003415842457524e-02,2.339471773531280954e-02,1.298675941207970592e-02
6.512888482504156085e-02,5.567811180260437420e-03,8.803388449821307471e-04,3.909798258426315558e-06,3.887640293312447830e-04,4.001134701174949640e-03,4.784441745655990466e-03,4.853063322823504555e-02,2.442668467086192910e-02,6.087816287123841430e-03
9.575301736646370243e-02,4.929586715528364547e-03,1.197280826210604925e-03,2.854414491372448315e-06,4.724863428494339990e-04,5.361216761546876153e-03,9.589311793182335453e-03,3.796917949784278656e-02,1.769637121333105315e-02,6.540629659558786120e-04
7.248238592952380155e-02,7.621212228097547399e-03,8.325064333523395825e-04,5.807986456738296064e-07,5.344013571572998238e-04,6.705693188115972869e-03,2.220014534895455374e-02,5.120815615630172624e-03,3.341595411070498109e-03,2.692120091927361009e-04
1.093778485519391122e-02,1.500916335503563181e-02,5.785770000843748657e-03,2.740195863154922711e-06,5.960617881758212104e-04,1.012116387902440955e-02,3.342690743500580097e-02,6.459209728450068799e-02,1.332448381655776740e-02,2.519611655086406287e-04
1.084602122796759494e-01,2.282934996091973839e-02,9.858911908972794319e-03,6.912933944768927843e-06,6.610595119628195513e-04,1.379169584734645133e-02,4.002439969369894768e-02,1.079190325828984637e-01,2.377094240761596505e-02,4.235507876720967860e-04
1.551947103697825792e-01,2.590996921319788093e-02,9.076233290975017909e-03,1.172223792942517922e-05,7.185409520314397277e-04,1.362210637362345524e-02,3.812564602617132814e-02,1.166840080634272553e-01,2.326409313264544976e-02,1.237220584904489239e-03
1.357790778532574905e-01,2.423789436569011302e-02,4.364161455118917461e-03,1.693907425184194740e-05,7.632546226088156261e-04,9.383589051873850173e-03,3.182799899027789758e-02,1.004050641185597198e-01,1.514124713379067302e-02,9.512625194951524355e-04
8.902573805419979058e-02,1.985033629813732700e-02,1.983260456199023038e-04,2.232654605420967116e-05,7.939422472056851306e-04,5.129775408625299009e-03,2.940151705005129845e-02,7.505601754458876562e-02,6.131246247263230642e-03,4.909704293040218805e-04
4.273569805543923905e-02,1.218873748017296893e-02,9.662122399051471106e-04,2.764604284140505789e-05,8.131843245470295493e-04,3.324788795781803263e-03,3.045783595621295858e-02,3.977809589902444459e-02,2.306820177867827028e-03,4.284321709776869446e-04
1.675418683890423852e-02,6.349672031239076211e-04,5.884477304796334593e-04,3.266339474263358858e-05,8.290098010344391010e-04,2.313253029113668865e-03,2.576982667303336777e-02,1.103829532822105108e-02,1.367646116280355276e-02,5.546557291881972721e-04
9.719847185855486071e-02,1.150900678180258666e-02,5.838378720759264742e-04,3.715487941131741858e-05,8.353968277795646973e-04,7.860236791810828539e-04,1.303105797001594124e-02,5.921990006729690309e-02,2.597144339120136675e-02,2.954160945064207393e-03
1.681909314204065309e-01,1.924503478355476041e-02,6.774649963404599145e-04,4.091293398487283749e-05,8.090524185079385824e-04,7.717194079144766398e-04,3.556232220826654588e-03,7.205105381668355791e-02,2.876894676949474233e-02,4.962996936280291913e-03
1.990746672782975346e-01,2.085441834325548957e-02,1.169604290600180290e-04,4.375143194298901443e-05,7.603685427707302519e-04,3.679865182183124535e-03,7.099377109730550632e-03,4.423089870089960685e-02,1.625203924755422302e-02,5.317166899496091233e-03
1.916520997868423615e-01,1.848965062682046342e-02,3.595321936613100509e-04,4.551039519893849159e-05,7.414577575331428218e-04,7.009774007947967671e-03,1.862519108972672532e-02,4.547298858014893475e-03,3.382050538268592185e-03,5.032621835822812147e-03
1.642574391952715818e-01,1.504750413177263074e-02,1.458014455080367748e-04,4.606002671209414836e-05,7.331427695249386660e-04,7.938850391670398271e-03,2.716905404074473201e-02,2.339513635556020668e-02,1.727167302779533675e-02,5.211757275542587033e-03
1.397719688724181619e-01,1.246490224372564896e-02,1.060792724339201755e-03,4.530396746724340602e-05,6.247185137124178916e-04,6.992315505839948736e-03,2.949139695638155340e-02,3.957551914008138744e-02,2.063046540591121497e-02,5.566416481924163148e-03
1.436229218953694597e-01,1.176832214636224470e-02,1.428079832895230283e-03,4.318169983474604067e-05,4.567592793772887140e-04,5.730425259669830705e-03,2.855484781945894293e-02,4.662973259397714537e-02,1.636925273922276713e-02,5.440631684455033042e-03
1.744572575428476324e-01,1.254152453378507004e-02,1.320432498473841270e-03,3.967003757796325425e-05,4.735129757913951031e-04,3.944155251999276017e-03,2.636818467068551344e-02,4.200148644088184252e-02,9.011640861218042642e-03,4.087956120446222669e-03
1.903474475866315241e-01,1.304258695409272160e-02,1.257803027991650493e-03,3.478366821386672154e-05,6.085603982170296241e-04,1.119324196057902869e-03,2.363970779099328415e-02,3.334881631944070640e-02,2.837133621528491363e-03,5.421459328918136651e-04
1.562804674269187011e-01,1.230290845462376007e-02,1.355241968168167683e-03,2.857474364499074787e-05,3.007877321063968869e-04,1.952338688246403955e-03,2.094151948632693230e-02,3.512270303137108446e-02,1.220023514847864195e-03,4.534009061477938494e-03
8.713222896871022916e-02,1.152628097065973821e-02,1.559912498663421423e-03,2.113153302938994548e-05,5.709580082037425805e-04,4.202975951420896347e-03,1.793924871048917236e-02,4.722145111506794585e-02,4.927399458208966271e-03,8.006785341578264575e-03
2.235906414131414235e-02,1.222267443965767246e-02,1.763962160706140665e-03,1.257616067864499002e-05,1.135108788088064983e-03,4.954701478709358335e-03,1.476501734673444505e-02,5.558133757484615134e-02,1.223533018150129055e-02,7.668539862653272858e-03
1.813076571542670407e-02,1.322988333639324790e-02,1.574921533409939008e-03,3.061485815733301978e-06,7.511836266682546089e-04,3.568539592139211708e-03,1.298664315434780794e-02,5.363115933099314031e-02,1.994232803969345214e-02,5.238008396807930858e-03
3.497165339565516673e-02,1.144461752754651063e-02,8.743606770776981858e-04,7.232766878772705744e-06,5.496219705899534893e-05,4.952441916308600962e-04,1.278118786802251786e-02,4.822193390919018996e-02,2.357058823245060039e-02,3.780663673095792723e-03
3.286938807210375291e-02,6.004638711282055466e-03,3.718798657703921537e-04,1.810452232316762255e-05,8.529719153232700622e-05,1.835012147929116887e-03,1.160671429142123845e-02,4.357661757880147008e-02,1.996777955341738631e-02,3.962767359885716566e-03
2.524260274339703430e-02,8.598134747336158784e-04,7.280794050106686316e-04,2.933446311318376848e-05,2.067066731636580312e-04,1.482990922079010804e-03,7.688042674816919324e-03,3.287505563065724890e-02,1.215255526420423379e-02,4.982171625533277602e-03
3.457083678147540584e-02,7.631914967776458857e-03,1.550984519183096731e-03,4.069161477533802553e-05,3.655456921637292161e-04,1.445768867681367781e-04,3.146055202324802343e-03,1.262309895411566421e-02,7.992437518041323186e-03,6.437337121403525694e-03
7.085557169035840153e-02,1.445257066068217529e-02,1.918565759043669829e-03,5.193913691224325994e-05,3.193410894348289587e-04,1.285959454985248626e-04,2.482074101551163224e-03,4.092629907716697352e-03,1.104627488158294382e-02,7.169634983141567539e-03
1.259320669523061043e-01,2.000114369879070486e-02,1.430054792458365469e-03,6.284014472821819442e-05,3.113418856940497036e-04,1.916426262653125531e-03,8.134042788296673779e-03,1.261657648786248045e-03,1.647652272408921259e-02,5.683207514490457198e-03
1.883330338397352643e-01,2.163431965631972334e-02,5.048034153812831467e-04,7.316369495829828289e-05,3.850785244017217147e-04,3.673987417551397190e-03,1.706989269823192337e-02,1.643713469408239480e-02,1.826259305867587376e-02,3.083893486530520176e-03
2.384238920767680348e-01,1.871541052449335329e-02,2.119163322812226194e-05,8.269085981672936699e-05,4.250267706202957721e-04,3.341100094924904802e-03,2.221564647427982236e-02,2.712000559129746149e-02,1.542093798317797741e-02,1.748859662088289536e-03
2.414530221442147684e-01,1.268386174133356858e-02,2.889686945797020380e-04,9.122014337244349917e-05,4.001572587539707756e-04,1.347325642727062456e-03,1.923484750070976815e-02,1.877437821683410404e-02,9.334033651355542680e-03,1.195156506007025513e-03
1.817198627197243455e-01,5.084218062736445103e-03,9.950185471686104084e-04,9.857193530668922367e-05,3.688770881893765766e-04,7.698484794989304218e-04,1.163084526917669559e-02,5.218236928941231891e-06,7.801996008157416427e-04,3.446387630750004068e-04
9.444812561946891449e-02,1.665721841169715911e-03,1.275397033014184431e-03,1.045931574303179880e-04,3.652744981047600882e-04,2.163365804648095542e-03,6.717116075569482501e-03,1.672153048340819376e-02,7.874599389206276071e-03,1.642870097467227699e-03
3.525473978814185061e-02,3.528311752434762187e-03,7.251919846589316779e-04,1.091623859241704650e-04,3.534142634802802654e-04,3.204094450054816544e-03,7.196576702437788159e-03,2.795324245704062377e-02,1.160302538959651075e-02,4.251081798937002471e-04
2.768742145244045688e-02,1.569704758933676211e-03,2.694394719759749652e-04,1.121926307125939269e-04,2.784263549724751000e-04,4.534595040438017290e-03,9.469098842602765784e-03,3.205369347879528930e-02,6.954576641843582263e-03,2.276491074975657038e-03
5.339496675850435164e-02,9.947353017077350743e-03,8.024919355155039425e-04,1.136307845198049218e-04,1.780062088883112737e-04,6.118623757730221567e-03,9.444017426476106897e-03,2.419517512943382062e-02,3.009936682649956476e-03,3.772813796502190453e-03
7.555598485598044589e-02,1.484992638546463357e-02,4.416440582370619169e-04,1.134594821841470474e-04,1.656814857829511523e-04,7.252370067710033064e-03,7.313548328144218839e-03,6.425341966580962183e-03,1.009144806772509229e-02,3.786504416521679559e-03
6.700300999124318702e-02,1.315273131720839928e-02,1.957309915590187556e-04,1.117034383691694938e-04,1.873640682171816090e-04,6.933815190022049602e-03,6.473088320765857558e-03,7.768244124128773770e-03,8.913057556735201614e-03,3.760686131935286110e-03
3.391604706178132783e-02,7.480917646739758224e-03,3.233391544391387936e-04,1.084279346589943219e-04,5.793665882296402043e-06,4.726445622923333700e-03,8.747592485669253293e-03,6.849711119125342917e-03,2.237573161819060834e-03,3.770949103640906623e-03
9.146938074081116532e-03,1.929068542578267617e-03,2.827716075208007765e-05,1.037246644490171540e-04,2.822370591198610401e-04,2.032686897733399466e-03,1.130960807470605435e-02,6.394717192377048602e-03,3.378288836401967775e-03,2.464910201144079969e-03
9.166897665908356474e-03,2.101551311388135442e-03,3.017338896662457768e-04,9.771115898706124144e-05,1.210671563528980610e-04,1.246517482617701383e-03,9.373987234454990436e-03,2.077612910531110094e-02,5.229652123382932775e-03,7.584116760418941911e-04
1.110448096443915691e-02,5.454725950699435520e-03,1.930366715639185969e-04,9.055480082706988748e-05,5.610705504245348287e-04,2.831762768478323766e-03,1.760255290455690598e-03,3.204744284940806709e-02,5.477343978938985398e-03,4.780514967722065273e-03
1.443442258032211906e-02,8.421698987695510480e-03,9.902093876201057505e-06,8.246586594554060584e-05,9.160569331917434426e-04,4.943245338127270731e-03,7.834102841911144005e-03,4.669775031092531642e-02,6.519484421767393449e-03,7.573529163977093040e-03
6.355121285414924714e-02,9.899958091137599572e-03,2.901200917557324546e-04,7.363486125358802582e-05,4.198381383842608792e-04,6.071382564599383039e-03,1.487215251925901559e-02,6.643586900851097821e-02,8.219441761166608115e-03,7.523290515352492637e-03
1.058504793705685454e-01,9.372767416222761716e-03,1.113904941854272504e-03,6.423244537467723313e-05,3.272283462222795158e-04,5.834750237172026469e-03,1.761455838817821071e-02,7.476831158927407794e-02,9.144945428883693994e-03,4.500913099092031938e-03
1.193835690888897794e-01,8.266055867575323665e-03,1.574002254006302230e-03,5.452817250041327643e-05,6.966826729891383843e-04,3.840627265288181283e-03,1.686555007930871930e-02,5.268172026456522522e-02,8.501478886937403542e-03,1.735149100694835782e-04
1.047871845684963943e-01,7.934236793302393287e-03,1.080025041470352408e-03,4.487728371998093752e-05,7.410957514396041088e-04,5.265726268611466490e-04,1.385036589720600037e-02,6.267814742572825303e-03,6.423701845510332298e-03,3.087825795442082633e-03
7.252890550726104335e-02,7.317501428748342078e-03,2.800175517599814805e-04,3.544930457909803239e-05,4.599526112974714268e-04,1.740412691122904774e-03,9.620104140494703526e-03,3.725797910369463978e-02,3.195581263668009590e-03,4.150530817296623973e-03
3.623093377472808019e-02,4.826731190109723874e-03,2.296329049091504464e-05,2.623115133551762762e-05,1.999467308620150592e-04,9.113768884481650637e-04,6.291756434222498147e-03,5.926050770322415645e-02,8.203325590734654796e-04,3.676386461414857514e-03
1.712858606271234693e-02,1.814496475006994103e-03,1.830081310944621292e-04,1.758869679218294816e-05,6.132896968681217365e-04,2.151691690711489587e-03,6.809155174477066370e-03,5.974525424664774154e-02,4.120778590932789101e-03,2.470042921046509011e-03
2.980288383007581934e-02,1.208055951329024434e-03,2.092352171305079077e-04,1.025699995034438437e-05,1.864389613214347615e-04,4.703952676571523592e-03,1.171065371821350745e-02,4.462889370232397263e-02,4.073257530085640579e-03,3.549990527979549667e-04
6.127912634218774662e-02,3.137126192262787352e-03,3.789631577881194405e-05,4.123745302721935725e-06,5.569695628212474386e-04,4.884586926789161697e-03,1.755611392861866626e-02,2.090274278302510502e-02,7.804634088088278389e-04,2.572690427512033893e-03
8.701803264835818175e-02,4.985764166658086805e-03,9.050805956571876651e-05,1.797448130866273973e-06,7.788091437991119309e-04,3.205528029564881816e-03,2.084290632852296016e-02,1.959770288309606659e-03,8.542217404606800707e-03,5.030997399004975487e-03
9.888142908160262035e-02,5.034105571555461470e-03,1.352906602262949546e-04,6.783828331446649498e-06,5.456738606445730696e-04,1.977529660068144245e-03,2.181183830038352714e-02,1.880183444179621063e-02,1.421016252170030289e-02,5.951253860245725447e-03
9.435570798432287021e-02,3.197563533234376414e-03,2.036066874375283716e-04,8.291390948729219688e-06,3.872244348694576415e-04,2.519546857928816642e-03,2.147772369807595880e-02,2.962107976628863132e-02,1.278522067205050544e-02,5.479502109075109866e-03
6.434594488835804205e-02,3.492348637662004082e-04,3.120648063881848767e-04,7.478751568865670154e-06,4.071666120991190960e-04,2.960548981277512717e-03,1.763110300332713584e-02,3.038467437500844831e-02,4.307923903082025788e-03,3.964749391927667455e-03
2.374136774256488738e-02,4.286683959532871027e-03,4.068854393941133841e-04,9.598296650499148460e-06,4.216148878393233333e-04,8.173553307150955780e-04,8.674033118296268011e-03,1.815539820910973615e-02,4.199654837713897096e-03,1.382674605573455933e-03
2.023554265863787560e-02,5.496610490573022173e-03,4.758734773602518882e-04,1.221436053841835476e-05,3.615007906810551938e-04,2.959714524211047842e-03,1.011188367258429067e-03,5.024844624900803511e-03,4.999577344839048650e-03,1.742004260475135940e-03
7.013172028851044626e-02,2.364377125907698302e-03,5.405039324634234362e-04,4.062553990499314951e-06,2.249953477054497425e-04,5.668348816368741841e-03,5.408388966856123893e-03,6.487739382654430891e-03,1.322692564526137086e-03,3.994699691203621242e-03
1.179246451944020863e-01,2.423407827207835902e-03,6.034863997984512641e-04,9.819091689601002447e-06,7.864783923387322633e-05,7.288664920864235813e-03,4.560257107742868299e-03,1.752832678852758730e-02,6.330403134451629589e-03,4.214864255876040432e-03
1.110400256222881105e-01,4.985897043672807977e-03,6.519085878095230409e-04,5.001608723196872570e-06,1.183219459349001330e-04,9.206375467949287975e-03,2.091489590643384657e-03,2.234254925521312468e-02,4.683612801874243413e-03,2.511168610585515996e-03
8.190554077757053464e-02,4.888547190269078302e-03,6.818986644966180044e-04,8.737855278374776077e-06,2.641477947516684510e-04,1.002253405560496989e-02,2.371599817900918276e-03,2.389742581875202096e-02,6.582919698329059086e-04,7.332265817899005604e-05
9.297526031148670156e-02,4.398829261094460222e-03,6.975149749794758332e-04,2.059291494954788350e-05,2.637086416698555930e-05,7.159411813499895992e-03,1.151045206119515746e-02,3.978606883525642735e-02,8.395982529969547598e-04,2.462603752423121913e-03
1.331571138584823344e-01,4.730217700424794655e-03,6.992318418257144168e-04,7.295070670095159444e-05,8.664450556684275256e-04,1.617751337935140546e-03,2.275882970092488883e-02,7.053686485628853087e-02,4.830723365003246686e-03,3.956327028859381832e-03
1.385409336763699095e-01,5.326563937604701648e-03,6.843521756151920354e-04,3.605098240670016082e-05,1.385640104918467409e-03,2.759399311323828749e-03,2.917165046347635488e-02,9.271885111829278325e-02,7.596405597373347487e-03,4.328224485924946421e-03
8.664879054404750480e-02,5.600434974653583156e-03,6.524228449168353308e-04,5.115778086892928966e-05,9.516836568558685681e-04,4.008520124353929723e-03,2.754674533293289054e-02,8.507215204662088581e-02,6.942922024278758500e-03,3.926312063412731174e-03
1.144930220477719494e-02,5.590726957029988099e-03,6.051115529008373921e-04,5.393590301055247328e-05,2.184662889288676527e-04,3.268971658999737882e-03,2.080063473026304635e-02,4.995203081840873111e-02,4.510499926245069638e-03,3.449514296679511999e-03
4.333538759678746272e-02,5.643675743169611694e-03,5.436580604952415520e-04,2.829180544916649279e-04,4.470966840523836559e-05,2.326105537033586190e-03,1.309346563518267934e-02,9.431343324100695952e-03,3.222688216175113862e-03,3.356657872487096329e-03
4.841745892322704692e-02,6.151965574183042816e-03,4.688738683224377376e-04,7.238501544101159360e-05,2.621684670443632679e-04,2.104304067769033858e-03,7.198925977344326245e-03,1.332969678858766764e-02,6.513491395916648150e-03,3.413441338935741583e-03
9.659338474983071923e-03,6.764832125520424053e-03,3.822952551339587712e-04,7.009583846198998462e-04,3.253829781625013919e-04,2.757948974312466293e-03,5.457462966594893265e-03,1.210472190036301562e-02,1.500136958316461086e-02,2.985848973907535495e-03
1.527057779755464084e-02,6.084239107058533880e-03,2.861449063382253940e-04,1.167515596755171799e-03,2.657001447934108839e-04,3.721416121113231383e-03,7.822568679307959072e-03,2.136967255671912494e-03,2.191391791020544377e-02,2.042220842025837049e-03
2.373706880616668902e-02,3.702305261629270251e-03,1.827259565183175511e-04,6.891745646492460596e-04,2.915479915933368656e-04,4.040204684912241002e-03,9.848784714618514721e-03,1.402891591864808760e-03,1.903720782487963031e-02,1.451409521476139906e-03
8.584423563381185507e-02,1.892470342765800381e-03,7.435484721914217224e-05,9.563232963764569305e-05,2.245042658604416437e-04,3.324918849076392586e-03,8.148842210341199210e-03,5.441206195651543225e-03,9.467152567691615450e-03,1.777187552126711922e-03
8.407703959092979740e-02,2.921034975291526229e-03,3.643912997408776819e-05,3.169960442928790420e-04,1.160238802586637679e-05,2.172089921598227731e-03,6.154967702823825083e-03,5.876091165117532447e-03,4.939548201735512178e-03,2.466378068239891141e-03
1.268693786580770387e-02,5.502961428209135475e-03,1.469650685413504245e-04,9.791473203784235608e-05,1.446844296094807879e-04,1.513491148444802512e-03,8.969588950850100606e-03,3.392774737721894474e-02,7.919106415331217744e-03,2.774602237858357287e-03
5.207805434576534553e-02,6.862623187940447914e-03,2.545587963460176095e-04,1.517774029205990599e-06,8.198927150973966786e-04,1.769997911271188867e-03,1.519922947101975952e-02,5.556078696342704043e-02,8.206859377560505805e-03,2.580931256136222325e-03
7.021565510791051568e-02,7.031806529750043999e-03,3.566664796720514855e-04,9.597432588958278881e-05,1.290854694608882264e-03,2.512209351286482598e-03,1.903912096583450231e-02,5.725054952955623694e-02,2.487298898830756985e-04,1.912949962891991344e-03
6.245867198940333043e-02,7.353198201140749915e-03,4.508508129961222820e-04,1.384635261391430148e-04,8.573027999373929089e-04,2.723546533031493810e-03,1.756604886175565372e-02,4.857260282294904169e-02,9.597063201653165815e-03,7.435055501864461973e-04
3.202686326770076697e-02,6.426468518271083452e-03,5.348216048898132543e-04,8.986810390051723258e-05,8.874898731221420099e-05,1.880670902976844857e-03,1.232850125150119006e-02,3.602807416249828587e-02,1.599190441051177164e-02,3.160072483127345086e-04
3.142127416545485025e-02,2.550972452681232218e-03,6.065206301908524509e-04,6.234852993489049149e-05,5.963822870073132165e-04,9.639762229500255892e-04,6.875031799223954576e-03,1.403247551553978359e-02,2.101862236189448035e-02,1.085698053215312865e-04
8.404005413138020131e-02,1.050227926795588773e-03,6.642326063049515091e-04,7.587173433153330377e-05,2.213482261906629428e-04,1.376685280606811980e-03,4.921325270380997804e-03,1.126040572261984875e-02,2.469546499548896240e-02,1.399098478730243476e-03
6.761102634901275388e-02,6.926570105291935710e-04,7.066133063805945386e-04,7.841889798071801677e-05,5.926587749160911779e-04,2.767599016109978730e-03,7.743672497676601374e-03,1.959423554487878250e-02,2.200610778135553280e-02,2.205191694120858890e-03
6.084914630113062717e-03,6.230233869726072363e-03,7.325970975400574988e-04,6.023663417127004659e-05,9.080507933371245993e-04,3.446254803130622928e-03,1.190483445097223307e-02,7.185326855245173852e-03,1.303972382540830553e-02,6.264182257210526399e-04
2.003210310735017985e-02,7.394636692481785026e-03,7.414298615437823255e-04,4.582749713001299090e-05,3.333548211579515389e-04,2.935754354144921342e-03,1.187586941591760314e-02,4.122049276263238006e-03,5.763297627777249146e-03,1.867165469530868236e-03
1.615418775117826236e-02,3.850899891396432654e-04,7.329542418254718274e-04,4.035117906753869050e-05,4.519731140254522111e-04,2.259896768378536532e-03,5.220210763416572447e-03,2.933611859026043038e-03,4.743786958043464709e-03,2.630953627519977932e-03
6.154806098361965266e-02,1.172577651158179975e-02,7.076153800626305444e-04,3.271010592672185855e-05,6.901190289351347758e-04,1.481612807546244057e-03,6.319771502049710901e-03,1.935987877431715257e-02,4.971199256956655536e-03,2.307108205115660556e-03
5.918357593968873870e-02,1.779204694702090500e-02,6.658806148966179856e-04,2.067656352482856317e-05,5.232672775930386194e-04,1.026532033676901250e-03,1.919669472446509928e-02,2.754345492611108906e-02,1.111632844996744869e-03,3.931159630208784506e-03
1.387320075810356997e-02,1.627028191931146825e-02,6.082036972471769644e-04,9.747008309197346382e-06,4.610745495577431817e-04,5.535539944402887401e-03,2.929512260287394504e-02,2.642052557813312497e-02,3.945295414060167802e-03,7.649669442372001443e-03
2.414747209089702570e-02,1.133805103811527833e-02,5.362272836956891338e-04,1.354349210128833388e-06,5.610621885652641817e-04,8.905417489853767465e-03,3.349951032726657119e-02,2.754308584280440453e-02,5.318860180339897437e-03,1.008143990061499164e-02
2.614256998176401128e-02,6.280604638776935388e-03,4.528268447143323134e-04,6.747530199326316212e-06,6.046013897148077004e-04,8.314231075922958944e-03,3.262074372321178278e-02,3.576164096363002726e-02,4.826672816908156305e-03,9.262103653931744521e-03
1.699493014024494597e-02,8.280355884710497447e-04,3.594490730740922623e-04,1.496710017098736239e-05,5.574537004712252575e-04,5.647254266633539022e-03,2.998975901761311708e-02,4.507049379481527923e-02,6.579833685939499854e-03,6.965898529955606190e-03
3.176626529807766164e-02,5.273337483297536876e-03,2.558262748624504134e-04,2.199490120612052901e-05,5.204279359162819300e-04,4.297646356447247171e-03,2.640401897208372040e-02,4.857044748516819999e-02,8.976948710234251838e-03,5.671905937813670993e-03
5.628457663368846564e-02,9.518869604404678331e-03,1.455081252888870160e-04,2.739455070635524896e-05,5.113034591576009992e-04,3.183773480426222227e-03,2.055817917493641539e-02,4.508707150850844309e-02,8.139210397225423582e-03,5.556928498645780090e-03
4.021956960209682741e-02,7.700723500542170676e-03,3.645180418105785271e-05,3.158388084915987365e-05,4.838972295790241996e-04,8.827507001062266439e-04,1.383433090956355180e-02,3.778878296874118442e-02,4.919124053741046748e-03,5.040338474016865800e-03
2.553672987730615934e-02,1.855754390419004241e-03,7.095660473763059381e-05,3.462603644186248422e-05,4.303949405051886619e-04,6.116442278268375936e-03,9.699390252764981263e-03,2.982250410027783433e-02,2.106598025161761020e-03,3.100107588135085288e-03
7.952940761970563044e-02,1.415489055201622944e-02,1.856666832995431077e-04,3.622700605623379265e-05,3.737075481894563717e-04,6.983220276552253372e-03,8.762579341595683538e-03,2.178741525647641397e-02,1.119726441837258979e-03,4.113882451428873253e-04
6.503515049455635411e-02,2.032290294363277294e-02,3.006257737773100234e-04,3.630395415745590751e-05,3.194292795852431751e-04,2.338936599921163321e-03,7.970461588846903395e-03,1.260926833394145768e-02,6.270839521847511658e-03,1.590448620557165715e-03
5.457283214854015928e-03,1.653963866739556476e-02,3.885484086316490335e-04,3.499439340181440439e-05,2.587848880252152325e-04,2.975580153013501847e-03,4.578253610609759813e-03,1.477644933554027665e-03,1.094085229099576485e-02,2.150864383647744377e-03
3.175907002915775990e-02,7.878532964933161742e-03,4.561147973755241467e-04,3.238999998242958212e-05,1.911135822489843218e-04,4.823182128790251544e-03,4.974949375502206363e-04,1.086976861209216702e-02,1.193117335504909927e-02,1.329225314980521551e-03
2.239646217140787293e-02,2.597807799287132294e-03,5.546133546039979908e-04,2.852764716794657535e-05,1.227120104110237414e-04,3.674337467974616266e-03,3.356149429980507908e-03,2.158171756853866780e-02,9.834016175227172293e-03,7.132106337204582001e-04
7.574194669854525386e-04,4.441580413945001200e-03,6.646380619314140462e-04,2.351131225856120750e-05,5.623695853792591402e-05,2.119065299583341912e-03,1.295458774717134828e-03,2.722948602391984593e-02,6.959576224504942718e-03,3.643362261013025679e-03
2.999368972031686564e-03,9.780270032800906718e-03,6.703750446855865752e-04,1.751400414661572429e-05,8.938307146513160427e-06,2.064752559233338884e-03,4.064929405200713372e-03,2.642540032299756439e-02,3.409542867861770077e-03,6.191215112107945236e-03
1.752611158052200940e-02,1.119689339248946744e-02,6.053016419156462182e-04,1.071590230107129726e-05,7.181251195020364807e-05,3.788910973979672022e-03,8.588783649068450904e-03,2.037097091204972954e-02,1.823452279816312627e-03,6.443163629019912561e-03
4.016513640733052060e-02,5.418709334712862313e-03,7.165321638931179118e-04,3.296975473581443453e-06,1.299184378198211132e-04,5.578398510585239056e-03,9.548748625452520636e-03,1.177066883413797373e-02,7.464360850825071600e-03,3.725057008960416111e-03
3.957725601924574899e-02,2.021053230151577569e-03,9.457567355414086673e-04,4.540642803344089066e-06,1.816796483013117158e-04,5.497080618999879674e-03,7.041386455216275438e-03,2.028926729464363386e-03,9.973793198864043183e-03,1.787473037898710680e-04
