1.538991073785148100e-01,2.939176665309962966e-02,2.824317181078712154e-03,1.156280289019312804e-03,4.513232623544634055e-04,2.851374186409168861e-04,9.158126784200328312e-04,2.532024529349359218e-02,6.953400187970060729e-04,1.133044802418775587e-02
1.814835042744273874e-01,4.194740436568957648e-02,5.309042906849815655e-03,1.067320073291015475e-03,9.560191502033404433e-04,2.852623015700661677e-04,6.874687869661024169e-04,4.310709415522148008e-02,8.117160340619370600e-04,2.214232584845421750e-02
1.756884645128736766e-01,4.269768308553324732e-02,7.926434285466592636e-03,9.690884960225559308e-04,4.761116538068835605e-04,2.798560066371348913e-04,4.679390299130908914e-04,5.516308431926900124e-02,9.179891628039724746e-04,3.450201709728837468e-02
1.581543561260828901e-01,3.543919038945294447e-02,1.068820299452133762e-02,8.639310696926966746e-04,3.306316883992077137e-04,2.689462599467824658e-04,2.642079733759907303e-04,5.545646224355497977e-02,1.011950387069321432e-03,4.193502163912058572e-02
1.241627792249514750e-01,2.295576618062368165e-02,1.353572817033652995e-02,7.543086432627127110e-04,4.827820473666772174e-04,2.526873474256780992e-04,8.281114846359229455e-05,4.463882850449912842e-02,1.091648451952026769e-03,4.197288804096696579e-02
6.922476119411495599e-02,7.701819799667416859e-03,1.642029161338907570e-02,6.427338944085578916e-04,1.430884804685879396e-04,2.313569014880639113e-04,7.034468037230855761e-05,2.992891610167604591e-02,1.155434265019479991e-03,3.625247195396385375e-02
8.494235768970315528e-03,7.055952943488977801e-03,1.944510005307058947e-02,5.317062329646329985e-04,1.181119800375687661e-04,2.053496638788639530e-04,1.901461604809794221e-04,1.818103637981753271e-02,1.201997882590837875e-03,2.697944307431989971e-02
4.440375408352155440e-02,2.073219109537970811e-02,2.269821744230843957e-02,4.236467644961595903e-04,4.084250903806985514e-04,1.751683651669582635e-04,2.724190955040102263e-04,1.014259201567580503e-02,1.230397121698943936e-03,1.626587321993356455e-02
9.338070624379951612e-02,3.444625780150664673e-02,2.594441949299305938e-02,3.208349625652545385e-04,2.085974767370269258e-04,1.414119332125410755e-04,3.140536094536464139e-04,2.360667643583476329e-03,1.240077026084831363e-03,7.525991907826873675e-03
1.341720225234401265e-01,4.335880199355827969e-02,2.897311682794158003e-02,2.253486370578144579e-04,6.430321963162365746e-04,1.047613099596076720e-04,3.131046970472368008e-04,6.132938408844723806e-03,1.230879688084920032e-03,3.662912718489028628e-03
1.337518269974332097e-01,3.779292688399237682e-02,3.228094223750660463e-02,1.390087392750051260e-04,1.164017754248032784e-03,6.596321648463713378e-05,2.688610511569287497e-04,1.234076073343237136e-02,1.203044191358818233e-03,3.577418333901237566e-03
6.687426534307566728e-02,1.694284225900639582e-02,3.639258802600030263e-02,6.333050215147109879e-05,6.956703866394477924e-04,2.581225861168288989e-05,1.818818203173984838e-04,1.455969836882320748e-02,1.157196572426252108e-03,3.061786356440744476e-03
3.643685300196724403e-02,6.017375003974947262e-03,4.011561659653655604e-02,5.177819496691204505e-07,7.207374557969963588e-05,1.486819188394855884e-05,5.400973858884465658e-05,1.425350919719625686e-02,1.094329883200405610e-03,4.011344954540506554e-04
1.113285360233045446e-01,1.756971918769491270e-02,4.060257401150590972e-02,5.174736875528817046e-05,2.599593328822648666e-04,5.524587304772249883e-05,1.116429195255163708e-04,1.223552153849454503e-02,1.015774914227923287e-03,5.046562937940930749e-03
1.234295002864059104e-01,1.621796767025469183e-02,3.573106008299124087e-02,8.997218534180526984e-05,1.577579139497367340e-05,9.449977650812671037e-05,3.107558440847482933e-04,8.286020659585779935e-03,9.231625097901506810e-04,7.105966799332203744e-03
8.933147128999563424e-02,8.019692601060054299e-03,2.635223387865748973e-02,1.152215196550695179e-04,9.202507613306462923e-05,1.318400611521358028e-04,5.379023594377571604e-04,4.832486003132610911e-03,8.183781253404779363e-04,5.178102236995723792e-03
3.872897249228006433e-02,3.171948868293405013e-03,1.710733037427306091e-02,1.279417872090795932e-04,6.339390815720426994e-06,1.665272429370463748e-04,7.866450809610516523e-04,6.098003009657323829e-03,7.035091655246471058e-04,2.076919987107677269e-03
1.594975535036701267e-02,1.654813156856716275e-02,1.455618527188351670e-02,1.289878240457288194e-04,2.768492575624635497e-05,1.978901825871566750e-04,1.049634904563311651e-03,1.280292050985992226e-02,5.807868676231558482e-04,1.770997037855550574e-03
7.323016571266513508e-02,3.026062394791033394e-02,2.206006706886928098e-02,1.196039967186300618e-04,2.380185586249289112e-05,2.253424179189403515e-04,1.318804912884294009e-03,2.040160985447370123e-02,4.525253229159288682e-04,4.861742396712813268e-03
1.303368573201535430e-01,4.215754250668452691e-02,3.671054819317143975e-02,1.013942380915965671e-04,4.755951680032451616e-05,2.483964259477436137e-04,1.585632271856594108e-03,2.349055074517176350e-02,3.210580982801952222e-04,8.758808827827877300e-03
1.816784770084625134e-01,5.295094975822353667e-02,5.290800583714792144e-02,7.628125558603357612e-05,2.633619378887642527e-05,2.666754540466383040e-04,1.841260613263920928e-03,2.168696691842639940e-02,1.886714647057370360e-04,1.219639863804280501e-02
2.156720791034679452e-01,6.245037741908388007e-02,6.737132461951698958e-02,4.645852717448826163e-05,1.313252057763969500e-05,2.799226184454586298e-04,2.076522195532967772e-03,2.001034535884757548e-02,5.753800842926556973e-05,1.673245259092432519e-02
2.123157175752851678e-01,6.281285299178021586e-02,7.911491756560920519e-02,1.433713671837216671e-05,1.705609442853152309e-05,2.880070238180365279e-04,2.282289948346103315e-03,2.156081519959323137e-02,7.034222554395263985e-05,2.248786279285880374e-02
1.548181497467711332e-01,4.429784162088494515e-02,8.668330978524704800e-02,1.751701235973856678e-05,1.390556650452795642e-05,2.909267284395059797e-04,2.450071709922184253e-03,2.134927040558741787e-02,1.931959844719524817e-04,2.530329337195104042e-02
4.903704114078728804e-02,1.119396291694971061e-02,8.801386062826367651e-02,4.645624858377614619e-05,2.677721829115737830e-07,2.888084792660876895e-04,2.571910263629360698e-03,1.203978634778574142e-02,3.095369509940847086e-04,2.124204634793222871e-02
6.808372557076167175e-02,1.641552270587163381e-02,8.217289560734036824e-02,6.982052771878996414e-05,1.347434898124915687e-05,2.819042252053129247e-04,2.639736281145068763e-03,4.321551311721472284e-03,4.182211753657538527e-04,1.244195811705490519e-02
1.459021706625168724e-01,2.299677374172884661e-02,6.781016768578558562e-02,8.499657206936529199e-05,2.293678974386126828e-05,2.705844483656282993e-04,2.646162280219952791e-03,1.637884705805359511e-02,5.184708126323791817e-04,4.895981133468521596e-03
1.577503507742347988e-01,1.386634801398712452e-02,4.111865641795838661e-02,8.949111690306448658e-05,3.339729956233987142e-05,2.553284216089091131e-04,2.586440396180075905e-03,1.685642183186059767e-02,6.098842608462602720e-04,9.794506928799012226e-04
1.186300795098516048e-01,4.787266309687725208e-03,2.573911784239273255e-03,8.102759238148228202e-05,4.534216861097503616e-05,2.367116803543041893e-04,2.457316945676547675e-03,9.624466231200053817e-03,6.924874990064465007e-04,2.045365884988258835e-03
5.684020726316559718e-02,8.706796392945474923e-04,3.483550742251288052e-02,5.760897838032061563e-05,5.567334447996035866e-05,2.153910922216920596e-04,2.253251838758964145e-03,1.085561030843642388e-03,7.667867329104454278e-04,6.098011967950468445e-03
1.565338701294932341e-02,4.654403881676510112e-03,5.403045649988332672e-02,1.752000283425986704e-05,6.325389064912474973e-05,1.920877505632645271e-04,1.969116871726180745e-03,8.092653793306561066e-03,8.337022990685039785e-04,8.952055282670639061e-03
8.519745573794774984e-02,1.352754851911714892e-02,5.047088988357989470e-02,4.061494067977818652e-05,6.868464761119136644e-05,1.675679138097295494e-04,1.608602114742861255e-03,1.818229883199888597e-02,8.944646570758420668e-04,7.743971216430478241e-03
1.117873819086065007e-01,1.614113447076474805e-02,3.228342023692305079e-02,1.176627090723915002e-04,7.172759170912592361e-05,1.426227286517172961e-04,1.178839262335116623e-03,2.467668011185895210e-02,9.507305128578238083e-04,2.019726599101090685e-03
6.189161595953339423e-02,4.598865039572147366e-03,7.602625563134057622e-03,2.139526823565275919e-04,7.140045115629986029e-05,1.180476480480092879e-04,6.723749542111845650e-04,2.407349144947147634e-02,1.004753531991338508e-03,7.658615504343015828e-03
3.926217432218243736e-02,1.623591326037046242e-02,2.044949300320482097e-02,3.295172384255910477e-04,6.720413044717396620e-05,9.462147515151798569e-05,7.814747707620621313e-05,1.976646283146812552e-02,1.059055384246449481e-03,1.979294046140458660e-02
1.235071013432033904e-01,3.415522225736922907e-02,5.028769934124427410e-02,4.640708352017991261e-04,5.911090687212258482e-05,7.308465102869667095e-05,5.798649919107217755e-04,1.639361745639848419e-02,1.115938102531813898e-03,2.998784588664604039e-02
1.476348814656026354e-01,4.066423667365632461e-02,7.641106409595717353e-02,6.164411398367646878e-04,4.700433735068253074e-05,5.411853210756806265e-05,1.265313736249529990e-03,1.466066710952163184e-02,1.178032982619829552e-03,3.485449734225883750e-02
1.173655216286122599e-01,3.388361391685076884e-02,8.295463212663004016e-02,7.845795140610062031e-04,3.068962722843434932e-05,3.832813175634952672e-05,2.012949816122534125e-03,1.584233567501762766e-02,1.249192302648259199e-03,3.828024233699698492e-02
5.358420109934438486e-02,1.569349747387785432e-02,5.042391841604264291e-02,9.667930279138835237e-04,1.016428706273475291e-05,2.622623887679702807e-05,2.882812169434497470e-03,2.228085531733286703e-02,1.333157094275277650e-03,4.611929165955797050e-02
2.590284451024308168e-02,7.749456817343344101e-03,1.662861773589205047e-02,1.161807129288210290e-03,1.437879478616162979e-05,1.821507671067850378e-05,3.781005185927756307e-03,2.981993104063575956e-02,1.431419903096510515e-03,5.528863489829881350e-02
9.560365391944561364e-02,2.441721573327609515e-02,7.937455720185221386e-02,1.366224132981159805e-03,4.267721700720162161e-05,1.457124867756023162e-05,4.552872633011813448e-03,3.026801002972434942e-02,1.545805995572626865e-03,5.813433743627964556e-02
1.356999285329444915e-01,2.454427813326972088e-02,1.043922023681602695e-01,1.574444218181160786e-03,7.440504744410314714e-05,1.544355746454027965e-05,5.373648378959671769e-03,2.420586255534307868e-02,1.682891867259655311e-03,5.574696664967859067e-02
1.553150390107423673e-01,1.314851594096083480e-02,1.027795779711080382e-01,1.784242703650443587e-03,1.091207563370967380e-04,2.085273792534678004e-05,6.578217204224551251e-03,2.132594164702147563e-02,1.848395027576698376e-03,5.451053589407284239e-02
1.651793101361199445e-01,5.094348941390905612e-03,1.052828387547212613e-01,1.997262897456463827e-03,1.462742241295923566e-04,3.067320267103463405e-05,7.739460037250859605e-03,2.684569360986405195e-02,2.037383644016608521e-03,5.230247778931505082e-02
1.405129640734275875e-01,4.813051170297754679e-03,1.132229236582154575e-01,2.207319382653449846e-03,1.852450686314346885e-04,4.462031546981882975e-05,7.511268949381810778e-03,3.596149836188775734e-02,2.245805037065253234e-03,4.255441615162477292e-02
5.707731416022991666e-02,2.312616474560031006e-03,1.033675844607142291e-01,2.399259707650824597e-03,2.253567908639906041e-04,6.228669147327838180e-05,4.942536632116498879e-03,4.075652206336914662e-02,2.491513938401217730e-03,2.854988860119179669e-02
5.146327110589310472e-02,8.225067943193414832e-03,6.931974980706140377e-02,2.574146802371008857e-03,2.658786600774483118e-04,8.317856800123656232e-05,5.182592620026272483e-04,3.600370290735419726e-02,2.790044451170855221e-03,1.873448588957806610e-02
1.186026196309716840e-01,1.878204287370212680e-02,2.961752139008028487e-02,2.752586790983811878e-03,3.060410045259994273e-04,1.066579385657035422e-04,4.187270226547890571e-03,2.137943533558543316e-02,3.108924121272837147e-03,1.208654619552192860e-02
1.173531681950481381e-01,2.049958771919227485e-02,3.650245585925830302e-04,2.921275834062659737e-03,3.450581147586108464e-04,1.318921508760850260e-04,7.202351426628329951e-03,3.741942529670144822e-03,3.417979629871379255e-03,2.024131957049314558e-03
7.759540805047930589e-02,1.723943494238614274e-02,1.882994067674824412e-02,3.024729152377502416e-03,3.821461001077287303e-04,1.580143867748203370e-04,6.917280214341538919e-03,6.446943345288185315e-03,3.788126728108188058e-03,9.932911365724918229e-03
4.307208396165734116e-02,2.136124384223760109e-02,3.099828887923498574e-02,3.079454765118480424e-03,4.165376547055637700e-04,1.842822603773437316e-04,3.523452449996432746e-03,5.844062846017602023e-03,4.289372622363990702e-03,1.624427371837295492e-02
3.169940346024753552e-02,3.797295004159411541e-02,2.945397162818397252e-02,3.194940622423065625e-03,4.474990659621174067e-04,2.097934655780104457e-04,3.808648749081809150e-04,2.779762040770344424e-03,4.781072960065174855e-03,1.553896376707150639e-02
3.391250910924342721e-02,5.672243774565028512e-02,9.258190296978996425e-03,3.330568966085992351e-03,4.743479947862689478e-04,2.332000658435103078e-04,2.076585241867126737e-03,8.017216625248492490e-03,5.065778958437438736e-03,1.332273236847594106e-02
3.674458690957293355e-02,6.284927092401031146e-02,1.716948102869694098e-02,3.241708094788318950e-03,4.964689076871358665e-04,2.533734665887147014e-04,1.850569483550355398e-03,2.312430990506080669e-02,5.181679151030685153e-03,1.076897049361500228e-02
3.707485231156259359e-02,5.370854543178078810e-02,2.943963084634739977e-02,2.993683346839509391e-03,5.133262357078971407e-04,2.701002695500080253e-04,2.435179935192778242e-03,3.996551294256650566e-02,5.215768212555868706e-03,3.834290204619921448e-04
2.882232723959075524e-02,3.694478702725215863e-02,2.104933113632662459e-02,3.148998110939217956e-03,5.244761882862270614e-04,2.827501539852986484e-04,5.082563740681060767e-03,4.911794606643246630e-02,5.436488057924451431e-03,2.236494414374662690e-02
1.294753682591087435e-04,1.712289494732101985e-02,5.504625258750782055e-03,3.833935831364932746e-03,5.295767221965692840e-04,2.888247147299150344e-04,7.854156400665319657e-03,4.656686420134466958e-02,6.900687088108967138e-03,4.755229940063683547e-02
3.937103520000851536e-02,2.370394945739453391e-03,6.585898776924257320e-03,4.178910943612940479e-03,5.283948224277850098e-04,2.868323122867425207e-04,8.244194269210726456e-03,3.436596535161027394e-02,9.608913423291606803e-03,5.842526735773433816e-02
4.778664715275843244e-02,9.080202482630916894e-03,3.854567412703407969e-02,3.539041126868401783e-03,5.208109958041215850e-04,2.795264964052856312e-04,5.926816105055556817e-03,1.740557240077405046e-02,9.275419230219756478e-03,4.963186649172756509e-02
3.637981221953845261e-03,7.082813953088308231e-03,8.511519096085398695e-02,2.553737766994655656e-03,5.068211276620605745e-04,2.679100417302894728e-04,2.357227782823692955e-03,1.598963855127913695e-04,6.696360841239344186e-04,3.193464582886165748e-02
5.565502453342768829e-02,3.263600272178206890e-02,1.107674013333274365e-01,2.110069640971955207e-03,4.865356022234222427e-04,2.442149664361034840e-04,9.960794534618338126e-04,1.365135029632179309e-02,1.366150283287136287e-02,1.934938418084781314e-02
7.591422261695221496e-02,4.079261018931637506e-02,1.038179131729467242e-01,2.087459044913728395e-03,4.601755853153133660e-04,2.045691738624681093e-04,3.061636497460211437e-03,2.130694956076404148e-02,2.378652956116159706e-02,1.696748834412498824e-02
5.330317097485173794e-02,2.463578581457692360e-02,8.821918881301517301e-02,1.891502177693026726e-03,4.280665844898425432e-04,1.643549013034940973e-04,2.850699869628420431e-03,2.316835858857541064e-02,2.409755584965303510e-02,2.018034628276445600e-02
2.917207657567192497e-02,2.091536230314693275e-03,8.462256531197384635e-02,1.454427094583653299e-03,3.906294644144349989e-04,1.315835310017663784e-04,3.998206430170828888e-04,1.986450287584306390e-02,1.897290435882238030e-02,1.907710718144296422e-02
3.212157456885881418e-02,1.252618348105357347e-02,8.472741894824716014e-02,1.093112524880068695e-03,3.483690923546217373e-04,7.340990429992277336e-05,2.469798457151506366e-03,6.545656664488959040e-03,1.491890223892857609e-02,5.101614847477394660e-03
5.371711857015503550e-02,2.231009941514330158e-02,7.197703122726699376e-02,8.556641210694917923e-04,3.018609360380509836e-04,2.787474533028143180e-05,3.936712929024291721e-03,2.142962742467920470e-02,1.280838180620617883e-02,1.959760549238928617e-02
7.274007942459854992e-02,3.014338078531669102e-02,4.631642548519795954e-02,4.802942838388690001e-04,2.517360215179217930e-04,1.017412123109296882e-04,3.945527440806635006e-03,5.656585520866416750e-02,1.006328959335647463e-02,4.273186983632950436e-02
7.852946677495860339e-02,2.781604972350104621e-02,1.944843799482958574e-02,6.748430033404767699e-05,1.986644783200921193e-04,1.069678550094741310e-04,2.985999750425382890e-03,8.281920368075874894e-02,5.576495701877474433e-03,5.712368234134587025e-02
7.073986784858735111e-02,1.233275973015140504e-02,2.614565000585817971e-03,4.073262409084769877e-04,1.433379130285791466e-04,1.936117438172675175e-04,9.764445841503714436e-04,9.123237010075066489e-02,1.873582971142169007e-04,6.758322311848161124e-02
5.307479538731035146e-02,2.576044642475598320e-03,2.136237597754660905e-02,4.826236088257786412e-04,8.645137763810553601e-05,4.629017328767906590e-04,1.147011254272078517e-03,8.492148614281705421e-02,5.775554058508883086e-03,7.726609904605964696e-02
3.281087817890764730e-02,3.280635103745706965e-03,3.171452404586319607e-02,1.027393976380646832e-03,2.868574973026070344e-05,5.633251247966550431e-04,1.182519709757847912e-03,7.139498069468004637e-02,6.865886868063204515e-03,7.913503868321319912e-02
1.896019344519735833e-02,5.305860517335100023e-03,2.067538245043265555e-02,2.162295933319672257e-03,2.930972879229359706e-05,1.815549424223798506e-05,9.758298088818508206e-04,5.699683596111905504e-02,1.119914270120710804e-03,6.984618183974038164e-02
1.446444990504293718e-02,8.283647366970630851e-03,8.583763745599010814e-03,1.989507777976739621e-03,8.693510757327899986e-05,1.164332652840700897e-03,2.061401517354463989e-03,4.656514824503264066e-02,1.502844038704109590e-02,5.997553465562349001e-02
1.064676312885609946e-02,1.178570586913835335e-03,2.404965702803860128e-02,1.283272646731481101e-03,1.436556536962327432e-04,2.053149605605793585e-03,3.581258340584274574e-04,4.128298673190112372e-02,2.404998636985002450e-02,5.833216206421719396e-02
6.787383056032147803e-03,6.923430738745125351e-03,1.218486111921389435e-03,5.975648957015776593e-03,1.990139001045746424e-04,1.944807272141490118e-03,4.633137030016824809e-03,3.691533729566399274e-02,2.199291959161632504e-02,5.720034061912367129e-02
4.423460466503013888e-02,6.947845382683870072e-03,4.702515779486748232e-02,8.376855812399020343e-03,2.526406081148618453e-04,8.429429565984486276e-04,7.783062019401746148e-03,3.026775311319498951e-02,1.450000628695728884e-02,4.651187655537364352e-02
9.087231421841381052e-02,1.387671491881605585e-03,6.586455499682496162e-02,7.418527704956107659e-03,3.042681485537001651e-04,5.175280163850901798e-04,8.936770347588449473e-03,2.667266693548686965e-02,1.016288008737513751e-02,3.169001085896436254e-02
1.199485751809971357e-01,1.346244660873189766e-02,4.698323311040202704e-02,5.079510404425851937e-03,3.537394155882410624e-04,1.320139542297276867e-03,8.456425599790796943e-03,3.421890016998296175e-02,9.641605346800620480e-03,2.361734366095912668e-02
1.058887468826846812e-01,2.583045658047984292e-02,2.688952509959515597e-02,2.694385833398956279e-03,4.010037608334267875e-04,1.421978301542803271e-03,6.363250228016219603e-03,5.133725999075622326e-02,8.126584405953181725e-03,2.060618942326136044e-02
5.189024726463546677e-02,3.703196806588202744e-02,2.854232139938194315e-02,7.794652509593593239e-05,4.461137718249757198e-04,1.320252819235896409e-03,3.192814267166173715e-03,6.624662840336631442e-02,3.867817603701900059e-03,1.354597690355028791e-02
3.898820181943202581e-03,4.595389044153867092e-02,3.115387795836326718e-02,3.118300537495098407e-03,4.892409807603266287e-04,1.420881952211587064e-03,2.454517647503786293e-04,6.820734685133915398e-02,1.425368507994180783e-03,1.934287144470725126e-03
2.141142963399328761e-02,5.132608243377409507e-02,1.656470963204340410e-02,5.477643458151478482e-03,5.306812164526821364e-04,1.652765799024451905e-03,2.121670120465032026e-03,5.582386455869149666e-02,7.139581247514486216e-03,7.642872873358039741e-03
6.685126655998381920e-03,5.309571917041128186e-02,4.294053315353045693e-03,6.871055051682819527e-03,5.708102006243829293e-04,1.744495492935739306e-03,4.749147247939170501e-03,3.562823872200140268e-02,1.242302924563166988e-02,1.523696290721444045e-02
5.975656794015520024e-02,5.452766958687359916e-02,1.512043766855063198e-02,7.476828256229959592e-03,6.100511242061810568e-04,1.666849681315790655e-03,7.440331575052016103e-03,1.545043719290736112e-02,1.308493496961499712e-02,2.761536041649758841e-02
1.144138380729590732e-01,5.981880957969606255e-02,3.047015326552059838e-02,6.908576416349638399e-03,6.489403965208342647e-04,1.748809535566289708e-03,8.059447561263432397e-03,8.441335927940408004e-04,6.554158300154861935e-03,4.460266195983006443e-02
1.511199402316848184e-01,6.511113098244296349e-02,1.634980817966913413e-02,5.365155708143326020e-03,6.881626263700232069e-04,2.140031779031588508e-03,5.045538361392862270e-03,1.429217466713207478e-02,2.136981257375592663e-03,5.506102940965670878e-02
1.523798604605292317e-01,5.668603083827968014e-02,2.815632281139159726e-02,4.771714454084228368e-03,7.283682476019877035e-04,2.225543118615542267e-03,2.588405276196012027e-04,2.862138864689306103e-02,5.483923785907215964e-03,4.842749819630808722e-02
1.175506730997457477e-01,2.815009363632244369e-02,6.886340036495655625e-02,6.583340834278674815e-03,7.700453217091664856e-04,1.344481074702298185e-03,4.927821849590536575e-03,4.640388316644818156e-02,2.398824461728305251e-03,2.557145266308741283e-02
6.791017508860355822e-02,5.505650878369208918e-03,7.553507608401015261e-02,9.489833205620669399e-03,8.138522691795225302e-04,1.556490145732908163e-04,7.179074048309575656e-03,6.450983692462486374e-02,3.302601936150720806e-03,1.847643566346514332e-03
1.849064692837154578e-02,2.495027688614416192e-02,4.751528744069712096e-02,1.123459382867650867e-02,8.608435616809702057e-04,1.251065790492884356e-04,7.018438743944518943e-03,7.410980501397000653e-02,9.934332653209882597e-03,2.169820210495981838e-02
3.592867808089994508e-02,3.219471425869088743e-02,5.480110059296265657e-03,1.159358205327141317e-02,9.117062887894605274e-04,1.469527876459375765e-03,5.403199445820849010e-03,6.955413799015787435e-02,1.768907525888334040e-02,3.329577067395590728e-02
8.939494907574195570e-02,4.230123236878493426e-02,2.994353969330198692e-02,1.199218119013356794e-02,9.661990126263928207e-04,2.783962552093655150e-03,3.951292501079597431e-03,5.660384740593273067e-02,2.426894309038635927e-02,4.870693507509512438e-02
1.091097151787294856e-01,5.494373175021032701e-02,5.299436992014287112e-02,1.313585257907540910e-02,1.024709291245777011e-03,2.820452409793936400e-03,4.584551325728435621e-03,4.745953618711972605e-02,2.651600355057028707e-02,7.723612233672477734e-02
7.760491189358083297e-02,5.449195401681705686e-02,7.469126089377883804e-02,1.428212501680713696e-02,1.089436933066321523e-03,1.751617464353472575e-03,7.316721163744137162e-03,4.938059822935156329e-02,2.556294598753778777e-02,1.074472802198098986e-01
2.739314664232972429e-02,3.684957275118078135e-02,1.104483744340240825e-01,1.471964727655348908e-02,1.161046678297682558e-03,6.590532562597835146e-04,8.624255148387488870e-03,6.109729982018240885e-02,2.676091154472216849e-02,1.152669747678351370e-01
7.716456113539709762e-03,1.725859998453465119e-02,1.610582427108692705e-01,1.528691895815008361e-02,1.236007174183375744e-03,2.155289487795755893e-04,5.317991425347421558e-03,7.551819449462604528e-02,3.342167853269419064e-02,9.784026994667149868e-02
2.862875056779974961e-02,9.646320523683362194e-03,2.053056815385852218e-01,1.722538869381720975e-02,1.313629905416080403e-03,1.384890019595651006e-04,1.646231957958457629e-04,8.347936345620006471e-02,4.074774699918454895e-02,8.278114112376726286e-02
5.482557921836773984e-02,1.293650877474180824e-02,2.158422584656906895e-01,1.897422690332647988e-02,1.401903016664295077e-03,1.472605062120008071e-04,2.913337855018139841e-03,8.090029235960813359e-02,3.796406819632491131e-02,8.927531191213862460e-02
5.008247775252271800e-02,2.054445744480815420e-02,1.847151713670653617e-01,1.622677326301417630e-02,1.502586317022225294e-03,6.279065684729329133e-04,2.957116061806626308e-03,7.255975099222761182e-02,1.973305260589816937e-02,1.018508431159862310e-01
1.768217391167705224e-02,3.160282882798105819e-02,1.291400768714930924e-01,6.943065952113823547e-03,1.598348244945046103e-03,1.206782460264421838e-03,3.448332471080632969e-03,6.257668486468016822e-02,6.272971889203534171e-03,9.946470006116193974e-02
6.368470192055173187e-03,4.705833479301844979e-02,7.091054597463303244e-02,5.588644993894407997e-03,1.684262100588799615e-03,9.941185803390298955e-05,3.066225535153031811e-03,4.540957606276496694e-02,2.714294065871129466e-02,8.433394916360109628e-02
3.280789680955947113e-03,6.072659821660700286e-02,1.859464631737989260e-02,1.589391460527388861e-02,1.796107510801495848e-03,4.153754294210100680e-03,2.205865850063345231e-03,1.570678798965619710e-02,3.685131535029480959e-02,6.535736397896310668e-02
3.435470074020453152e-02,6.119262584873044752e-02,2.754063971888774665e-02,2.049920999004111247e-02,1.943728593529109143e-03,8.199984397922598089e-03,1.016121614652606454e-02,1.778830015541087856e-02,3.667480650051477276e-02,3.980984918347316159e-02
5.671831923409315773e-02,4.394765756714091864e-02,6.544531056762245558e-02,1.908203717648056588e-02,2.048600812026874808e-03,8.739248366855547484e-03,1.272430769487577218e-02,3.888598303654090121e-02,2.939913944259999606e-02,9.536120171197454143e-03
5.751833826800849953e-02,1.849812833164491202e-02,9.095871293500223942e-02,1.401183419958562486e-02,2.087039126955841407e-03,6.158256650981719024e-03,6.668885933259987783e-03,4.090872529763929510e-02,1.850843219166536241e-02,6.305121432597365384e-03
4.752799198061019581e-02,2.949266029983229741e-04,9.794146837422787466e-02,8.446937693007890505e-03,2.236479352211332566e-03,3.841918847478137736e-03,2.092176338244651750e-03,2.864777988673142262e-02,8.066563607850891701e-03,3.731053578145500024e-03
4.072001528810042376e-02,7.199535148682148153e-03,8.072423142945678309e-02,3.477484048137447457e-03,2.530887804385518157e-03,3.267945836573745138e-03,7.304404637603260572e-03,9.497748069986308717e-03,2.134714217274872585e-04,1.943634318521356846e-02
4.168336362765848874e-02,8.489706886156744847e-03,4.619211204102815355e-02,1.525629593102526427e-03,2.285162789040176383e-03,2.788586321002284665e-03,9.879345272212708418e-03,8.345842454511882141e-03,5.792147212558331273e-03,1.478067315588376882e-02
5.535816378505018648e-02,9.003111934840095365e-03,1.431105755789751147e-02,5.487293999850827858e-03,4.826245207023615647e-04,1.217316346674253511e-03,1.297014686336976641e-02,1.642978389090856903e-02,6.135013367351265651e-03,2.618964975110401813e-03
9.053974151771269907e-02,5.991023473944197091e-03,2.567542670832035669e-03,5.932503075424489999e-03,2.594088037332671712e-03,2.885855093597352195e-04,1.502331251824503069e-02,1.548648521100188559e-02,7.403527292290113795e-04,6.849953756567075253e-03
1.367753348732400065e-01,1.104810602848343200e-03,8.628488377148907720e-03,3.965014777871301438e-03,4.661294421072003508e-03,7.777472108956045476e-04,1.350071959498524987e-02,1.826157336026273253e-02,4.274337469072603257e-03,5.145889056648277060e-04
1.587047638645983916e-01,6.296903333283960721e-03,9.772409353391128123e-03,4.630013308626924895e-03,3.865934262745038524e-03,1.253895392549214151e-03,1.131983148672563964e-02,3.338572431306139482e-02,2.507431596786324421e-03,7.475342954341511470e-03
1.402012034871107926e-01,2.386645127442387632e-02,5.294987546292512226e-03,9.006140052460968881e-03,1.911976315581811461e-03,2.222639574415519268e-03,1.247378698673497904e-02,5.127169425584690576e-02,4.247766939235648499e-03,4.012627138852426639e-02
1.114138677789944243e-01,3.297243986241469443e-02,5.968371344309170677e-03,1.004507412515752776e-02,2.535273137593271626e-03,2.038317326414888168e-03,1.408279609428359468e-02,5.437814229248455478e-02,9.517057074297450778e-03,7.760039450947844863e-02
1.045478058969934732e-01,1.627445867674871469e-02,2.222221743154527418e-02,1.686481148487131536e-03,6.137871548781557995e-03,6.294165509460535827e-05,1.060535971706374515e-02,3.945442439487250458e-02,1.143503443682963340e-02,1.011619112647704072e-01
1.079486429227646122e-01,1.118869834811504760e-02,3.726111185706267731e-02,1.112284762768669770e-02,8.587647860224579405e-03,1.102614707508493006e-03,4.170845881714358057e-03,2.279644844062058209e-02,1.302262081744761692e-02,1.123232183177756277e-01
8.680931329581195732e-02,2.131766494290985789e-02,4.112420817149126107e-02,1.829316481020559770e-02,6.878590080615194606e-03,5.036658499103609851e-04,2.463178791594211516e-03,2.071285107975267756e-02,1.468055152008173637e-02,1.198070264562753479e-01
2.560822611554476949e-02,9.156294146134315304e-03,3.212846695229491789e-02,1.791461205154449426e-02,3.419887787745335903e-03,2.695345763460734768e-03,6.779398204165445682e-03,2.976270018203784271e-02,1.246056641123237038e-02,1.229009600021941512e-01
6.240262246217123665e-02,1.044491323044150800e-02,2.187529233012147634e-02,1.608738841970603836e-02,2.350535592752035774e-03,2.783821621130103639e-03,1.040751569043788481e-02,3.501033412126879074e-02,5.242193776519032261e-03,1.154985661435684319e-01
1.442608590508658861e-01,2.826799389065790674e-02,1.720949117882694321e-02,1.550204786588909971e-02,3.494427691869966737e-03,2.095419223211997771e-03,9.454444075959637234e-03,3.288887980712520281e-02,1.586555949122175294e-03,9.965320564652102586e-02
1.829960482388611198e-01,4.288620438311972760e-02,1.142967771691627901e-02,1.241880071490173397e-02,3.090747902995268862e-03,3.283001323870020013e-03,6.872083600802611839e-03,2.908202289561306539e-02,2.473815635713776193e-03,8.359580519573943380e-02
1.703593880155858664e-01,4.915177565292392498e-02,2.251463461888694381e-03,4.610806375603103587e-03,2.292036585647952342e-04,5.540251154461529014e-03,4.700276609348580034e-03,1.913163543312260476e-02,2.496414905944112882e-03,6.931696867514880456e-02
1.425800680681608423e-01,4.205049274939673398e-02,3.601798867643745718e-03,4.329783574015586174e-03,3.572003131117081412e-03,6.078419262307690162e-03,1.223521286245685558e-03,4.988035430089968018e-03,1.011346710403088385e-02,5.652710061983007989e-02
1.362247931185205096e-01,2.645406685165311439e-02,9.177950732982515653e-03,9.327773710093372264e-03,4.201185376672543492e-03,4.323008144019597175e-03,3.191304565077377961e-03,3.383998718033852382e-02,1.725506051548001546e-02,5.427124451407000505e-02
1.354292085806448331e-01,1.282379465794661159e-02,2.213231474553391948e-02,8.697815322894675641e-03,2.907878395484068696e-03,1.530702218340234452e-03,5.931520395310356519e-03,4.986794171864893099e-02,1.987470847394163034e-02,6.881870067538359281e-02
9.924386067819278290e-02,6.267095725189871999e-03,2.956507749091853710e-02,4.547879420582363538e-03,2.097663379866459947e-03,1.583563504113342938e-03,7.540769954347156107e-03,5.116744271648231146e-02,1.461044803419013147e-02,8.552367843806878145e-02
3.567876776437933772e-02,4.810785846003462311e-03,1.246979152279904454e-02,9.838265161323173687e-04,2.677124061696894899e-03,4.044067157594618926e-03,9.805783629207720856e-03,4.689678864743614811e-02,3.827373938906176998e-03,8.657041836514393907e-02
1.498254310587727707e-03,5.507563794079002248e-03,1.658350776409779626e-02,1.819260787145648853e-03,3.818379476630319631e-03,4.036759559198009086e-03,1.074685246997854858e-02,3.974254218451725440e-02,5.629273938734440617e-03,8.087215833851026103e-02
2.177020630339292218e-02,7.693408108164313114e-03,2.833677378642424083e-02,7.013186941242237175e-03,4.268973952472434816e-03,1.935617428405007369e-03,8.681676925889602117e-03,3.000287354700909015e-02,1.006086803411994357e-02,9.030338290848913263e-02
5.636612065501557522e-02,1.174538398234433421e-02,2.391109375213291977e-02,1.092399818135601428e-02,3.111493629329480787e-03,1.177892911916133146e-03,7.911869032928162127e-03,2.633572973178910370e-02,1.091882807627986632e-02,1.119679367958179850e-01
6.140141234963997913e-02,1.845840377235501498e-02,2.667218727098042558e-02,7.673365436631241279e-03,4.278640753062240608e-04,3.594995488247842898e-03,1.302688126016995560e-02,3.519601086213860336e-02,9.522284270218187019e-03,1.209734457083593145e-01
4.018275570661081902e-02,2.748021196585350573e-02,3.485030034865484183e-02,1.013887829225809103e-03,2.477577709700103277e-03,6.662218940482329300e-03,2.022854060296410544e-02,4.400415876383297759e-02,5.590326043401252706e-03,1.082705096734205702e-01
1.482298701025134419e-02,3.395385026083536789e-02,2.285045155340678993e-02,6.910473747653327579e-03,4.324569023403168622e-03,7.287097741593646927e-03,2.109258428146822129e-02,3.050264420143924265e-02,9.875414282260258029e-04,9.038247273239195800e-02
1.139589962122312256e-02,3.284873120130234192e-02,1.441711379493973433e-02,4.455475788849941506e-03,4.676891784392953229e-03,5.472780680547425711e-03,1.374483776152682357e-02,5.649929548911152358e-03,1.229174280032016000e-03,7.814392683689505570e-02
4.121829418607496354e-02,2.880720718148151865e-02,5.103580313689069087e-02,4.054350918154700674e-03,3.252418059296016423e-03,2.970800141561893721e-03,5.021773930072415994e-03,3.167880625993253069e-02,1.816208131571905209e-03,5.964191377774441527e-02
6.316764783288923713e-02,3.164161896883977559e-02,6.269585724790216474e-02,1.158092329438488097e-02,3.878350554932273120e-04,8.841826548725828776e-04,1.704793639305789317e-03,1.667275761477667734e-02,3.752946221762731936e-03,2.503483248326716232e-02
6.134782829214661948e-02,4.043032190395447201e-02,4.949808940796511514e-02,1.281000192109915670e-02,1.824274416146985005e-03,6.600059918596824608e-04,3.526310162004141387e-03,2.763503038914027696e-02,6.126324806505299876e-03,1.191436484816195580e-02
2.669545731147093814e-02,4.534972989807795063e-02,2.812479921656350912e-02,8.517238644065210779e-03,1.460948591713803930e-03,2.138583725389936810e-03,5.533368795868551064e-03,5.925031074111831303e-02,5.358939817006052285e-03,3.072969218515247264e-02
4.457349170088535650e-02,4.540894517492262417e-02,1.377008509969454564e-02,3.246915748494900132e-03,5.667368873367541800e-04,3.992801976880912783e-03,4.453928877787795802e-03,5.406296675788038048e-02,1.299166906744011508e-03,2.638178936796902255e-02
1.391473018235043768e-01,4.784969733204509634e-02,9.319182413423103550e-03,1.301977461676072974e-03,1.972704612197707062e-03,5.759367477846731413e-03,1.024753786671957602e-03,2.292696823139536016e-02,3.621655774675280187e-03,3.093367316210576465e-03
2.118805895976925979e-01,5.130234017834376520e-02,6.862878669082701777e-03,6.520388526855005161e-03,1.931790100595167899e-03,6.554154397597856951e-03,2.444230108261427527e-03,9.820079860822148593e-03,9.248895076101725649e-03,3.654353375894887207e-02
2.154859070747268679e-01,4.869816089804156894e-02,6.147563804603714804e-04,1.052072623273929246e-02,7.987569448540429544e-04,6.426226621073234668e-03,5.000333551454998020e-03,2.478012624657499607e-02,1.621941828281067352e-02,8.080272543058573953e-02
1.553907878793049091e-01,4.345815899319508541e-02,1.091046047665473161e-02,8.569264076794407686e-03,1.068086162559107226e-03,6.200436632723090209e-03,7.901443745520930761e-03,1.514585116146007632e-02,2.217225976548698602e-02,1.040056099256700117e-01
8.782154912758927123e-02,4.118955442921591603e-02,1.902387842237614896e-02,1.389246092150732805e-03,2.901995923804949733e-03,6.228595962729959953e-03,1.307246093310648720e-02,6.897905385972440823e-03,2.432729367718803465e-02,9.400652582465238161e-02
5.763166508255987419e-02,3.199107826427901452e-02,2.571907824930203326e-02,4.044306580959501976e-03,3.693567252383316100e-03,6.271440269739390200e-03,2.027191133923839095e-02,1.991229025505400485e-02,2.311820366284273592e-02,7.051388536362956927e-02
6.501032432417383489e-02,6.222720311641099372e-03,3.183601414382093014e-02,3.854913387999393641e-03,3.498388685950315925e-03,6.268782143117745606e-03,2.653411064509562239e-02,1.620597729553542934e-02,1.985363098831595743e-02,5.399076005518627791e-02
9.009706363581282407e-02,2.028663346110977025e-02,3.303680059590555218e-02,6.853336071704405454e-04,3.306953365660260814e-03,6.336860831497508582e-03,2.938097394604261697e-02,5.231468056869294399e-03,1.464026630116519248e-02,3.374503038168266689e-02
1.151060566018338449e-01,2.390975433756098445e-02,3.005514634598754550e-02,3.671327651350179359e-03,3.468959783402036576e-03,6.294048978003738762e-03,2.931052356343067170e-02,4.050494310521362065e-03,9.302524534607685761e-03,6.502899398290943114e-03
1.211589638688511106e-01,8.729795022704774088e-03,3.103645854022325443e-02,1.116565576533516506e-02,3.417776691065607924e-03,6.052903944941174889e-03,2.832231628367898324e-02,1.167802404191171407e-02,7.601138063169282644e-03,4.932039868492970464e-02
9.468743184937658541e-02,7.471232064847933840e-04,3.517509278495128261e-02,2.037877402825433171e-02,3.097718012067935366e-03,6.158866684093640062e-03,2.744375933619134372e-02,2.080921019619654672e-02,1.003083374245715594e-02,6.458605809623498006e-02
4.359673353938992718e-02,4.989875089643960177e-03,3.147588144556274364e-02,2.457567089145977143e-02,3.338464903475158591e-03,6.738800765063433264e-03,2.548589818457821024e-02,3.135450938403603477e-02,1.248657921697522016e-02,6.117683576668903056e-02
8.689085679418142444e-03,1.657178496313144872e-02,1.838385869997356814e-02,2.071093462400936877e-02,3.936694117478550456e-03,6.204295709879414228e-03,1.869236156944339283e-02,3.540228790506963485e-02,1.139584020891905476e-02,7.950242371895030469e-02
4.487834559162217490e-02,3.207919224630054189e-02,6.767320710666686369e-03,1.418839570167490342e-02,2.645944486941171746e-03,2.778086180264096108e-03,3.825671795162998920e-03,2.024579469467598092e-02,7.375888328782729056e-03,1.284129051380349662e-01
6.418659309102928145e-02,6.247901398649428895e-02,6.362819136234798209e-03,1.200042420198836612e-02,2.084569807676020774e-03,2.791655016121357379e-03,1.610215522829311352e-02,1.478212317394875935e-02,4.418469803586472060e-03,1.673710423817801329e-01
7.987975356923296411e-02,1.083826098263459270e-01,2.429938360241010176e-02,1.577043776331008354e-02,8.186652599042467532e-03,8.076911047216370557e-03,3.266498448183249859e-02,5.048753920220658969e-02,7.046136206828441245e-03,1.666712641991162369e-01
1.037580947220697880e-01,1.499777104448730969e-01,6.305814501715321929e-02,2.225093679281686318e-02,1.188780747976214344e-02,1.210501676435120355e-02,4.062315060717618803e-02,6.736947913211649430e-02,1.603271016950157113e-02,1.476666336912063060e-01
1.218752955853167064e-01,1.660925904226543126e-01,1.041412036863900853e-01,2.665454399544614841e-02,1.185449066751989404e-02,1.520487722454026171e-02,4.155734621291169717e-02,6.438575134787058452e-02,2.601836948330410459e-02,1.381959522217863223e-01
1.032246959199474567e-01,1.535835991805337419e-01,1.136790095520524013e-01,2.548664232232341828e-02,9.506843941734798714e-03,1.655968612412964808e-02,3.891777871934434113e-02,5.193136066842772569e-02,2.997647431528065870e-02,1.266321318941442675e-01
4.872823158188858972e-02,1.251859695086883217e-01,8.090742370650386150e-02,1.898021444813775827e-02,6.271829862093951380e-03,1.502222299534528016e-02,3.508007783966911319e-02,3.907267614995604821e-02,2.607537645661254025e-02,9.557811923170243806e-02
2.390724133301066253e-03,9.490803057810583143e-02,3.086171374085770053e-02,1.047843777545294508e-02,2.689326913725300413e-03,1.188189143181040547e-02,3.237690692138062154e-02,3.156586568942230248e-02,1.755580543058300053e-02,6.653155439707596208e-02
5.923689373163227093e-03,6.834236884216841890e-02,1.295151319200372672e-02,2.267195838000413913e-03,4.809053466394290250e-04,9.832178667135614558e-03,3.133560072166725191e-02,2.955273955068293129e-02,7.335641184790376960e-03,6.908463089492715425e-02
6.061875507807241992e-03,4.475703378919233810e-02,5.049960363305083799e-02,5.996786446882642480e-03,2.276112667542879320e-03,9.371009826299209200e-03,2.909449140181050858e-02,2.542097496495349801e-02,3.260989538625030156e-03,9.071689411545952320e-02
1.376559076576242685e-02,2.482411605428921225e-02,7.577163801101613472e-02,1.344519336499873721e-02,2.639285853624218948e-03,8.530917352105284873e-03,2.356393656819536983e-02,1.296014882682369924e-02,1.205878783137225713e-02,9.565419961689367034e-02
2.009144198443825469e-02,1.193204567592085277e-02,6.261572913441847132e-02,1.614427251337782060e-02,2.391720237555631373e-03,5.901477102065794643e-03,1.704832770482904783e-02,3.064640850318029082e-03,1.737618398178498308e-02,7.484809496975138032e-02
3.385725694299006328e-02,5.570507074794263380e-03,7.559692827895573078e-03,1.235565245795702469e-02,2.154073685518012853e-03,2.291521674936953905e-03,1.303848850922263887e-02,1.288536047305039595e-02,2.086917492126830198e-02,4.643411551764738132e-02
4.991211020135254139e-02,3.288000150601395194e-04,4.603487932930773463e-02,6.823883387256056421e-03,2.021230189128382822e-03,4.453249073363641170e-04,1.184442586901615982e-02,1.421053432509020685e-02,2.435354599159429007e-02,2.544469698597614377e-02
6.149553907401232589e-02,8.524890337026209269e-03,5.835741990157658488e-02,5.525377934072554266e-03,2.031798087336501336e-03,1.422976577280313671e-03,1.136901714910583741e-02,1.346955237194694815e-02,2.490110938618388114e-02,2.121055118094574560e-02
7.018981075719631091e-02,1.345368047313807124e-02,4.052674194930010187e-02,7.739643345754464165e-03,2.098445830445639770e-03,1.342115409522082539e-03,1.023242370456365312e-02,1.505254126625621240e-02,1.788470643307494071e-02,4.763368475969816107e-02
8.363197102678385231e-02,1.026086338521857086e-02,2.538774646177443042e-02,7.939897512247834008e-03,1.749011568317202728e-03,1.260670455517789047e-03,8.576814331336571340e-03,1.251437677027374129e-02,4.348735104050119489e-03,1.072421290918153247e-01
1.118368364684223792e-01,2.809043731464483384e-03,1.974599319091450284e-02,4.732746205468585203e-03,8.711802391606547581e-04,1.584178103791652461e-03,6.795373636421477535e-03,4.086240254347292891e-03,8.900863318159684540e-03,1.727046230242842151e-01
1.558585619299144576e-01,3.110624473418293484e-03,1.060951055802016735e-02,2.474875862739234298e-03,2.938206261579765725e-04,2.439992337404760583e-03,4.740831728558849573e-03,2.984146269423334011e-02,1.630547981892727441e-02,2.060119743720781882e-01
2.005759118463108504e-01,7.323273764903594392e-03,4.400788459078019618e-03,3.511279176810756970e-03,6.509798452801029544e-04,3.644783854175592634e-03,2.437637306859864218e-03,4.445149343892383642e-02,1.720869258512431124e-02,1.957998040473252488e-01
2.321061163573845121e-01,1.092004876709585029e-02,1.262009672085412197e-02,4.468886590033809177e-03,1.324627627556227349e-03,4.113807766177137934e-03,8.091952794810491640e-04,3.877397005164534560e-02,1.336964241518183438e-02,1.645855761759036640e-01
2.546217586798820154e-01,1.286454241787164145e-02,1.924891060533506781e-04,2.149476158160338116e-03,1.448225517391104169e-03,2.993407328535289697e-03,5.721166446257190241e-04,2.952895871416906168e-02,6.850759494981408827e-03,1.392304014533253531e-01
2.733554689842272456e-01,1.445055347943085405e-02,3.696090033661104252e-02,1.541732537252908045e-03,1.136287714029816541e-03,1.384223814483677732e-03,9.219158296250489285e-04,3.514199322319556257e-02,4.917986440951792066e-04,1.233849643393017809e-01
2.697417459418894325e-01,1.800423043850608168e-02,7.981294978427763698e-02,2.891966399638741525e-03,9.510775938535274846e-04,1.163345713700478148e-03,8.150651293609150090e-04,4.976045215885160217e-02,2.879050793010755772e-03,1.030854553525950151e-01
2.142132192877851948e-01,1.931608103340900703e-02,9.851687392180673297e-02,1.189976330051032002e-03,9.653155447632834297e-04,2.304150358651677402e-03,6.804110283544554088e-04,5.512761154027578936e-02,2.834520083279043912e-03,6.981888783767654927e-02
1.089267810397735459e-01,1.135736662387617016e-02,8.050660795884581611e-02,1.990714326154149894e-03,9.369956127573462025e-04,3.142135893947464991e-03,1.146429321146598054e-03,4.689055264542118379e-02,1.740415386926080950e-03,2.783793660125035915e-02
8.669647750182163728e-03,2.412115121825212510e-03,4.614523029290220485e-02,5.728961379212971217e-03,8.249947231498840593e-04,2.937547653625602849e-03,1.284918535102361203e-03,3.531883255741108396e-02,2.392532754716100545e-03,1.335680054541063186e-02
1.955014584721519524e-02,9.344733208430636498e-03,2.318147711212169976e-02,9.687435140096709724e-03,7.409465200881778504e-04,2.450372151192169601e-03,4.316543898895019342e-04,2.758905548160728652e-02,5.602406337355532277e-03,4.362106282023714421e-02
2.782136342210873858e-02,6.509265710999799157e-03,1.385302164128266594e-02,1.277094633681143468e-02,7.054014560221777332e-04,2.310919757094023145e-03,4.686514744794689595e-03,2.072770971672241100e-02,1.021148623240448680e-02,5.719949895921740135e-02
7.577066697286624630e-02,6.935672190462548875e-03,1.334285866486645830e-03,1.389827422622570870e-02,6.660302917095818013e-04,2.310900817878011691e-03,1.145172072259372821e-02,8.397782227686806378e-03,1.505094859171284688e-02,5.929958669162375962e-02
5.787681376056685173e-02,1.996248003384777994e-02,3.447535085371766089e-02,1.338934572431757855e-02,6.120428167677532906e-04,2.168938350142719535e-03,2.006233804922388786e-02,1.169837908553827445e-02,1.964109185872422308e-02,6.009328202651026407e-02
8.753970824413422752e-03,3.704612108280694316e-02,7.632134079790878212e-02,1.242813449839640615e-02,5.671416051914307793e-04,1.973953848186085248e-03,2.868845408292773277e-02,3.438925640649185406e-02,2.296659634802343877e-02,6.238154740419161320e-02
6.838283479324382130e-02,4.680032977662579308e-02,1.077306945120294068e-01,1.166951729557939334e-02,5.358812208172547683e-04,1.857744923607929002e-03,3.492581228639751734e-02,4.920568887947088937e-02,2.373089823349506036e-02,6.300768350154685449e-02
1.046132600877510976e-01,5.266764166283656456e-02,1.179635565153988735e-01,1.101656592466934877e-02,5.063327883540015084e-04,1.780190983289566377e-03,3.759299303538107817e-02,5.045894180517428163e-02,2.231637674942023655e-02,6.203196995841574884e-02
1.292674437126930531e-01,6.359306542806526796e-02,1.139396219031797997e-01,1.029088905598159187e-02,4.752628415597709845e-04,1.678601609998730615e-03,3.738388634192480603e-02,4.532905279894025585e-02,2.055264612514070069e-02,6.213330394014755786e-02
1.377147992454976211e-01,7.701555067777880736e-02,1.135155032579906187e-01,9.540080980794233417e-03,4.472188422906527385e-04,1.570207273177587001e-03,3.531144661053460532e-02,4.686597453497817756e-02,1.940713643344412626e-02,6.321165114799232043e-02
1.250490691967417467e-01,8.384522497063244539e-02,1.241112843612311584e-01,8.838786981731409226e-03,4.227452059856838919e-04,1.483573185348955551e-03,3.156860396516896622e-02,5.943831886378936336e-02,1.844335911990331589e-02,6.468596940647891591e-02
1.133483560648012312e-01,8.239552780339939875e-02,1.283055153968120365e-01,8.162154425447107689e-03,3.986960574749270859e-04,1.409803309805293670e-03,2.687673317744525975e-02,7.579569999864724239e-02,1.723703794514429982e-02,6.980808236570194836e-02
1.247965037279945844e-01,7.638232017332938217e-02,1.039910143981024604e-01,7.475519476607595318e-03,3.738045524539438530e-04,1.334092547692780281e-03,2.354358655965559793e-02,8.745540605811343016e-02,1.598561360537066947e-02,8.193301461178273404e-02
1.521142626379568263e-01,6.685251804022297739e-02,6.061220900558222241e-02,6.789548842727916381e-03,3.486271746560897834e-04,1.258999772052235523e-03,2.339003336520788581e-02,9.266876741815946450e-02,1.489402582207527588e-02,9.909476026496674694e-02
1.717971238938829359e-01,5.521267683826340533e-02,3.467753802649017197e-02,6.114528230251164639e-03,3.229133004706377132e-04,1.189999312433266936e-03,2.529308225996731996e-02,9.358167629229659223e-02,1.385066817293297177e-02,1.160890528631178253e-01
1.629296571633025992e-01,4.647147295920571464e-02,4.339657760895367089e-02,5.443019588705436292e-03,2.956244315683793141e-04,1.124449132367233732e-03,2.642538360772557146e-02,9.107864898897485850e-02,1.275446837692253282e-02,1.280938869009746184e-01
1.151513010436014672e-01,4.187115002499314925e-02,6.519026419075549250e-02,4.781095931582612230e-03,2.662811836412040710e-04,1.058263676597942862e-03,2.545343425069911125e-02,8.644827182293864098e-02,1.171416928124039032e-02,1.294858302484573065e-01
4.251951022089450749e-02,3.490429507904318357e-02,7.367508720599429128e-02,4.138037032240497390e-03,2.349788853899413207e-04,9.912021018391398239e-04,2.273837501776829195e-02,8.440589029602561799e-02,1.079834283014621116e-02,1.156078672289716780e-01
1.748431770606553165e-02,2.130166650408860454e-02,6.974720021935791603e-02,3.489692254656194970e-03,2.015608962601706411e-04,9.238473443918875051e-04,1.833155908355001487e-02,8.827381094185295096e-02,9.843912333799515607e-03,9.076361936761920268e-02
3.117310535035702768e-02,8.644176871719299118e-03,6.930176037241650433e-02,2.822447419311892129e-03,1.656171214631319889e-04,8.551289601752870735e-04,1.236535097542113167e-02,9.441351723931462603e-02,8.780599372645921108e-03,6.931892065332062591e-02
9.232506521505416675e-03,8.450699258808558670e-03,7.508801019414282352e-02,2.198642349172910421e-03,1.273170469632909773e-04,7.837394304118962133e-04,6.292285433245881771e-03,9.832824211632716638e-02,7.932883802363201869e-03,6.375204383966368016e-02
7.985220341535248512e-02,1.927875799737713280e-02,7.599396275302598702e-02,1.653370778923483365e-03,8.741253449951521398e-05,7.093387352366823046e-04,1.365649123028226958e-03,1.019980932643478472e-01,7.428722594704104988e-03,7.387770330181742118e-02
1.354855688265684532e-01,2.634506007337795649e-02,6.685544568592968750e-02,1.058191733430041736e-03,4.589683597211712131e-05,6.319279064266054412e-04,2.587310902088859124e-03,1.041874076033086072e-01,6.595419119585136866e-03,8.917621227920305427e-02
1.460080912366613914e-01,2.002575833813634645e-02,5.274794200738787409e-02,3.428525664130303461e-04,1.968440812915892382e-06,5.512935069496263836e-04,6.013106426095319451e-03,8.976743387062095791e-02,5.173330947507300340e-03,9.817468859811477599e-02
1.232073238164614060e-01,5.706239376582170064e-03,3.605125414388034299e-02,2.080781926956852502e-04,4.333414956645715584e-05,4.673041372424884075e-04,9.581211173638094422e-03,4.621019945222136494e-02,4.598994342984280212e-03,9.466105161942912904e-02
9.606827672008914909e-02,6.691791361985823146e-03,1.325265558907193046e-02,4.168561713216887774e-04,8.702613236764122461e-05,3.801777215775996896e-04,1.467131652502050819e-02,1.430927598208844333e-02,5.226884036784301517e-03,7.872464252358589432e-02
7.504376699745174406e-02,1.340798076095365762e-02,1.824657479888885936e-02,9.116726610013716750e-04,1.297394116147004123e-04,2.903430097410578223e-04,2.115779093013423276e-02,6.769739415488887357e-02,2.552943079114610922e-03,5.463545527377262900e-02
5.441766727362076783e-02,1.537004821948995820e-02,5.902414431309686849e-02,2.375941191331571150e-03,1.761300421869728102e-04,1.983034437542227277e-04,2.591529446207978260e-02,1.046342359673960720e-01,8.643362017936584429e-03,2.745027036283220062e-02
2.927046089331900025e-02,1.375673379422833603e-02,1.051311953909779828e-01,4.060333645539944587e-03,2.230999752500195893e-04,1.046849680651278319e-04,2.591285268328111929e-02,1.268920199104282276e-01,2.532293898049858480e-02,1.636495412697615628e-03
1.137773706587253894e-03,8.756407177963665411e-03,1.417012301747943570e-01,4.454298731858812033e-03,2.586730905358289507e-04,1.027930241786497540e-05,2.169773726141412465e-02,1.309744874451590768e-01,3.731564890321234507e-02,1.706849012534922966e-02
2.120628607293751494e-02,4.442108580549357019e-04,1.508607744352754021e-01,3.555652354944858519e-03,2.871511419500572069e-04,8.400409562962722729e-05,1.618767342861801226e-02,1.145888237178938479e-01,3.873490711473914772e-02,2.195426714894780154e-02
3.040750909550773984e-02,8.257656335886908935e-03,1.297298367816903941e-01,2.870713223191836971e-03,3.322223412340323144e-04,1.771895062407148895e-04,1.118810231911840369e-02,8.760243100027975682e-02,3.247126843230454390e-02,1.122816360835761883e-02
3.381379751375485077e-02,1.093609608939025320e-02,9.317562733142392695e-02,3.144874921008814980e-03,3.833811522629400163e-04,2.682473726845191453e-04,6.911777332556236914e-03,6.300918916725009589e-02,2.338374562532096260e-02,7.755707780346201424e-03
4.080601400500541431e-02,4.401795967274116719e-03,6.013585855242505052e-02,3.691010446385047192e-03,3.879382884308282104e-04,3.561074334214019426e-04,3.901697131230478718e-03,4.523320329260123451e-02,1.363344050398144700e-02,2.332081539208115742e-02
3.366204359069615432e-02,4.166895069386146455e-03,4.167858884281207960e-02,3.877391139801864960e-03,3.652909221060328003e-04,4.396920069662853953e-04,2.737813906810112208e-03,3.179354146383130825e-02,5.076022508408820598e-03,2.886995627209659743e-02
1.495498711336886062e-02,3.469936649065663049e-03,3.849243370842840573e-02,3.878846789919468841e-03,4.271458758623511019e-04,5.179500750543099752e-04,2.274961231788035637e-03,1.979510059106505404e-02,2.743094278592438356e-04,2.685448830120142766e-02
7.772355585479992501e-02,4.441037544955853990e-03,4.475041583389146455e-02,3.978102708812353283e-03,5.340601109711831359e-04,5.898818287791847111e-04,1.202205370445411136e-03,1.115974305417398449e-02,4.361471462718388356e-04,2.351367110644105723e-02
7.733080835703828870e-02,2.654963368718363335e-03,5.222683703125909072e-02,4.103498186559070837e-03,4.430240038177727909e-04,6.545616280542529289e-04,9.338593181554572659e-04,1.308884829141711628e-02,4.547455052895661536e-04,2.066952353590914213e-02
3.216475740747190906e-03,1.487482100764035003e-02,5.185844054146446919e-02,4.124867171644741766e-03,2.221610545345636760e-04,7.111633564114070143e-04,3.523292231489568316e-03,2.794318737361055696e-02,8.223173891071346771e-04,1.507022573796411302e-02
7.881629038967821743e-02,3.060027838327064945e-02,3.916441891613994114e-02,4.076772258575397413e-03,4.347004325294534922e-04,7.589835971683986816e-04,7.090913123506820126e-03,4.492521301401911776e-02,6.854417060453074639e-04,6.025077169162372688e-03
8.589635231587651465e-02,3.176735640963352508e-02,2.318666537527431376e-02,4.023998264442685616e-03,1.203884113558609248e-03,7.974598871406438604e-04,7.201674759635146375e-03,5.057331490704332355e-02,7.464024460467552635e-04,9.507031461888706958e-04
6.991072127172373585e-02,3.247395059826834601e-02,2.129133304292408699e-02,3.955251267103884055e-03,1.660186081164676019e-03,8.261854290976529229e-04,3.324334629496625369e-03,4.416308253572346493e-02,1.002630184067801597e-03,1.054569050766411900e-03
8.738853133902864390e-02,4.757481102166972314e-02,3.716404302173166585e-02,3.844699924497863280e-03,1.165688023626183486e-03,8.449209513191174295e-04,5.936001738328961115e-04,3.438729439259608639e-02,1.141333105655361647e-03,2.855036639516181363e-03
1.086990431374015853e-01,6.506179609761443550e-02,5.248069303389905210e-02,3.702413321432138603e-03,3.591357074327777865e-04,8.536025908105409699e-04,3.582346420113157077e-03,2.555235397349470486e-02,1.163581991410399426e-03,3.716450133744702861e-03
8.918621665520888586e-02,6.610494402972721950e-02,4.868160424687642540e-02,3.546065032845884153e-03,1.108646780365811057e-04,8.523451184914263186e-04,1.061481409898797600e-02,1.555553847489492443e-02,1.217793147718539224e-03,1.327687379754080316e-03
5.498920442097633005e-02,5.394320082729898297e-02,2.834394862770089202e-02,3.376863680319518515e-03,2.984071671447657923e-04,8.414408256950387573e-04,1.658243076590867893e-02,3.875337162732903074e-03,1.307469207356328411e-03,8.581198208497856084e-03
4.423904659647932835e-02,4.242737709890583020e-02,6.724331586516306067e-03,3.192396268215330710e-03,3.592563324405520465e-04,8.213543481080415754e-04,1.940798661663118221e-02,5.946457509010793195e-03,1.365208227939728857e-03,1.314353407801065882e-02
3.239657955191467542e-02,3.282423658497931468e-02,9.472950945899474146e-03,2.997940909829345697e-03,2.259437625452290969e-04,7.927133858476591733e-04,2.025195232789796934e-02,1.029820244998277262e-02,1.390329597494743613e-03,1.484268888678658832e-02
1.081624315803694780e-02,2.137093629300358330e-02,2.465747829717614137e-02,2.800476628497293365e-03,1.420534460177773481e-04,7.562954432494173491e-04,1.939993343823197963e-02,8.055172175952959868e-03,1.415904660975916092e-03,1.763257955783265399e-02
4.762264698558624915e-02,1.456063558886826897e-02,3.961957847785677056e-02,2.603201200733258006e-03,1.475108724851372812e-04,7.130110041858125523e-04,1.632811288856351323e-02,1.756019086824508676e-03,1.443916683940844013e-03,2.311744798125874717e-02
2.929254482653450425e-02,1.751628065582854984e-02,4.590819991179089649e-02,2.408162633995692033e-03,1.309905466039224073e-04,6.638836163468440996e-04,1.177624143167570366e-02,2.009958432491287632e-03,1.459912523835337796e-03,2.698459573047596802e-02
1.680545672627246911e-02,1.947208558994597757e-02,3.955922179893340412e-02,2.218759778133809826e-03,7.336833415497740342e-05,6.100273395011136020e-04,6.287349221245513466e-03,1.084114884433552174e-03,1.463554833690621903e-03,2.441837625818133947e-02
3.232718253431151462e-02,9.091910996682514221e-03,3.098950127795591786e-02,2.038452337579402425e-03,2.749459499239487637e-05,5.526220869562073262e-04,1.827790165637947079e-05,4.214550155042209173e-03,1.462152699840135045e-03,1.825940838893197471e-02
2.896013308063852612e-02,5.150523020110395721e-03,2.970641052239574725e-02,1.869498064895621465e-03,3.924252375691009045e-06,4.928874816414839785e-04,3.958945726606323892e-03,5.410311489057982592e-03,1.456299602166916899e-03,1.773938521469744720e-02
6.403724611372980935e-02,6.134737229490255274e-03,2.631526732275121794e-02,1.713479170708008016e-03,2.109168541035617590e-05,4.320558766438246804e-04,1.734353353782115692e-03,2.879439668439642483e-02,1.442754444493803394e-03,2.698082841772993928e-02
1.303228478406498747e-01,6.878121191079524660e-03,6.353359007720440002e-03,1.571853200263536449e-03,5.202408238311302874e-05,3.713451871613115442e-04,4.157880718513198674e-03,5.071144203381416221e-02,1.421232462578521198e-03,3.850825647459471535e-02
1.543443335894831014e-01,1.832696173087553643e-02,2.317079810832917489e-02,1.445682752794672735e-03,7.716642104717115415e-05,3.119321845376190803e-04,5.995224015106907431e-03,5.693128428742109948e-02,1.393172487051385581e-03,4.195819367437825936e-02
1.082137623490592310e-01,1.827470288791674391e-02,4.005266406268739865e-02,1.335360653559667168e-03,9.377510927051914923e-05,2.549268982355742908e-04,1.263899331890905786e-03,4.802605858170071185e-02,1.358577038539657712e-03,3.585800200242505315e-02
4.586556724521903550e-02,1.224261670056573000e-02,3.608372505876893815e-02,1.240736706143836209e-03,1.069346924990438428e-04,2.013487406722149506e-04,4.421987427336027295e-03,3.303303112133868652e-02,1.316586610370985323e-03,2.679494894270176980e-02
1.451995127649352568e-02,8.034571114454434546e-03,2.245084704964359773e-02,1.161268385041859964e-03,1.177785054486586182e-04,1.521049204401004056e-04,6.090660604283277407e-03,1.763448284032372720e-02,1.267001688947022500e-03,2.049996859724757814e-02
4.577283509037433432e-03,2.441144725791571501e-03,9.655191291167680712e-03,1.096000050000245883e-03,1.238788426221915399e-04,1.079716512975490415e-04,5.113453780272144214e-03,2.449338139381047625e-03,1.210066610584005324e-03,1.797028505549881985e-02
4.782829873853566144e-02,1.237744811160852373e-02,2.293594052839540397e-03,1.043544094993157419e-03,1.247664338014037658e-04,6.957859581968001508e-05,4.814218917244709323e-03,1.285722120645874621e-02,1.145786283950196455e-03,1.777835000403167956e-02
1.063727789695534387e-01,3.256971459085126336e-02,1.515451723927098079e-02,1.002156262200117444e-03,1.218106341573845782e-04,3.739690151389159288e-05,5.496467045829220299e-03,2.724689324265265611e-02,1.074048140115687255e-03,1.840802153740559235e-02
1.312595357280018915e-01,4.060573442121891141e-02,2.584689354332292410e-02,9.698233269315328182e-04,1.156254444373715944e-04,1.173109695512758802e-05,5.735363289557242165e-03,3.790947757545001795e-02,9.949689571122303372e-04,1.889099620261736057e-02
8.877949258246554953e-02,2.437473646953187620e-02,3.058005019000428065e-02,9.443169619644639808e-04,1.060826077836948377e-04,7.284979778904784333e-06,5.451331298706889317e-03,4.205427584174521727e-02,9.088630505302097793e-04,1.896175890169393696e-02
