2.443047941613685301e-03,1.281489093785768626e-02,1.273125725186115831e-01,1.257919938564633355e-02,2.586167621733810162e-03,7.168378058800412879e-03,3.588337114113170773e-02,2.130125704598551020e-03,1.971924718191137363e-02,4.953132084119819811e-02
3.275734835131425150e-03,1.882814943159486637e-02,1.295285852002418248e-01,8.610252438042574966e-03,3.167425596924077630e-03,1.877319339533862737e-03,2.157068272049763105e-02,9.805096087900036115e-05,1.989357823139243503e-02,4.364571746301831867e-02
3.658843851911860231e-03,1.671200293716813487e-02,1.249151404450845604e-01,5.226609500276245893e-03,3.338425701599042218e-03,9.752931037550661639e-03,1.100469023771619842e-03,2.716021592292655780e-03,1.303571073047446634e-02,3.256533099325835401e-02
3.078637535032951490e-03,8.135053146068157298e-03,1.132441793649896500e-01,4.608669608745881094e-03,3.163237677912880512e-03,1.204227157673328635e-02,2.060764895067144012e-02,4.448221693939155737e-03,6.763562396845781803e-03,1.936946940175864398e-02
2.835865013816847753e-03,1.053284199426586173e-03,7.651455139866680799e-02,7.096859622747104385e-03,3.032445504199996790e-03,8.958620855583592293e-03,2.549666592177105007e-02,5.375662671835092568e-03,3.160811220538188582e-02,1.153321554550105522e-02
3.632874460574227107e-03,7.374023256131225119e-03,3.620964900585292492e-03,1.103500593692221567e-02,3.243355724889849818e-03,4.684825705745921873e-03,1.513105326656058458e-02,6.348178712125210690e-03,4.536543907727440261e-02,1.253727555905764443e-02
3.982556404028518918e-03,1.107442604281726889e-02,8.048198463839460748e-02,1.468248759200397636e-02,3.553550530745393753e-03,2.420776836926877111e-03,3.042167231287487127e-03,7.387550580766609823e-03,4.280813059301599721e-02,1.948126778646279769e-02
2.964412637034779131e-03,1.249580879679246075e-02,1.428814336383826267e-01,1.661404793810989863e-02,3.331190826190340033e-03,1.227532363906952894e-03,2.512917480576844914e-02,7.924208528880781477e-03,3.407962243539188613e-02,2.965466079283381531e-02
2.348063378429627104e-03,9.880738840644205309e-03,1.853534204419401699e-01,1.493917303959863170e-02,2.593470483348574770e-03,1.196371965199906438e-03,4.973427258478912982e-02,7.735160594267765678e-03,2.908055548945912006e-02,4.032418819019237960e-02
3.742882823275828046e-03,2.822375864003442807e-03,2.231155043459228660e-01,9.169866341674940552e-03,2.320612021394840869e-03,4.555502894924275646e-03,6.650172371314641562e-02,7.056752935794715492e-03,2.674068104263012044e-02,4.325347723265455385e-02
5.698200925698090717e-03,4.579001578153163443e-03,2.464126447451984447e-01,2.162603137087394309e-03,2.949519573029259299e-03,6.575036042460685390e-03,5.895753681673845947e-02,6.236112594785976800e-03,2.207364582721339091e-02,3.167148007041982460e-02
6.292589514215974830e-03,8.108143591589773644e-03,2.397278801543080429e-01,2.906119529943977133e-03,3.599218091968321796e-03,5.805473356226394967e-03,2.368733315798773539e-02,5.159046976109437667e-03,1.607667813980565713e-02,1.199294086989589544e-02
7.014297800631546370e-03,8.567944952941861786e-03,2.111154675209935827e-01,6.345633764726838974e-03,3.794025727810403006e-03,1.688225954915406743e-03,2.262083245768936948e-02,3.168469856907945789e-03,1.659242587086954060e-02,3.579407501145495489e-03
1.078847212510444971e-02,8.345543305580601159e-03,1.801461938272322927e-01,9.712765443537586807e-03,4.439451739802874851e-03,6.797915966374736170e-03,6.144488196082320552e-02,3.845098785300281861e-04,3.306703779065221782e-02,1.415825023759316459e-02
1.694225500290836434e-02,7.392810997414810126e-03,1.679471429277543393e-01,1.172815106516577471e-02,5.886571730365441901e-03,1.964535763785625958e-02,8.924912437049176139e-02,1.510982815652171362e-03,6.638304267678894754e-02,2.760699731814464375e-02
2.157903744351501868e-02,7.861115600186204672e-03,2.009854965844280195e-01,1.007616791897054248e-02,6.736967810883840065e-03,3.284420443150830315e-02,1.082436701702347570e-01,1.247489745651384017e-03,1.005336926975276823e-01,4.394313961233086568e-02
2.247609994737614567e-02,1.614119161961793600e-02,2.859897582259924853e-01,6.045014257181352199e-03,5.957698199500768323e-03,3.958838335761695471e-02,1.115511319150387926e-01,6.024621227798785013e-05,1.142935266015718127e-01,5.392894100851074179e-02
2.045689940064939968e-02,3.322151213887396953e-02,3.860097225882803129e-01,4.301147251443329655e-03,4.620308890853566317e-03,3.601858883952383655e-02,9.296983472122072323e-02,6.441138311021651474e-04,1.059766343861946736e-01,5.369775792229379563e-02
1.689765770022716440e-02,4.943174161163379349e-02,4.514561371538862167e-01,7.924777845804307705e-03,4.073077027787503669e-03,2.480810562033157821e-02,6.409812242381486558e-02,7.400179280967752538e-04,9.462155882129918982e-02,5.132711764700758489e-02
1.290129634883733188e-02,5.472637405329790206e-02,4.627383210142445025e-01,1.483159804817893966e-02,3.860296324514626582e-03,1.225942935918786225e-02,4.375550440798846308e-02,1.399436329778359781e-03,9.279846672416190712e-02,5.561728039353741604e-02
9.848409531064944433e-03,4.747267570413003096e-02,4.270070652282556556e-01,1.972828954655506811e-02,3.113294627803173554e-03,2.718820516173008680e-03,3.460091925984622174e-02,1.889471639843313521e-03,9.272578190772537421e-02,6.290373530852609585e-02
8.412280448009304412e-03,3.090982628610116842e-02,3.574930879750649049e-01,1.966281491557383271e-02,2.491018317928014869e-03,3.546484732921563639e-03,2.674842189533199049e-02,8.220590850919116911e-04,8.465938547598413078e-02,6.230185214684869077e-02
7.776682475989929802e-03,1.117591775433262637e-02,2.712046423918172966e-01,1.662544118461922737e-02,2.782617332128396216e-03,8.180401008340783264e-03,1.851684537566890276e-02,1.216763942591197849e-03,7.460976163349891666e-02,5.351315983150174010e-02
6.953120327645540173e-03,1.534479035659685434e-04,1.864336884004290096e-01,1.420643653970279224e-02,3.120244205059349157e-03,1.174268242032376966e-02,1.571583820908271575e-02,2.667249818963081821e-03,7.461347228503083240e-02,4.789748649970609895e-02
6.102558180834336335e-03,5.594385069539911486e-03,1.109210617634986962e-01,1.340713406841043294e-02,2.695789614907179513e-03,1.251748605825870470e-02,1.648684002919134986e-02,3.667775091456072171e-03,8.438345119360414481e-02,4.963540485934989088e-02
5.859239596045701104e-03,2.077367597014731157e-02,4.415290674233102175e-02,1.296588299607021218e-02,2.702246483478938470e-03,8.143049697222744243e-03,1.531795668886876648e-02,5.494511842030485801e-03,9.081526753198453095e-02,5.026658146389568343e-02
5.963974628924216884e-03,2.731803117507390979e-02,9.435455839867740169e-03,1.236975931242979831e-02,4.312625441036666875e-03,7.950993671242058847e-04,1.747687622237018013e-02,8.046392340835227530e-03,8.090935731605738979e-02,4.535642172583646825e-02
5.434888683578965700e-03,1.781356384287201625e-02,4.540924441466321487e-02,1.254535736803192962e-02,6.032899734380018156e-03,9.448390355841728566e-03,3.134169888321298308e-02,9.684921826232583200e-03,5.220730807344898389e-02,4.121181757311517119e-02
3.873922207345143354e-03,1.038924332929836358e-03,7.154650915115072507e-02,1.327075686151335879e-02,5.392101010010252014e-03,1.261136598230516020e-02,4.791699589799403719e-02,9.160921572097829868e-03,1.590193030049742717e-02,4.127154128114986220e-02
1.636832130013907149e-03,1.455294132089484348e-02,9.253038738565437515e-02,1.157074975126817090e-02,2.470599177205627314e-03,9.652847531225569599e-03,4.494237430257255750e-02,6.667873391192754781e-03,1.076524450506239142e-02,3.945201620034636397e-02
1.245852909610485875e-03,3.167292091131525267e-02,8.984961315495554324e-02,4.755317187695661321e-03,4.101556117562710126e-04,4.137485543640737236e-03,1.421316207906766528e-02,3.661807221239076100e-03,2.050486642217427824e-02,3.003868668488860610e-02
5.002416474599371936e-03,5.228294895653048946e-02,4.732575186065365869e-02,5.440507174804815396e-03,2.017602954768920025e-03,8.607506854757152222e-04,2.814677779148297768e-02,2.197321941604327405e-03,2.249684755955784835e-02,1.441818091776177549e-02
8.655077098839610711e-03,6.455303529393005557e-02,8.154388261345384831e-03,1.420867749719665826e-02,3.178330449218366108e-03,4.860680036900474899e-03,6.258783552935573424e-02,3.231297539225381522e-03,3.118606297468872607e-02,2.339756999790456281e-03
1.043499110336218796e-02,5.571327284083290449e-02,2.569144619293044912e-02,1.893814158799504363e-02,4.691043743912636996e-03,7.823890630895505988e-03,8.800336170837998184e-02,4.994221083465884455e-03,5.171636009019982272e-02,1.560627049706421639e-02
1.060958429472954809e-02,3.444927751073373345e-02,1.070998242947723833e-02,2.061996853169104429e-02,6.157547975602929366e-03,9.539533245806126535e-03,1.175006101807311298e-01,4.547521075657930123e-03,7.487661892198639590e-02,2.484101021410733967e-02
1.158047262031997038e-02,2.352057818238177320e-02,7.232298033169405616e-02,2.078393562123254101e-02,7.014286931347432121e-03,1.176397772552788962e-02,1.541998936924586783e-01,1.595289282919599375e-03,8.592589697178507069e-02,3.487618025775316571e-02
1.377840488041375162e-02,2.981829297170610418e-02,1.297555422529538538e-01,2.029542751915709015e-02,7.459321684755128128e-03,1.696698578118347248e-02,1.761447198586787166e-01,1.139251402185511002e-03,8.361012546858009875e-02,4.706209323635820313e-02
1.470833393488660615e-02,3.932323795426276997e-02,1.761967020661619754e-01,2.039874558529863532e-02,8.051930968841236949e-03,2.408262263396991273e-02,1.549906751138512007e-01,2.036925276113284340e-03,8.486601910506708091e-02,5.202444412186165573e-02
1.400208547112694046e-02,4.206802570512505057e-02,2.132192015482891057e-01,2.124480872398069181e-02,9.054301942626886979e-03,2.911749776548404334e-02,9.192803929109602534e-02,2.577787809355281800e-03,1.010143805944983264e-01,4.148590773389577296e-02
1.489665467686338875e-02,4.219942802106104590e-02,2.445168360843988364e-01,1.996397485136749972e-02,1.045668617751678749e-02,3.008201596729372443e-02,2.200785826345005164e-02,4.054488317549054949e-03,1.210132586728554227e-01,2.174803740562104501e-02
1.775205502212402753e-02,4.098928865604301724e-02,2.777469240441898246e-01,1.404742081498778529e-02,1.208328819453131919e-02,2.826008081016065376e-02,2.042201211739058664e-02,4.902888459531864161e-03,1.322004991248861838e-01,4.713586767021375745e-03
1.766386593509230302e-02,3.066054619597414696e-02,3.069064813131353042e-01,6.406486843624162146e-03,1.333856383607129326e-02,2.544195273785711253e-02,2.492462090623286108e-02,3.093748586945067967e-03,1.423366271716857701e-01,6.116779149036371058e-03
1.266190355882574302e-02,1.215502260355879813e-02,3.071150357826176736e-01,3.258178369061979357e-03,1.370522102449184439e-02,2.275466603949492100e-02,5.657038571226550086e-03,5.471713918195203474e-04,1.634790445977048201e-01,1.046230790963246018e-02
8.352034307063356880e-03,1.978765026412533136e-03,2.707065722080574388e-01,6.650954173967430459e-03,1.388397804376226286e-02,2.183935673904651570e-02,6.486503942072849305e-02,3.317145262255633952e-03,1.869592840816742818e-01,2.565241873650767838e-03
9.830001266428347803e-03,1.142240830516050298e-02,2.270182810507836157e-01,1.240086326616926873e-02,1.523835668509165853e-02,2.531342843309142970e-02,1.357036209857981346e-01,4.235923880137129789e-03,1.924307756296123884e-01,2.008850103968984682e-02
1.506722764197693763e-02,3.056631026556929850e-02,2.068607688793209498e-01,1.579881153796635143e-02,1.779285044796695414e-02,3.486303954289386720e-02,1.950765342990363471e-01,4.719036447513326980e-03,1.765045935517837450e-01,4.661162607263976548e-02
2.033310378496498705e-02,4.194470268404312807e-02,2.128993648588714538e-01,1.622704824133427287e-02,2.016412838531910640e-02,4.785022611802623727e-02,2.350177887137293031e-01,5.590157155368115187e-03,1.595325246541265674e-01,6.350717725833039673e-02
2.556974712343695541e-02,4.112971109839098222e-02,2.361871994668160446e-01,1.576105145822411305e-02,2.157465963337055689e-02,5.703839488794892887e-02,2.673824858703323648e-01,5.638291152641998136e-03,1.622343442432254146e-01,7.080243586426780700e-02
3.075435111266312457e-02,3.619039426567192963e-02,2.719798474688709944e-01,1.623745814307074944e-02,2.260112868245232540e-02,5.692612453074274992e-02,2.995786476177364488e-01,3.849051448273763630e-03,1.821169257492503413e-01,7.543748495390882602e-02
3.334819189694809838e-02,3.492275597419067235e-02,3.101574177828260170e-01,1.835111595213559030e-02,2.397190001306093166e-02,4.963219169173451600e-02,3.140385847756809179e-01,9.511387471420672084e-04,1.991889714292612856e-01,7.545020683307894493e-02
3.271184963404118184e-02,3.941202477995713049e-02,3.354923820545924751e-01,2.118746387036024928e-02,2.537820780769806800e-02,4.046156553890356555e-02,2.838426595261661634e-01,1.987811816884277154e-03,2.015866391181760919e-01,6.566735878079958677e-02
3.162261661061881168e-02,4.645779630236784169e-02,3.432545858161630825e-01,2.172396471615566094e-02,2.508804343512878107e-02,2.959269704821758384e-02,2.086514770775662886e-01,4.619617136587193286e-03,1.947124346408342366e-01,5.097530010785911170e-02
3.077870309668944912e-02,4.864081210709244457e-02,3.380167196779390038e-01,1.654901575418079446e-02,2.104135041489768598e-02,1.480954793434091470e-02,1.233881313174197691e-01,6.515270565309307267e-03,1.867019444740985745e-01,3.937402355490466493e-02
2.728610614777893933e-02,4.113791796743348356e-02,3.253276476160272823e-01,5.582126082253285534e-03,1.386541703360860689e-02,7.353612654613932327e-04,6.901136651503977926e-02,6.909535202189826149e-03,1.792565344430467611e-01,3.189893525813945752e-02
2.161604448953029223e-02,3.057886918609727459e-02,3.236089158430799362e-01,6.646320602564917066e-03,7.908293994635540863e-03,3.982876651541898336e-03,6.460480417284426846e-02,5.659181545496754645e-03,1.721141506938424770e-01,2.994259116219423131e-02
1.990570860864246047e-02,3.054377874626872796e-02,3.578461677299512034e-01,1.495148507014078254e-02,6.649528965594113383e-03,7.490332019114706932e-04,1.024942462227073220e-01,3.734254121992604605e-03,1.620550633515658590e-01,3.838078514725397350e-02
2.444677957910804111e-02,4.370271348121249760e-02,4.052450627911382552e-01,1.811647981338287625e-02,8.497384932082345521e-03,5.837870140474186315e-03,1.520890256664274021e-01,2.707558970366210661e-03,1.397450156189569692e-01,5.170326267933416514e-02
2.749213022927182379e-02,5.420418107395483936e-02,3.837785097935882406e-01,1.811835735246260931e-02,1.006207393476970038e-02,5.554264548445866576e-03,1.708530164345913038e-01,3.647019056354427243e-03,1.005777899505357481e-01,5.160236850574891065e-02
2.077210406200714551e-02,4.510028774487231246e-02,2.528394865358059573e-01,1.648047698866837024e-02,1.024808639094999460e-02,6.633731100138388383e-04,1.294998293768964970e-01,6.130108937157919408e-03,5.579101896506685754e-02,2.898694267944738542e-02
6.839465281560677852e-03,1.894194628558701701e-02,9.262989332513844876e-02,1.398160480180941218e-02,7.343416254378491541e-03,1.107837275412047046e-02,3.391199501258566895e-02,8.688537094780424477e-03,2.396474973416624910e-02,3.261559666183588575e-03
5.582638588358343826e-03,8.373200688382712725e-03,1.574368906898745285e-02,1.190868549994372749e-02,2.218568289705689749e-03,3.419405014973248697e-02,7.486017581233204987e-02,1.044810464821215382e-02,1.402107237484250674e-02,2.906997963287778070e-02
1.384254486992177180e-02,2.957959426120840285e-02,2.583002834732661679e-02,1.026996382773250581e-02,1.670522779574684993e-02,6.233450093016889432e-02,1.433481795320180330e-01,1.189940273270531992e-02,2.207721445919586661e-02,4.805039963704642314e-02
2.130727295221403889e-02,4.916547506936006645e-02,2.845102736842076985e-02,7.075950199650724026e-03,2.682719803527421065e-02,7.894640119787173227e-02,1.455442728231484684e-01,1.386214068549519729e-02,4.167447775267006660e-02,6.420703853797814220e-02
2.747174622612188338e-02,6.864722596656419595e-02,4.203043708938666856e-02,2.570158682660771132e-03,2.636251669612671086e-02,7.573408018484113768e-02,1.081466460742071811e-01,1.596047045176801280e-02,6.279257969785058402e-02,6.926504263618729618e-02
2.729951676836985322e-02,8.366582771664049512e-02,1.594691548745817977e-01,5.431097505338962697e-04,1.986691368140977229e-02,6.131272212411851413e-02,8.294798038443700061e-02,1.691720266819926946e-02,5.551321294551935653e-02,5.230153133075355482e-02
2.076005242544337256e-02,9.352007419167807090e-02,2.450024201132929569e-01,2.003766637997796227e-03,1.575684845004499471e-02,4.949595688436338181e-02,9.991215131207652200e-02,1.661811668080059867e-02,1.838321564935775296e-02,1.885563815237178281e-02
1.413035562383287147e-02,1.000808088921196631e-01,2.429224640895092102e-01,2.605111883576341231e-03,1.637267617556927360e-02,4.532851613362229304e-02,1.621315256587105291e-01,1.610180758422267294e-02,1.547203770197440598e-01,1.047184736648095436e-02
1.017219461634035968e-02,9.855399220924949966e-02,1.924338095833294793e-01,8.499078066523991799e-04,1.795990544135926681e-02,4.283116810366024291e-02,2.599910162080236731e-01,1.464821233913955051e-02,2.904860635501892441e-01,1.929467585137470062e-02
5.715169087459404280e-03,7.971695765510609932e-02,2.156349756750525204e-01,3.589742992195715712e-03,1.732726367697379893e-02,3.468289679553269306e-02,3.633678599010636279e-01,9.669700293721562520e-03,3.597813149520509013e-01,1.021331067669437737e-02
1.115795074522787401e-03,4.275977803173321851e-02,3.779957183334994864e-01,1.733492177958047969e-02,1.607608863027852608e-02,2.516166326668876560e-02,4.279879212134200528e-01,1.063681700627413639e-03,3.493924476332562201e-01,4.849380742556761228e-04
2.692129322757922522e-03,3.905637472163808917e-03,5.858193088549117356e-01,3.700246652848766110e-02,1.875514141279208125e-02,2.807660783054254441e-02,4.346723236608479590e-01,7.147776758921313596e-03,2.954918214157545298e-01,4.275741200464891652e-03
1.177289876680850771e-02,9.392610007665317187e-03,6.782924123502279690e-01,4.918439698638029517e-02,2.714600539365981391e-02,4.661829456486934337e-02,4.026967269801633442e-01,1.108855900311212124e-02,2.535048153616913380e-01,1.249814610621498637e-02
1.949072775921071796e-02,1.773362005595362223e-02,5.862549856448268093e-01,4.676955058416667338e-02,3.695167649297220747e-02,6.407409788135483286e-02,3.550935504790317387e-01,1.084877078860116070e-02,2.686400967138146134e-01,3.856546881454000347e-02
1.733949365021619435e-02,6.511239168196859828e-02,3.757126836245488488e-01,3.635085443217377088e-02,4.199523587085834259e-02,6.257381598788352983e-02,2.916672895488777173e-01,9.404554999118920275e-03,3.387652927040138984e-01,7.158119743853336159e-02
7.202110493946325097e-03,9.236888229521832139e-02,1.963041718032051131e-01,2.952904948780152306e-02,4.138182578591471233e-02,4.337159452313189140e-02,2.063913593743930963e-01,9.367036140417648454e-03,4.056712666319071681e-01,8.375424273063863945e-02
2.907201700839427173e-03,8.123877327364636969e-02,1.836828911982660573e-01,3.005575525031579237e-02,3.909228507418774368e-02,2.197633347225089878e-02,1.192734741161440432e-01,1.105666575620024156e-02,4.140939117859057106e-01,6.632218407306204877e-02
8.183398588801226239e-03,4.770477489032607515e-02,3.357333019773761085e-01,3.257574057614724683e-02,3.663278614224647206e-02,9.555686366002501611e-03,6.992955435222182603e-02,1.294512527387534952e-02,3.707334093270211461e-01,4.126710084107201165e-02
7.972487893158471117e-03,1.388676705710186268e-02,5.046764600630957442e-01,3.100162141061660326e-02,3.171818982739340459e-02,5.439804740892358222e-03,6.969756439387612967e-02,1.358629098355848726e-02,3.158222925209290821e-01,3.273293307313238087e-02
1.324324961437334681e-03,1.055388674883510694e-02,5.607074303730168463e-01,2.353834827787543160e-02,2.522860567952223132e-02,5.130693090319216922e-03,8.318293059922926558e-02,1.269323695443730880e-02,2.562539131440966789e-01,4.056087487210730674e-02
1.238219433854300701e-02,2.330265650887965168e-02,5.056354081145491008e-01,1.186474250073690957e-02,2.236998143262177580e-02,7.981429055517984261e-03,7.653843655404286850e-02,1.050077482789771310e-02,1.703947719259236437e-01,4.625853106007962734e-02
2.891298440276244067e-02,2.590274839177270083e-02,4.059712948174611369e-01,1.417106632393620551e-04,2.405193686651264581e-02,1.339533480242190502e-02,5.453867695894429324e-02,7.199072486994567005e-03,7.506300148817743323e-02,3.799780190374821981e-02
3.959398027362555361e-02,2.094415873297412675e-02,3.093363719110345800e-01,7.144205335248931740e-03,2.331526635121654312e-02,1.557111504860857372e-02,3.145641396442040716e-02,3.294624453684386403e-03,3.807024238320576293e-02,2.625233214919106550e-02
3.724832805423366339e-02,6.906563127082019499e-03,2.460740270326738643e-01,9.859998686287766226e-03,1.409640731430260134e-02,8.359294418851763789e-03,5.565194670071108712e-03,2.953866158946239504e-04,9.587571767201305550e-02,2.974248341520404834e-02
2.232909993656318273e-02,1.248748539522983106e-02,2.318879056134968142e-01,1.197926554976332103e-02,5.100423795849542280e-04,7.745628776317322120e-03,1.994922428577411422e-02,2.852133005511941783e-03,1.923213057818659033e-01,4.599022697092031847e-02
5.867566832600992766e-03,2.153317439027164701e-02,2.499939262433550080e-01,1.417053812587246858e-02,1.214876820248674688e-02,2.603083434892230694e-02,2.763382196183118006e-02,4.366106249111025017e-03,2.405631309182999222e-01,5.219651784544983991e-02
3.620293729439104293e-03,1.413260481914550143e-02,2.606453312374081288e-01,1.124262720295979290e-02,1.676669719031658595e-02,3.724097086091562175e-02,2.936351272686862912e-03,5.327024078366877739e-03,2.205111121104482985e-01,3.905496512456807512e-02
2.043518990695241885e-02,6.569234163758925008e-03,2.243845277766358115e-01,1.021115779696344338e-03,1.708352624382582577e-02,3.453390515526167520e-02,6.044729935519661812e-02,5.710744283318838245e-03,1.700063597799127690e-01,2.110535529236413216e-02
4.238546286625774484e-02,9.421265971336696687e-03,1.200976234416001320e-01,8.619534337441250166e-03,1.744825298353080284e-02,2.096139938809476327e-02,1.507406835717586824e-01,4.388418713109438520e-03,1.079215735050813585e-01,7.162709829571204875e-03
5.204540742199830622e-02,1.065779902092377912e-02,3.733921242725031509e-02,7.750565212950097718e-03,1.961791812312358926e-02,9.208358842235062763e-03,2.202008516517464654e-01,5.557579419437025468e-04,2.366736101124948186e-02,1.517099094602674877e-02
4.891502155656547723e-02,6.467012304337263137e-03,2.008806369941734393e-01,2.449030579467009142e-03,2.224486348339295427e-02,8.069497340218117695e-03,2.182826305374233333e-01,4.336786238677233819e-03,6.901545010188338269e-02,5.195956699897533171e-02
4.612286837719960231e-02,1.666097508344654282e-02,3.265550347786694285e-01,1.132124941356238076e-02,2.201106668325350860e-02,1.320249447926161515e-02,1.530534875000197359e-01,7.383886375545497573e-03,1.227486499719456503e-01,7.784124744506526472e-02
4.945332120570629375e-02,4.488443655416088363e-02,4.094593677955609690e-01,1.398334219325772856e-02,1.741173961038667770e-02,1.640786041974718473e-02,7.509159344568056005e-02,7.167859926001381859e-03,1.134968364883769260e-01,6.240231688514343011e-02
4.992606121167989658e-02,5.850301724266643300e-02,4.756039622468141159e-01,1.720664534160806780e-02,1.279958072519038828e-02,1.840634378473399169e-02,2.101480450716826029e-03,5.192692466472618833e-03,7.578713037137352337e-02,1.813201678602778533e-02
3.841928061272932571e-02,3.528814586762568650e-02,5.169132497438633234e-01,2.689696298759257018e-02,1.445337844805363002e-02,2.465806034374591268e-02,8.400918638487087087e-02,4.349476779976459845e-03,6.432433760436084835e-02,5.108128290499812547e-03
1.847139376035310948e-02,2.889091763244540801e-03,4.630799256974257871e-01,3.833822462692026284e-02,2.108136557378064921e-02,3.253993940632411014e-02,1.678058679224271044e-01,5.952364517566022077e-03,1.003475463992809791e-01,2.067377359694894112e-02
4.935793640985963911e-04,2.667665667432858254e-02,2.845791880464495494e-01,4.451634662602112213e-02,2.395141164859359087e-02,3.331785593354097408e-02,1.995839818040285873e-01,8.053460561015919617e-03,1.694923336636378897e-01,7.235289378957807105e-02
1.569275399136946941e-02,3.805113104215463588e-02,9.353343480660375464e-02,4.557213975909037151e-02,1.892177096601551159e-02,2.616493070634899262e-02,1.769744063771318821e-01,7.437007424430419449e-03,2.475342005249264454e-01,1.108442001084141981e-01
2.939077512762466871e-02,5.142081444299266557e-02,4.766320096276858292e-02,4.451212210540404085e-02,1.218268374232097176e-02,1.917040818498001731e-02,1.576724055729993024e-01,3.679629156896912796e-03,3.117246403665572263e-01,1.203453300077780563e-01
3.995314013713413548e-02,6.363195355479162041e-02,1.681680707242632633e-01,4.278603718108920512e-02,1.053339928934952409e-02,1.626772806172105401e-02,1.706684275439183940e-01,4.310341824243606721e-04,3.513978791467166074e-01,1.048014716160315107e-01
4.343168787650059093e-02,6.425152478388057586e-02,3.270951555133684852e-01,4.354270998418471178e-02,1.199857894495043667e-02,1.442306292304488917e-02,1.809777558434929601e-01,2.968976624526241392e-03,3.780215819654131337e-01,7.026688217149443250e-02
4.201700425514660886e-02,5.692621543745548379e-02,3.961270363606143596e-01,4.836212405328441793e-02,1.125085744467265760e-02,1.373189836690751758e-02,1.629131360341957158e-01,4.610883037589720915e-03,4.040287148427851305e-01,2.921803336349929406e-02
4.292342350609396756e-02,5.277480250539078044e-02,3.575663603615765185e-01,4.980361352697652844e-02,9.593216189193501039e-03,1.915260228794290684e-02,1.427825868206723803e-01,5.674022032109353290e-03,4.164851579763411693e-01,8.646499420241395700e-03
4.835448360757583358e-02,5.425723413176933990e-02,2.927069993833373296e-01,4.011800998552781522e-02,1.292094332299240089e-02,3.165177667357724212e-02,1.474913175532444609e-01,4.942580693301589986e-03,3.936632902312172111e-01,3.145910362262190063e-02
5.286450933018290582e-02,5.671751152521887357e-02,2.951102223409428627e-01,2.706536009697880704e-02,2.203496980482614123e-02,4.630256209168490816e-02,1.688947708704295614e-01,2.546760098793178842e-03,3.352870685426710962e-01,8.917435900017099681e-02
5.294016695796009003e-02,5.748234398869594280e-02,3.797817247945377006e-01,2.720796435486086406e-02,3.141338710890396319e-02,5.935836934999089154e-02,1.948403472332648767e-01,8.134967790795015734e-04,2.580228375058347123e-01,1.468695075551768592e-01
5.303070264019022623e-02,5.760559504906292982e-02,4.705992499853271505e-01,4.305870258612838619e-02,3.705758236246847054e-02,7.093832082231586733e-02,2.259179008809673872e-01,1.021388524351942318e-03,1.764618559497744266e-01,1.783587404705168078e-01
5.713897000055186137e-02,6.032896952816309277e-02,4.930874544937112192e-01,5.911244456544561404e-02,4.016298554592832859e-02,8.077582865237348253e-02,2.514159252789608945e-01,1.632928203559690008e-03,1.055612372749900746e-01,1.850415081259666472e-01
6.088673357148283866e-02,7.081529292752834770e-02,4.532285319088496522e-01,6.192120248983246089e-02,4.305560711925163903e-02,8.636282644754519899e-02,2.475480251408455623e-01,1.089451397194392138e-03,7.208310376374675588e-02,1.748826233837024180e-01
5.943724763188025506e-02,9.463597754635029446e-02,3.859879549441856406e-01,5.398736139662067834e-02,4.610258252653228611e-02,8.676485108665060730e-02,2.094523502342841570e-01,6.982668141010867947e-04,1.001413105257657338e-01,1.413732773169543711e-01
5.686666868585887880e-02,1.315753743143214805e-01,2.734982933243957914e-01,4.451488966937056785e-02,4.898837509899950371e-02,8.521747185815223280e-02,1.658192075505300900e-01,2.567714964882003310e-03,1.699640602103173193e-01,8.463707736166892204e-02
5.875206552208664390e-02,1.662365872184074223e-01,9.157745183176757564e-02,3.470812299489635377e-02,5.137193881244046800e-02,8.510920278962613716e-02,1.539273499821068036e-01,5.716364891601613540e-03,2.071586282233928988e-01,3.917034256343691900e-02
6.082890390299929700e-02,1.697828958327211868e-01,9.402518880967683512e-02,1.945577830468542962e-02,5.148757901454414920e-02,8.409248470758147465e-02,1.770044634560642705e-01,7.305673964179010445e-03,1.464531226847528844e-01,4.443598149971596939e-02
5.395512921232081816e-02,1.240934221428394435e-01,1.635930496150060920e-01,1.305628260002541716e-04,4.679001379843332475e-02,7.550566102050063066e-02,1.898008335033523619e-01,6.820463303356959911e-03,6.520012902770645075e-03,8.742137134624654304e-02
3.804728650974006227e-02,4.601735788697817325e-02,6.856006436565684203e-02,1.423617555097356040e-02,3.753644717686119292e-02,5.706179201348518526e-02,1.488238227595570784e-01,5.420518541246744509e-03,1.225468301263775983e-01,1.126125767335157957e-01
2.357878964457625279e-02,2.391996425346256533e-02,1.313601475651697270e-01,1.542105742751807840e-02,2.785723322816770903e-02,3.454272409747510819e-02,7.413071627924125440e-02,2.610072223664904913e-03,1.653571554278937539e-01,9.546182923415492960e-02
1.686915971550883783e-02,5.922594613798441709e-02,3.306251581971602627e-01,7.716132149509868574e-03,2.022286262038063345e-02,1.302699950338292306e-02,2.017311782120374819e-02,2.471811392686183891e-03,1.208265525459431972e-01,6.368766266092779071e-02
9.920705056928099536e-03,6.397645925785239163e-02,4.330224279569342416e-01,3.917400071393821979e-03,1.006359062763319441e-02,1.153931360130190653e-02,8.048958654148726660e-03,8.194596153635247057e-03,4.423188669433807119e-02,3.872658118305773861e-02
7.071398698400991993e-03,5.402756280569320779e-02,3.825496684507095901e-01,1.467732428498949235e-02,8.420003865500040249e-03,4.435346294865653849e-02,4.823062066054670249e-02,1.235441798648628450e-02,1.139332705403581572e-02,6.464011676743481108e-03
2.863350456077116968e-02,3.765110168202194518e-02,1.937211800842925935e-01,3.838006003813434347e-02,3.105939526725630395e-02,7.806051116314834115e-02,9.841742191406595286e-02,1.506759392857309927e-02,3.326853767929120742e-02,4.307389968413693343e-02
4.239684501845897291e-02,1.924827140591031660e-02,6.100195230717039147e-02,6.228089953398061041e-02,4.616459808586140939e-02,9.715103496629311219e-02,1.157091049584539205e-01,1.729695560543641208e-02,4.093018791713878834e-02,9.224992428420208945e-02
4.770746678132810337e-02,1.008401778011655189e-02,3.103423681395507394e-01,7.571771463629183019e-02,4.909069377664530831e-02,9.520069642502101970e-02,9.290257503076876366e-02,1.840485545887105695e-02,4.889845024123037898e-02,1.173469088786295439e-01
5.014059142929095519e-02,2.251287298231754996e-02,5.030501148609251016e-01,7.872878088712251254e-02,4.587677071921043848e-02,7.922987590828306503e-02,6.888488871575090822e-02,1.686100630257398800e-02,3.852818763861243223e-02,1.043775548073438975e-01
4.739256659300018770e-02,5.237113685739797075e-02,5.791430302114157769e-01,7.522869973599742577e-02,4.201963514785716364e-02,5.998243486324562890e-02,6.782243119395536812e-02,1.216426453243348374e-02,2.335641184365204806e-02,6.154360743830827873e-02
3.804689559517998587e-02,8.009486779985897087e-02,5.036150039526223754e-01,6.515223354091653762e-02,3.678864296003775403e-02,4.583444257170405517e-02,7.725867726615737174e-02,5.465830081480993474e-03,1.316586778291367610e-01,4.015272169642149919e-02
3.329496267531991543e-02,9.871606098373572613e-02,3.537953410165823320e-01,4.939958394664692443e-02,2.995354472188699671e-02,4.188354144891639347e-02,7.830396942975841046e-02,9.482720722047499953e-04,2.284171810557039939e-01,1.037151863508176397e-01
4.350061711032464362e-02,1.267865195429067060e-01,2.864305120855819564e-01,3.535195126206257255e-02,2.659273679973045423e-02,4.841848138714064526e-02,7.043236006072481348e-02,5.051213991628508183e-03,2.592521699258218404e-01,2.470628231259422714e-01
6.229147692602397118e-02,1.788006901602114396e-01,3.687205007953843761e-01,2.919528015772256124e-02,3.205349471676545436e-02,6.209957332914553541e-02,7.179931413025908427e-02,6.621446654003746574e-03,2.337556485385752503e-01,3.873815740307196553e-01
7.465742273024462972e-02,2.367281916756588944e-01,5.123094656720952322e-01,2.783796853341038297e-02,4.465144967421551259e-02,7.702259851231192667e-02,9.189502639110150306e-02,6.976491531061668194e-03,2.143956353695327943e-01,4.543549684137809797e-01
7.243665143470523482e-02,2.666958315779886513e-01,6.102009777293324611e-01,2.609995845862294467e-02,5.563395546048482965e-02,8.230950909336560983e-02,1.006570981223051386e-01,7.114933649757830374e-03,2.463636590917502311e-01,4.437207251123576612e-01
5.789491070909855847e-02,2.530052438362025979e-01,6.552828583632204218e-01,2.693228558190259928e-02,5.774819640433956347e-02,6.973010202456288165e-02,6.291312504922766391e-02,7.054571099325372512e-03,3.085891402291769392e-01,3.766656542631874882e-01
4.116561717679452503e-02,2.068189986024701610e-01,6.815613785308728412e-01,3.636392259399828797e-02,5.332479012203376195e-02,4.999053836073375640e-02,1.487119203339483733e-02,6.656553715784620760e-03,3.423368056149872496e-01,2.668785519040991483e-01
3.391801338308352703e-02,1.532319328797346336e-01,6.721081580505803288e-01,5.173912049573894251e-02,5.052593995175490293e-02,4.627632485891806230e-02,4.165024588356272539e-02,5.731557042992690108e-03,3.200316939010279804e-01,1.453108178384413529e-01
3.784983164285274371e-02,1.144815514109719379e-01,5.839059908151251754e-01,6.213310155856744538e-02,5.163368330624860253e-02,6.411669643493832227e-02,1.534250726761724748e-01,3.898100551323411666e-03,2.672131415319531911e-01,6.541224902891258630e-02
4.339134539154224091e-02,9.518165433045486234e-02,4.201552373004607266e-01,5.946615932377720404e-02,5.093551360665252159e-02,8.396538211190855694e-02,2.577093685657917965e-01,1.692453099787056235e-03,2.175827075745172812e-01,5.090068826586302553e-02
4.422611940608205117e-02,8.148082019544364285e-02,2.427944815390304101e-01,4.596251746387462755e-02,4.523033279607974189e-02,8.899509586355180968e-02,2.833702588543391965e-01,8.184894657315768289e-04,1.699364320961284092e-01,6.207352287287332127e-02
4.421840911853866518e-02,6.023543582419625675e-02,1.241851474200026811e-01,3.132746702745856787e-02,3.896688254699242487e-02,8.257393932335344022e-02,2.570468060313878533e-01,1.945432883748141918e-03,1.043530764358108209e-01,4.192906842843313608e-02
4.596123091327104782e-02,3.410127928441109707e-02,8.212578482982924033e-02,2.292553686197602164e-02,3.652941214760981742e-02,7.415610652756857157e-02,2.334049186078069049e-01,3.408752631640166522e-03,2.849008920833111247e-02,1.500169554646755415e-02
4.294361496001021516e-02,1.023504964789086376e-02,6.588957024851285760e-02,1.876584010045589945e-02,3.591020449978110651e-02,6.497681827835381785e-02,2.227964172767714079e-01,3.300859014890878199e-03,1.730628675085563520e-02,6.488131389925855252e-02
2.903734605593774609e-02,1.628291508291235951e-02,2.565207059415580693e-02,1.214408569336984656e-02,3.254504363862192190e-02,5.250679107987508976e-02,2.099693832871458998e-01,1.868441081229590527e-03,9.101510970321011196e-03,7.745030710630555759e-02
9.396157900834156002e-03,5.345772477208723950e-02,3.373087500049424398e-02,2.318064424954336365e-03,2.518013865983185703e-02,3.672963491461739977e-02,1.873965105569445344e-01,8.519950521580254340e-04,2.566693030676856294e-02,6.513392545771251596e-02
3.924474451225682531e-03,9.242882517235427586e-02,8.944756539106193949e-02,3.351360230652456612e-03,1.631672681923206428e-02,1.807576444630584755e-02,1.519005770579302528e-01,1.035027844140534161e-03,4.123760821972939639e-02,4.793458860511226605e-02
5.553567698971680587e-03,1.122582661148269628e-01,1.304064707230035425e-01,1.639518675225648363e-03,8.933748712233877814e-03,3.153178779306515557e-03,1.032340333780385477e-01,1.424561220578950040e-03,2.884336305251140528e-02,2.146104451549193590e-02
1.637480620547253525e-03,1.066333921213886843e-01,1.286219508059616712e-01,1.450172707656778408e-02,3.547235360963984542e-03,2.305398369665466116e-02,5.503685886404054844e-02,1.068831776497514629e-03,1.424788585611287163e-02,2.548363341830738732e-02
6.384068054225582912e-04,9.531456102496357885e-02,5.949923642734961104e-02,2.508874009951696932e-02,1.821296058079335638e-03,3.557774794071772578e-02,2.595935521791348233e-02,7.484951279182283732e-04,7.427839216804319605e-03,8.090796688072948717e-02
3.700287414672685966e-03,1.015364052120705934e-01,3.161848992433882732e-02,2.557416320417777930e-02,8.792302877631486685e-03,3.969022820359863896e-02,1.561012251530724884e-02,1.761670242580344603e-03,1.343921737188462362e-02,1.151613351865509172e-01
6.660271446849630808e-03,1.224958858712297122e-01,6.489017790679817155e-02,1.676827329518459225e-02,1.631459049735783234e-02,4.052315113785907863e-02,2.809845445606317521e-03,3.673210788614607748e-03,6.066175003388823983e-02,1.114290948981442320e-01
7.876951148269351749e-03,1.345832795025193873e-01,3.567869982958981473e-02,5.291949288184790920e-03,2.157614229593091473e-02,4.184727258706991831e-02,2.796749412255747011e-02,4.821382567101213136e-03,1.098922995715772705e-01,8.045523277474134205e-02
9.864597451072010595e-03,1.285830779865526630e-01,7.817598156383189639e-03,3.191792052545314173e-03,2.268696599311330678e-02,4.209848980665244211e-02,6.782310062583085664e-02,4.701486448025776581e-03,1.350767002818715756e-01,4.693405447635631139e-02
1.448010699246933194e-02,1.214808512115692768e-01,6.879743266838267424e-05,7.624670821711110671e-03,2.055500688780253701e-02,3.986220974203197320e-02,9.779682366514817760e-02,4.299471966958198429e-03,1.438903946970205294e-01,2.645577529137220843e-02
2.006548156070684513e-02,1.248485089595079006e-01,3.679582301379723253e-02,1.035327270631019626e-02,1.864287474689408503e-02,3.843147580731329921e-02,1.135583265325644797e-01,4.422395098012614489e-03,1.479133985778302296e-01,1.384038629945532305e-02
2.359727673441597978e-02,1.220573468722383065e-01,1.297822549724791386e-01,1.361810985613294556e-02,2.019295786813326068e-02,4.125886001959337690e-02,1.238887406308016442e-01,5.170205579334642525e-03,1.272812994498612738e-01,7.595426145518930847e-03
2.386921504974184177e-02,9.448648628139420802e-02,2.440131265683230521e-01,1.780740774973148602e-02,2.520486368671881819e-02,4.637181347336571946e-02,1.309290021410442761e-01,6.525685136655589441e-03,6.947447949567621406e-02,4.528250716535238418e-02
2.293457210442738717e-02,5.532913507760151700e-02,3.358561732206363781e-01,2.276667317818218544e-02,3.103174219386405086e-02,5.001781082903259540e-02,1.284247033451343112e-01,7.921527001464893566e-03,1.667658531424658086e-02,9.017453895972304956e-02
2.471310556580515877e-02,3.719177118409376648e-02,3.947631305556096315e-01,2.882282987861250687e-02,3.556866595960067601e-02,5.309176946440068851e-02,1.181342780085651023e-01,7.660302432829526470e-03,2.354743914829409909e-02,1.304165455932006223e-01
2.923182544431129556e-02,5.269638266769616913e-02,4.352190197647611836e-01,3.536528401609037586e-02,3.789586719385228120e-02,5.690311361367012682e-02,1.111752245219736340e-01,4.298056185216071398e-03,8.517836331749689682e-02,1.614042436199429331e-01
2.866742249738290713e-02,8.164522652939788794e-02,4.760920398470035453e-01,3.997961862126092614e-02,3.642406602710777236e-02,5.428123796168122378e-02,1.102413159166884676e-01,1.324401234441865017e-03,1.493996039086088745e-01,1.748130276159306218e-01
1.570951949521621691e-02,9.500111477375913771e-02,5.181999669689877352e-01,4.094158146850655072e-02,2.974209095877692124e-02,3.582501009594804553e-02,1.049681265333782948e-01,6.490747103520942522e-03,1.869385510709026255e-01,1.496764246683930377e-01
4.042390579332637290e-03,8.300873711886563866e-02,5.366104415915637915e-01,4.008432315705741378e-02,1.983363549108835971e-02,6.890710475902127145e-03,8.960993947379247704e-02,9.189961424359524914e-03,2.139893147203564272e-01,7.500879055239276227e-02
1.654300987081608332e-02,5.680385219306407357e-02,5.144165107716605068e-01,4.089947821751139384e-02,1.154298685034760644e-02,1.358327848231232968e-02,7.340014696270577566e-02,9.317634510036818321e-03,2.480337955497677049e-01,1.906029749511121626e-02
1.562813009089291175e-02,2.682165971298212589e-02,4.654586760468905071e-01,4.325003708671020658e-02,8.189333296176545124e-03,1.479569339426386326e-02,6.891422910886571551e-02,7.458788142181061245e-03,2.660124745681401448e-01,7.498928985213379472e-02
6.035177265599420138e-03,7.620452329495411639e-03,3.874807934478006755e-01,4.249663808570646600e-02,9.751013284823863494e-03,3.268221097278869829e-03,7.908929749638388129e-02,4.172599920890995330e-03,2.231584624731817734e-01,6.150844770207854889e-02
6.804704555458260945e-03,4.258144944916057023e-02,2.337654525329514454e-01,3.536017736244337351e-02,1.461984313631481749e-02,1.114785418708789944e-02,9.790002364289338010e-02,6.223358771438203697e-04,1.168275542175194470e-01,2.175743648700580180e-03
2.014727462007213227e-02,6.069200489472012516e-02,1.478321784299310715e-03,2.453923520785650930e-02,2.032620556170515111e-02,2.497641545984601377e-02,1.174068858036020069e-01,1.785513117921774199e-03,1.156006904431365438e-02,8.052504428102752465e-02
3.094003025203322793e-02,5.129105547355991557e-02,2.107379874231601335e-01,1.596688399181459342e-02,2.364685543153717193e-02,3.528835084062596772e-02,1.333766858705144887e-01,2.521557902172187008e-03,2.564779827376222066e-02,1.537443290199257129e-01
3.810871302584896425e-02,2.522757749827683055e-02,2.731729250376877527e-01,1.310298766266228786e-02,2.318269549629718013e-02,3.766256704961334217e-02,1.450323431369778260e-01,1.889840071542895142e-03,9.888409549587799663e-04,2.026362034697028747e-01
4.398048650907977059e-02,2.933496886514026097e-03,1.994303087500218230e-01,1.505437138698174568e-02,2.084544103843315871e-02,3.271260000685858454e-02,1.466564290602419551e-01,6.214162148343320338e-04,2.882232498825540445e-02,1.995833964230026569e-01
4.851477897194464428e-02,3.150072673305211873e-02,9.724245012494110718e-02,1.896484866582096723e-02,1.878798859903492782e-02,2.554897241358539822e-02,1.254574903070012071e-01,2.618301981076822283e-04,3.841617700491613274e-02,1.469781444529734415e-01
4.806164089702408965e-02,5.629919673614221937e-02,2.378959541628941632e-02,2.287101432091404388e-02,1.706679398779216081e-02,1.867216786610325502e-02,7.959418072791325793e-02,3.675135867189833778e-04,4.985808853504238025e-02,9.101468428601705574e-02
4.265681321116308877e-02,5.737901125684594789e-02,4.248671441666683479e-02,2.624583142138406031e-02,1.550278640196795475e-02,1.190108487264332840e-02,3.267460485729739572e-02,3.842779296224978301e-04,7.746974918914500963e-02,6.443519862977743762e-02
3.764436850273794599e-02,2.268326190671656264e-02,1.039772883785039376e-01,2.875675470619453583e-02,1.465715885330784451e-02,6.990864501818643342e-03,1.338759592428716977e-02,6.413225784564833935e-04,9.842318883425422993e-02,5.057289490115908503e-02
3.684994233545701298e-02,2.724103588621126781e-02,1.141311418530023963e-01,2.971496280801304637e-02,1.434546112499958219e-02,6.701669232277895211e-03,2.296859752319410641e-02,2.525504642481686481e-04,7.981547671977463898e-02,2.894926888635523943e-02
4.017049172124990269e-02,5.883747668607212933e-02,5.885651360062438969e-02,2.857765425787481967e-02,1.392823419596595468e-02,1.115003034440796743e-02,3.776719307252182634e-02,1.526018674420836531e-03,1.532918546939740501e-02,1.168027008808059097e-02
4.631434893580686774e-02,6.187229277329798355e-02,1.176348281252637303e-02,2.460320926975934075e-02,1.338372845433271133e-02,1.810977450844783801e-02,4.070333358493239545e-02,4.117711465632336101e-03,6.598459113690896549e-02,1.086582144007348927e-02
5.216177756613946115e-02,5.103980784543798999e-02,5.774737240924027182e-02,1.657869481788839736e-02,1.234580726320179053e-02,2.509217348020887847e-02,3.510612477924601738e-02,5.978990573490239671e-03,1.294094109190487007e-01,1.527547591952361367e-02
5.276965444346964906e-02,4.044742868696487442e-02,8.874914092653721220e-02,5.318904174484415798e-03,1.035465276538838353e-02,2.980576280184969729e-02,2.897649703388352829e-02,5.458332500940269068e-03,1.729301795048788226e-01,1.901259895107133835e-02
4.679813032476375090e-02,3.152783013221450298e-02,1.108561061762236150e-01,4.246388154944022268e-03,8.745637995970268613e-03,2.990976911946417044e-02,2.069892597966717721e-02,2.051728244530554284e-03,2.140659680634091067e-01,3.228182207885632593e-02
3.708604269520305446e-02,2.224399997329749509e-02,1.025931276463990099e-01,7.245999208049906659e-03,8.556057841364745828e-03,2.290106797961416474e-02,4.933256665532412613e-03,2.504389745338321972e-03,2.414801186199932725e-01,5.129565844521854351e-02
2.313811499551738857e-02,1.692388884822242090e-02,6.321225799727225869e-02,5.036743898479185792e-03,6.758618127484709512e-03,7.138039539389556126e-03,1.674447861472187771e-02,5.507028831851242152e-03,2.233595099419896646e-01,5.522013075446444152e-02
1.641555912344215204e-03,2.389139129405729034e-02,2.308150577799393879e-02,3.043518538301277949e-03,2.463906957073133501e-04,1.449034904546601249e-02,3.698953021917592010e-02,6.257018289351436516e-03,1.652719841427174596e-01,4.393574646206614004e-02
2.233876283135122903e-02,4.412352480092335966e-02,6.373612197133142129e-03,2.666867191246397907e-03,9.451285532439518064e-03,3.281289995647916624e-02,4.979626433093035931e-02,6.455436165962440999e-03,1.086243094439895696e-01,4.829113154024790994e-02
3.541948864104496608e-02,6.445094751567106983e-02,3.611535676129756095e-02,1.354501986027966016e-04,1.324129409284186334e-02,3.916929592942586247e-02,5.233460509678433681e-02,7.127321446089858459e-03,7.121593332779392604e-02,8.991007524215414992e-02
3.139447798798782746e-02,6.754604413032085086e-02,4.781837901281280750e-02,6.446241541035056290e-03,9.224676227862325592e-03,3.404146477931746517e-02,4.340120267756708561e-02,6.916055076781018121e-03,4.049953887648915368e-02,1.488337807879331898e-01
1.731895178827306744e-02,4.993236555721217163e-02,1.514318768020802078e-03,1.344715667162804142e-02,3.112598406675189458e-03,2.444769145821068870e-02,2.578839167883090200e-02,4.582320604770410803e-03,1.979385816140376980e-02,1.815978638139030821e-01
2.383877053579057381e-03,2.523652055701174068e-02,1.093494527290560930e-01,1.575198185225499398e-02,9.314771847575356589e-04,1.479256228835947040e-02,9.474675472214602601e-03,1.551800050652033447e-03,2.725842242387849224e-02,1.651593806666306896e-01
1.031252367016049186e-02,9.053605468990680652e-03,2.106202354188267678e-01,1.158183341293524300e-02,2.612781103817895037e-03,6.031192961513618181e-03,4.995006958045096132e-03,2.658664541947439001e-04,5.373985886262611783e-02,1.184452154756411441e-01
2.071690306967567674e-02,5.253126469344210521e-03,2.484616966431146268e-01,3.117490642339519353e-03,4.604082135172523141e-03,5.330819115228629685e-04,1.109726484788677026e-02,1.007440050565822001e-03,7.020505991086847808e-02,7.760332266356995135e-02
2.748601683836792917e-02,7.662582907394106281e-03,2.286506800633986702e-01,5.898744169293843737e-03,5.287042028370498269e-03,6.185722590768734114e-04,1.672274039336318907e-02,1.869637609603104055e-03,7.170413872770024788e-02,5.168454642217189254e-02
2.670019823573224066e-02,9.853443523082145231e-03,1.918992009720770497e-01,1.260056950103908939e-02,5.555682596893297097e-03,4.647299530740506800e-03,1.796454924684331989e-02,1.269398597098362865e-03,7.346874446745282894e-02,1.885757377644990684e-02
1.415770034188597662e-02,1.028618861900261125e-02,1.608349764241541191e-01,1.539939486281152736e-02,6.104586938381772847e-03,9.950554134097880712e-03,2.390837901411844643e-02,5.851973225552951647e-04,7.467415296983544171e-02,3.090248284623028224e-02
7.708345033991592654e-03,1.221165547110997229e-02,1.308979320013508862e-01,1.340171513779361313e-02,6.625093297477784027e-03,1.647174916432933567e-02,4.154795014335475878e-02,2.393694103069308327e-03,6.355929382141972672e-02,7.469800004596632848e-02
2.801688460750330692e-02,2.179575816261351828e-02,9.603695570254019986e-02,7.319531624172119152e-03,7.003867456222470818e-03,2.365061761578398161e-02,6.225394438756229332e-02,3.094940294269884953e-03,4.527505787531176801e-02,8.600775025781062788e-02
3.728581791583335941e-02,4.148934334280562908e-02,6.232804021987618098e-02,4.987157969302716091e-04,7.439658607562872443e-03,2.788950901957928941e-02,6.907051894679398785e-02,2.504806109101661779e-03,3.384693711605118310e-02,6.483482766603257397e-02
3.486559625921292066e-02,6.287903544345647966e-02,3.683197929002340193e-02,3.024931527472152996e-03,7.562779075699290962e-03,2.619732537838856748e-02,5.637749489455608914e-02,1.354265236116780537e-03,2.996150774228994659e-02,3.460319304608818619e-02
2.465449110563764507e-02,7.194233266762227463e-02,1.697031525792849424e-02,1.720065965868971614e-03,6.865147653700993773e-03,1.915801190860702552e-02,3.805343978543179045e-02,8.329616702146599300e-04,2.635009424756556973e-02,2.090986955639636061e-02
1.125751600740344978e-02,6.295213054751974679e-02,3.180573866238512251e-03,3.157113321371758652e-03,5.840952535166078069e-03,9.661033519811366987e-03,3.200281362864063756e-02,1.373056732660585082e-03,2.088367889258449864e-02,3.064323436691840721e-02
1.278884571330117428e-03,4.242479567102748483e-02,2.323324700972799473e-02,9.874911124461904430e-03,5.492302935549604921e-03,1.374897841944239946e-03,3.869583600782507821e-02,1.955889709040125376e-03,1.328443196717008640e-02,4.568085371711587406e-02
1.079489790541405658e-03,2.018589471702801272e-02,3.900996420343983556e-02,1.744005504186675951e-02,5.982707729477266222e-03,2.791041518998188357e-03,4.357348933609140468e-02,1.392820511863443900e-03,2.466505567451709666e-04,4.388210900882773269e-02
1.449405872449810277e-04,1.199931084975077757e-03,5.019223976146885979e-02,2.460577660094414101e-02,6.631853963593123749e-03,3.141689911201540463e-03,4.110749673163825030e-02,1.050889741405409451e-04,2.001848389730465777e-02,2.842635382980898684e-02
8.889859452483506348e-04,1.493858551726697133e-02,5.987833696588518162e-02,2.899497869804007824e-02,6.759631977540544491e-03,2.847724520972851493e-03,4.256390294156100346e-02,1.308124358066739589e-03,4.357915305309827819e-02,2.339947359808557462e-02
8.560108507216078466e-03,2.990551976312954760e-02,6.966648021615977349e-02,2.811740881721279048e-02,6.238929645301401553e-03,4.202217188238605537e-03,5.353016235058223604e-02,1.321096035132618288e-03,6.534980045202785914e-02,3.670062567842768270e-02
3.207813239663633714e-02,4.241591328674126915e-02,7.959166346674262371e-02,2.145946965542979562e-02,5.711983308770587561e-03,6.549742472855259179e-03,6.016094179449638091e-02,2.539921456741811904e-04,8.721265278360862405e-02,4.781964408063382743e-02
6.234968183710531964e-02,4.911263827775499968e-02,8.904051792324217673e-02,1.178266610370353080e-02,5.911055580527727581e-03,7.987289187033688731e-03,5.078387415862026938e-02,8.575433638249130124e-04,1.130198162075022744e-01,4.585614996155107370e-02
7.818511020590782068e-02,5.041807781274411371e-02,9.397747592169755637e-02,3.928289735438264714e-03,6.504905791569258987e-03,7.903632257996329874e-03,3.659409584553858369e-02,1.089791623366323080e-03,1.312041728308149802e-01,5.650674402319088435e-02
7.204510006298955882e-02,5.071235411570507168e-02,8.891157917333571137e-02,8.860184258018643892e-04,6.432156805337938335e-03,7.364092751062627923e-03,3.439485862980046216e-02,9.951914181380104151e-04,1.187068767684192755e-01,1.029476969815716070e-01
5.621700528710128764e-02,4.982624866580373513e-02,7.564900949705458122e-02,1.032932079953770028e-03,5.409717524500952737e-03,7.189436041726416163e-03,3.944701093488289789e-02,1.824618851614386505e-03,7.416834770255557874e-02,1.541272269967207120e-01
4.311452443630742898e-02,4.142740617498191086e-02,6.400554270484491715e-02,8.726255546565768809e-04,4.279314456973466220e-03,6.762650096232808439e-03,3.268156185580164269e-02,3.122733745619474081e-03,2.873714715955475590e-02,1.482866503820290949e-01
3.179997749065355261e-02,2.473106650662652145e-02,6.049451990668453655e-02,2.100883987820869811e-04,3.919309087152116414e-03,5.591830900807061647e-03,9.729673262597486605e-03,3.047278323259839088e-03,1.012058196201008620e-02,7.278135547511230263e-02
1.634989485642267953e-02,1.029964590108663550e-02,6.188855931985683123e-02,2.838086078920595834e-04,4.288494067874156282e-03,4.488919852986193032e-03,1.247350397964042470e-02,1.519570100906817876e-03,1.465436903137950705e-02,5.022932265031939889e-03
2.017485501282992831e-03,8.364070722083834925e-03,6.160615983374030658e-02,1.121699242816958687e-03,4.535468731992430176e-03,3.957103046012369271e-03,1.821982648530352800e-02,6.697814133376115775e-04,2.548542870410329744e-02,5.337092071856725309e-03
1.667608330891951623e-02,1.718594749926510845e-02,5.725584780344485786e-02,2.368547518541674803e-03,4.118085343946193203e-03,3.327196224392754524e-03,1.033964769450138044e-02,1.446345268372754714e-03,3.708446150390697083e-02,7.279255368788291325e-02
2.450478123091023169e-02,2.709318555389067171e-02,5.055491177435873784e-02,2.494464559806388801e-03,3.624961023859162371e-03,2.444391577952163309e-03,1.579208579059455247e-03,2.216867363481370406e-03,5.019230110660098665e-02,1.507883075894685121e-01
2.708189991547112555e-02,3.112992354896090136e-02,4.338440587572969798e-02,2.133037147860814692e-03,3.843251925067613876e-03,2.051266301521831315e-03,1.440698962950135234e-03,1.650398856252655120e-03,6.112810008447836646e-02,1.612416250976664855e-01
2.553140523978019924e-02,2.908684310559527322e-02,3.609632329713362286e-02,2.270887291369547492e-03,4.450896205432470706e-03,2.080455507658963629e-03,1.044588203633865786e-04,7.004802603350697605e-04,6.919872059932627439e-02,1.107472704120001650e-01
2.035610238143195985e-02,2.500972313526246202e-02,2.898274488633265436e-02,3.957681933336430063e-03,4.621567045219086324e-03,1.667807338472794164e-03,2.135988708966459447e-03,6.026841689341747325e-04,8.099790907755197167e-02,4.966512733370775923e-02
1.531534691264397133e-02,2.257222485739431711e-02,2.262927080574108837e-02,8.098413424493281290e-03,4.327386641109473575e-03,8.253348730716432435e-04,2.569954003662709187e-03,8.699186431840743748e-04,9.348473168277338097e-02,1.152908332256875890e-02
1.498293786515941112e-02,2.054493368168409592e-02,1.544491128064279933e-02,1.353529065911518274e-02,4.108303868446528881e-03,2.810495648169320610e-04,2.450302552346537120e-03,6.332173214071245941e-04,8.485756029481716922e-02,8.082924115021469791e-03
1.749928072264831866e-02,1.332705442793747155e-02,4.360478378392782482e-03,1.645019284539583557e-02,4.138837377650707826e-03,1.501789191862932128e-04,7.759771851141999272e-03,5.039175979563747295e-04,4.089684330355034675e-02,3.340089289305585296e-02
1.511514679966646443e-02,1.198416166543483105e-03,9.472788739366928140e-03,1.401527654526006292e-02,4.169610827095274024e-03,1.436476088590523705e-03,1.945566488743880051e-02,1.461163174277947891e-03,1.787200887072921268e-02,7.828387506670507479e-02
3.346329644441215119e-03,1.625948312490888004e-02,1.959048000020089178e-02,8.472077915731001177e-03,4.016777065452671082e-03,3.489771654530819320e-03,2.664953131075082846e-02,2.748545250620771773e-03,5.528276197535486602e-02,1.276456741246989879e-01
