2.673941117869003611e-03,1.211316117902121268e-03,2.775034913809952819e-01,2.807173400704486999e-03,1.446419015149799495e-04,1.437247989231734292e-03,5.947141769105461495e-02,6.942033674570216584e-02,1.182426121879418951e-01,8.064929619664894245e-03
3.446499904045598802e-03,9.355674134598668170e-04,2.418137577027525409e-01,2.386737343997517424e-03,5.768322821403997435e-05,2.206790797449375771e-03,4.770153543800853546e-02,7.625606422107453208e-02,1.026975839112257843e-01,8.088163771669279467e-03
1.392887717159632666e-02,1.863993606857417603e-04,1.940520002915367415e-01,1.412009794204365561e-03,6.976992506144316349e-04,1.418424819519390444e-03,3.403469848139370479e-02,8.665644004264627664e-02,8.931298406329010731e-02,1.031650150743937400e-02
1.534187978795844252e-02,8.990588826127854805e-04,8.976811403735455996e-02,1.620904339073087367e-03,1.149729608698154756e-03,3.655867588343142795e-05,3.048784048586654361e-03,7.847224836690966376e-02,6.335454142147441126e-02,9.938330674228616074e-03
8.320772532716232822e-03,1.492303367229821367e-03,8.253014260985699901e-02,2.623166929666212628e-03,9.317005218018536115e-04,6.066159071610611325e-04,5.812315671981733989e-02,4.954421301326104171e-02,6.713861601423122029e-03,3.776187909077330634e-03
5.009324361821036742e-02,1.447941595899456630e-03,2.509556469617452712e-01,2.771863041050118444e-03,5.968114708807981551e-04,5.715329691493932539e-04,1.261343311103937659e-01,2.220141382140482234e-02,6.375247991106093581e-02,2.189101295029857903e-03
8.178544343248571324e-02,2.007355629905394068e-03,3.335944691131008111e-01,2.121430060503420954e-03,7.130274390829260261e-04,5.346222392996549666e-04,1.626100992330795358e-01,1.432915190806454547e-02,1.088999757825639958e-01,2.898656029511451765e-03
8.618861688663924381e-02,3.649599531917007735e-03,3.391737782509132160e-01,2.215749856377162690e-03,1.165842669890673365e-03,3.040835023768249500e-04,1.587507119308550485e-01,2.050128696590951261e-02,1.156096327103491722e-01,3.540522740940306012e-03
7.247266233912810773e-02,4.954665328908030610e-03,3.392854600356672856e-01,3.583808111724403993e-03,1.073797771100762051e-03,4.422435150051490823e-04,1.353544001301444644e-01,2.563127166254458231e-02,1.065682489402226540e-01,1.000795150303291151e-02
5.700990072758687494e-02,4.917349583397221703e-03,3.611529428051275525e-01,5.239557149414392906e-03,7.927093711121699956e-05,9.571831042113741360e-04,1.102239815021513331e-01,2.422355870769288960e-02,1.030019323107363577e-01,1.665176612464600719e-02
4.479969673811612374e-02,4.463405223141063069e-03,3.650924936140428900e-01,6.346420102416107031e-03,1.192397367287726913e-03,5.333830855559461293e-04,8.871262694643676505e-02,2.043934745879684781e-02,9.978834207778528032e-02,1.370070194246039708e-02
3.357657708666560159e-02,4.659933041800125644e-03,3.094499325935208267e-01,6.911703638066096431e-03,9.009012747476109056e-04,1.678417941380880611e-04,7.690927370072807301e-02,1.849982695985353046e-02,8.059315290082567917e-02,3.723667454284998457e-03
2.267345867822470953e-02,5.267242286016293219e-03,1.889155632732542889e-01,6.925303170951626827e-03,8.203722890696033628e-05,2.827208729324316651e-04,7.971433434369055993e-02,1.929490651805172013e-02,3.954452212217638568e-02,5.222204861083306693e-04
1.245362423919688794e-02,5.735359854367363085e-03,3.210435602700845159e-02,6.309166043010168944e-03,1.884027225739247965e-04,1.238834335728505073e-04,8.727615546370960653e-02,2.141729814485092420e-02,1.856622951578607017e-02,5.290227148296313374e-03
2.865586222275432263e-03,6.031949811562253155e-03,1.008473734141880351e-01,5.710119687562784964e-03,1.777366428299762685e-04,1.889968805433924642e-04,8.194395668904536079e-02,2.070965925879103206e-02,8.323256597811565238e-02,1.186117991675557891e-02
4.420664789203223102e-03,6.076814948068987726e-03,1.516282493638896889e-01,5.809847322549794961e-03,2.327296364243194545e-04,3.496626726716109727e-05,6.096090759530076175e-02,1.249258048882845133e-02,1.338532600361169167e-01,1.132474289825130195e-02
7.469038786011232556e-03,5.638901552843258135e-03,1.271665777148618948e-01,6.205062380274595571e-03,7.886005546788349592e-04,6.751584477199995592e-04,3.973016765610918460e-02,4.862681855121752696e-04,1.469553141732738433e-01,6.965702528849572472e-03
8.078527129353117037e-03,5.005585938626844547e-03,9.382751625596344458e-02,6.335112961926062623e-03,3.158913961405813856e-04,1.189124490046962164e-03,3.154407064200796806e-02,7.054576528367753965e-03,1.219193109697433997e-01,6.080513676781048801e-03
1.007539626633224827e-02,4.797396659686993178e-03,9.192802920915668641e-02,6.436585215849172613e-03,3.520174984468940442e-04,8.341779196126149730e-04,3.569544857455649034e-02,4.407515744719520297e-03,8.724345784603430853e-02,1.180336853897908170e-02
1.510263555463154696e-02,4.999955118935582241e-03,1.052937137085427494e-01,6.558345912719466125e-03,9.414066043100639499e-05,7.499228949350894753e-05,4.548945407844485339e-02,9.497397516009599069e-03,7.133346590904995899e-02,2.235092761219141869e-02
2.338521710406366375e-02,4.879158475007895623e-03,1.204165655210894942e-01,6.248704241848360673e-03,9.198007609885353389e-04,3.545048982791296341e-04,5.412546639811752214e-02,3.548066149651527001e-02,8.158912471914750442e-02,3.173472475329826292e-02
3.350269051517483498e-02,4.158548850486771913e-03,1.504722343079735181e-01,5.640476408801336702e-03,6.483618725353954655e-04,2.196645796688288907e-04,5.143640257371855790e-02,6.329935309386024167e-02,1.149521400996952603e-01,3.211321329463340951e-02
3.759017160779979522e-02,3.764200067365598441e-03,1.942997952385746296e-01,5.215034769251621072e-03,4.493970773972564984e-04,5.936573401418883270e-04,2.981254026152854730e-02,6.308620468752249022e-02,1.627594943011853867e-01,1.954620823805364518e-02
2.549841736937954323e-02,4.494995278727238232e-03,2.268309600494496647e-01,4.885687718203671551e-03,8.662760400786150396e-04,1.918451210707260287e-03,1.759594711377193005e-03,3.879659810710805318e-02,1.999466496642104130e-01,2.611908447844073049e-03
1.129743918419274769e-03,5.260928846665556026e-03,2.249985470725777426e-01,4.675870004484179894e-03,1.098303283309717148e-04,2.739110454382580502e-03,2.062722248950593640e-02,2.093984609728460206e-02,1.986751968296374682e-01,2.459749170641403748e-02
2.767169969133209673e-02,4.377659464514033899e-03,1.737260101342997520e-01,5.175362623775380498e-03,6.103318738384415831e-04,2.036750333407435706e-03,1.328928394692755789e-02,2.029154671229618442e-02,1.578082995697650814e-01,3.368907058045426950e-02
4.190443059984205049e-02,2.502836846725275434e-03,7.944485986718655135e-02,6.161048051492917267e-03,9.407831710072946639e-05,3.036160172330075436e-04,1.025925688650837324e-02,2.194579939224832604e-02,9.477452388434723374e-02,2.282682584110508339e-02
4.218584902732926134e-02,1.824632400125631489e-03,1.501531817061771412e-02,6.281146185521111099e-03,9.779937555197684099e-04,6.621783165272817359e-04,2.777324178517057846e-02,1.982826280206544806e-02,1.455262937914239378e-02,7.657431764678400594e-04
3.188172076245814057e-02,2.370858954519017205e-03,7.944018847475525780e-02,5.127535421694229788e-03,1.000744442009256262e-03,2.339746035805974692e-04,2.613008145216963451e-02,2.418629933302893220e-02,8.446722135560941203e-02,2.051008232665488956e-02
1.493166087793178221e-02,2.005931562396943545e-03,1.367257928792103283e-01,3.971282693330316360e-03,2.108508874441741929e-05,1.971734153111170604e-03,1.068855755605899877e-02,3.910398002656785554e-02,1.808649622465425821e-01,2.615065567916351891e-02
3.905532400169564339e-03,4.338030641559737128e-05,1.965680369132003225e-01,3.652054440845083592e-03,6.117474338644241470e-04,2.531555789112349252e-03,1.705357083497862497e-03,5.860283947459345166e-02,2.352576046813311672e-01,2.120254570716591930e-02
2.037882858741424733e-02,1.941576152062984579e-03,2.092949999752846402e-01,3.435201123240898095e-03,1.170458887938331024e-04,1.438046617314661961e-03,2.375814884147236725e-03,7.822295576877268120e-02,2.275551926683321291e-01,1.505248442666609274e-02
3.277345719661092088e-02,2.772077434436511899e-03,1.526143563183844643e-01,2.483602798945579084e-03,7.676737566392913357e-04,2.636657546604274146e-04,2.099350815986943813e-02,9.288675143264063516e-02,1.758565604699232066e-01,1.132254332583788187e-02
4.194645226692682305e-02,2.900926962750517181e-03,8.402670830196769247e-02,1.019604680261957568e-03,1.155854544422561716e-03,1.732807638288669043e-04,3.785126238195601900e-02,9.473657719874484240e-02,1.151513603720147327e-01,6.481368892228090393e-03
5.043226962066776203e-02,3.136704187948825915e-03,4.830219582243808207e-02,1.874091319077095621e-04,7.131487760438394701e-04,4.716069837942567906e-04,3.729461654060923365e-02,8.597693350962955228e-02,6.309008169101133767e-02,5.286175347603759523e-04
6.060328342006318647e-02,3.542483246041324384e-03,2.925977024011235453e-02,6.710336781584439218e-04,1.207536300139842335e-04,3.935069386939535774e-04,2.006690278469886249e-02,8.167152818431852590e-02,1.868268204428683021e-02,3.776812787350512096e-03
7.156432106917458291e-02,3.716974008459742948e-03,3.458102071497187735e-02,6.024190262675077883e-04,5.109935871808278908e-04,3.366602978679306439e-04,3.385042508124689892e-03,9.061607847913538683e-02,5.407459374242444203e-03,9.911902784533034669e-04
7.870693022355712554e-02,3.770041010373889265e-03,1.126767889465576794e-01,4.354198175318920502e-04,1.125782157666503337e-04,4.464717238260305140e-04,3.192362022606645960e-03,1.047006632272210053e-01,1.824663953300879535e-02,1.229223504990166211e-03
7.985763962327553644e-02,4.506725222188100871e-03,2.458440150036264871e-01,4.389818040103558687e-04,6.870747772738733860e-04,1.446753132004329888e-04,1.704711266434235165e-02,1.124516356496152447e-01,8.279052468755679350e-02,1.189332423221918858e-02
8.074592072427752565e-02,6.189417003658226508e-03,3.310433964259153483e-01,9.324737578626757879e-04,1.151158359153413389e-03,4.705879341108020137e-04,2.899222515982263076e-02,1.102172186526114567e-01,1.337177900313527290e-01,2.368240515414369793e-02
8.611135653965661108e-02,7.794855208229759663e-03,3.012691801506977018e-01,2.376058801918775210e-03,7.272326206325959537e-04,7.345797000000346775e-04,2.975855169937037525e-02,9.664240320545124108e-02,1.287318607020150885e-01,2.020989913844348229e-02
8.501886431588739912e-02,8.242215713941427463e-03,2.010623348362374774e-01,4.625157068038712217e-03,2.160271305288350926e-04,7.231175002648597113e-04,2.256064537219835964e-02,7.134850586595732624e-02,8.179576410196565117e-02,8.398740034696186921e-04
6.031520526365876517e-02,7.766361666705873072e-03,1.252379726482233946e-01,6.610726926914504281e-03,5.755303804321656828e-04,8.014960710058769170e-04,9.068251039184890838e-03,4.285586550295387986e-02,3.729424608439877581e-02,1.702567522397429797e-02
1.791302847383784494e-02,7.482335813057404070e-03,1.138550527235069471e-01,6.904239949812060982e-03,3.975409924482335038e-05,6.229149550584896699e-04,1.545670784021246219e-02,2.385989223230186584e-02,2.784374171090132910e-02,1.991162944522731001e-02
1.238445827960276899e-02,7.969359798133490366e-03,1.218583301942200575e-01,4.483482157321463588e-03,7.194051455712481991e-04,1.654292149858235071e-05,4.697733021983763191e-02,1.632289398470366387e-02,5.627286328031625567e-02,1.228510032109352001e-02
1.378600163590212174e-02,8.702078650171920018e-03,9.215470740394084148e-02,8.899627261880886132e-05,4.190629983576220439e-04,3.720443926625182545e-04,6.639557173211783903e-02,1.198756934973232123e-02,9.208086318793615166e-02,4.438172701416696203e-03
2.398703703001756060e-04,8.925799301629793944e-03,3.098984529543923755e-02,2.885618322888320632e-03,6.790320544968499444e-04,1.920639636607699634e-05,6.008708613094208839e-02,5.349576142263072834e-03,8.672347526855214705e-02,3.108930508841341658e-03
1.165160797027825143e-02,8.992949389120775613e-03,2.150754505568977862e-02,1.137553668760258674e-03,1.211480822121964495e-03,2.555049455737596308e-04,3.906322414400585641e-02,3.806665037565718640e-03,1.653789133569476266e-02,1.424602343192244575e-02
2.583584482557659337e-02,1.019530898168359220e-02,6.173506497393867198e-02,4.176251203467152597e-03,3.465912918113891149e-04,1.777773820048838638e-04,2.628484185254206101e-02,1.481254084109103961e-02,8.057532819669921409e-02,2.467989410407418760e-02
4.689951576425165775e-02,1.234377304781393223e-02,1.125192628128566519e-01,8.405961352956920624e-03,9.008333953737152934e-04,6.917876840453161813e-04,3.009205362821346791e-02,2.381001662752747425e-02,1.274509203512739774e-01,2.768761666119101336e-02
5.681637961015736232e-02,1.216420874933992619e-02,1.664749260236288719e-01,9.036823342157759842e-03,1.052823100178696758e-03,4.197844414827676387e-04,4.012431526069265564e-02,2.582897324436210160e-02,8.250944885698857645e-02,2.768691076153706465e-02
3.488430412529377328e-02,6.448009660121237392e-03,1.841605087744262181e-01,7.514545517325900946e-03,3.134086431953580229e-04,4.641141257934382289e-04,4.399195282949042857e-02,2.598705805752890563e-02,1.810601824900612625e-02,3.285719485343154000e-02
8.357766883253169368e-03,2.681215822167302369e-03,1.531304263924228026e-01,6.189099259188308826e-03,3.581460019621193736e-05,1.083158675234062104e-03,3.863695359196157864e-02,3.465260109620926093e-02,1.044446291604947813e-01,3.726633778482533327e-02
3.854191079881275767e-02,8.234167971651084814e-03,1.393623130554765555e-01,6.735030670177806836e-03,2.523683996441786377e-04,1.131611371611101948e-03,2.965257852613936360e-02,4.600033116536410283e-02,1.365133901410824913e-01,2.827663972386143185e-02
3.505373959628103192e-02,5.612946965096663778e-03,2.415136099568839512e-01,1.038486200357859046e-02,3.039396322258157315e-04,1.156077428453341528e-03,2.645460456654179920e-02,4.212401624658912436e-02,1.097093120887429885e-01,9.995484588177963592e-03
7.267801259195162678e-03,2.404284944356942059e-03,4.488034640439837464e-01,1.658194997876996646e-02,3.206045471646965222e-04,1.419239802152931409e-03,3.491630571147764928e-02,2.514039187402327888e-02,3.207905010186148237e-02,9.670091462491889854e-04
2.111978394437457815e-02,9.533135267114767677e-03,5.966095349515829760e-01,2.247102291555598888e-02,1.126205528363994832e-03,1.341738322975569121e-03,5.010001156794797322e-02,1.901836978524028277e-02,7.247429379445506636e-02,3.142927065441606348e-03
3.374347484886094928e-02,1.317790095293706887e-02,5.469078141953412908e-01,2.574577150655416730e-02,1.451411705478688596e-03,6.847165743128375568e-04,5.883394595317806980e-02,3.056383305664571101e-02,1.618557360803824507e-01,1.295173922758288687e-02
3.125223933796941050e-02,1.529898780828906416e-02,3.669258219664007781e-01,2.694929214313895871e-02,1.053631415305748093e-03,3.056306888090728081e-04,5.339225171814995091e-02,3.757954394234964274e-02,2.086245208196430834e-01,3.767414062126073215e-02
2.553501204604415389e-02,1.747667457296655028e-02,2.452333281640812213e-01,2.795943176930651072e-02,2.736352329901007283e-04,8.515856089147220021e-04,4.099918898306093018e-02,2.624304198707980845e-02,2.274713359575573079e-01,6.326566049091282562e-02
2.652135337872548598e-02,1.884922799110070810e-02,2.703652733541870856e-01,2.907019401452794541e-02,1.211937145547522583e-04,1.719025293581709834e-03,3.547832554505223751e-02,1.078074269687693924e-02,2.491374878096787593e-01,7.213692658265745405e-02
3.410480234694587831e-02,1.864573129391520340e-02,3.598078261808211331e-01,2.837003227161165320e-02,2.866353905359314840e-04,2.130717871160731948e-03,3.943493781438325158e-02,5.148611363000073562e-03,2.701305486301324166e-01,6.107652012145979581e-02
3.823084541626877580e-02,1.765276607967357012e-02,3.891895960498782392e-01,2.476691552408940775e-02,1.056622321828847542e-03,2.142676590556079341e-03,4.020940933533803663e-02,3.355343365305132278e-03,2.536023234040067353e-01,4.023315254097241389e-02
2.808264655196210033e-02,1.746252214137246350e-02,3.474089836411347609e-01,2.137676449602981393e-02,1.483950698957486013e-03,2.025258633343103055e-03,2.735844706829351769e-02,7.522920861567955648e-04,1.951407808017210921e-01,2.186932867766060162e-02
6.652730986469734820e-03,1.934313533214291475e-02,3.320598323868154678e-01,2.234764650190258425e-02,1.237246783171508987e-03,1.738183761313900509e-03,8.890552424550085542e-03,9.530050732894676351e-04,1.555527267652903056e-01,1.051037830151813068e-02
1.060471032236634525e-02,2.197234969853764305e-02,3.883512457181429456e-01,2.475598497429793571e-02,3.787534865912759092e-04,1.318921669753842039e-03,2.276241391452916117e-03,1.323674865553274571e-02,1.813067435647333359e-01,1.555416752425422969e-03
1.645353425513782636e-02,2.057152902192199706e-02,4.261616647535810265e-01,1.949812689260109130e-02,6.765559960589168954e-04,1.022990821604843718e-03,1.269241393248346159e-02,2.461575893244324909e-02,2.187713081372812118e-01,9.796673196562095259e-03
1.931254581099764792e-02,1.157179361471961064e-02,3.501244929807997841e-01,3.901819816176169999e-03,1.426843194796141578e-03,9.854300194209993438e-04,2.922144792893166185e-02,2.340866622078903794e-02,1.772805410741457310e-01,2.053331437957062536e-02
2.738522078651584035e-02,2.428827189900392008e-03,1.970193987552645576e-01,1.307602916603722507e-02,1.706515340448566285e-03,1.084094702871297262e-03,4.048074098317711034e-02,1.262631714206859448e-02,5.846907278848920142e-02,2.433676572839479912e-02
3.881068866847257187e-02,1.526329890123537605e-02,7.261356939742523442e-02,2.230012699944400323e-02,1.474402962525365275e-03,1.299469246462702171e-03,4.510150806989730865e-02,1.631369182865143735e-03,5.206103034683821212e-02,2.114107969423319536e-02
4.945287764917045276e-02,2.345330852994475385e-02,1.498797044966221348e-03,2.450717939779284427e-02,6.297985480251123676e-04,2.012457788214782987e-03,4.633085214431736237e-02,4.406359836016421339e-03,1.013232462946026258e-01,1.744246959321325494e-02
6.000163343201242450e-02,2.812030937645644893e-02,1.222195344138163053e-01,2.609214662972167073e-02,4.637882913715050742e-04,3.163879855839160909e-03,4.390821824226963377e-02,2.566545620864977423e-03,1.124137030963495987e-01,1.841947560526402405e-02
7.211055914713189463e-02,3.291471309138038759e-02,3.875092831394882364e-01,3.153923836382610535e-02,1.128444838269185768e-03,3.491533371522507860e-03,3.658967235226739251e-02,9.085480480977396744e-03,1.424183590248232212e-01,2.344678940368078238e-02
8.310300034123782598e-02,4.070024277594404966e-02,7.546575225775282725e-01,4.143331789993782294e-02,1.315186684654444989e-03,2.241817978067390648e-03,2.853579971583301844e-02,2.754387248288715090e-02,2.401389699948295875e-01,2.934195577078266282e-02
8.890934639092751279e-02,4.980166944325931794e-02,1.052534982622829185e+00,5.219364945580755311e-02,1.335619292478739057e-03,8.270743979939119321e-04,2.498214360715317328e-02,4.585333396539906931e-02,4.003490613057212877e-01,3.412513033762967080e-02
8.890981303501081789e-02,5.424776040697417562e-02,1.175074509910538634e+00,5.772789754164486115e-02,9.807236673613395524e-04,6.241167759628819204e-04,2.407771434968214788e-02,5.954933412547391142e-02,5.397561729077121617e-01,3.528835290218793053e-02
8.445886906730046273e-02,5.007390738342628461e-02,1.191102790809707379e+00,5.479650586718220334e-02,2.508962593300642229e-04,6.766081332365887378e-04,2.184489381258959348e-02,7.043538917153616130e-02,5.708856566946848288e-01,2.925454709744886722e-02
7.670836405779395129e-02,3.963563119879261881e-02,1.179521989410360572e+00,4.502119464653653313e-02,4.231881408833254333e-05,1.030377235960765268e-04,2.153343362931067762e-02,8.337669142542382394e-02,4.979950261150064006e-01,1.795164931154188265e-02
6.615317526276012772e-02,2.782693306970041719e-02,1.074294156611829809e+00,3.103684662646804399e-02,5.561328406387213742e-04,7.288308888281040806e-04,2.849689554035917879e-02,9.811084795865153418e-02,3.905737051216153222e-01,1.113437699099749552e-02
5.160208490093428496e-02,1.683147663863928875e-02,8.257585301369254616e-01,1.514532439897173406e-02,4.678268677264236629e-04,4.878769118896880436e-04,3.842446579982944366e-02,1.063055890500898965e-01,2.918186283333835673e-01,1.535225755728996354e-02
3.612579160282029106e-02,7.236933777858598794e-03,5.966365981684234043e-01,1.660856522074760210e-03,7.490138275967714743e-04,9.187239790610193021e-04,3.908323211025865190e-02,1.021137514444153127e-01,2.112959897629741179e-01,2.507264594065622063e-02
3.258677555693769573e-02,1.610099873814123308e-03,5.817314696638574700e-01,5.265083462939372863e-03,1.562990892326491556e-03,3.038110495857380446e-03,2.611664528839600236e-02,9.287585284462732127e-02,1.646816409419795402e-01,3.130472728387335979e-02
4.776020728850888242e-02,2.355095721091390350e-03,6.915999310746150375e-01,7.229035177585147950e-03,9.353118134359763225e-04,4.961417562123096418e-03,1.264574512719125396e-02,9.030762631226289805e-02,1.472305799127295589e-01,3.325166888249879438e-02
6.466375317179315352e-02,6.325632784105872548e-03,6.375327012097598001e-01,1.077010135924662618e-02,8.490699859910256814e-05,4.740746753683214472e-03,1.564549466709180478e-02,9.353692191303528136e-02,9.959616634294832238e-02,3.402972654409699982e-02
5.998441500778409902e-02,6.398477703890837615e-03,3.297147136363858255e-01,1.980166061466562266e-02,4.141103476991607273e-04,3.452872282083610869e-03,3.494691320412223606e-02,9.064092628978528965e-02,2.736360486688139623e-02,3.201709877121494685e-02
3.267063352457109937e-02,2.386442813141717058e-04,5.795987353347152593e-03,3.118339659286864518e-02,1.479602716942554370e-03,2.852980165104609424e-03,5.571584594510309990e-02,7.346935474413451850e-02,1.847409552025508495e-01,2.522202542914005544e-02
3.188315478524350946e-03,6.425589997480602236e-03,1.449078925523281103e-01,3.894163536164901157e-02,1.951953671783537847e-03,2.050179308471607263e-03,6.544788459742170716e-02,4.271362689775533295e-02,2.595999341559006024e-01,1.745374310311976346e-02
4.105579640891392906e-02,8.011156270072511409e-03,1.400400300143817556e-01,4.165936234743696648e-02,1.355678141435120044e-03,4.878136616156330207e-04,5.650746878432284792e-02,4.892166749582554756e-03,2.063991064097022432e-01,1.342211867795655572e-02
7.603980196393440860e-02,6.717005255183115808e-03,1.970485407367110198e-01,4.330798365493151308e-02,4.573157236929483631e-04,3.616768335236725338e-03,2.555788755974105347e-02,2.735325738125854098e-02,1.016841194666979475e-01,1.486595119394419628e-02
9.097594520882409941e-02,7.812978171374680009e-03,3.814798500830854366e-01,4.640529847869648977e-02,3.320711307336085354e-04,5.278356628859890050e-03,1.455314589042374859e-02,3.847642818098370027e-02,3.915366498618927382e-02,2.311748518572479330e-02
7.297880379127254236e-02,1.110937321138225943e-02,5.675511201208349732e-01,4.831351003725386367e-02,8.877586596063339556e-04,5.550698257666113015e-03,3.934896384133954733e-02,2.309535953359595495e-02,1.598239926534032740e-02,3.407952107962312210e-02
3.540756216399752049e-02,1.297585214133969295e-02,6.458807660014577179e-01,4.682537039250275757e-02,8.392983807626998392e-04,5.221409817578752735e-03,4.176608213050395785e-02,3.906831784916485473e-03,1.818522683750051910e-02,3.145129079913086545e-02
6.238023137483302179e-03,1.395402844081721633e-02,6.489880652508499548e-01,4.508310338564310710e-02,2.719759303855526006e-04,3.743367001308655490e-03,3.664267664537839558e-02,1.730017546821537716e-02,4.621375742056851865e-02,1.542545583960444437e-03
1.145216977591716461e-03,1.790459978350197531e-02,6.501351588491379729e-01,4.686299129426910182e-02,1.253728655103427412e-03,9.886263733816513799e-04,2.990301122097381928e-02,7.547242163370838572e-03,6.984400379974284659e-03,4.287831343664707390e-02
1.515004914660953925e-02,2.505633777685275371e-02,6.496032006343562815e-01,4.975906004582376224e-02,1.213470866381297780e-03,1.582069630549409528e-03,1.163955504653543804e-02,9.239111508955375612e-03,8.630579072944515040e-02,6.991696905270450291e-02
3.099163606182545397e-02,3.146192467925924136e-02,6.092665948690263455e-01,4.643677284914130010e-02,8.783093208105254663e-04,3.194514473758795509e-03,1.228198028690450846e-02,1.625278044585391074e-02,1.400996034590321349e-01,6.429240466176416868e-02
3.139336728587004827e-02,3.498817456321810793e-02,5.372418570189207987e-01,3.163046162554970092e-02,1.104917628307390022e-03,4.392950428263655074e-03,1.231752019012201903e-02,1.859899791134530730e-02,1.072328370173430828e-01,4.246707578475020228e-02
1.192629108490252283e-02,3.751500425144235068e-02,4.853807404249467217e-01,6.849906339209554766e-03,1.299582748855454290e-03,4.507912070289517466e-03,2.807091633725964167e-02,2.588211867935137980e-02,5.124698014624988474e-02,2.858485981580161442e-02
1.334604645149412884e-02,4.055101673671764745e-02,4.723406685785514481e-01,2.050888841242265795e-02,4.313258677397439726e-04,1.813329531740713553e-03,8.844137410973357261e-02,2.948233700994882384e-02,4.110195428483191804e-02,2.830638143293259107e-02
2.347495034571530498e-02,4.204730111999339937e-02,4.588160953397220077e-01,4.154011674724985420e-02,1.034044167253307580e-03,2.739200685492444286e-03,1.325090966732305475e-01,1.881348302564624445e-02,4.030780079334168181e-02,3.169312101751479982e-02
1.303971371715565743e-02,3.988418618149206646e-02,4.192469244867639278e-01,5.020208982646461732e-02,1.589424299733656820e-03,5.071275311495669624e-03,1.384450956264337007e-01,3.807852348797022106e-03,2.025349165202262880e-02,3.079780244144426568e-02
2.295584194823840907e-05,3.707014106060378678e-02,3.801662756036110480e-01,4.630323069522324086e-02,9.541377177866440084e-04,2.823759347088040071e-03,1.053208654555567586e-01,1.105281505237030656e-03,1.046821963461319061e-01,2.590869552891478592e-02
3.014787186334581988e-03,3.953003592496782265e-02,3.512702263203343334e-01,3.609691454849642267e-02,3.029373207318598296e-04,1.595891289226397929e-03,4.713241165577795877e-02,2.693598968671949249e-04,1.095807579557046274e-01,1.937547482662431084e-02
1.356671093252755783e-02,4.642254967021982454e-02,2.785452218679970171e-01,2.759939867051363141e-02,1.227105461650698445e-04,4.346936490471361471e-03,1.120716458823251167e-02,4.130750241239271488e-03,1.452739358509722717e-02,1.121919045551944723e-02
6.814325296739754713e-03,4.626755571588272303e-02,1.156407985527159732e-01,2.289704293129241758e-02,3.270869910888930614e-04,4.661949623293300086e-03,4.451220434016153749e-02,8.370212160147574160e-03,9.936567999624322522e-02,1.856964630076780257e-03
1.859142624072295316e-02,2.805236146203720499e-02,8.574643032825074451e-02,1.825928152204009045e-02,1.127598893749266707e-03,4.315548504595251647e-03,4.239322539988770594e-02,2.506765442385135677e-03,1.706201048763125727e-01,5.139411107917647020e-03
3.184834229064276850e-02,5.765558954513661308e-03,2.033845631900083606e-01,1.420425329137877876e-02,1.193063450059319089e-03,4.233190356358826519e-03,9.585262402441108859e-03,1.533582200300800426e-02,2.229257371620915473e-01,6.172985882606431274e-03
1.110757289370107974e-02,4.160595116043143415e-02,1.859727989383954672e-01,1.870639483081568133e-02,2.339848730009407040e-04,3.832788757647254130e-03,4.233660579823797510e-02,4.361888218089545605e-02,3.009571463942352643e-01,1.685050633352913520e-03
2.724229620681834288e-02,6.678981382102182340e-02,1.366907725799074713e-01,3.499160756678281609e-02,4.239090689906976862e-04,3.048438964421868857e-03,9.457876038775817062e-02,8.219137870681260394e-02,3.850275778345196298e-01,6.122971940987582615e-03
5.499524531651907300e-02,7.647185694006473911e-02,1.887412598772791883e-01,5.348119432855615724e-02,1.856045410947870528e-04,3.103182503462841631e-03,1.285163184508187895e-01,1.252062962853232597e-01,4.042188489000414497e-01,1.774039114640079545e-02
6.736278580844703989e-02,7.356609957837598190e-02,3.150859258074480418e-01,6.227783649762170387e-02,1.151322470753244741e-03,4.914503120553757702e-03,1.468238426197052693e-01,1.612252659338594130e-01,3.330723530944998956e-01,3.397535193064056547e-02
7.341510716129874548e-02,6.452222708653491956e-02,3.569503528535444281e-01,5.892349941338854286e-02,1.121377555416355710e-03,7.388129783921128756e-03,1.680480237861334269e-01,1.827630026001973162e-01,2.329085328184493375e-01,5.000585958192977493e-02
7.087743870849000372e-02,5.321124245777639206e-02,2.409902670374285960e-01,4.756033206208797742e-02,2.694691388902876626e-04,7.992878797824726558e-03,1.908363806593624812e-01,1.902572606417640699e-01,1.726014860678600771e-01,5.663688341481255134e-02
5.273611500109785105e-02,3.987463104394934482e-02,7.662915683498491837e-02,3.250791666247158929e-02,3.078238037515981925e-04,5.522815916199839449e-03,1.884811570857400920e-01,1.881386576084793372e-01,1.519559294145725326e-01,4.907495260417931576e-02
2.554791986592610045e-02,2.645691053755042793e-02,1.941208454140738379e-02,1.806350166174800972e-02,4.429119635415083422e-04,1.765387419704896694e-03,1.489113308489126986e-01,1.782879053056397323e-01,1.373563182988902232e-01,3.293781706360002920e-02
2.069622512689749724e-03,1.782700745561079103e-02,9.467944728356979256e-02,7.145936835572616608e-03,8.639394813850212376e-04,3.690723446247496558e-04,9.748450016256310358e-02,1.573593389297288925e-01,1.268859885563537460e-01,1.921516459775870350e-02
1.387640063756462837e-02,1.484192468017512569e-02,1.871558945544184727e-01,1.580181656791910302e-03,1.656465446142709992e-03,1.192711853572580292e-04,6.925692998032623171e-02,1.237100800890524321e-01,1.327309879279389426e-01,1.180697309879963700e-02
2.272165422941152188e-02,1.151966149829181281e-02,1.887251861831628630e-01,9.014608582316329180e-03,1.950257354972403196e-03,1.835889332673189614e-03,7.327918794429237603e-02,8.488219749088676824e-02,1.305278972893497702e-01,4.919008742942054986e-03
2.261868039196932023e-02,4.046434257511978549e-03,1.106914470332289735e-01,1.024895853296194440e-02,1.141798548428822613e-03,2.887110039151349287e-03,9.197770886548309321e-02,5.182383637733616044e-02,7.996884266467778335e-02,2.866005319421160123e-03
1.663273798478446044e-02,2.091874456552541076e-03,2.003101469034124227e-02,2.048988123889377341e-03,2.950403413371761830e-04,2.366459472867133047e-03,1.026218116873304359e-01,2.742065361874662655e-02,9.011462140363891982e-03,2.749334126392700105e-03
1.382235450651638983e-02,8.329193215127254045e-04,8.288297625070319141e-02,7.327254704260063520e-03,1.245746604248919613e-03,3.559785223469426763e-04,8.972261013784289807e-02,7.228129503224349148e-03,6.980943732303677984e-02,6.433276897076400068e-03
1.942991881903891396e-02,2.772853299684285237e-03,2.374878636683728506e-01,5.484323828038769645e-03,9.809185603978365364e-04,2.356825676942185793e-03,5.001629015829093389e-02,1.032520528915261727e-02,4.540362462244263569e-02,1.007515310034368117e-02
3.416616463578937141e-02,1.060667435004797755e-03,3.889021428796681223e-01,7.670788500329963656e-03,4.920650675764495080e-05,4.353363860877939098e-03,2.024686349792392467e-04,2.194440116165168736e-02,5.228627885101445882e-02,1.988716360065338837e-03
6.018647120463453681e-02,1.110438788517941096e-02,3.908926214971497060e-01,1.884217952133980523e-02,5.377885808259557808e-04,4.514769407547246025e-03,3.423227231360385925e-02,2.681336075546514666e-02,1.398600020864041449e-01,1.220500934069771847e-03
9.572744067728787554e-02,1.646471620033941249e-02,2.000820280490581415e-01,1.802158607943463511e-02,1.149907340556928666e-04,3.435187293649858472e-03,4.384858874816532220e-02,2.814641024562811872e-02,1.270705465832629999e-01,1.299324909743949756e-02
1.255490002725703491e-01,1.374931428250946407e-02,1.120908479929638712e-02,1.026694134036399211e-02,9.487629046333878602e-04,2.864571941011914875e-03,4.652287794924793440e-02,2.792070077554510005e-02,2.106259098461896184e-02,3.036686886196538968e-02
1.289438978246636447e-01,1.144573044010382609e-02,5.125708630898668378e-02,6.751733720194413868e-03,9.021996458604989930e-04,3.265933236187215996e-03,5.848855306747359484e-02,2.754328676374514714e-02,6.513105306634872638e-02,3.132358299682549974e-02
1.017568484296344500e-01,1.396950883394740273e-02,1.408284919889962739e-02,8.344100688121856499e-03,5.156353292423489524e-04,3.282431731963761888e-03,7.864708336285608503e-02,3.190296033660561248e-02,7.362763683184754548e-02,1.783040556641926969e-02
6.350683750522358173e-02,1.293909859632586673e-02,5.698957043268616796e-02,6.031210353839328020e-03,9.336452169146522385e-04,2.091085799201091062e-03,1.015595397700690683e-01,4.505161195956976228e-02,1.054135880124570379e-01,2.768531020397492579e-03
3.763877116118958394e-02,1.479486752495653588e-03,3.148748188819982530e-01,3.764393211205147548e-03,1.679101677844505036e-03,7.040491466679799472e-04,1.272809368425268650e-01,6.424601977786771612e-02,2.590926656540633588e-01,1.211811108398477138e-02
2.899747513783300368e-02,1.261297501192298887e-02,5.273028598022760915e-01,1.393699725936896165e-02,1.226434137880339946e-03,4.527167500636729899e-04,1.550065466710473239e-01,8.333858914391463479e-02,4.448575227272609234e-01,3.227643305776970589e-02
2.491395356859464963e-02,1.704617844272486582e-02,4.902320796506902112e-01,1.719728157969009283e-02,3.026848585029132946e-04,1.426878666249737802e-03,1.778329011542785776e-01,9.696697078903668277e-02,4.867803001381125760e-01,5.380620101600403632e-02
1.541469471475835282e-02,1.085551109195822400e-02,2.396983945375669722e-01,1.305025276435729277e-02,1.204692385917462963e-03,2.655310824836026873e-03,1.848225700952287331e-01,9.943220258996529615e-02,3.493863174507993441e-01,6.353738920706007709e-02
5.183009943945726845e-03,2.093467704442723235e-03,6.112942331431427123e-02,4.283013417662391228e-03,9.233490178152437044e-04,3.159001246838565903e-03,1.677480810491641383e-01,8.848276469660179555e-02,1.525385774899744584e-01,5.423734651158890890e-02
1.221971120412852947e-03,3.500213964087129422e-03,2.588770526945391448e-01,5.773264128034847655e-03,3.548571694669351486e-04,2.864666282678100199e-03,1.308739034060472650e-01,7.126666484431862236e-02,1.097209780837296068e-02,3.375856417115181973e-02
3.393859683742198215e-03,4.697287519200432290e-03,2.485556598611036450e-01,1.304884279272357575e-02,2.035542211831238959e-04,2.592444832904221459e-03,9.079626274126835483e-02,5.763667864201919150e-02,5.275673484953394277e-02,1.754011919751154169e-02
2.063628926736872995e-02,1.422984703172334130e-03,5.828646982722836961e-02,1.587360386849846761e-02,9.711276807710900140e-04,2.823752413219996101e-03,6.187968005042986108e-02,4.939832969947025032e-02,7.272871982259938861e-02,1.460404954628463994e-02
4.679797336211190262e-02,4.569754680145868969e-03,1.239445274327237723e-01,1.712219953189238544e-02,1.152378556732072462e-03,2.786552512445933209e-03,4.885887738178262829e-02,4.402649939618998726e-02,8.890756431890306510e-02,2.282384463687818846e-02
6.476190843955645371e-02,8.652740192022551416e-03,1.454019642864862460e-01,1.940980354395854118e-02,5.195766195344526841e-05,1.641387030562088461e-03,5.175889306204499440e-02,4.382714294149171741e-02,1.205660093867180760e-01,3.442857103931455665e-02
6.457326149789605063e-02,7.180422767317231128e-03,6.007597039325987542e-02,2.070731361579781354e-02,1.377556960665327502e-03,2.493747923386568314e-04,6.192814206568706542e-02,5.275796124961069922e-02,1.572105964967004943e-01,4.221101229754957440e-02
5.043262594409929356e-02,1.138356988585962314e-03,2.175038084188442473e-03,1.763533675700006825e-02,9.804415462934059928e-04,2.406620795198019785e-04,5.894819420288757023e-02,6.835602380230872133e-02,1.839366960337708856e-01,4.335093625367732878e-02
3.038592685686242190e-02,5.915899742713320170e-03,1.425572066915125127e-02,1.054733653362349179e-02,3.124748687840461455e-04,1.445332197103892146e-03,3.264468424247937706e-02,8.335175895732757634e-02,2.070647713505152643e-01,4.090926403516315785e-02
9.743166573212851470e-03,1.154462382338617213e-02,4.258059706849862125e-02,3.226778790507394377e-03,1.652603180793842292e-04,2.185014417890072252e-03,3.477671831127026464e-04,9.136251092212831215e-02,2.212648103267347843e-01,3.900477138071216376e-02
7.810614224113193726e-03,1.457022034916505455e-02,4.106527301916115119e-02,1.179937099581071297e-03,1.106496513997950104e-03,2.042521497433974920e-03,2.080765630452426074e-02,8.692750222138086180e-02,1.771977199414006554e-01,3.554634054796387138e-02
2.143583571801373905e-02,1.380235140834733081e-02,8.949406915464507006e-02,3.543180308780499808e-03,1.093909306654012627e-03,2.052019961797202623e-03,3.330957161379968084e-02,6.622029228940917722e-02,3.151446970120672098e-02,2.496785980576290628e-02
2.972935153878007372e-02,8.353267342268266837e-03,3.449048924300548435e-01,8.445874841202917135e-03,1.755113709637344695e-04,2.102013920092817706e-03,5.061070530833137321e-02,3.315401168109156221e-02,2.003573641695910457e-01,8.549271315397725945e-03
1.933490560814935325e-02,1.212224275652995465e-03,5.993022910275893622e-01,1.884348733390497563e-02,2.978215922686445897e-04,7.140072870948370627e-04,6.714532438837710060e-02,8.504741478791086329e-04,4.707212374267786825e-01,4.856731576977238972e-03
2.628187740496465072e-02,1.168609875863786847e-02,7.244434615780452891e-01,3.057064326485049027e-02,9.708074764735079645e-04,2.068724841399819693e-03,6.575135524441877433e-02,2.695321767546102198e-02,7.219081494983066172e-01,9.288553360915751886e-03
9.427426609455194506e-02,1.740103126397466934e-02,6.752965627461881004e-01,3.507043757303678067e-02,1.311742712963055854e-03,3.885180784179877514e-03,4.162781632892795236e-02,4.240365079945204729e-02,8.701133915970552524e-01,7.236824950521891439e-03
1.404349540127954876e-01,1.393098961372501825e-02,4.924195082947581126e-01,2.831400753085621183e-02,3.320249597988651324e-05,3.080049528107041239e-03,6.686939614870735307e-03,4.393231097199826185e-02,8.484834816968120919e-01,4.317954257395137906e-03
1.351117537136153901e-01,2.573023954154849986e-03,2.557683796530266229e-01,1.414874353586706088e-02,1.049180775099949753e-03,8.511542248380359011e-04,2.480322354565870843e-02,2.895079391744716582e-02,6.821829322890059499e-01,1.834616657917322036e-03
9.119538226269667536e-02,1.005290900441574431e-02,2.496748147189897099e-02,1.131134480947156018e-03,9.928052129700348696e-04,5.314387598217204783e-04,4.558541946896649266e-02,5.611483200627469942e-03,4.626799010673648960e-01,4.238906079484733649e-03
3.822472718522264973e-02,1.744276841069296313e-02,1.803283301720580156e-01,1.425097277823363616e-02,7.959442791494203027e-04,4.104693639452916586e-04,5.469083510761103828e-02,9.473297859248849470e-03,2.542217280415301484e-01,1.618716292741991317e-02
7.987561474114246787e-03,1.820130572915676717e-02,3.496617056636671106e-01,2.459640509349414472e-02,9.112943806325600775e-04,1.880781853680810439e-04,5.675975647999512153e-02,8.375150874081544600e-03,6.817113971294874730e-02,2.830356691815632056e-02
4.373840871361303617e-02,1.593816481265174917e-02,4.631590957506265815e-01,3.128449213397083845e-02,3.518173079037228458e-04,2.002054449769233486e-04,5.905460567232529573e-02,1.059089091382634136e-04,9.120124161165767129e-02,3.223935534459437119e-02
6.750613173219616181e-02,1.453543445766617738e-02,5.057836135382528520e-01,3.309420123628276783e-02,1.162011170332927787e-03,5.450728842810685778e-04,6.104542826162127206e-02,2.784893690838099924e-03,1.980144397907786513e-01,2.601714524996114747e-02
7.862618397647117008e-02,1.430162886813160679e-02,4.691504516345459397e-01,3.128904916025041644e-02,2.117967066796467342e-03,1.385836641464734294e-03,5.183415752759022027e-02,3.372574117860403006e-03,2.227665546878994651e-01,1.161644726059411423e-02
7.496913749289003948e-02,1.349192531794439313e-02,3.515586827673775616e-01,2.994576709450232077e-02,1.249890961365161335e-03,1.348690667547236067e-03,2.585053129513690401e-02,1.179274123867121195e-02,1.670603352565965538e-01,1.120670053423321842e-02
5.488730081112527803e-02,1.203328808486459935e-02,1.960326428154537670e-01,3.164076768852884525e-02,4.691620733627132212e-04,1.843882878265274067e-04,5.164939907986275912e-03,1.516870571630341002e-02,7.894060568577423997e-02,4.002642471064675467e-02
2.908458490984433889e-02,1.136248529280595165e-02,9.688569220570711349e-02,3.436471796375652893e-02,1.042546271754141640e-03,1.042117025959190483e-03,2.364218293939615231e-02,1.028901006662991981e-02,2.661879674696981946e-02,6.355539217016789588e-02
1.931414400931358993e-02,1.141973729585061062e-02,1.058240649834969738e-01,3.472955023553739307e-02,1.718490076628674795e-04,1.165213943861510230e-03,2.452705923107374036e-02,6.522560874407104178e-04,4.638426912527475465e-02,6.877696802744842630e-02
3.363880058684848989e-02,1.054293202140935311e-02,1.546118131048422606e-01,3.281961401195800793e-02,5.465671058319889787e-04,5.203088442518856655e-04,1.679281484678073894e-02,1.031992110336448810e-02,1.124621845296913808e-01,5.184507647990779095e-02
5.186843673191196546e-02,8.398773366291514483e-03,1.311168532280732324e-01,3.099436994788447655e-02,7.496086634258632055e-05,3.074705949212401014e-04,1.151601281054543541e-02,1.148382100133300485e-02,1.595172674482589481e-01,2.040155608359946887e-02
4.906992072644928565e-02,6.747527334350382142e-03,1.774449842405528485e-02,2.897972728691079053e-02,8.590060815300742990e-04,6.896840889417937956e-04,1.345003301472313256e-02,3.522885489176242387e-03,1.435560915103444857e-01,8.685331804468154546e-03
2.974280568284468768e-02,6.599811561998607939e-03,9.450013000454506040e-02,2.422989067396617152e-02,1.191638986686094663e-03,7.402822779320551759e-04,2.102011884704823794e-02,8.206092555851559125e-03,8.590024567540031908e-02,1.720764993074651653e-02
2.129006429354929689e-02,6.438169472304971705e-03,1.220289911922186055e-01,1.657781952130980146e-02,8.029729268462446057e-04,9.341553322683672153e-05,2.841887610018443630e-02,1.747476592058468114e-02,4.710252921359366074e-02,3.012307119145351663e-03
3.034151170596001076e-02,4.622929087632809443e-03,7.272369742279832794e-02,8.055752984625609570e-03,1.392431073337653243e-04,5.404014945336330436e-04,2.821712077469383517e-02,1.887207976802156642e-02,5.795250803091059333e-02,1.370548902827146281e-02
2.836584862758462916e-02,2.143119052160934613e-03,5.484846001759018097e-03,9.232200325569863905e-04,4.203701840955224520e-04,5.946302610094500191e-04,1.793140410274434923e-02,8.670147731932999896e-03,9.685381999433799460e-02,1.242181261278731130e-02
5.614732707423434818e-03,1.114136519640242457e-03,5.036400299292240895e-02,1.067393811101108314e-02,6.310191240497484708e-04,3.802329512660042690e-04,3.757842334672871834e-03,1.090086438790964507e-02,1.330234487200053217e-01,4.930094660904848526e-03
4.966545534567431280e-02,1.576305421767095058e-03,1.047079627014787517e-01,1.878890175557123079e-02,3.870694027400098836e-04,3.292350462070174752e-04,7.497107653740075345e-03,3.147300296229966349e-02,1.616630124993868600e-01,2.144416829101460434e-02
6.622263255782295799e-02,1.789968064292138741e-03,1.647653941296778335e-01,2.134824750921282197e-02,1.857907993029262773e-04,3.391975813139573776e-04,1.575359219332695543e-02,4.628121733219103112e-02,1.911265219406729221e-01,2.604664888560634037e-02
4.804023550398290460e-02,9.627319762712312646e-04,2.218118373270362986e-01,1.718694487513537997e-02,8.142205109005682100e-04,2.475151521204880991e-04,1.984227815501345832e-02,5.431149113445175869e-02,2.220381724829136594e-01,1.860223074803790330e-02
1.729776503093046619e-02,1.458711904584381915e-04,2.690046762245263956e-01,9.946664389075677085e-03,1.199379273062391258e-03,2.650956425368723637e-04,1.173089865139383819e-02,5.563305315026242925e-02,2.510077480339915068e-01,3.267902152630148150e-03
6.814991029476346121e-03,8.077107391825671555e-04,3.020493332707636647e-01,5.956456488710040915e-03,9.997885895384696266e-04,4.373728891591814496e-04,1.046378347640870322e-02,4.919726094227803992e-02,2.792998214197517370e-01,1.511078789528586333e-02
2.164644635350653976e-02,1.124876113713092242e-03,3.040570551853146730e-01,8.411608279971923355e-03,1.097755762845241547e-04,2.637152861730255216e-04,3.337803431107204399e-02,3.751485372764700593e-02,3.039363531710700395e-01,3.169368519719547445e-02
3.276996352170002264e-02,1.545494989977280829e-03,2.550751420650245183e-01,1.367214129931041550e-02,8.996792735030323049e-04,4.734552315581649624e-04,4.256950520166206953e-02,2.761044192278255122e-02,3.063093532683278664e-01,4.283396352857703204e-02
4.368293813379516694e-02,2.280083637811332851e-03,1.641645146200237937e-01,1.612768251154905047e-02,1.208751971105775317e-03,1.034090009848445289e-03,3.739332654538977951e-02,2.389659819608144428e-02,2.644763330309633509e-01,4.649445590114538451e-02
4.707337150162829026e-02,3.091159356184613061e-03,7.512333649452181128e-02,1.523349929425078103e-02,6.609508230243549319e-04,6.502341570980127352e-04,2.750186699520870345e-02,2.222235702522206216e-02,1.807729480471081396e-01,4.229222656384196838e-02
2.681532966210108809e-02,3.717378070790662310e-03,3.013603779139321232e-02,1.374083957084888154e-02,1.476935897028957645e-04,3.184388529607378370e-04,2.442699819781991855e-02,1.362326742555502318e-02,8.895051599952369381e-02,3.218917589180097377e-02
2.118897825968208207e-02,4.378530012942631611e-03,3.555698254319229756e-02,1.177150212631422957e-02,4.338981779249025117e-04,7.725947674094517771e-04,3.593449442561779533e-02,3.693147766157505851e-03,2.796499789795870231e-02,2.003098232104676135e-02
7.526513597235590103e-02,5.098074021879716970e-03,6.694124341622205432e-02,7.740339621478849880e-03,6.965718048067347061e-06,1.922371266843139412e-04,5.728368798195512118e-02,1.742505230218596712e-02,1.105645605455482169e-02,9.180604939237115361e-03
1.063912093627053940e-01,4.986344908996099071e-03,1.009336226508527196e-01,2.695283096736048999e-03,2.883157885629721159e-04,6.540353930878559617e-04,7.032973880740159278e-02,1.365826052741709630e-02,2.417363116347262877e-02,6.930505019216710687e-04
1.054169783341309952e-01,3.599506593655174645e-03,1.377010296112035626e-01,6.822410971213394969e-04,4.199166498690497370e-04,6.401409723200668887e-04,6.056201013563591862e-02,2.829706907739109982e-03,5.060142129113615744e-02,6.721896450000068232e-03
8.355688504693331575e-02,2.408104111706934388e-03,1.851076168336270866e-01,1.582133325025674234e-03,1.178776233585231755e-03,9.579890930730299069e-05,3.232984682201981569e-02,1.170770253752666940e-02,8.465799623624317705e-02,1.594557282712976559e-02
5.335832462254130881e-02,3.112150147694695175e-03,2.199399688447745693e-01,8.960546483743163371e-04,4.513167224254191826e-04,4.175219171001313132e-04,3.120986511122686349e-03,3.626945867978451608e-03,1.179789870863463264e-01,2.861903258608681014e-02
2.091782215803064324e-02,4.841091899239089932e-03,1.930213174455086278e-01,5.424595556896409133e-04,1.108597141195955113e-03,1.420014877841032763e-03,1.306548880745245222e-02,8.431743975224611359e-03,1.323880884253680612e-01,4.021771253090149212e-02
7.282444460054462304e-03,5.032490910366430384e-03,9.244658838450775518e-02,1.815955773949921685e-03,1.252662979803288506e-03,1.368300115352312149e-03,1.581483097320445994e-02,9.381396136949056441e-03,1.215545151285699066e-01,4.128008467837999962e-02
2.435587686456819334e-02,3.438459229241517742e-03,3.281723561553338137e-02,1.771534248137510929e-03,3.769636453351218365e-04,2.005432553864457091e-04,1.538410726354050295e-02,2.303817438222834427e-03,9.861733493204832834e-02,2.852005495783356201e-02
3.237072673602575668e-02,3.108690803689746589e-03,1.373128439115850197e-01,4.665403069868353549e-04,1.512893083766007549e-03,1.550563026303934699e-04,1.959554589925557172e-02,7.315895815774944334e-04,6.313425374219761022e-02,1.050824487560159115e-02
4.037692104341734228e-02,6.073942915025628761e-03,2.269394041628767789e-01,2.762027684120248964e-04,5.331786738145647287e-04,9.375717631290285013e-04,2.446129499991050657e-02,9.582652491098138381e-03,1.013223887878547842e-02,3.551115906961987805e-03
4.885076211826001880e-02,1.004980701087452959e-02,3.192688557840537289e-01,1.048916554578403814e-03,1.251920903789483690e-03,2.062823587239635045e-03,2.202946772574566198e-02,2.461806686731160890e-02,1.226949603465740390e-01,1.392588407397192703e-02
4.573173054637430512e-02,1.121870520828561688e-02,3.979526423380432276e-01,3.472010995905749561e-03,1.650088989371774036e-03,2.244284100196501305e-03,1.558552047024957914e-02,4.356284143997564418e-02,2.250739272363131427e-01,2.164958852366010225e-02
2.370077028832645247e-02,8.583537861229117993e-03,4.312079396105395479e-01,4.692127599848086930e-03,7.753838216485861232e-04,1.783511085893990048e-03,1.705845194117353372e-02,6.177179306218667787e-02,2.679164490099318896e-01,1.955975355055246043e-02
6.636640089972327405e-03,4.194360695889839084e-03,4.101299292968222931e-01,4.172597942279119426e-03,4.217662405113324891e-04,1.018393960703645141e-03,2.604237935488531303e-02,6.212563688964062997e-02,2.531957286413593633e-01,4.316922404697753554e-03
2.780148346220278482e-02,7.417460102171020628e-04,3.528019102506862459e-01,3.423882803986936108e-03,8.452636756585007885e-04,2.795233309329947665e-05,2.440596974940131489e-02,3.110003886028429518e-02,2.141362968149277957e-01,1.076480608031585122e-02
3.262544317218353529e-02,2.941224373300265361e-04,2.818794163812775033e-01,3.206216617995611296e-03,6.910945871265360358e-04,8.726145529123363219e-04,1.369924127127681007e-03,1.543207559212201110e-02,1.716714024275516615e-01,9.074669220058124985e-03
2.395024112732205279e-02,4.628653513763232412e-04,2.086034223489816597e-01,2.627673044424698803e-03,9.149513365871018880e-05,1.226878772083469680e-03,2.927126369240403217e-02,4.339806750127040563e-02,1.286863580328297119e-01,8.016810401244335582e-03
6.709925422962185505e-03,1.035936330942442609e-03,1.371506903187896531e-01,1.340827897044182589e-03,2.787422927263462640e-04,7.818196930128283335e-04,4.819429564094852153e-02,3.822375434131630723e-02,8.686598002286274878e-02,2.524020656912828037e-02
1.197014614307371702e-02,4.535112182311358282e-04,7.339846853193425502e-02,5.869602664563993485e-04,1.430266115272459517e-05,1.104012303395047014e-04,5.215458792688849182e-02,1.535340737124059676e-02,5.104196880024629290e-02,3.326278802367414050e-02
2.496689291954390377e-02,3.934834067831438718e-04,2.110941544783029658e-02,1.599939908079757965e-03,3.183544243194473848e-04,4.332568513370601204e-04,4.683872086800698609e-02,2.471163280400672478e-03,2.283172833972683946e-02,3.304580391136871520e-02
3.313250233465559608e-02,5.904675953206496661e-04,2.287056420465771039e-02,4.121171041068230276e-03,7.609203195791616357e-04,2.547778134913199102e-04,3.553450888902096733e-02,2.780142635097973981e-03,1.355656523021366022e-04,2.749907389168712232e-02
3.930651823615944479e-02,3.987892887208540618e-04,5.932299386690412929e-02,6.516685080987552961e-03,4.514618806514984544e-04,8.747368528171952078e-04,2.424615310552560160e-02,1.567954809167141153e-02,1.761955930457677691e-02,2.102225951966506939e-02
3.433047948346570899e-02,1.734906924904126629e-04,7.965817955644242943e-02,7.042702270960216580e-03,4.200476085159299180e-05,3.737286278247831388e-04,2.181488372484632898e-02,4.303236656507525987e-02,2.857858280369462295e-02,2.028362264960142242e-02
7.889656844352639989e-03,3.876101403964737815e-04,7.842574407081204235e-02,5.416567946150287194e-03,2.606094073890001230e-05,5.348943334578038552e-04,2.770011083192389090e-02,6.194348880564612414e-02,3.274801899612854450e-02,2.476307930859961495e-02
2.703734198004712277e-02,1.326639648689802728e-03,6.206576044812493753e-02,3.028604681816954303e-03,1.935869234005002551e-04,6.091864866062386523e-04,3.229125800008991048e-02,6.407256445168180159e-02,3.333339801761726895e-02,2.442159122564238616e-02
4.274694777948211122e-02,1.845855092688043417e-03,3.396728450793966292e-02,1.247471916246577521e-03,7.173769951788311989e-05,1.919374280720038853e-04,3.172400851513088732e-02,5.981016459167492333e-02,3.249040316072783485e-02,1.470949588786823331e-02
3.119940289652223253e-02,1.398041955795287358e-03,1.160428851032374933e-02,2.027758648094793274e-04,9.456021195591891046e-05,4.944952192713696851e-04,3.125806947140358921e-02,6.139516269103071494e-02,2.876605495691136535e-02,4.048341210525700611e-03
1.113404310504875934e-02,8.566225962011468544e-04,6.671219584909737765e-02,3.172506059065784232e-04,3.325524810422624575e-04,1.297971799826116556e-03,3.410462752699891520e-02,6.306471755028675297e-02,2.107085103543552412e-02,5.791791848062510101e-05
1.218004843914359363e-03,1.489113584522671393e-03,1.032393632186251048e-01,1.883840280964064855e-05,1.395814254328526334e-04,1.140778957356706992e-03,3.608711341315052473e-02,4.990282284931380624e-02,1.259852510314044861e-02,1.394780988687501638e-03
2.421273370951983368e-03,2.795575085494668433e-03,1.046718388881489048e-01,9.880651499462778271e-04,6.568679040891114073e-04,1.445315648426626488e-04,3.127297309924427504e-02,2.133685779439743052e-02,7.629276453195658891e-03,5.429275029686266366e-03
6.698289929786832228e-03,3.013261990847707419e-03,8.436882126123958214e-02,1.786862029577305404e-03,1.156170981360294661e-03,9.450277435084644077e-04,1.791566110267237000e-02,4.153438917852924489e-03,6.306565951019695374e-03,1.056549170728254133e-02
7.616123815314101639e-03,1.937079291829914372e-03,6.276294493472198144e-02,1.979678458278646275e-03,6.053645309236825676e-04,3.729047214599612910e-04,1.865551425263918713e-05,6.998475586875622413e-03,5.401032310682518829e-03,1.538007600351234093e-02
1.583136948837626323e-04,1.118339642936277880e-03,4.550679060116843283e-02,2.031690574716729127e-03,2.353075917321493116e-04,5.609476112747825358e-04,1.486144196714447863e-02,1.365680913150828235e-02,2.505821101606862771e-03,2.324030682447742954e-02
1.494473904965430526e-02,1.164802105085754273e-03,2.979573546525671884e-02,1.969001926402070678e-03,2.402748389632416623e-04,7.777530754548751552e-04,2.175399398051707997e-02,3.760467338528040993e-02,2.654196482425931827e-03,3.296903244320081167e-02
2.269962497028551671e-02,1.242253157689826495e-03,1.559574605261521835e-02,1.340476942092629119e-03,6.604405619145698456e-05,4.825062515430361882e-04,2.319028499043157554e-02,4.182069124595160642e-02,9.109282468287580384e-03,3.627832459017301531e-02
6.062944808390563489e-03,1.253559275869347775e-03,4.361888432072030461e-03,4.599353763411812750e-04,3.652965572541660771e-04,3.196369189235132241e-04,2.580589857018454614e-02,2.203488627854484697e-02,1.494760174258934898e-02,3.100889712103543916e-02
2.817716531457268442e-02,2.011710500913259543e-03,4.222732669494291477e-03,1.654353949925582105e-04,8.925867276298398529e-04,4.651623741963499341e-04,3.321123444346947562e-02,3.769245948091046704e-03,1.836290475998459196e-02,2.585640154353339298e-02
