5.811044406744335063e-04,1.583874398232161876e-02,2.316904403482789726e-02,5.120212264461457795e-04,6.759521520122926822e-04,2.640443023945385085e-04,1.922926356540488905e-03,2.223264182294282503e-03,1.119484762818501004e-02,1.011472871739019577e-02
2.075040060929156252e-04,1.047517271849270071e-02,2.525476860008541227e-02,3.530420810456683578e-04,9.585852016417363737e-04,3.331212878419583553e-04,6.180041852516032427e-03,8.145818403220242768e-03,9.354517099229740437e-03,7.200545914097940606e-03
4.344241954481292385e-04,1.837847147133343448e-02,2.615663535346170188e-02,1.458733918901912007e-04,6.345459821688824963e-04,3.946015732135678238e-04,1.379245625944914080e-02,1.400850520581567102e-02,7.866748119829842026e-03,9.648868770583713273e-04
2.258472891555150645e-04,5.252786321813365106e-02,2.545054545659488146e-02,2.833440007153328525e-05,6.523431605526514943e-05,4.467569198875204076e-04,1.592427635334167993e-02,1.959904259943900245e-02,7.063876078941718796e-03,8.447183353435082018e-03
1.429343169824475303e-04,6.872376845367959841e-02,1.878455116432916489e-02,1.650359664693402213e-04,6.228085436998912925e-04,4.880938579426400987e-04,1.128021258488234521e-02,3.101333232295799477e-02,7.220335622318418620e-03,4.760272447065767507e-03
2.516895171355182544e-04,5.864103112556259823e-02,6.276017918441474837e-03,3.364058449829450122e-04,7.309079624782418953e-04,5.173935389245150384e-04,1.227968131824440324e-03,4.919323665821173641e-02,8.025292976829362032e-03,1.488272845909778368e-02
3.095015869405977988e-04,3.186345888039410906e-02,3.747668511846674426e-03,5.235980983502922220e-04,5.821031220877428492e-04,5.337445687621982047e-04,1.156188547250710900e-02,6.950433138319392357e-02,8.933534677728673448e-03,4.511132363579273968e-02
2.780232975503879383e-04,4.152131348287190632e-03,3.224224589324671889e-03,5.997259630370439451e-04,4.974666426930372549e-04,5.365679457773414813e-04,2.253483144566485047e-02,8.301741287201708230e-02,9.303691515920455013e-03,7.101226091965819054e-02
2.690112577885487980e-04,1.512819185020921470e-02,5.545774187777765402e-03,5.985518111830390436e-04,5.062179168278610215e-04,5.256334310776259204e-04,2.786756807044454831e-02,8.108075567664392580e-02,8.100446997820576894e-03,7.522305857086385161e-02
3.006894883003172073e-04,2.765451725648193984e-02,1.198237623003198943e-02,7.658463394707358497e-04,4.784341027187533914e-04,5.010668989884262256e-04,2.926511192614039691e-02,6.544906960104333871e-02,4.626094813842354485e-03,5.393991172463044603e-02
3.198732535018399947e-04,4.137864558151278793e-02,8.936967707311688908e-03,1.032971817474112423e-03,3.961977804837370893e-04,4.633484478990269862e-04,3.059817677436797029e-02,4.909507405596834351e-02,3.223100095616331377e-04,2.460609347255540355e-02
3.185189456462778654e-04,5.984176562064495719e-02,4.038127573646041663e-04,8.333449413457272477e-04,3.208054003494182379e-04,4.133012909963641366e-04,2.938526358079160752e-02,4.189294035319891807e-02,4.887161839394175804e-03,8.016425536347996164e-03
3.225889309893764201e-04,7.468648736913162389e-02,7.363459038384996720e-03,4.307629538328615511e-05,2.636351470732615208e-04,3.520716856634440155e-04,1.988396347199726522e-02,4.221586906639277631e-02,7.732605454048279044e-03,5.065244002832850270e-03
3.326323049172374242e-04,7.360761525486231305e-02,7.630839735245809052e-03,4.663600021259162241e-04,1.985668367460798772e-04,2.811003936423367195e-04,5.241573877600260931e-03,4.518405843081906709e-02,8.685318431395585084e-03,1.129983441298438532e-03
3.330042868924722611e-04,5.922450898130709324e-02,5.050085278889826328e-03,5.510603144105465881e-05,1.223440320836520663e-04,2.020863853513414426e-04,2.919764249098007018e-03,5.072705592084708615e-02,8.399328699092954709e-03,9.351417767168754627e-03
3.300092070659011866e-04,5.110502945981571649e-02,5.582581145221691965e-03,6.400079685035182150e-04,4.950279824787140280e-05,1.169437052446981252e-04,1.228431265265746315e-03,6.011249990173115482e-02,8.164341258374830518e-03,1.506648033160133335e-02
3.382200931133580316e-04,6.230266135871175698e-02,9.602513513582123031e-03,7.516918406254152751e-04,1.557548453080988949e-05,2.775259549613481611e-05,1.119441037195670167e-02,6.977151736689966854e-02,9.147491682723503381e-03,7.365450257509859738e-03
3.404025890989085005e-04,8.391268149753902672e-02,1.264275038054758944e-02,4.065171098751432289e-04,7.670601494780569579e-05,6.329387215915168081e-05,1.693291725411076240e-02,7.247725338160403152e-02,1.100185948075287426e-02,3.027387858267175953e-03
3.138504089127512739e-04,1.004324348828525559e-01,1.241939354572521755e-02,1.714932141031599443e-04,1.337973395945455247e-04,1.539462859047269422e-04,1.482295410304536841e-02,6.467629693132063984e-02,1.230863130895634011e-02,9.612737555911377366e-04
2.970946705852090235e-04,1.101619170011075288e-01,1.154124796228800723e-02,1.188744365423055735e-04,1.836941638850826761e-04,2.419570485281463462e-04,8.293541826993948776e-03,5.081492659085892066e-02,1.270662479482338389e-02,1.750911032313300086e-02
3.360107529914846793e-04,1.217824491481723642e-01,1.298568245582354050e-02,1.029328412449670752e-05,2.239050902868721001e-04,3.251386930054935291e-04,2.816630281401853730e-03,3.947154172066878741e-02,1.298516563629436085e-02,2.705427518261100880e-02
3.489659005277006036e-04,1.391102345220555092e-01,1.595645084480715181e-02,1.886476163215167017e-04,2.522330733742408557e-04,4.014208452646898817e-04,2.307193996045258776e-03,3.678713884697297487e-02,1.311394652872216807e-02,1.878687207656662417e-02
2.380499685540158770e-04,1.576996027558153768e-01,1.791888409197394880e-02,3.610391616698697221e-04,2.693627061384162814e-04,4.689043501338169815e-04,7.398683177893322117e-03,4.245184485717833078e-02,1.230292134739064021e-02,2.150825402271964309e-03
1.784213077119616291e-04,1.695809870079124648e-01,1.872425450550412734e-02,4.822580668321466992e-04,2.793762473376521123e-04,5.259111447085325916e-04,1.360550698616802383e-02,4.834566372299864412e-02,1.105280676597995143e-02,1.089204057678147194e-02
3.951129472279157136e-04,1.652073229864401416e-01,1.997800180381050644e-02,5.998160488471295524e-04,2.794248824171421909e-04,5.710285684658493802e-04,1.373116073067975375e-02,4.479212274222946905e-02,1.090814443107625785e-02,2.233775376741385307e-02
4.894850310634437079e-04,1.406351675935105239e-01,2.151819451520156981e-02,7.192151737343344727e-04,2.585620731316130654e-04,6.031469388184015337e-04,7.140254301318703020e-03,3.367040546141373408e-02,1.202895270496199404e-02,3.983753377387013600e-02
3.156938723336901744e-04,1.077655756747146754e-01,2.219895336987375359e-02,8.120870143904800921e-04,2.221037705651603697e-04,6.214893909600123284e-04,3.330294234099541104e-03,2.758423943049777977e-02,1.300320160801520311e-02,5.802553957719953914e-02
1.814768991501143798e-03,8.330362976663917285e-02,2.331316819903967580e-02,8.698899409082806429e-04,1.947306587479447028e-04,6.256331775108815415e-04,9.110408728450709870e-03,2.849624001340399573e-02,1.302714953459002505e-02,5.762010881939277213e-02
2.572723750083078399e-03,6.443643334757551133e-02,2.621535920808611142e-02,9.008971995924975901e-04,1.674605756475716558e-04,6.155218416427655223e-04,1.597359738907860524e-02,2.026371423412132861e-02,1.262114341598627974e-02,2.781705693986590705e-02
1.764846601863755918e-03,3.443283075757025413e-02,2.699595390220927218e-02,9.051345227037691952e-04,8.960729858840849906e-05,5.914679114937529056e-04,9.994549670381398104e-03,6.007547926628961296e-03,1.252363240266764904e-02,1.531854103079333465e-02
3.681304288677349863e-04,6.225155761484191252e-03,2.010371833361245669e-02,8.755797565015940344e-04,1.772660655321880066e-05,5.541460077814522843e-04,8.109884633747689239e-03,3.488813729880755471e-02,1.303241272822528579e-02,4.231447315409080090e-02
3.264177875450703517e-04,3.642517863083997998e-02,7.962496514856885754e-03,8.099979005923507117e-04,4.145488689700032561e-05,5.045765043282773431e-04,2.352035340190086754e-02,4.929631973893878333e-02,1.376486217451331970e-02,4.160824243839147951e-02
3.697512391989876343e-04,4.322260547582237877e-02,3.139537785266065251e-04,7.105890247150390120e-04,1.868170792946260246e-05,4.441001263419043932e-04,2.686575303248271360e-02,5.412693805920230916e-02,1.351064293034430139e-02,2.819669706090915245e-02
3.312222603943500653e-04,3.377633512075869232e-02,2.931427115619394171e-03,5.784561507405251842e-04,1.891769175734395853e-04,3.743441074137496402e-04,2.314589825300360573e-02,6.241724740992021792e-02,1.142264374032308551e-02,2.226615523076179090e-02
5.108608094863496666e-05,1.995247045076253833e-02,1.258813251111916623e-02,4.136798458960668640e-04,4.834673496607043734e-04,2.971807471844788639e-04,2.123860380067484760e-02,7.303213741918275492e-02,8.499195110347161283e-03,2.980488913178968788e-02
5.547994136101884423e-04,1.044580706380464179e-02,2.311725560393212975e-02,2.179143963478683585e-04,3.389682371838207450e-04,2.146794117225017770e-04,2.249010842782957209e-02,7.498198800664340746e-02,6.671190826912838136e-03,4.235517108681022269e-02
8.026449719582342017e-04,1.485769638162784921e-02,3.113773751551482047e-02,5.613196037022449570e-06,3.706697559458768708e-04,1.290531926311561833e-04,2.104064052626108267e-02,6.262597080072952738e-02,6.882011524250514906e-03,4.511450404742359255e-02
5.445521739242904563e-04,3.446804552937111216e-02,3.585271037022450674e-02,2.534558551748998393e-04,7.829932083865529706e-04,4.260158415902720873e-05,1.259271819054801587e-02,4.091582689308766174e-02,9.245984446362721584e-03,2.953944925283496711e-02
5.743743145153300126e-04,5.067100974034418476e-02,3.702899595266931354e-02,5.221745499647276537e-04,2.587321826272061254e-04,4.234935367398815772e-05,1.949973881488116902e-03,2.454494266398113064e-02,1.374677979134249044e-02,8.292379365562908833e-03
8.953744364296218217e-04,4.256859446511464945e-02,3.411932856768909450e-02,8.076965877672902423e-04,5.740581391102363628e-04,1.235078066393477598e-04,5.349307548141237238e-04,2.921628215287687402e-02,1.931404905769597974e-02,9.323104704620201189e-03
5.413379198143214140e-04,1.498235336396135965e-02,2.758073141034211168e-02,1.105088969515328210e-03,8.387696360476355186e-04,1.986764214093736576e-04,8.607907833897403965e-03,5.407096813994048679e-02,2.386926596015836316e-02,4.313891137929756064e-02
3.634937303836257563e-04,7.511416331173551182e-03,2.078433532879571388e-02,1.409275047150045784e-03,6.320987841941852741e-04,2.658103616355348905e-04,2.167987345067885416e-02,7.898279777543638913e-02,2.662598984750837172e-02,8.571260087876861333e-02
4.719281955834884090e-04,1.171398650558753973e-02,1.703980377397675688e-02,1.715844786690571850e-03,5.274658924877775488e-04,3.230716913288073761e-04,3.013428900880555858e-02,8.813024323673747384e-02,2.870688065513671977e-02,1.051504836413237609e-01
4.679721195823981672e-04,6.526098800808788347e-03,1.447054191551512027e-02,2.020334073125139990e-03,6.468834843102362359e-04,3.688786600333574515e-04,3.308823854415995913e-02,8.795536456422048399e-02,3.090569920097997400e-02,9.449437832254491132e-02
1.071112026806922066e-03,5.211321314694819344e-03,9.402668486852578528e-03,2.316847168111984753e-03,7.251664920366197430e-04,4.019485895745164399e-04,3.300427560649973890e-02,9.285044621953411625e-02,3.294875439101650760e-02,6.935039478326242290e-02
5.153088445366225132e-04,1.105360971898011746e-02,3.933845342523468840e-03,2.599713334365806334e-03,6.065591099325656592e-04,4.213332215055756269e-04,2.991406386751388827e-02,1.026204248408562197e-01,3.482958020151224326e-02,4.562176255311657658e-02
3.416295441875704720e-04,2.031070717875247539e-02,2.827123049022509105e-03,2.866817501354296423e-03,4.476231738586355707e-04,4.264455738098063249e-04,2.349013785329147341e-02,1.057485342904585929e-01,3.599187763751653807e-02,2.883190245365045701e-02
5.365791635881382885e-04,2.497936126430265122e-02,5.211855491891898354e-03,3.116586195014796161e-03,5.219323197903208682e-04,4.170775701797420354e-04,1.578038929217347522e-02,9.799710198807673467e-02,3.477382466203771810e-02,1.766373189123195131e-02
2.931108001431965634e-04,1.334888483950099139e-02,7.177478524001479517e-03,3.341118567239852438e-03,7.001659228752735858e-04,3.934079398707656565e-04,9.603695828315423830e-03,8.609559329642577086e-02,3.339362281362967533e-02,1.075773617468520592e-02
2.188526956580556944e-04,1.317004537794078632e-02,8.772981642950145389e-03,3.532685593638086423e-03,3.887874190393936008e-04,3.560001347529948750e-04,6.877570775573057550e-03,7.616011990802502851e-02,3.857779352259091410e-02,9.030337902985595411e-03
3.343207024985318777e-04,2.577407670829039155e-02,1.113239898367583691e-02,3.698815479301503697e-03,4.884234950538611682e-04,3.057902664248252468e-04,7.713109842040478253e-03,6.618118315565525711e-02,4.680432573255781381e-02,1.108618104307426341e-02
3.754744418077043976e-04,1.096898249605389106e-03,1.113160747739516156e-02,3.849034424899760217e-03,1.007776694230068772e-03,2.440653235429504761e-04,9.564454404178902164e-03,5.073825414369780018e-02,3.583204981205212469e-02,1.103876591122476131e-02
3.268937610823270733e-04,4.224138017745145135e-02,4.988536217767530583e-03,3.962462502766528859e-03,5.837878388011712074e-04,1.724321812536746992e-04,1.018005837721150560e-02,3.219569829428504948e-02,1.103265114396105064e-02,5.994870953380718355e-03
3.097483165124991422e-04,3.860648645730131723e-02,5.754157404223914085e-03,4.015380756626064571e-03,4.300791979968070602e-05,9.277815428158204224e-05,1.144843950999075224e-02,2.243796290962944001e-02,7.634797468637485873e-02,2.122011424666647370e-04
3.286839897751788332e-04,2.627262744631485986e-02,1.487486870232909708e-02,4.051215218079946834e-03,1.001652319806974154e-04,7.224066630332619964e-06,1.584726208974999648e-02,2.698223652555795105e-02,1.231813890199714850e-01,3.324565518401477807e-03
3.290333884785755941e-04,9.641180055663028936e-02,1.696355146204917702e-02,4.123493954798448415e-03,6.339225946197231225e-05,8.192899179328766641e-05,2.059009100977447076e-02,3.443053184301077957e-02,1.347435868857441155e-01,8.297482922897912727e-03
3.168422509389555008e-04,1.068299845240643503e-01,1.262684292448177335e-02,4.144584691491410774e-03,6.201203511496271087e-05,1.722578831829395837e-04,2.054141419407487859e-02,3.166892974211422962e-02,1.229445357692784957e-01,1.818172530739107368e-02
3.139703591276139360e-04,5.686209728614390752e-02,8.485663202100257596e-03,4.003033057011435095e-03,3.488462873669859340e-04,2.612791415423037600e-04,1.483646637535311619e-02,2.082864272930533278e-02,1.036946990155457327e-01,3.164086464954601885e-02
2.991137375746176410e-04,4.290610436761551662e-03,9.787823718882270735e-03,3.894510715094854757e-03,1.050456403327656172e-03,3.465126239733234688e-04,6.377330064821255633e-03,1.137985356807011406e-02,8.167962752925714276e-02,4.626903036466618185e-02
2.699821299314510061e-04,3.100863237409003624e-03,1.408193866691230360e-02,4.095176217166743640e-03,1.405276374365679523e-03,4.255454661365796316e-04,2.541453759511691328e-03,4.841228742512905699e-03,5.789099582793454102e-02,6.025036414633365422e-02
2.775228640686377567e-04,2.690328910880672095e-02,1.609534049215452511e-02,4.158923057827477315e-03,1.211460152188443846e-03,4.960946987707169457e-04,1.093746979995480727e-02,3.809332819849582663e-03,3.699376652717884656e-02,7.104029784547864768e-02
3.079178597311352955e-04,5.558928695949132137e-02,1.644261297338478478e-02,2.927290058253017788e-03,1.203144055426357906e-03,5.560669086102557447e-04,1.790420709273776029e-02,1.693205437113403170e-02,2.263846158174506740e-02,7.614911612029412469e-02
2.501419648528987517e-04,6.416254080899376488e-02,1.958396242098039280e-02,2.151595201206828829e-04,1.460701917364935331e-03,6.036133951595983168e-04,2.281667257031323379e-02,3.342774058773054918e-02,1.254583030986327133e-02,7.303648817940984472e-02
1.411174111837289495e-04,6.276547334352362839e-02,2.537643347551391329e-02,4.478390970423287362e-03,1.246572592722970359e-03,6.371793830016697462e-04,2.554860221442283030e-02,5.212940771005217244e-02,2.513143146254348710e-03,5.943968143948145932e-02
2.236608053211176631e-04,6.227084390177330120e-02,2.879892410800219751e-02,8.138498568583006285e-03,5.494078655887371003e-04,6.555459950432124304e-04,2.614037712053851256e-02,7.021247724203351359e-02,7.757467074126567393e-03,3.835240852611750129e-02
4.308571587520181349e-04,6.064603996404728525e-02,2.683594131638268945e-02,9.496508042855641638e-03,1.336926734732949069e-04,6.578638717530652016e-04,2.516686858431570542e-02,8.169856571447439708e-02,1.572785095317238285e-02,1.902207186405823966e-02
1.999325881982615507e-04,5.327917385232483483e-02,2.172734211795241885e-02,7.885582784300092241e-03,2.630242504096965534e-04,6.436775305770444820e-04,2.381275195350924731e-02,8.330605103004708190e-02,2.066116393368997578e-02,8.677414649941503008e-03
5.918189382494772749e-04,3.979199998981514802e-02,1.865232857147857901e-02,4.507504556534399145e-03,4.899084143372428460e-04,6.129397930804848099e-04,2.282469743648696953e-02,7.916924850898336696e-02,2.429073972897329362e-02,7.497709326696367846e-03
1.074201346969927504e-03,2.388886442006759453e-02,2.124262709585685027e-02,1.771568387077039966e-03,3.479401729000315647e-04,5.660158590999747608e-04,2.206236147355239777e-02,7.476316085614541362e-02,2.799678951697809684e-02,1.254389493383064637e-02
6.098529244377522878e-04,1.539468502316758240e-02,2.720243961492805826e-02,1.093062152074778881e-03,1.147282220633803962e-04,5.036768709057174364e-04,2.125241635638181609e-02,7.036926524046611953e-02,3.108367234526965284e-02,2.037042846270641777e-02
1.626478708510144049e-04,2.237337800294589979e-02,2.953098692782596055e-02,1.697553432414746020e-03,1.708465454921077528e-04,4.270830793761823071e-04,2.040892915306486213e-02,6.528745928929069464e-02,3.102887155931358110e-02,2.669552358773227829e-02
3.765898176034068886e-04,3.567358975623571848e-02,2.430608760965660350e-02,1.810298780104313294e-03,7.674640382258000578e-04,3.377569915931193925e-04,1.956769188028537401e-02,6.208169502146424629e-02,2.546868180768347562e-02,2.960947748357330156e-02
1.563807133162522741e-04,3.771341576577755955e-02,1.359390505223165117e-02,4.210591872826406168e-04,1.909794781849407947e-03,2.375471382135543787e-04,1.878701141788800127e-02,6.175108396673375383e-02,1.564468590312305396e-02,3.050471014665338473e-02
5.883756539910164830e-05,3.053294239033031016e-02,2.201093962343712851e-04,2.197062707386012240e-03,1.794840423720329243e-03,1.285833427879161199e-04,1.823621543115524699e-02,6.150463667286906050e-02,7.023327366357381280e-03,2.817442889454037716e-02
1.493537918188626932e-04,3.398415114491246808e-02,1.154117941290581234e-02,4.642875081450901879e-03,4.479396934892337662e-04,1.322459754937132642e-05,1.774544438831939311e-02,6.040999591951232844e-02,4.267315194397368686e-03,1.881076868398752489e-02
1.987964672938177075e-04,5.190358670657740231e-02,1.032881806472057268e-02,4.514909414329866533e-03,6.369271018413671763e-04,1.059991547009629632e-04,1.681577583964205536e-02,6.024139971821267786e-02,6.513176532495438230e-03,5.457604202484206066e-03
1.742685822026348360e-04,6.566483026602465412e-02,1.229919509054417173e-02,1.082569974187100586e-05,7.236946987008403354e-04,2.264498702732171108e-04,1.580317124153399547e-02,6.024796767679052589e-02,9.518617541203580265e-03,1.585054140041489059e-03
1.584647522318621468e-04,6.933543529897302771e-02,4.410834728064554067e-02,7.177958670461913326e-03,4.977583992088682741e-04,3.454472974847358751e-04,1.586273418384458178e-02,5.789667066198761480e-02,1.122690973027571856e-02,2.076593206880009493e-03
1.566853006016474370e-04,8.208405043784453015e-02,6.166145477702378308e-02,1.254209196043183303e-02,5.785401855056274611e-04,4.603362385271536411e-04,1.619012483679513337e-02,5.267056251574817050e-02,1.284270255771282655e-02,1.009452668379093310e-02
1.786438333502894953e-04,1.114517794120713362e-01,6.043160959489273648e-02,1.407824673806308373e-02,7.699724339147201880e-04,5.685534626627293791e-04,1.328366895036379482e-02,4.386047914584577379e-02,1.485162809052633856e-02,1.736282012574973110e-02
2.464795610714033908e-04,1.330190728050560656e-01,5.783743673237622812e-02,1.433133827159688289e-02,8.009119604067411850e-04,6.676925535291174021e-04,5.815020722512397738e-03,2.995240921493401778e-02,1.469500731481300851e-02,2.711667771252106521e-02
2.523087384144205624e-04,1.233981979626462139e-01,6.488116179188938015e-02,1.552646615013734618e-02,7.931335714501258367e-04,7.555650177703562929e-04,1.913903401526711404e-03,1.419684621542063527e-02,9.674831160597495427e-03,3.897972165961986063e-02
1.279154064062026474e-04,8.701339116080476777e-02,7.394931617587126305e-02,1.626091633794433944e-02,8.567523943053109627e-04,8.302560697432668536e-04,4.945271914776880329e-03,3.902435598706659875e-03,7.236300033776947799e-04,3.897195554584804988e-02
1.437090568102554228e-04,3.590101976254431171e-02,7.646117537805567632e-02,1.477444116928232180e-02,8.479321933713411009e-04,8.901736356412847957e-04,3.796592125850114293e-03,1.664776271624264503e-03,8.069638405885084728e-03,1.502642259232758910e-02
4.715418288759603985e-04,2.497161154878822439e-02,7.343905701994182800e-02,1.171698493867200097e-02,7.442543385747268144e-04,9.340892869409135558e-04,2.227793239850988944e-03,3.312931269547654892e-03,1.313174438454853786e-02,2.139519021898028325e-02
4.849832742251727088e-04,7.092222844666973280e-02,6.568103734238912861e-02,8.091705133141934361e-03,8.028240373065160000e-04,9.611700135327926314e-04,1.762815892211037298e-03,4.671509438937373332e-03,1.403544267553537978e-02,4.466345602581283519e-02
5.012107452880088052e-04,5.406672102067799218e-02,5.030553675222381588e-02,3.780114784480599621e-03,9.851721340614814047e-04,9.709999762871777875e-04,1.916814142563989234e-03,4.832181127554882952e-03,1.306751690657305745e-02,4.487690670216102490e-02
1.742979032671410251e-03,3.420094843559225162e-02,3.009895946722936436e-02,7.965343469975221880e-04,7.230489934557485536e-04,9.635916313964835696e-04,3.195828865188977269e-03,2.768879092021212830e-03,1.257007377269187855e-02,3.403876672299645245e-02
1.733293473113723662e-03,1.271937502821823829e-01,1.253399898879705224e-02,4.216515077120775584e-03,1.188433957752088301e-04,9.393858882890058744e-04,6.223712592797271508e-03,4.602494299748735758e-03,1.266394155295370340e-02,2.495618069098119382e-02
4.714022781113617368e-04,1.522782048853159320e-01,2.256468921086109483e-03,5.946359822123444862e-03,6.662540831378129533e-04,8.992412424102234642e-04,9.250058944335788624e-03,1.835705830117217996e-02,1.195565553267451814e-02,1.958002609283987852e-02
5.351612980318499937e-04,1.110584062474540695e-01,2.034648421339722846e-02,6.726316639302715346e-03,2.724686487731828484e-04,8.444121066235193724e-04,9.538842071417457519e-03,3.348678231731744975e-02,1.039650700367884817e-02,1.749205101180675154e-02
5.394017392584895014e-04,5.491842129127771921e-02,3.971203387504999849e-02,6.745226399072636048e-03,4.252533152615320519e-04,7.765168431831242233e-04,6.893499416639144173e-03,4.321420733737287717e-02,1.032414788610747092e-02,2.144007271202581083e-02
2.264380729992237205e-04,1.300939459570129263e-02,4.887728673530059714e-02,5.259496409201957698e-03,5.564778382227444616e-04,6.974962650448455863e-04,3.652606489279561393e-03,4.698707056245305519e-02,1.387212364763555812e-02,3.115273788144608952e-02
2.269932822986497748e-04,1.649627018751640556e-02,4.283228497063168438e-02,2.576245657966153794e-03,2.472908772883023322e-04,6.095636238271116359e-04,1.401187298676842509e-03,4.921641256050909852e-02,1.982783069972433518e-02,4.048463713829626720e-02
3.683910416067739924e-04,3.214280908588156016e-02,3.088139970153424424e-02,7.524895580839060854e-04,6.481150530668020624e-05,5.151473255703566774e-04,2.741715814849655670e-04,5.138949034764481866e-02,2.429007707968526206e-02,4.426800346235319067e-02
3.703896963519977053e-04,2.896231073503792441e-02,2.528670482109245804e-02,1.367565585483373428e-03,7.948645126004650566e-05,4.168278087199583362e-04,1.767612092734557883e-03,5.173208242977953703e-02,2.476348891912307643e-02,4.324454500774378013e-02
3.019061788746893178e-04,2.189253274141870695e-02,2.929586757526189689e-02,3.629713363479032152e-03,5.020330849242410430e-05,3.172701763826453361e-04,2.338675276156104623e-03,5.044891614510136485e-02,2.231418304175023307e-02,4.042526359141879189e-02
2.909997628517803445e-04,3.825303669987941552e-02,3.859662394584924272e-02,5.476262507029980471e-03,5.987003910206434738e-05,2.191542926698709188e-04,1.576055391695408130e-03,4.839374202443888495e-02,1.931183349916741621e-02,3.694866708289889362e-02
3.140466535639821304e-04,8.523855625676735048e-02,4.793523899454480569e-02,5.890333787232970852e-03,1.363200204291627248e-04,1.251041276283962008e-04,3.692057268751744166e-04,4.346110471646294493e-02,1.685147760918396034e-02,3.365010126969346371e-02
3.179822265658999582e-04,1.414762617065153105e-01,5.424641954169703156e-02,5.460726253698974103e-03,1.575833556456014413e-04,3.761816473376192134e-05,2.921509724836002936e-04,3.469228518154616331e-02,1.472778750317224432e-02,3.297709444299908033e-02
2.994589639661783152e-04,1.832604844808288502e-01,5.841724245407091398e-02,5.094009755093159911e-03,1.745336821515380463e-04,4.099733179841231361e-05,6.046026553685417528e-04,2.639137793015115460e-02,1.186192403759034515e-02,3.598910830051927495e-02
2.686199467557645495e-04,2.024078586255644574e-01,6.486412646598380127e-02,4.991029921647132869e-03,1.959963496448548833e-04,1.086904553527705226e-04,1.446437416387364111e-03,2.281643213007562149e-02,6.672761731147084860e-03,3.916800861211570256e-02
2.571998529406051910e-04,1.904048180808811108e-01,7.501635807170703441e-02,4.869194175669668348e-03,1.968998478315619549e-04,1.637195737518780891e-04,2.886286257525808897e-03,2.275967520256374360e-02,1.079561994093999541e-03,3.761491834395164213e-02
2.940748076692313714e-04,1.301692845285108979e-01,8.199747563105866388e-02,4.560096913372489215e-03,1.720207629134037257e-04,2.047015469766948984e-04,3.900862568227633081e-03,2.314991957948815335e-02,9.184447494094178863e-03,3.085501623774411159e-02
3.025209794292963166e-04,2.763845296928212417e-02,7.743500755311147343e-02,4.223672422429563048e-03,1.328536786999049487e-04,2.306509562518414868e-04,3.869206144270369123e-03,2.305828651207642369e-02,1.524061145050945726e-02,2.212329870199606849e-02
1.962995101181612932e-04,6.919894988798439006e-02,6.286028114571298731e-02,4.136357835917824771e-03,8.241972186015560564e-05,2.410092770025905524e-04,3.496936016844206119e-03,2.121282884351747763e-02,1.922820622847999303e-02,1.279196544394803695e-02
1.445277899381518173e-04,1.088713536085871708e-01,4.740575786093205457e-02,4.185117022989474390e-03,1.642112538598805490e-05,2.356631786938821705e-04,3.643327692843342618e-03,1.501015630545515962e-02,2.220879723999855115e-02,2.311546862019782638e-03
3.587752553875337997e-04,8.174161714717001481e-02,3.453142167775913318e-02,3.796695424467308195e-03,6.496722492048286307e-05,2.149514073845826745e-04,4.151897392402365689e-03,4.696934954294205988e-03,2.336780817043242892e-02,6.969912396220832168e-03
4.509569298307368988e-04,2.097442181011490575e-02,2.000884279275545394e-02,2.863913380625662981e-03,1.575273936098617702e-04,1.796599950731714941e-04,4.463760011496718284e-03,5.816641822253040828e-03,2.080610080761577038e-02,1.117944388593811872e-02
3.329627401746083058e-04,2.408024636496872498e-02,4.368070876688306091e-03,2.264852988211293102e-03,2.585730504257519589e-04,1.310058361472402424e-04,4.527732668697232593e-03,1.376942069403805022e-02,1.519005131053296695e-02,1.126508047218951515e-02
1.808928670330366747e-03,2.479965105865879205e-02,3.040399210206801671e-03,2.655606272759148193e-03,3.668786965214399778e-04,7.060896810755013843e-05,4.587658847391020735e-03,1.962227637779241293e-02,1.007424704870156333e-02,1.174795053164146875e-02
2.589967821773459054e-03,1.311354348960746402e-03,2.997983856699810989e-03,3.399571557979843856e-03,4.801414285939098838e-04,4.541840124145174397e-07,4.678993308665242018e-03,2.391757128586904577e-02,8.123860224901902766e-03,1.351806616779088581e-02
1.807429628889869588e-03,3.806280419712806604e-03,1.411569792461536688e-02,3.574025918448227833e-03,5.950642500359929615e-04,7.715711992489150315e-05,4.694700164099601530e-03,2.575535072133873851e-02,8.803936288403814772e-03,1.412689014841702825e-02
3.363121097207837974e-04,1.690741698508727714e-02,1.717568647613549465e-02,3.293682401670026700e-03,7.086375645051436103e-04,1.596637043200640961e-04,4.623467600437654486e-03,2.520375466786672902e-02,1.005366489692624023e-02,1.376869650187223688e-02
4.408919263913534982e-04,3.624866213036292972e-02,9.098473784306178314e-03,3.246271988939238018e-03,8.182179297010747955e-04,2.443084712493527925e-04,4.522957804586328311e-03,2.383764902757809154e-02,1.088834392369821165e-02,1.450102825653087207e-02
3.522554146349708834e-04,4.461424155351449011e-02,1.792800623421494759e-03,3.533074844415398912e-03,9.210292024506896427e-04,3.282080973467339444e-04,4.407741960068009210e-03,2.180635114157954135e-02,1.163069054702037773e-02,1.562999338350553116e-02
1.468586088661959417e-04,5.842500774787721951e-02,9.142688296002430409e-03,3.608370837611969435e-03,1.014211768260026665e-03,4.084265846248658614e-04,4.260183889640238933e-03,1.755160503481381293e-02,1.220361624457268375e-02,1.574988400416205830e-02
1.876619311041289023e-04,7.865401286546047643e-02,1.650855218115897943e-02,3.072336140122342713e-03,1.095158824264014837e-03,4.820508900840074018e-04,4.082818972061990140e-03,1.134288345880404315e-02,1.190514980994233918e-02,1.652203710080552695e-02
2.711335453520077551e-04,8.327032873478799890e-02,2.690928157282626923e-02,2.023383308844390292e-03,1.161615276926133674e-03,5.462667339286063697e-04,3.893666791934560518e-03,5.862761571593559998e-03,1.142702324403916704e-02,1.925333477395716961e-02
2.816678699243786114e-04,6.470025627673960111e-02,3.312910569347010670e-02,7.038187804533403442e-04,1.211609127934931305e-03,5.984326661143102820e-04,3.701410702073166126e-03,2.449664373631736496e-03,1.284892892149867155e-02,2.109496003016588309e-02
2.906772058775720794e-04,4.324239634979274577e-02,2.845041026344544838e-02,5.792748310722506877e-04,1.243440444335615997e-03,6.361504977004181364e-04,3.507054361107252074e-03,4.978259773458185589e-04,1.629105745147691603e-02,1.948618152900294040e-02
2.602912950830980443e-04,4.057928653421504633e-02,1.894923456502683318e-02,1.097376533741965289e-03,1.255788258326874301e-03,6.573302930472813433e-04,3.315337278737629997e-03,4.662657777667118808e-03,1.908478022635374735e-02,1.726343750468968888e-02
1.895837608264298293e-04,6.017358075433881792e-02,1.330312332538025055e-02,1.466750973281509378e-04,1.247871935764097509e-03,6.602482591557349558e-04,3.133885549791266649e-03,9.038640134646690194e-03,1.990431825622318920e-02,1.865406505341395821e-02
2.946159093257638001e-04,8.878617757999944515e-02,7.019254476191444728e-03,1.906779267719761663e-03,1.219440216955750694e-03,6.435960208375957232e-04,2.967661525253089197e-03,1.054495352124385811e-02,2.081348526028669113e-02,2.212049742704084304e-02
5.212872588490260334e-04,1.034359221734585943e-01,1.030701347183260279e-02,3.921736688575224936e-03,1.170516643047658659e-03,6.065199519506775990e-04,2.819121991096372026e-03,7.035633517525338894e-03,2.307674493276392486e-02,2.155370046574705059e-02
2.997692406004525616e-04,8.789560168216181690e-02,3.467584385242578754e-02,5.217795593577720728e-03,1.101422424036560543e-03,5.486495150361996812e-04,2.690675256246793760e-03,3.250485017976977769e-04,2.401658331815203704e-02,1.448781125195741475e-02
4.921778989891950444e-04,5.203702367869748185e-02,4.715708308693056933e-02,5.411383997511011804e-03,1.013334200015199565e-03,4.701138952418669427e-04,2.584524837074795266e-03,7.885466288834493478e-03,2.106778077429659335e-02,5.662020350132574223e-03
9.413296135876060436e-04,2.336849286999234318e-02,3.588620493620172519e-02,3.743369201223565017e-03,9.082519792518548452e-04,3.715464280810463018e-04,2.501437099990153762e-03,1.270316820600136433e-02,1.639753786113624240e-02,9.899810082786486207e-04
4.254135248885117519e-04,1.580194912442267619e-02,8.389558424958858118e-03,2.305181200801343440e-04,7.877545081130545544e-04,2.540764947901964430e-04,2.440753158913349426e-03,1.400520966317335587e-02,1.394261350036964976e-02,6.029851083293440855e-04
3.090873982096369130e-04,1.920766740983054915e-02,2.073027914380522890e-02,3.274769704793931840e-03,6.529368332854314444e-04,1.193090397949458275e-04,2.400958260135684606e-03,1.142016925475339631e-02,1.406277493596590211e-02,4.128106967417537014e-04
4.296003300620339447e-04,2.106653113790709492e-02,4.292205679130890045e-02,4.604252719012056141e-03,5.069451173973433308e-04,3.070753405154277139e-05,2.379714964066792331e-03,4.411249690351622989e-03,1.463713185276268106e-02,1.247919285629638542e-03
3.000682058586045912e-04,2.391295798673115716e-02,5.377665775354545374e-02,3.228375631558896668e-03,3.550306999646790401e-04,1.935243832481131892e-04,2.373659436366393725e-03,4.563355698867186186e-03,1.446774110599002329e-02,1.632177553209318913e-03
4.162999944971564666e-04,3.521550546781956892e-02,5.115460791740383123e-02,3.390159760484144202e-04,1.989627483702607370e-04,3.663457863007238760e-04,2.378472372930521498e-03,9.306826659177641972e-03,1.234979692275739623e-02,2.307990000509578706e-03
2.842290955696967882e-04,5.184667007630709701e-02,3.933603385148850412e-02,2.085653327011977639e-03,3.656751130411985649e-05,5.460918934757581821e-04,2.389105367050606797e-03,5.921249369456549512e-03,7.356441477369506793e-03,9.848583238569113413e-03
4.623778255501083444e-04,6.477624157605677002e-02,2.675290498665401639e-02,2.365949283268530164e-03,1.265654756623053661e-04,7.294677200652162482e-04,2.399924453451789466e-03,2.373389480444572201e-03,2.134641855551998660e-03,1.707347219783997977e-02
9.932118524852448591e-04,7.208420731883126431e-02,1.949725974336049758e-02,1.174154601742507826e-04,2.760183349395649603e-04,9.130367693107162503e-04,2.404783249425959234e-03,9.374572637972570024e-03,7.839348207540604383e-04,2.133490820432613899e-02
5.575811143370913627e-04,7.666445840505237141e-02,1.986320043314344572e-02,3.398944756821569487e-03,4.137482368410782402e-04,1.093300458695345770e-03,2.397119278564205629e-03,1.238842359959607155e-02,5.603554762424868205e-03,2.357640600557278643e-02
2.264802511405442466e-04,7.384105895980620782e-02,2.473914386023895115e-02,5.753925989665465909e-03,5.612514724200717278e-04,1.266781247632752438e-03,2.370141623493305250e-03,1.184915422827440001e-02,1.688071868442510629e-02,2.463967230162160751e-02
4.371714568596115898e-04,5.348399986927498267e-02,2.449257406652189523e-02,4.976518093262573099e-03,7.060457057318359061e-04,1.430100956134109074e-03,2.317092846002876891e-03,7.580902288711544729e-03,2.877367549472073863e-02,2.228522477672368468e-02
1.878192444103203096e-04,1.993612215974417678e-02,1.324674011134939662e-02,1.924367220897093330e-03,7.937240424830890873e-04,1.580052371626530523e-03,2.231382344351543444e-03,1.056110076344395510e-04,3.137775369072655363e-02,1.556025946463830169e-02
6.623699033664951343e-05,3.691886284023005328e-03,3.426077298100261952e-04,3.632151455934515315e-04,8.422455807249058096e-04,1.713676034137841340e-03,2.106520174014439757e-03,6.835422817930994488e-03,2.516613089409614964e-02,9.153577345609544003e-03
1.459092235437062257e-04,5.676907294566967306e-03,9.545789974042726521e-04,3.006696005802632788e-03,9.621955829155469939e-04,1.828340431093312436e-03,1.936290986614343408e-03,6.521123315173378045e-03,1.950275453454643898e-02,9.232150025352351894e-03
1.729737199981365903e-04,4.288602721995757316e-03,1.537769058920147695e-02,7.824288002637803593e-03,1.113389754312333084e-03,1.921794268665772461e-03,1.715362058355932723e-03,2.046211317393531199e-03,1.932921936029209295e-02,1.646421812617356040e-02
1.060967630842068343e-04,1.715497813111968584e-02,2.766637179865976542e-02,9.961493693030206223e-03,1.052463778801639507e-03,1.992188285507439944e-03,1.439371468785448664e-03,1.412805899961301452e-02,2.105289388325847985e-02,2.519462166346658760e-02
6.293494151016624833e-05,3.445175438186871136e-02,2.471670960332509812e-02,7.239912103366290611e-03,8.474949568353232817e-04,2.038128506010372654e-03,1.104026883630171560e-03,2.434075394372230139e-02,1.993876358063003534e-02,2.864308215468869961e-02
6.485059891647864424e-05,4.391152511637036460e-02,8.126000436922787423e-03,2.202058369373088766e-03,1.061987888505558537e-03,2.058763678065444417e-03,7.052345289974097913e-04,3.065416463982694947e-02,1.577104169651677781e-02,2.472300351932741475e-02
5.748923897615780987e-05,5.497906985543939140e-02,1.203573093131123095e-02,1.395625617345145003e-03,1.819946952951106284e-03,2.053771278222583669e-03,2.413151445783106978e-04,3.435486044033568553e-02,1.104144596452927632e-02,1.700120826310886485e-02
3.056159640965153156e-05,7.751000422048728855e-02,2.735518201987414619e-02,2.434954799666808924e-03,2.253040488137164794e-03,2.023230059630547022e-03,2.869870051030858635e-04,3.768146857818935325e-02,6.837528759489461608e-03,1.004009235976427612e-02
9.725393038305800531e-06,1.020900578283596843e-01,3.460728768065097355e-02,2.036629354798806090e-03,1.724561499116300045e-03,1.967666780237785698e-03,8.810805411334667178e-04,4.049786272984400026e-02,2.575207410679038449e-03,5.306984179686065339e-03
3.941028567061149866e-07,1.146216946709139595e-01,3.476894850982778506e-02,9.530378489987057595e-04,8.745018471259556137e-04,1.888309615921079238e-03,1.544583286912675889e-03,4.010685458103260131e-02,7.956952845588653126e-04,1.458978893525679759e-03
9.157470553545564820e-06,1.103272725336909704e-01,3.098960786239400578e-02,8.814751892752890720e-04,5.752493791354287888e-04,1.786935157692850660e-03,2.273540869122687991e-03,3.584785503546998597e-02,6.616138534188309613e-04,3.638531251089389268e-03
2.144918706101874139e-05,9.258518244746921644e-02,2.664618551822554166e-02,2.964987914224864306e-03,7.070380435261953457e-04,1.665224929848698561e-03,3.056114950507525518e-03,3.104701716046568208e-02,2.684593851391165777e-03,1.065604614578568449e-02
3.093106466488389997e-05,7.535365139789027000e-02,2.382674163489541252e-02,4.075375090155786487e-03,7.089013574224521577e-04,1.524940929799882073e-03,3.893600330329165596e-03,2.826086319377747041e-02,5.034209123397422915e-03,1.778372889318018471e-02
3.633415825088569083e-05,7.850805949745649770e-02,2.197528111690359026e-02,3.376569376550882327e-03,5.138617050292475534e-04,1.369137159760236378e-03,4.801843140242460090e-03,2.631296440947564902e-02,4.029824392766194995e-03,2.322467270731917721e-02
4.028950206469241228e-05,1.047068211641088015e-01,1.806461114781212837e-02,1.077677380414863214e-03,3.686262328981221108e-04,1.201620335748742642e-03,5.766659142916080380e-03,2.450716804355753189e-02,2.304924654907653143e-03,2.630386274336612984e-02
4.353811879338509064e-05,1.320664523872777385e-01,1.034815298724131756e-02,1.392075745228298772e-03,3.185375267596040651e-04,1.024128572986116037e-03,6.739963324278371373e-03,2.560243508928583892e-02,2.871228278927488720e-03,2.503239942207933014e-02
4.503487544270030928e-05,1.410554147111546253e-01,1.767528697248374036e-03,1.758557462939067291e-03,2.519105877811886763e-04,8.371713032847529412e-04,7.735254596050637234e-03,3.088430372797421400e-02,4.952136660556682481e-03,1.942610652720626330e-02
4.465541421592036464e-05,1.339838281159055899e-01,3.154702967841753036e-03,1.208144256614406562e-03,1.438011091591094191e-04,6.458259739658120174e-04,8.838791158300563985e-03,3.511580458443097630e-02,6.318323730475087358e-03,1.725648419996938035e-02
4.317360295500038297e-05,1.201342015453486650e-01,3.868422452971796623e-03,5.608192561526973915e-03,5.283361927047085455e-05,4.578391302060074667e-04,1.000626569509674262e-02,3.096481009452413391e-02,6.602040046969458696e-03,2.535317670191531911e-02
4.098542339097135213e-05,1.000198111071478324e-01,2.947812555380163908e-03,7.523700667790485588e-03,6.525353154806812781e-06,2.709414831212912027e-04,1.103368090549609014e-02,1.823468573558207836e-02,6.333026415913153157e-03,3.581368650702863171e-02
3.809449634995577024e-05,7.390638047805865585e-02,7.298029222875292155e-04,5.126783376209159519e-03,2.731646435420292387e-05,7.632370902772018357e-05,1.199363423374572718e-02,5.246562398075428277e-03,4.852579965213123063e-03,3.335833095189326414e-02
3.469912572180134481e-05,4.987869445505915128e-02,5.838768024358095658e-03,6.187468335622314883e-04,8.724414668730040199e-05,1.144174409979316798e-04,1.332117106105080127e-02,2.750577604694909740e-04,6.595623148704333680e-04,1.546336866753075454e-02
3.119532937234971572e-05,3.306800363066017545e-02,1.794481972565490843e-02,2.630727178514430907e-03,1.432315960658478958e-04,2.762139089152528286e-04,1.484811034337712304e-02,1.648432466474451102e-06,6.611988950831720717e-03,4.698809269475515658e-03
2.789075337614579567e-05,1.914298101898158702e-02,2.999157251213210862e-02,3.442906438445875010e-03,1.192416959359950763e-04,4.284444021023770498e-04,1.529041884132092272e-02,2.064604089976427616e-03,1.384795742575926566e-02,1.332292873087884306e-02
2.498848630609917887e-05,7.407253351132021824e-03,3.312015281249563320e-02,2.552562590310179184e-03,5.872959619876115658e-05,6.218003323129701540e-04,1.376922000236112907e-02,8.447517663261601764e-03,1.480852465549745145e-02,8.234772383111561150e-03
2.270981329523412274e-05,6.547440243917406963e-03,2.438393446631451772e-02,8.057780554242661378e-04,1.255024605459188845e-04,8.143683185950076819e-04,1.124503838868920295e-02,1.059290986895030165e-02,6.359131404835878000e-03,1.258083845331651584e-03
2.129283964143607606e-05,1.599199566824350410e-02,9.118174478500717939e-03,9.817466968651306254e-04,2.523090644694939112e-04,8.963986651855008298e-04,9.135531089547465483e-03,5.044457881517721252e-03,6.334069462925969590e-03,5.086896150435632306e-03
2.092536545607058459e-05,1.669043946957952246e-02,5.642717040175460400e-03,1.599313042940903647e-03,5.432306466064326238e-05,9.556344336569306966e-04,7.272048006860537886e-03,6.814208212971015373e-03,1.494138415738716433e-02,4.229714442763378782e-03
2.173615982014053026e-05,3.638170873143952572e-03,1.638611477774374464e-02,3.985822871131148313e-04,5.749123324604860216e-04,1.234248030156073457e-03,4.532263279319055649e-03,3.196884844784590729e-02,1.628613374269036532e-02,8.867356514392112088e-03
2.381904046287949692e-05,2.808930264052064002e-02,2.339972871580657185e-02,1.499258122162557038e-03,1.170640768886859698e-03,1.564795359297605675e-03,6.409998120914557748e-04,7.176835838148570845e-02,1.200635092156839695e-02,2.366205066110491431e-02
2.723150711387176625e-05,3.248428041748153972e-02,2.833478558808649392e-02,1.922673983004501543e-03,1.412649240516633499e-03,1.388663135486560606e-03,3.454476090802343670e-03,1.023318490629098604e-01,4.926959100420761836e-03,3.910594272034138841e-02
3.197935609713700700e-05,2.306432940677566323e-02,2.947486676849942269e-02,6.703008521089000716e-05,1.676050121910464038e-03,8.044789402690897661e-04,6.125127134689265125e-03,1.147514521289814959e-01,2.700518551535912703e-05,3.937356162322191294e-02
3.801480481276939212e-05,2.855358338082724518e-02,2.343241107173982610e-02,3.207445535189412059e-03,2.427417212615272032e-03,6.979225227670680411e-04,6.377622876360781144e-03,1.173067344494042458e-01,2.230259402990570662e-03,1.916224101839525754e-02
4.524317867900395923e-05,5.372706939795577480e-02,1.716248733207361918e-02,5.910189297943005057e-03,3.413220540363691956e-03,1.212050419462089952e-03,5.806083216998363800e-03,1.148853663084523635e-01,9.698964347033605868e-03,6.740891139008455511e-03
5.352522993109384516e-05,6.990248221274672491e-02,2.734671248182211911e-02,8.320375810883408677e-03,4.033521297402576505e-03,1.388894013789204263e-03,7.722536110587398944e-03,1.045288650168708366e-01,1.433935905679216936e-02,1.575002255046611954e-02
6.267722013472571134e-05,5.992773795434089973e-02,5.688062025605960387e-02,1.129544460908862499e-02,4.565809996463066241e-03,8.149853390177030747e-04,1.307657622937766391e-02,8.642487722688461937e-02,1.301106197571401391e-02,1.605029681849835278e-03
7.247477336941725063e-05,4.159417984181022765e-02,8.514183843907387195e-02,1.399011728537106342e-02,6.052177062770713704e-03,2.479129148372024465e-05,1.919467607997809439e-02,6.544045181232634179e-02,1.031413670594478332e-02,2.074687261511510075e-02
8.265945419513278031e-05,3.570976721275970212e-02,9.251444970860672745e-02,1.421419848261098844e-02,8.375322739475022163e-03,7.152631458233815265e-04,2.303786553313598440e-02,4.512395556754972975e-02,9.298937049384326664e-03,3.302464742588441526e-02
9.294508124220011330e-05,4.061895317578918113e-02,8.021738370926792538e-02,1.115784068330919442e-02,9.754307344603701732e-03,1.324468154754765946e-03,2.354521525047858013e-02,2.851864784093208552e-02,7.276408264515601097e-03,2.789378485681915515e-02
1.030240317758692164e-04,4.699356943074306514e-02,5.914062400547051568e-02,6.329651353757157622e-03,9.044167671734899133e-03,1.157451690852393834e-03,2.124182727725193454e-02,2.055981830319907749e-02,2.282866390790886345e-03,1.147382172171024749e-02
1.125747095226824115e-04,5.215180022146292255e-02,3.580898728550196281e-02,1.681255613804407464e-03,7.160410131477004496e-03,2.122072885934645110e-04,1.759900314765974055e-02,2.252245196997252480e-02,3.063123659352020092e-03,1.637735301062472884e-03
1.212698039711693497e-04,5.222722840925258375e-02,1.515002722916945592e-02,1.904560312210047332e-03,5.486246397730492816e-03,2.203231986872016771e-03,1.414552476148907452e-02,2.710608275656907484e-02,5.463038319115284466e-03,4.886603680356443706e-03
1.287844989035652216e-04,3.806422375153573068e-02,3.358897160781642351e-03,3.929514123924146389e-03,4.209461743589740408e-03,3.988815530811515124e-03,1.130262737004800698e-02,2.552983714695354969e-02,4.222868454932939691e-03,1.030856570936112930e-02
1.348045102202931312e-04,7.312574058849097974e-03,2.702626747016302622e-03,3.521706361187012472e-03,2.987738182469379649e-03,5.135216656293337990e-03,8.832786907550470995e-03,1.882625908190942859e-02,3.335447694869173984e-04,2.840368052749086408e-02
1.390340600212739048e-04,2.681307148235786975e-02,9.461965595361840689e-03,5.227986521448800810e-04,2.314118020999463444e-03,5.175617632897548150e-03,6.918276414421876269e-03,1.660495198477981993e-02,4.777169303555157086e-03,4.530802542332625082e-02
1.412035206464442617e-04,4.551491837141328350e-02,1.730012846015465539e-02,3.192385574579839711e-03,3.018526634125622780e-03,3.614128576527254194e-03,5.709332690236253692e-03,2.334139096652660533e-02,9.437243292263173405e-03,3.967082433685326787e-02
1.410763519241050538e-04,4.124379886605869516e-02,1.965684000001960072e-02,4.491132922099005768e-03,4.297975467064523228e-03,8.485162253522689690e-04,5.022174683306171970e-03,3.183672128053243594e-02,1.212637688793448756e-02,1.366621506165150574e-02
1.384552294364688760e-04,2.003864085222344799e-02,1.159187076640930819e-02,1.616864065987205475e-03,3.712062963288647113e-03,1.706318177885293372e-03,5.365876019236377574e-03,3.457449554596023905e-02,1.197699480410458275e-02,1.233466726079898192e-02
1.331873622107563400e-04,9.964905286438015264e-03,6.829039019944204564e-03,3.833355031949170835e-03,3.176313794060353114e-04,3.014675577900639749e-03,7.307907200358370291e-03,3.471248848504547568e-02,9.031372221275474690e-03,2.752724728765691339e-02
1.251687219786383237e-04,4.400118284729696849e-02,2.962549353205601310e-02,8.253236355505021854e-03,3.619366939464955212e-03,3.348310515340343057e-03,8.996453535466205839e-03,3.808686273832099373e-02,4.287283220421526757e-03,3.553607001131230125e-02
1.143468410014965986e-04,7.553173303707551300e-02,4.932712146191974012e-02,9.876249431028655615e-03,5.627907041460929009e-03,3.303222043216829610e-03,6.801389122591932831e-03,4.037731824639944483e-02,1.234262583814530649e-03,3.853073594471750907e-02
1.007223865715919459e-04,9.650323296849473709e-02,6.226212517054022233e-02,1.022087539518479367e-02,6.110827062688865483e-03,2.646637156682373967e-03,3.592231742174628161e-04,3.111705936489419372e-02,8.014612207798412977e-03,3.265179812664373987e-02
8.434992052651673537e-05,1.037857541314057414e-01,6.886596978012203552e-02,1.096001265051618767e-02,6.591444659905446382e-03,9.804346561715004613e-04,9.186734857083647329e-03,7.639131113706644320e-03,1.703177281091117212e-02,1.780774823770056234e-02
6.533723172310164579e-05,9.511157834427935720e-02,6.964639414634385406e-02,1.096636773239841045e-02,6.749971666705534105e-03,1.016015338974481617e-03,1.525498563596977206e-02,2.076785432611601492e-02,2.591998018947825472e-02,6.305751235797333329e-04
4.384229786289936222e-05,6.307641787747578221e-02,6.361798174492504232e-02,8.074411934078326927e-03,5.536324277560565263e-03,2.053534041568409393e-03,1.685768076822410921e-02,4.217648540463309059e-02,2.910345365569919421e-02,1.396072637696409505e-02
2.006918262604364881e-05,1.025852021154457713e-02,5.261499768389418102e-02,2.948624835995338877e-03,3.900021515625527561e-03,1.678677324103074620e-03,1.561076334721786009e-02,5.292440092626821135e-02,2.510369777326453347e-02,2.676387024347206753e-02
5.734965306981162601e-06,3.573084128892989320e-02,4.327327077046043413e-02,5.478543772628120985e-04,3.962955034865642268e-03,3.689761790696929108e-04,1.431239918057049428e-02,5.797791243613752837e-02,2.035437729139422808e-02,3.757925196062983364e-02
3.328431401187610742e-05,4.556715631273509926e-02,3.892682577941871530e-02,5.099559271049604889e-04,5.839991037741051709e-03,1.353457892455072267e-03,1.410611185094894256e-02,6.192181824752503172e-02,2.106359461498386390e-02,4.035841366285296272e-02
6.226451325029237662e-05,2.272841412353196477e-02,3.290881965519592417e-02,4.324255261819971892e-03,7.286936707040663798e-03,2.865536699077804016e-03,1.347527899899005586e-02,6.373062314932853578e-02,2.471559541363216664e-02,2.998752883528797014e-02
9.234297996780623462e-05,5.802742095853567761e-03,1.821249113088142454e-02,6.197550671950194726e-03,6.745068959604513803e-03,3.117339030488522518e-03,1.065744801469808468e-02,6.131343723046443761e-02,2.426801486712036951e-02,1.198304453307843034e-02
1.231693544934728377e-04,2.382140816840231518e-02,1.207434056010643023e-03,4.340516086227409753e-03,4.954147401902027174e-03,1.822429707980644355e-03,6.481016774899111058e-03,5.609952065003511595e-02,1.721995236623741904e-02,5.516676030383716681e-04
1.543773651105845096e-04,3.115075651461350625e-02,3.834271223678550715e-03,1.821851310364868770e-03,2.989207953259525371e-03,5.374845507544770374e-04,3.370407115485511088e-03,4.993948957473621358e-02,7.068979857131784360e-03,1.399372705541042112e-04
1.856090386104539093e-04,2.931869878218711090e-02,6.706303168766225217e-03,1.806312252299113697e-03,8.199554234066953710e-04,9.094733090920275242e-04,2.467043237065906763e-03,4.208139834827064746e-02,6.832159400972986560e-04,1.259248667263378717e-02
2.165371648873728972e-04,2.243321452995785184e-02,2.117736104596623647e-02,3.351321726110740532e-03,1.067168255513641128e-03,2.223447988676005571e-03,3.441766806379659843e-03,3.354123122537112922e-02,2.187482247558661212e-03,3.144303574155461745e-02
2.468400148719471134e-04,1.935997161132333236e-02,2.747918677408886165e-02,3.702821078003822389e-03,9.068971466110159040e-04,2.224108175636247547e-03,6.009162270948399318e-03,2.973813449296009229e-02,1.574150445073209913e-03,4.646192156036791504e-02
2.761779031642083606e-04,1.951040938298288785e-02,2.497460915313059332e-02,2.372275792700437921e-03,1.962530189928978885e-03,3.609736067004606507e-05,9.642178579963304325e-03,3.333223568152984123e-02,4.692948007764295021e-03,4.252215325461282391e-02
3.042704846356136350e-04,8.545172062595349227e-03,1.931168408260863431e-02,7.126094977707993043e-04,5.755775170066314630e-03,3.097561216145499046e-03,1.229756874922546990e-02,3.896125732913972850e-02,2.452294298256386430e-03,1.360506781464526464e-02
3.309708433883663445e-04,2.148449726502412935e-02,1.298096869540974613e-02,3.759868553842059865e-04,8.224950524653171571e-03,4.596047284932974590e-03,1.163381437504056037e-02,3.995347693492228014e-02,2.961851496460466641e-03,2.634971955584777120e-02
3.561219053581681426e-04,5.999779862873905190e-02,5.675287373400754107e-03,2.652742332510417671e-05,8.639623547468933823e-03,4.176865094033570085e-03,8.502661751199049045e-03,3.517066225482025354e-02,5.281113141182664991e-03,5.258626369560425590e-02
3.794110546851644540e-04,9.259259695617777508e-02,1.598708418899709091e-03,2.825943217552468259e-03,7.774171737216136087e-03,4.549881034306851174e-03,6.976150339247093497e-03,2.625349462690907548e-02,1.310781375871048057e-03,4.725090102700311295e-02
4.006861830115988009e-04,1.149520176122400955e-01,7.454241734529719506e-03,6.619848627756852802e-03,6.908738405945648829e-03,7.393659971403514393e-03,8.173842848712233045e-03,1.472754656924305482e-02,6.370348721751515828e-03,1.366490134954370661e-02
4.202838770030432403e-04,1.252338982724590655e-01,1.188580719761795843e-02,7.145445522108328194e-03,6.580222666808573789e-03,9.234220234347927797e-03,6.751228632425118961e-03,4.700179198322053734e-03,1.250199730902861253e-02,2.187827638397462499e-02
4.383684884859835032e-04,1.147198776288106126e-01,1.473455256195348347e-02,3.548308036672775945e-03,6.363969335698094892e-03,5.740798374302196090e-03,1.581225071806775058e-03,2.731249519663756301e-03,1.455835392180354800e-02,3.433812907050403512e-02
4.542153412056986242e-04,7.936849374390383960e-02,1.534922889877749982e-02,7.758081014691118769e-04,6.124268912296120145e-03,1.173380928306668857e-03,1.200359524886904575e-02,1.050319810414661673e-02,1.510600339529972677e-02,2.684123818125324842e-02
4.676006951239790842e-04,3.683745790960606115e-02,1.403318110065924357e-02,2.671973149793913180e-03,6.174564068814277634e-03,5.924040007622598074e-03,1.665606959883115037e-02,1.988559682985530791e-02,1.712201813841929612e-02,1.681976257866928809e-02
4.803618848427903512e-04,1.461047231527168311e-02,1.013223429515503968e-02,6.832801443022132326e-03,5.972936402599232468e-03,7.018696619297894700e-03,1.547764437138950122e-02,2.195709325484228314e-02,1.875223876821162719e-02,6.860831414345496676e-03
4.934587224644881951e-04,1.687940186851564356e-02,6.918720250815788009e-04,9.244493523687889389e-03,4.694002969738614132e-03,6.666205218221225512e-03,1.373561925806071615e-02,2.092509910526085468e-02,1.657232275763244680e-02,5.382925805838726686e-03
5.035504308273414283e-04,1.988972387138744635e-02,1.403998289515969583e-02,9.286431714886213967e-03,3.242860659255744800e-03,5.343076982883073964e-03,1.275660816992942904e-02,2.969146236879664433e-02,1.143816160470386561e-02,8.517053029158531616e-03
5.091642756232337558e-04,4.533461042663515864e-03,2.845550783114617760e-02,8.001792262417716656e-03,3.607972411854514991e-03,2.221399372665228741e-03,1.010566250437811529e-02,5.175432281362991188e-02,6.564188915372611358e-03,2.894777438124607194e-03
5.181463088082488653e-04,2.350733314213331385e-02,4.047739132633811077e-02,6.146426863433268432e-03,6.243905114661390740e-03,1.610211335434857038e-03,4.696009597483514174e-03,7.847998447160318969e-02,2.639669225798689078e-03,1.393453407710842744e-02
5.346589410525142642e-04,4.789207346368922619e-02,5.339754948166210852e-02,5.240302649289341544e-03,9.801647939071405843e-03,4.745986371039958088e-03,3.393311578921286761e-03,1.010711063277073551e-01,1.421215740670142818e-03,1.634079267316882259e-02
5.429047798379316213e-04,5.924986849987532583e-02,6.140862544156831110e-02,6.715913478074760773e-03,1.314303787367439996e-02,8.107447955684091156e-03,1.367888118680186081e-02,1.136363472270098401e-01,5.531293456786517959e-03,2.219504616402501532e-02
5.344449793715525194e-04,5.885374982821730411e-02,4.780392537465934927e-02,9.828926831892296351e-03,1.637271405416597381e-02,1.322673562351781712e-02,2.362527673167504408e-02,1.118568413501259962e-01,8.496757381894310193e-03,3.844075288883232189e-02
5.436518990559975400e-04,5.777821200448279848e-02,1.075209343712371472e-02,1.312315346464837905e-02,2.013473494111808759e-02,1.966904895686022101e-02,3.112817770403104173e-02,1.008352081408872836e-01,9.384788876540230834e-03,5.692983285676639360e-02
5.902654258569781272e-04,6.872987855268500312e-02,2.426034833170815155e-02,1.662474744385178047e-02,2.404993837321353287e-02,2.528732238627586296e-02,3.767834131367097522e-02,9.362662325250932505e-02,8.508871586383047469e-03,7.228314222502095487e-02
6.020208880672912400e-04,8.843605289230958844e-02,3.552349940280056378e-02,1.970972123035262188e-02,2.556950738456043037e-02,2.753093676828274536e-02,4.332918788624952333e-02,8.964464888047908586e-02,7.679453422291707826e-03,8.160055634817416081e-02
5.351400683405480941e-04,9.616365852751584953e-02,3.559594369279825421e-02,1.903632909780261437e-02,2.189340169120425686e-02,2.490862849170905405e-02,4.235424810883711699e-02,6.970798457398076631e-02,8.492086002224234070e-03,7.277725818695704452e-02
5.454496946604808728e-04,8.025132254948334765e-02,5.080684568834700071e-02,1.241863201596364770e-02,1.370260184047674551e-02,1.852714255911235008e-02,3.087306549028997690e-02,2.710682896863531033e-02,1.095179715549012174e-02,3.882825561295905059e-02
7.421658853714813500e-04,5.441595304962107416e-02,8.136972460307835553e-02,2.522626823321006025e-03,4.358978228927275038e-03,1.105252602875937858e-02,1.388036138861179977e-02,1.642069291775465067e-02,1.540023988430192815e-02,5.843022776276051919e-03
7.642234337613780168e-04,3.413781590664444893e-02,1.029906190190428561e-01,6.849760931618128872e-03,4.594397994188209253e-03,4.012058928763604856e-03,9.800327058313365591e-04,4.227970865846489290e-02,2.324781527444375051e-02,4.080851623944455747e-02
8.395580557905308195e-05,1.202462896463197053e-02,1.004027321167724057e-01,1.469957621708859255e-02,1.314973531008704899e-02,1.886616254161697578e-03,1.040842748335412023e-02,5.706538031011916534e-02,3.258399596908662793e-02,5.921965085578237420e-02
1.158684391486608208e-03,2.213911933878296920e-02,8.024651278095960849e-02,1.992972993309810592e-02,1.905247662245590154e-02,5.074603769873712103e-03,1.338653060344345558e-02,6.607873470649096304e-02,3.664616448777541224e-02,6.360329747656361110e-02
2.107094760305710211e-03,5.116003907235148335e-02,5.551325178524672138e-02,2.009115795092081616e-02,1.970745712028029034e-02,4.903617645366236885e-03,1.030467800504213799e-02,5.696578533351262519e-02,3.190292030909817195e-02,5.652420263997558897e-02
2.066532980144483635e-03,4.907498800292289798e-02,3.351633764428119111e-02,1.692794160888132227e-02,1.727655867556684641e-02,3.951350892929907273e-03,6.031214079805545872e-03,3.043390627291744227e-02,2.476552965656069957e-02,4.478727614487604258e-02
1.113258438559381952e-03,2.165379461349101198e-02,1.908094657140206943e-02,1.725060130910956863e-02,1.709759965786468092e-02,5.598497724989056658e-03,6.497778270870300209e-03,1.495971456789743463e-02,2.412535508362655817e-02,4.367703394667279970e-02
1.141191312706775788e-04,1.026097520260389577e-03,1.671729780873914412e-02,2.414562233185236009e-02,2.133045245538039980e-02,9.897357153314179784e-03,1.125082301579229810e-02,2.784983200445555196e-02,2.945180339545672502e-02,6.203516545402854715e-02
9.610781822749383911e-04,7.100673722924801673e-03,2.312826380882367777e-02,3.214177087541967431e-02,2.729090007938657705e-02,1.397659596812879379e-02,1.483562653685804866e-02,5.017808427103932767e-02,3.271160982102624959e-02,8.332328469901988111e-02
1.093531526341298471e-03,1.004885342784435191e-02,2.392822572286784633e-02,3.409048876600098005e-02,3.125824865110030798e-02,1.579059473944663047e-02,1.488559702533514932e-02,6.121981599279854858e-02,2.956026410033634616e-02,7.916559887220418756e-02
6.180576971175996302e-04,1.713770077192759006e-02,7.292321968403653321e-03,2.880615102026459762e-02,3.158121563115250108e-02,1.539347835112186459e-02,1.364381738949211470e-02,6.741761089208038460e-02,2.166143073903896085e-02,4.404953600663522734e-02
9.878250403002693432e-05,1.828431987699466812e-02,1.917986396474837679e-02,2.021961341062419523e-02,2.886156979841496620e-02,1.366172234585672288e-02,1.284319780413613506e-02,7.517407248256403884e-02,1.121199617174337658e-02,3.660043598873077408e-04
4.705522049684987340e-05,8.591451529751346905e-03,3.418450129724703163e-02,1.257110998664945356e-02,2.491725337125182821e-02,1.206644248038438519e-02,1.245999851408292024e-02,6.766588581206611774e-02,7.995508993283526739e-04,3.116316502173845440e-02
3.789118804184217655e-04,4.149555832424819805e-04,2.879232912011189111e-02,7.710603499455339835e-03,2.129770355534892426e-02,1.232240581613720451e-02,1.361992033425742273e-02,3.579482154625272111e-02,4.734471280477875813e-03,3.765538167583282192e-02
1.663065303638639001e-03,6.375678373335220452e-03,1.724862838146739435e-02,4.919449569488354261e-03,1.815936526519068561e-02,1.430619100205193436e-02,1.840280760599504600e-02,4.744439668065604174e-03,3.401907676671916438e-03,2.089861058552276371e-02
3.320285512871927729e-03,2.275002185446966044e-02,1.579709393700517300e-02,2.373727576822185024e-03,1.478177472455845243e-02,1.570559093455825561e-02,2.673648296275283123e-02,2.469528860196096125e-03,9.270474424120066226e-05,3.247916786423232088e-03
4.164036194031656493e-03,3.455905155773782156e-02,2.351910329262038926e-02,1.168431055634045271e-03,1.082297323222424640e-02,1.482888992955071900e-02,3.537155286134650162e-02,2.153866353826509178e-02,7.100332842972204191e-04,1.175495823723037014e-02
4.242476126302458309e-03,2.909236078623809313e-02,3.381538017851764416e-02,6.105232689501798038e-03,6.547852220976510366e-03,1.252896920178254471e-02,4.031514578514589636e-02,3.582117602983451998e-02,5.603509976739708652e-03,4.239947744975445902e-03
4.160948137430943612e-03,2.795888269308224438e-03,4.945013010900888017e-02,1.222805764629561996e-02,2.318579634939896533e-03,1.081923117537884373e-02,4.041878950109379504e-02,3.989233609920280615e-02,1.172502463265082465e-02,3.235285568766853997e-02
3.465620114189749221e-03,3.604833790828318452e-02,7.150705418923392065e-02,1.828989923898153430e-02,1.499778296355944781e-03,1.052641338468141355e-02,3.825241618161315249e-02,4.888410178344906182e-02,1.712274224845506884e-02,5.205932040586436216e-02
1.621056853758526825e-03,6.898736790877688096e-02,8.651479219775833063e-02,2.224477231109407704e-02,4.337583887794910394e-03,1.089699831870656263e-02,3.662456960173154225e-02,6.720691323604885414e-02,2.049837422248526261e-02,5.018395878954724776e-02
3.958088749488940326e-04,7.899297390688359011e-02,8.122781559296828047e-02,2.291996830257624421e-02,5.785708424005652287e-03,1.097497686630369285e-02,3.475066196877439617e-02,7.793690505345758635e-02,2.044961412257774447e-02,3.145555101822695293e-02
1.226906413507198364e-03,6.251225553753637920e-02,6.136252539121974520e-02,2.119226671134267700e-02,6.142118803295723573e-03,1.056683376419712342e-02,2.916588520934085618e-02,6.389762042402605258e-02,1.833648226146095475e-02,1.451490888328522792e-02
9.918094442120375595e-04,2.881913286943748459e-02,4.106981085770741724e-02,1.861650565251385045e-02,5.669425546724507319e-03,1.025060069381087020e-02,1.876042041429036925e-02,2.828716068712533102e-02,1.830480724078813182e-02,7.604956298611550806e-03
7.273196503859091170e-04,6.229487778996691504e-03,2.227452648060232812e-02,1.465431283023233174e-02,3.403046502191122737e-03,1.111179206051541440e-02,7.849604650536499278e-03,7.301186726651226477e-03,2.128574009455155847e-02,4.150633539150977262e-03
8.067510953652654634e-04,2.264554647307629939e-02,1.358487573677343496e-03,6.697129641134154029e-03,1.460793942485975926e-03,1.349293754671993840e-02,2.174022847129171345e-03,2.234059843027062786e-02,2.220286723518033814e-02,3.341290374078785541e-02
8.973813372666130132e-04,4.032076904796337569e-03,2.824771328302761592e-02,5.582170317213677214e-03,6.720327682103748382e-03,1.541998848508509962e-02,1.807246031064256835e-03,1.539153683741738277e-02,1.637548949324757128e-02,6.609314861300012722e-02
8.304365631160133890e-04,4.640562605298793886e-02,5.034509228899922140e-02,1.715208179321070850e-02,8.372765759690880411e-03,1.388793472262059465e-02,1.418527378667637767e-03,5.785083028691344331e-04,6.257102211654538143e-03,8.181272510084214300e-02
7.538816092196430228e-04,1.017712363177785406e-01,6.307964746872263273e-02,2.166977166614178843e-02,5.529994364582503825e-03,8.203686641940167654e-03,2.156950626870213217e-03,1.390707903113843832e-02,1.249306330320881266e-03,8.541842079375042140e-02
7.482312820370763369e-04,1.303807274784760661e-01,6.313249400124015809e-02,1.823991309836544422e-02,1.283745382606573792e-03,5.305585872353846526e-04,7.283108457343007158e-03,3.136266099703853560e-02,2.529462168128666921e-03,9.492817299218510307e-02
7.459423615231384466e-04,1.182360996327008473e-01,4.615189906359225269e-02,1.139892111575092556e-02,2.131555066118659848e-03,6.650874715263356551e-03,1.257603694351957201e-02,4.505689353984247691e-02,7.011050815067994008e-04,1.083575550367130574e-01
7.090818675838282074e-04,7.400727106124060928e-02,1.663483249502323638e-02,4.977752352252280514e-03,5.718386895777599448e-03,1.225425208632695100e-02,1.942798669920184351e-02,3.185733050801405064e-02,5.676150683932078105e-03,1.051044195959598276e-01
6.693568376634397715e-04,1.830206837265491507e-02,1.041675360410698227e-02,7.955191974831030697e-04,1.025972599434943344e-02,1.644477888728357665e-02,2.844078033781351905e-02,1.323317285309825141e-02,1.077517282439987949e-02,7.444380446325181422e-02
6.454653641293878977e-04,2.954177996290129407e-02,2.573104925608468707e-02,6.491898043019452003e-03,1.389447292151591538e-02,1.962830699890318054e-02,3.625420947021343321e-02,5.244844028225432997e-02,1.377757376979721685e-02,2.687880784864067618e-02
6.233329602489156348e-04,5.861207928392335453e-02,3.301636304168084624e-02,1.108226278824106341e-02,1.473728049905924722e-02,2.124093803901371327e-02,3.761794830645603244e-02,4.452249224120353316e-02,1.258588825667836947e-02,1.773704301423580099e-02
5.945503128173774748e-04,6.684406913919205273e-02,3.693001599096578519e-02,1.313071573485138054e-02,1.358743334290937396e-02,2.042900983237629781e-02,3.128986683935017915e-02,1.206674589004858369e-03,8.781318865653539932e-03,4.483517913677085437e-02
5.660767219220152156e-04,5.848958459078495986e-02,3.809545384662630513e-02,1.303153420606054276e-02,1.269947752279467282e-02,1.834704796471496938e-02,2.274025488289156682e-02,2.854569512577312049e-02,6.919424022231386411e-03,5.438612822079264691e-02
5.423629550851126772e-04,4.263231690084141184e-02,4.076979810359819545e-02,1.302169729796415730e-02,1.313152427313054801e-02,1.723796539485867446e-02,1.840438091205536322e-02,2.641824251309632041e-02,8.779899618673651235e-03,6.025782319126200132e-02
5.206002238529928603e-04,3.208693218166774885e-02,4.838678441178106276e-02,1.416756204829993163e-02,1.388849748944325467e-02,1.662431799210454739e-02,1.821044056410065642e-02,1.858581739000257291e-02,1.038582974513355822e-02,7.387565300606688257e-02
4.989985872003766020e-04,3.611481573815416429e-02,5.022722155949408546e-02,1.395298765644044890e-02,1.295047720421154368e-02,1.383624791696688033e-02,1.720580706497333578e-02,2.455352505925343168e-02,6.455917424418589068e-03,8.801327676478648554e-02
4.790628956310452819e-04,4.919091233088020154e-02,2.906720119704487779e-02,9.107328736579524409e-03,9.094536146994890505e-03,8.696977601937610700e-03,1.320656004654328051e-02,3.478035018061828576e-02,2.934345046587755017e-03,8.639544360489591346e-02
4.617955992553355996e-04,5.400308491349137957e-02,1.440803209745981917e-02,7.421541281558325948e-04,3.056691523878357630e-03,3.747011050265428717e-03,7.997062476484627022e-03,4.212815699726243923e-02,1.248173119077780439e-02,6.695588876115314558e-02
4.466765303826569192e-04,4.108991850316175837e-02,5.735627451234873164e-02,6.446848042163371567e-03,3.148994621299272458e-03,4.334138962290164619e-04,1.874127076440489743e-03,5.558240275841440370e-02,1.856783760639584002e-02,4.128497659057328573e-02
4.333106958853445300e-04,1.776564286431062470e-02,7.850598308128159397e-02,1.053067706254430178e-02,7.694612087839016422e-03,5.892567115606964570e-03,6.667167415252172810e-03,7.391164082847910544e-02,2.212625899197715601e-02,1.544379493922459073e-02
4.217219356638448073e-04,4.515451430511935316e-03,7.533802167796560534e-02,1.403304975664851698e-02,9.591839446677297154e-03,1.255864897533560606e-02,1.526442130300204383e-02,7.700413243463027912e-02,2.333315229212112180e-02,1.109174548848064143e-02
4.118319641450113137e-04,2.094994410767067605e-02,5.464372668369942010e-02,1.816088751471335236e-02,8.926927482857964849e-03,1.674483259835538723e-02,1.797636185654170188e-02,5.470141069795123739e-02,1.919474066320684194e-02,3.324019788875447190e-02
4.037655808707316628e-04,3.100815943751203396e-02,2.160846429177692291e-02,2.006182595319397008e-02,6.845339877487624861e-03,1.586680719327738728e-02,1.270952411011611743e-02,2.335520815620147420e-02,9.853087891233378720e-03,4.485306118176514423e-02
3.975946019574965189e-04,3.476002303685999523e-02,1.205220499411670775e-02,1.808012597283018344e-02,4.596503581379252946e-03,1.163993619414926614e-02,3.541611549401094561e-03,4.043436242569847100e-03,1.334793699966057255e-03,4.919692381904730571e-02
3.922369405440584520e-04,3.135099276703706001e-02,2.550295870722739736e-02,1.496436977408829166e-02,2.729824658666615660e-03,7.054988937806381047e-03,5.149784877780309508e-03,3.668330705164698363e-03,2.937606436270975667e-03,5.052643373552549028e-02
3.866360639114570620e-04,1.926867202369000540e-02,9.815763168425351709e-03,1.325476881365847751e-02,1.573270893510108660e-03,2.986736229947038659e-03,1.250922658807028520e-02,1.930173347491894245e-02,7.511289910429458372e-03,4.387044029533760520e-02
3.823845433945991098e-04,2.112410822178511366e-03,1.970547798893540134e-02,1.207657678854733192e-02,1.623644216932119012e-03,2.796767994880558061e-04,1.824599849725061160e-02,5.521130785198761354e-02,1.527697216709801055e-02,2.652202364352200178e-02
3.809968936672174667e-04,1.158403533107595258e-02,4.254976572433893239e-02,1.070781326652160519e-02,2.962588607505803849e-03,1.046155286654092608e-03,1.994429371960799308e-02,9.509697344718036349e-02,1.840842520491607279e-02,9.980860809751596757e-03
3.781517871639485714e-04,2.024782834484518956e-02,5.259477738042799000e-02,1.092760280902309832e-02,5.004363476218102666e-03,1.448403422800373071e-03,1.579426743514952131e-02,1.063537783729855135e-01,7.895680240220135856e-03,7.056155630936766093e-03
3.695294291720941900e-04,2.923800346424341307e-02,5.389954415637351198e-02,1.368691973930264393e-02,6.920800618254943290e-03,4.716126161408755457e-03,8.043870525355911391e-03,7.913805148520559885e-02,1.197543890634104012e-02,1.455915608651645911e-02
3.633375940598488740e-04,3.558739929822386100e-02,5.039451212929333540e-02,1.663660640135231072e-02,7.759244622750302925e-03,5.551124010283446999e-03,1.416749506906031606e-03,3.994516979691953990e-02,2.738833098664951449e-02,1.806041673190761712e-02
3.681327419025127502e-04,3.032251847991935742e-02,4.465935807020947335e-02,1.686766275576864760e-02,6.808506707603717567e-03,3.545265428912287332e-03,1.570325466710296948e-03,1.532439212067379652e-02,3.018753283893635744e-02,7.543287596033431894e-03
3.657501173372198827e-04,1.593696296590377953e-02,3.924162582926362525e-02,1.442655995634933679e-02,4.682736029238757959e-03,7.548733908427711055e-04,2.567161362896524558e-03,3.384957939748262784e-04,2.301424078955209562e-02,1.530391441488205238e-02
3.366599549524158124e-04,2.315359438582916853e-03,3.615159357218867414e-02,1.150241045264483591e-02,2.990313646163539427e-03,1.082877698334631759e-03,4.448051454426439795e-03,2.258611272203561032e-02,1.312852818469250997e-02,4.012517753454618308e-02
3.184794515537966173e-04,9.837591198801242526e-03,3.597072479166765063e-02,8.781389234992723752e-03,2.087426959083635292e-03,2.378109653200486534e-03,6.850518387158678266e-03,3.998907718069085598e-02,6.062612621743688861e-03,5.772152597316772965e-02
3.533517988071927679e-04,2.284677761006362676e-02,3.611850004026779387e-02,4.464808808871459193e-03,4.137686554363602560e-04,4.843260790921877744e-03,6.065612852234856210e-03,2.778698156410456740e-02,2.611853610709345859e-03,6.553937917671766311e-02
3.614876289078746341e-04,2.848108699941433175e-02,3.117183487396284203e-02,2.493011100144166235e-03,3.233913294808587850e-03,8.687988667072042356e-03,6.191469855563172184e-04,7.366225905682248498e-03,5.471561594522931973e-04,6.009926059912032437e-02
2.501117361369180965e-04,1.893077940504276843e-02,1.837072399995197045e-02,1.002955210993411797e-02,7.830491569246884193e-03,1.167257364451525746e-02,5.181004578358735374e-03,2.684524930541301244e-02,6.497240863782244129e-03,3.623355214906950200e-02
1.891503724106878624e-04,3.680781279059956723e-03,1.691533475633533916e-03,1.558060427922172697e-02,1.103349076932699444e-02,1.204306491491004619e-02,6.631905936587954332e-03,1.149171513442406867e-02,1.495809856920785746e-02,4.787595539782966980e-03
3.925522792528026361e-04,8.865509213308820843e-04,1.188977604238497174e-02,1.920339009813424452e-02,1.152431019540893845e-02,1.091733074576230374e-02,5.487446274733673302e-03,1.331890342794075921e-02,2.308457772671389935e-02,7.501157760489512126e-03
4.720407218440748160e-04,1.628805828144517381e-02,1.810551620219974858e-02,2.139878321730605618e-02,1.023922537147164448e-02,1.010332526959851693e-02,6.624449318666414573e-03,1.700534606814221861e-02,2.679638558645043578e-02,8.308987844018294808e-03
3.267209034837386858e-04,3.914226147921431170e-02,1.729991986862589037e-02,1.998556999715682750e-02,9.061970027624179774e-03,9.285338253117090407e-03,1.009597293795799593e-02,1.699906333234962354e-03,2.276721674142331148e-02,2.903242110768433290e-02
1.820224662095792749e-03,5.577789901411646378e-02,1.444590627493924639e-02,1.321740938749232583e-02,8.488689699346624665e-03,7.545926759617925528e-03,1.247345968158908650e-02,1.581686205475497237e-02,1.228359127349196687e-02,3.314962799550301431e-02
2.623078905524419378e-03,6.055389453362906155e-02,1.651226183150390422e-02,4.399144271985785254e-03,7.691219521290085757e-03,5.855748053563401140e-03,1.352494736169880876e-02,3.364394877501548919e-02,1.396593525827036653e-03,2.854903195913325101e-02
1.864684129304606435e-03,5.401992709112792695e-02,2.677235788552280796e-02,8.540629022994240295e-04,6.634777496929299481e-03,5.305172226298054440e-03,1.465587347349621601e-02,5.491805693043777525e-02,4.476624316358549828e-03,3.197344442921044166e-02
4.148054276579723186e-04,3.743296762290500984e-02,4.257137632459062626e-02,8.304562661010875951e-04,6.178233816228589914e-03,4.696068388678820323e-03,1.368171760411514455e-02,6.929718762267578214e-02,3.791233128044048210e-03,3.976415087378529223e-02
3.407755637046999729e-04,1.317858567093905045e-02,5.750466437202394338e-02,2.002358562773867093e-03,6.212372682920608812e-03,2.959925099322688498e-03,8.318368848352786921e-03,6.563628701458577852e-02,2.570823212955987772e-03,3.640916795379748466e-02
2.194487193382960860e-04,1.460431669599773774e-02,6.317756148858080789e-02,5.159471699245680130e-03,5.777774340782778142e-03,1.821429380714741694e-03,1.617377247000709086e-03,4.981818998717549296e-02,1.179973623584145044e-02,2.039759235100366622e-02
2.160232231814767734e-05,4.321848175695962302e-02,5.406590324968437583e-02,7.725970593815710552e-03,4.878932869342569173e-03,2.825934256489274696e-03,2.119662004224266358e-03,3.466592880606461646e-02,1.873827849635314666e-02,5.665441371271914481e-03
5.293339512067051942e-06,6.851569272645957609e-02,3.511044081941285672e-02,9.398791817159617840e-03,4.370221949266963300e-03,4.105883347040874612e-03,3.295610358289065116e-03,2.197290971619598327e-02,1.885517050888771071e-02,1.525020447153877055e-03
8.145991163030190797e-05,7.846824454124463888e-02,1.784324754836269164e-02,1.012327824381676483e-02,4.167746628138755370e-03,3.173533082123229307e-03,5.049706543266293222e-03,4.691377632499532831e-03,1.227248817677821513e-02,1.922743311663024576e-03
3.962359270888157135e-05,6.212418796173206637e-02,6.362894401857678225e-03,9.915078762470117338e-03,3.304699073469028955e-03,7.702218800260842010e-04,9.052435367769796556e-03,1.958202533036362131e-02,3.865484270021734333e-03,3.448813690258273508e-03
1.614464940436969562e-05,2.646225550537976631e-02,3.629185197065891866e-03,8.613243085229245130e-03,1.995828330697140950e-03,5.880225571964706058e-04,1.509869632575994852e-02,4.429566742845600369e-02,6.943057261649034778e-04,1.298508404727969669e-02
1.068331812427900752e-05,8.076367708920999255e-03,1.100240983780801859e-02,6.655881734167876443e-03,1.627276199813863572e-03,3.807068955807553588e-04,2.189711368528828028e-02,6.105900023932253617e-02,1.746920294355061706e-04,1.635927559542078163e-02
9.844259773890447202e-06,2.802479407620608876e-02,7.174817255897365798e-03,5.360583802204391818e-03,1.904258532461049463e-03,4.247012391086688304e-04,2.784608496600005090e-02,6.634852355279835523e-02,2.731064043812671868e-03,1.274220908826144590e-02
4.165408609417588090e-05,3.255239851266984036e-02,8.574188585772442653e-03,5.478336226103933636e-03,6.552044406859655265e-04,1.900093195090456211e-03,3.238141803122632223e-02,6.008364536237778553e-02,2.689947553022485269e-03,1.255346211732737138e-02
3.567875842775658480e-05,2.407176188987951437e-02,2.379573666329371645e-02,6.701638696186375255e-03,2.154727191701549111e-03,3.479417534028572505e-03,3.551928453481307396e-02,4.229968726398500994e-02,4.379581588985570831e-04,1.968087831093408638e-02
6.798091003581083078e-06,5.050559928622716521e-03,2.888411904194591873e-02,8.936698490074881582e-03,3.400878174580317624e-03,3.108709267157386789e-03,3.575607509844812293e-02,1.562192426081932851e-02,4.361179140976350677e-04,2.740672109058731737e-02
3.269190338274599898e-05,1.643955191521851225e-02,2.873471255652380527e-02,1.191571639327555950e-02,1.541728737553382540e-03,8.282756277394218115e-04,3.059717282361624352e-02,1.150640213210473058e-02,1.198296980595256640e-03,3.287440198688187237e-02
1.247707364258127593e-04,2.586771579862724366e-02,3.139370202912720315e-02,1.328320879277762948e-02,8.097814524916022161e-04,1.246940648481099532e-03,2.035267824245257789e-02,2.818772392803755439e-02,2.310491410469859945e-03,3.989669886123201753e-02
2.796739282982250904e-05,1.439584216751119659e-02,3.371359502835832855e-02,9.799847904051649933e-03,7.882402183752430748e-04,1.172359769587649888e-03,1.010917193041458925e-02,2.823765282217045522e-02,1.013487546912137304e-05,4.752201300411069973e-02
1.958408193586130440e-04,7.853648494486310805e-03,2.757224949998885594e-02,1.593551204587134902e-03,1.054227942959489600e-03,1.200800697190955706e-03,5.682184481587192713e-03,1.485627034190049878e-02,4.425201791572825651e-03,4.913650921078770856e-02
7.267813463590148531e-06,2.166308949645641066e-02,1.434388552416663784e-02,6.619120064589705150e-03,2.424950930752073006e-03,3.966959912015487373e-03,7.160272003104176282e-03,9.843349087662795795e-04,7.118618122236731321e-03,4.220244859173362395e-02
7.674974854622687061e-04,2.391030340782557620e-02,2.877644378150758485e-03,9.941550546929137783e-03,2.342933521073779345e-03,4.611628444897489937e-03,9.016901173588753524e-03,8.915206408724785092e-03,6.630779339457680555e-03,3.043995284629713582e-02
1.238821667821937917e-03,2.787609884886008138e-02,4.147201323646430501e-03,8.099039957258925490e-03,1.349674224933745600e-03,2.715152558478744777e-03,7.631512840977676404e-03,6.602473355042584938e-03,4.546839138686593895e-03,1.843925863092884393e-02
7.724427880930962364e-04,3.737375261161163253e-02,1.218479846236933221e-02,4.660821964327335754e-03,3.036647206349073094e-04,4.672534011656361312e-04,5.037019789768868577e-03,2.763572170512481468e-03,2.100553774387161829e-03,8.452549879316010803e-03
4.480340575251113021e-05,3.993498913882174983e-02,2.329745283111010062e-02,2.213612967658677363e-03,2.141824786113471590e-04,2.357449319329283678e-04,3.365325918240260911e-03,1.740795672936516769e-02,7.518560714324013005e-04,6.324669130839104952e-05
3.225035385821130155e-04,2.882171860929468726e-02,3.084213819643023130e-02,3.381864381587400617e-04,1.379776332791681024e-04,1.922450049158338126e-04,2.590967865730253554e-04,3.631141025586917537e-02,2.892380528713871246e-03,9.061072297726791014e-03
7.149388572882463646e-05,1.301992760498046214e-02,2.836438021887678629e-02,1.594446815191158731e-03,1.356058853742561285e-04,4.913819624013245849e-04,6.668953807846725312e-03,5.418280362639820574e-02,2.271782051841771729e-03,1.842334828010544837e-02
1.060120826603238854e-04,4.079327375745737472e-04,1.898717094181849238e-02,2.384102147223230925e-03,2.825124562376588261e-04,4.165432886295151039e-04,1.474852110767853157e-02,6.358676890994989506e-02,4.784154357527692011e-04,2.553498884995617293e-02
1.006055608033280411e-04,1.270074763359476180e-02,1.124849854054106417e-02,1.200130786433386502e-03,3.538989833446834097e-04,4.073850373181239228e-04,1.947394150412879582e-02,6.077338920492408175e-02,2.345543713208888929e-03,2.933474801926990935e-02
3.799208071097476421e-04,2.903722551139698710e-02,6.765280150418303065e-03,3.172090750258411626e-04,4.926509230052365535e-04,5.765023447275561836e-04,1.990291976117564143e-02,4.547888081034177216e-02,3.128544325019330923e-03,3.140363299611362985e-02
1.293420853762520303e-04,4.124045530881196436e-02,1.117915636709867913e-03,5.827813931197399835e-05,6.800903965871200798e-04,7.267627689957787763e-04,1.814790596360792499e-02,2.058156760522130910e-02,5.918440171983035958e-03,3.221371833342117491e-02
6.623347853728458502e-04,4.273984573482441512e-02,1.419363477355529805e-02,1.754497875276177102e-03,8.405833807425273484e-04,8.041202649443895262e-04,1.633582194088538733e-02,3.771643544753408919e-03,1.068813811903205138e-02,2.910763339498538549e-02
1.105683203190636075e-03,3.862901927253990092e-02,2.380283764796342974e-02,3.393097020257009044e-03,9.844111839709733611e-04,8.995315026204965102e-04,1.577050192462997949e-02,1.547706681028725335e-02,1.246124650440067795e-02,1.839988349687931082e-02
6.147551050740736062e-04,3.988326220294838298e-02,2.292807462013115791e-02,4.092007774305740989e-03,1.164119837573677867e-03,1.038214748420153086e-03,1.655637341734250353e-02,1.506254098618219073e-02,8.441814078002761110e-03,1.617130468516995642e-04
1.621474270069523846e-04,5.005700906677571643e-02,1.417773211573476917e-02,3.896852877605916018e-03,1.364784691003758082e-03,1.176095106605320757e-03,1.734084838549675503e-02,1.362599152654897505e-02,2.838789617968586008e-03,1.893259267298094684e-02
3.795072689029751469e-04,5.866250772047924833e-02,1.487951260900579080e-03,2.155921995827689720e-03,1.517237057276691042e-03,1.298443271098356257e-03,1.712002107896956615e-02,1.327740877988031233e-02,1.956655655765736270e-03,2.551304366673066981e-02
1.653633515875382399e-04,5.014777965486880845e-02,1.510266419458236933e-02,1.448175061853668351e-03,1.639912838383061639e-03,1.422829303421319124e-03,1.642963737239486188e-02,4.545093867030417130e-03,7.079949005310215253e-03,1.592696943396442605e-02
7.163533097090954774e-05,2.449328995459099448e-02,3.154009325470019665e-02,4.867616185482442730e-03,1.849583174868892933e-03,1.553068230653178528e-03,1.540352665457197720e-02,1.324165743137839177e-02,1.424905157287132025e-02,1.091626116517599877e-03
1.641706646424537805e-04,2.410130194829703497e-03,3.677985056281746906e-02,5.157375663653485098e-03,2.102949559388381760e-03,1.677377598710778949e-03,1.287392453211028479e-02,2.617327365108003401e-02,1.912945244389327795e-02,6.768119021819429468e-03
2.055649263667282936e-04,9.772885066996282039e-04,2.518518796584745187e-02,2.200090859767982535e-03,2.148528452915682199e-03,1.790029862193293596e-03,8.929495302261251585e-03,2.683578433048267389e-02,1.987356060451421838e-02,9.242606351856877400e-03
1.580632759788173350e-04,1.239878915337445583e-02,6.801425724932296316e-03,9.542480574092912851e-04,2.052831446528105043e-03,1.892593990160871837e-03,5.622990679709341348e-03,2.459513702879002200e-02,1.652701051092308332e-02,1.455660522515305443e-02
1.315249742560469545e-04,1.734705126298588876e-02,3.308117682119946640e-03,1.920787619687275858e-03,2.382853324771669942e-03,1.983927558833207486e-03,3.811147995860402794e-03,2.696128224466135329e-02,1.011214854343740407e-02,2.164213747327261086e-02
1.454771081709487098e-04,1.168953516584497060e-02,4.182756158102262332e-03,1.383997176304657814e-03,3.256504593101973693e-03,2.059587004572707540e-03,2.342774623354725201e-03,2.762215422717368904e-02,2.199363920117690559e-03,2.357447287665478952e-02
1.491982680950754809e-04,8.650092328677843473e-03,6.386695164751217402e-03,9.401549926661546906e-04,3.789652838565220425e-03,2.116615993448593865e-03,9.828123033074828707e-04,2.225557562971866923e-02,5.257132887783093865e-03,2.212791789873263387e-02
1.333660729754848097e-04,1.698341630172005637e-02,1.104166920182190863e-02,5.464915332849199902e-04,3.347015147275473126e-03,2.153982272987602174e-03,4.514696618410278615e-04,1.864590254462850094e-02,9.412607901214347858e-03,2.510250469205271145e-02
1.220745736726722023e-04,2.729934147771845288e-02,7.296586186975055101e-03,4.134601898190109755e-04,2.589974754120711719e-03,2.170433355700031319e-03,4.574294690269876864e-04,1.993432745090259126e-02,7.648442427314554488e-03,3.080813704676765852e-02
1.204696176579961889e-04,2.505764163718396387e-02,6.666693990298171169e-03,1.294159367711400195e-03,2.377352554498205709e-03,2.164346282883436445e-03,3.551573789738347343e-03,1.475658906047224057e-02,1.128462311847437628e-03,2.867566975619839642e-02
1.178193119536460930e-04,1.199480543550113763e-02,1.629923705994208369e-02,1.236513042132417846e-03,2.533235262362676724e-03,2.134796470364001657e-03,7.190346643368393520e-03,3.253148087860250302e-03,4.855900617208972099e-03,1.704062854988870612e-02
1.120156918719643330e-04,5.319341437582541382e-03,9.455662436715863220e-03,7.652125522784050064e-04,2.514323279214270793e-03,2.081692238912000864e-03,7.792660357730823995e-03,2.164298484653793056e-02,6.448030701736325726e-03,7.548566933851758552e-03
1.084508726295840776e-04,1.315540999715397730e-02,8.472162737959065479e-03,8.446498551724444109e-04,2.365164434755703989e-03,2.005310418210969059e-03,5.265617332992319696e-03,2.848341453384049815e-02,5.257654152581818334e-03,6.917310916300501919e-03
1.086121368703550118e-04,1.989046923270380157e-02,2.192119118335730463e-02,1.404363595410741813e-03,2.290573440734786949e-03,1.906244671909454154e-03,3.040798354705832353e-03,3.078031482758382398e-02,4.739771816135842329e-03,7.211147206679631959e-03
1.104055123556806387e-04,7.454657723786418770e-03,2.214064038617221189e-02,1.832526616221949456e-03,2.088530419675970525e-03,1.785621523723909115e-03,2.739694848261826649e-03,3.848226765798169052e-02,4.802911508774920617e-03,1.626280177414251172e-03
1.132920325854410175e-04,1.419734061183069995e-02,1.439986540872391363e-02,2.017554202234050648e-03,1.717334218454955779e-03,1.645108717010483699e-03,2.428722814391871127e-03,4.431125332520738369e-02,3.173931015129539610e-03,4.469249526969354229e-03
1.183001262986827911e-04,1.852697049024646173e-02,9.021181728366243699e-03,2.212229311913066140e-03,1.722985436849157554e-03,1.486778544855209792e-03,4.275912577980846979e-04,3.557893116813815731e-02,4.184647578294784344e-04,7.132459737259074818e-03
1.260430726582110713e-04,4.110463223278558800e-03,8.502860088791884541e-03,2.491733041133291967e-03,2.283797962748514328e-03,1.313050464393555146e-03,2.340785669834910803e-03,1.347141927633892060e-02,6.355770087846830674e-04,1.235971041758484636e-02
1.364641818700441575e-04,3.109126041318149673e-03,8.097208636430276371e-03,2.743793844285713403e-03,2.543303435045622153e-03,1.126687758326299672e-03,4.235401372944892599e-03,1.212935362882298224e-02,1.343694833354184149e-04,2.198374019915840666e-02
1.488395739780385492e-04,7.110352135567841146e-03,6.309615703841934577e-03,2.876778297216556896e-03,1.842580664044374305e-03,9.307446098656385180e-04,4.635592087234224196e-03,3.325553939732824038e-02,5.651386185146975438e-06,2.741410528782890765e-02
1.623445002857902824e-04,1.754400198861474913e-02,7.382179032176935593e-03,2.911792711889934875e-03,8.188446321236611362e-04,7.284761633471607042e-04,3.520155376156165316e-03,4.057327959804216816e-02,1.953903551446180276e-03,2.489541499632324378e-02
1.780373313059878827e-04,2.113607188687783439e-02,1.349265580324170329e-02,2.990488679217193687e-03,3.571995486007144369e-04,5.232625324803613772e-04,1.278495389005301647e-03,2.576218672104085838e-02,3.933602195267097215e-03,2.213117349051722110e-02
1.977182942298697909e-04,3.428464662837182181e-02,1.997625936929367865e-02,3.156876843988817502e-03,3.410133690849830989e-04,3.185439773569290743e-04,8.478257134890202201e-04,4.608812001187101090e-03,4.875195121763362983e-03,2.439050442181468770e-02
2.187463949484707063e-04,6.275364982274889147e-02,2.045852758012434852e-02,3.121726641204351782e-03,2.057554029573116809e-04,1.177459796805961330e-04,1.633222141071788945e-03,3.045832437214905999e-02,5.601748517209781224e-03,2.584067061092931716e-02
2.363366117358828647e-04,8.544734856793624600e-02,1.504943458764563917e-02,2.723524707436691429e-03,1.141567364475071667e-04,7.580204081237147109e-05,1.383947487607168356e-03,3.818810736892758184e-02,6.416575503084217397e-03,1.916818809829123546e-02
2.551371938547938238e-04,8.233935937621432444e-02,9.566858958444132352e-03,2.597260257391610302e-03,3.698053909669981026e-04,2.589416527985437906e-04,1.460953854632403336e-03,3.085509954536585706e-02,6.089039986489060662e-03,7.086013178364047871e-03
2.846576242531761785e-04,5.783469496666326232e-02,5.130267316084249039e-03,3.423062697561117095e-03,5.181893716430809559e-04,4.287529274252144967e-04,2.054103597473685809e-03,1.880985477649952872e-02,3.601496141000725890e-03,1.412511919181053295e-05
3.142432384224757387e-04,3.078861238475981421e-02,5.364047079265887516e-03,4.455935744331422296e-03,6.697458223040811832e-04,5.826179512645060857e-04,1.591262350338374385e-03,8.109681687544613785e-03,6.512635370016122468e-04,3.613674333080638037e-03
3.222008077721336041e-04,1.357109269937592164e-02,2.520196622370131714e-02,4.198867890124976555e-03,8.420896643975941996e-04,7.182785276623457121e-04,7.329356392681585794e-04,8.893138712199755852e-04,5.686239558979375858e-03,1.238808844873648396e-02
3.296017307348788608e-04,3.079066615198350256e-03,4.419969974422562065e-02,2.656294583981435274e-03,9.803066773239031435e-04,8.338843407614917377e-04,2.871195917454461358e-03,7.848494790308488053e-03,1.048867287943920472e-02,1.762306530511843078e-02
3.822337365949442169e-04,1.220388853602624377e-02,4.800204828758863201e-02,1.330304040289042970e-03,1.073026592916436796e-03,9.280305682184646207e-04,2.295362492811469160e-03,9.125652776312633691e-03,1.318936076828710474e-02,1.774802299167624331e-02
4.352006373418320956e-04,3.552383015979728581e-02,3.381070417031240699e-02,9.748490633016396092e-04,1.144444965864385103e-03,9.997851912049683046e-04,5.306374031590146718e-05,2.590361960479811362e-03,1.150952931221182855e-02,1.646669586704237534e-02
3.883451739344035650e-04,5.366974257375106694e-02,1.279923216270431596e-02,9.324403048403419715e-04,1.198964764475182222e-03,1.048705362731281246e-03,8.320556790480807333e-04,5.802519402133559864e-03,5.480690858321613304e-03,1.350015974526866391e-02
3.336665510674097354e-04,5.024230484344439224e-02,7.911740587842503196e-04,5.761030770345043281e-04,1.224257332071110489e-03,1.074841984992274801e-03,8.052196204139272940e-04,6.522138673994725723e-03,1.546076287734714488e-03,3.370936758109787778e-03
4.890522937031973076e-04,2.461627892711900842e-02,1.862494451354956577e-03,4.128982831374616944e-05,1.219235715412410456e-03,1.078732466310397195e-03,2.443555377844197369e-03,4.413606668862966355e-04,5.879569753964423301e-03,1.552685987128755475e-02
6.719316673706810308e-04,7.510469016610646538e-03,2.868043652741654372e-03,3.778924459212801594e-04,1.193012650767999189e-03,1.061382148680379460e-03,2.497884104461547614e-03,4.796325630307275711e-03,6.738769146082732205e-03,3.543393914210896806e-02
3.684921340731261855e-04,2.939552025086176329e-02,4.710249564058329244e-03,6.478762493873591001e-04,1.147435948565604354e-03,1.024234926244148173e-03,1.857296650399012459e-03,2.278923982443485912e-03,6.324338730490542716e-03,4.695297735912369597e-02
2.968085094625359278e-04,3.588593406973233230e-02,2.978254577901849696e-03,9.007168486695597311e-04,1.077035867744526249e-03,9.691337235706347841e-04,1.480504119640569695e-03,2.422511894608420785e-03,7.503012444226433292e-03,4.986469583586390641e-02
5.443693224753174504e-04,3.439775973005348986e-02,1.621289456731898979e-03,1.311435317546510038e-03,9.863295069270610737e-04,8.982718580882646884e-04,1.316619988464595541e-03,1.502894583811451544e-02,1.116512691098629252e-02,5.069223092397192459e-02
3.098930729617034065e-04,3.419640096164001941e-02,1.115148713292111408e-03,1.810794642094959352e-03,8.907826566563338110e-04,8.141365798727780764e-04,1.444950966177423841e-03,3.697404970708712685e-02,1.541691190273351136e-02,5.066281589698594379e-02
3.080605301943296036e-04,3.460696690719341356e-02,5.663752513537880819e-04,1.907637376040222186e-03,7.889898905129396787e-04,7.194462116219781838e-04,1.659475649796878080e-03,5.458550318817791819e-02,1.775924403629153964e-02,4.373393546539118548e-02
5.144298268489766067e-04,2.852463416810290670e-02,2.471683555417203242e-03,1.361112743913412901e-03,6.595258228007296747e-04,6.170824319742324515e-04,2.409488586565672872e-04,5.372183531956731956e-02,1.764436579779925934e-02,2.825792298447474954e-02
2.665301948805325126e-04,1.561484961036975830e-02,7.411153483064018659e-03,8.911216053422319969e-04,5.156815342398122582e-04,5.100193769120858625e-04,4.364228193296728828e-03,3.109783024226710213e-02,1.633621690493687953e-02,1.255851567259722024e-02
3.058026166323870080e-04,4.818338909154991009e-03,9.757503929933481618e-03,1.423160301599302744e-03,4.133917939934727355e-04,4.012513119528379486e-04,1.073336835896491169e-02,3.004482570395298861e-04,1.533604347415670928e-02,4.134177324457404684e-03
6.134189754642267690e-04,5.429336750922894930e-03,6.877972480450399509e-03,2.650307878439809358e-03,3.363241855104278071e-04,2.937206388988730156e-04,1.534410619064230895e-02,2.364087875665709521e-02,1.552810089026814694e-02,7.021928517700901443e-05
6.709382374732406626e-04,1.788238494453187402e-02,6.423405662654767950e-03,3.017899475643528139e-03,1.755784907667181358e-04,1.902479739912975505e-04,1.630652244497877643e-02,3.725701829749265837e-02,1.643735777548236549e-02,5.717089150409125978e-03
5.214204733906905578e-04,3.066580598122417914e-02,1.623519115201052174e-02,1.334269470552412046e-03,2.665194000381039888e-05,9.346597615181295986e-05,1.480065579900978132e-02,5.233093810137986329e-02,1.588209920460487840e-02,1.205552795342206170e-02
2.390481401373778362e-04,3.080860144951708124e-02,3.233329643460604308e-02,1.890765093167072995e-03,2.471787132584662571e-05,5.758502891656860087e-06,1.271014604913893974e-02,7.223441800089473730e-02,1.211723767927972047e-02,1.419452194325310397e-02
1.435762175158253719e-03,1.979320098556822463e-02,4.386607646889192219e-02,4.926013162454800400e-03,1.156040018903162453e-04,7.079347270692480307e-05,1.019915302736250882e-02,8.552365254352460588e-02,6.778523750711244744e-03,1.200979273046369478e-02
2.163249556163474117e-03,9.388452228898546206e-03,4.550027499673914289e-02,6.265298476735793945e-03,1.669169672266320381e-04,1.344579277141587663e-04,6.549081506677509844e-03,8.124528077294901340e-02,3.591554686388925138e-03,8.100811242313503760e-03
2.203690129455742903e-03,2.459230297836562454e-03,3.877125733398013863e-02,5.312729487845490109e-03,9.938566596635728910e-04,1.838887857434032291e-04,2.408676431127606925e-03,6.162213336968381389e-02,3.391756141692157684e-03,3.052354835157949052e-03
2.198881036788901105e-03,7.657432108911089823e-03,2.481530869201484940e-02,2.577800985391018665e-03,1.494386420270929494e-03,2.181530208603496177e-04,2.584556828271006258e-04,3.794227295788054483e-02,2.897661549721787782e-03,1.538434096735025354e-03
2.195753485349891294e-03,2.048555392952334034e-02,3.674290771241145795e-03,2.168665318621581769e-04,1.029700941965531330e-03,2.367472943804669857e-04,9.652571416733819742e-05,2.242557478880586111e-02,2.047478197527684025e-04,9.996237990006066106e-04
1.529028868914403304e-03,2.607159402119707189e-02,1.911791853988682038e-02,1.361213839893544693e-03,2.380913484880947261e-04,2.396038104979695096e-04,2.402970256946028622e-03,2.338509591135476406e-02,3.537460171047307478e-03,1.745392771325448081e-02
2.919762314341566673e-04,1.876799055679740508e-02,3.347315736733040559e-02,9.138366799006272367e-04,1.013716246382346934e-05,2.270853425030060441e-04,4.966907266616900005e-03,3.824127521369746069e-02,3.480176501131043102e-03,4.456726607519954919e-02
5.293164803302695355e-04,3.923004278744089343e-03,3.554200031879672927e-02,2.307411205012362869e-04,1.629351132958665690e-04,1.999696464760707647e-04,5.288229802767880142e-03,5.207424996038046566e-02,5.678964993691957598e-04,6.738835044901188287e-02
5.275015501720963472e-04,7.776849819249102326e-03,3.117703754528126231e-02,3.541804331217365018e-06,1.955970866628560002e-04,1.594237374819176649e-04,3.562467734311786007e-03,5.187621125371841974e-02,8.729748226697839602e-04,7.250816560989320481e-02
2.822667918601663435e-04,8.218738750338632978e-03,2.648450698486055910e-02,1.446285639727658929e-04,2.155977111259943426e-05,1.069687478570586527e-04,2.038275760304786993e-03,4.086183004022755222e-02,1.715750929374678171e-03,6.250421213278357924e-02
2.795814557996713270e-04,3.507960855796859231e-03,2.179303816327157750e-02,4.522310720846734497e-04,1.140666737400373814e-04,4.443631222045643127e-05,1.706258035907402913e-03,3.261569377776417367e-02,5.670450900830553004e-03,5.276455429109484091e-02
3.876313438380245020e-04,2.110721998364644553e-02,1.655391911764029361e-02,7.278084169823099362e-04,1.695263877950128201e-04,2.608237589784187754e-05,1.545641421425713712e-03,3.406134661170814870e-02,6.564615899047382755e-03,5.453019343077435827e-02
3.919304367688638841e-04,3.558339349189316297e-02,1.394146788120615744e-02,9.044207260600715123e-04,2.540583403500055971e-04,1.022935201045247335e-04,9.698958896231488257e-04,3.996469904870041806e-02,4.227944887461164425e-03,6.483310955287660549e-02
3.462506075853644398e-04,4.220487890164595357e-02,1.835913719877819289e-02,1.144721953016910416e-03,3.844990694541202498e-04,1.817622368366924820e-04,5.812126383180682204e-04,4.168569763847830567e-02,2.560667659689528242e-03,7.166843361130646739e-02
3.505465005415538170e-04,4.466816643945404480e-02,2.976593394533537731e-02,1.336109657047145896e-03,5.055699466070144371e-04,2.619770769702756282e-04,6.392979312000809542e-04,3.488323036744683109e-02,3.081268834942661305e-03,6.570683976595316500e-02
3.806025469258966201e-04,4.961762477990289827e-02,4.027049719253013998e-02,1.210646559418351387e-03,6.042100874434270553e-04,3.404159377052582759e-04,7.204253340215001442e-04,1.974131104519035243e-02,2.558873625682062721e-03,4.819003004986805588e-02
3.888949915475827901e-04,5.645774047518727079e-02,3.920473665242420191e-02,1.134565803977626583e-03,7.016490485509273203e-04,4.146117271989387121e-04,6.754796737021025567e-04,9.093480297463450712e-04,8.218440122438857697e-04,2.950792583084786355e-02
3.861126710321479034e-04,5.814768275225930955e-02,2.504586031464826890e-02,1.919121476815866933e-03,7.998893079160537909e-04,4.822161627995416350e-04,6.532403563415160007e-04,1.254986420406011167e-02,2.911780786250064718e-03,1.913697248957425823e-02
3.944881575942404679e-04,5.219835254026741755e-02,8.219450139247753626e-03,3.370894055145723638e-03,8.848702446835755419e-04,5.410601416438031320e-04,5.418898937463911738e-04,1.454895824955081823e-02,8.536913470162609506e-04,1.668211554628351925e-02
4.081052585117310341e-04,4.358517376120821935e-02,1.156604799508719958e-03,4.004214322571006228e-03,9.516686108944369480e-04,5.892092181078055144e-04,3.263859250401329260e-04,1.004763641839756527e-02,8.051280318104000674e-03,1.449623473786482153e-02
4.153405089251591673e-04,3.686888116985161806e-02,2.440156755478026240e-03,2.995407672995042785e-03,1.003419419253217182e-03,6.250128535144811905e-04,5.090897238702851149e-04,9.472094983328221279e-03,1.202483114713152022e-02,8.106311094194854766e-03
4.198193474448619843e-04,3.244111118409837707e-02,8.288474901521104832e-04,1.426426676137130395e-03,1.039586595918238479e-03,6.471462661402381305e-04,1.252376851133966832e-03,1.605723501186949453e-02,1.079125787266627980e-02,6.978531060011748666e-04
4.279583427016333858e-04,2.986396513810532505e-02,7.866236760934147698e-03,5.846930060794694548e-04,1.056396351937829818e-03,6.546438997098553373e-04,1.715958399247153416e-03,2.512762912223536968e-02,8.476297146828315823e-03,2.644550432310105101e-03
4.345060095844631366e-04,2.857581004149191764e-02,1.858290108081642189e-02,2.015965643196990014e-04,1.052391999309644543e-03,6.469237413606328084e-04,1.243648263311998483e-03,3.331381376572840197e-02,7.882838571814335116e-03,2.028512307518904548e-03
4.328330151066710489e-04,2.502100602812856733e-02,2.864703024201512710e-02,2.397958655088545585e-04,1.028340672421206806e-03,6.238019501132367837e-04,4.593926361859255905e-04,4.093277835393505787e-02,6.892953555990630546e-03,2.682591156846477441e-03
4.315865485204217083e-04,1.402706585201019332e-02,3.020248867341694329e-02,1.794008285767711292e-04,9.846564554676347312e-04,5.854974984453051399e-04,2.400098139592202954e-04,4.733085819271126704e-02,4.136383008884790893e-03,8.695851054472295699e-03
4.404715008243821877e-04,3.967596050431804883e-03,1.985744274679589194e-02,2.128510721770595672e-03,9.214210502782455015e-04,5.326267766228803911e-04,4.672035521311167249e-04,5.032063620084159528e-02,2.879155430619955922e-03,1.797115761434486120e-02
4.412217434840133914e-04,1.973014731686019083e-02,5.131094220296688116e-03,3.811208481551581553e-03,8.395822065238557012e-04,4.661883559117769682e-04,5.726734951192628603e-04,4.871755847499123493e-02,5.619062077167645726e-03,2.363809775029794905e-02
4.138949623899918005e-04,2.476969485501680918e-02,4.076981146358031084e-03,2.887253727133774848e-03,7.409331288199523611e-04,3.875383466339099321e-04,4.841820437840429537e-04,4.248759703048030079e-02,9.364256960427136747e-03,2.050624615805487008e-02
3.963089055096806934e-04,2.269263403792141920e-02,1.082903923357044634e-02,1.205707886622234379e-04,6.275089061859525936e-04,2.983570144279752158e-04,4.433861073128135153e-04,3.296081772573407342e-02,1.025166888994773380e-02,1.086466167308636557e-02
4.309678392838268805e-04,2.410810486642757378e-02,2.716798814501019538e-02,2.483087827559102550e-03,5.015320553021729516e-04,2.006075275438704030e-04,4.861088324510392687e-04,2.276005589019133857e-02,8.783030125142041525e-03,3.490617275612140427e-03
4.381639516144156168e-04,3.210442764635396823e-02,5.367436818238769530e-02,2.639038317223778296e-03,3.656248722771740967e-04,9.648789455027481036e-05,4.981694946638863704e-04,1.217349733487675841e-02,7.012934193748052505e-03,4.975216104302158243e-03
3.251703474705546675e-04,4.078488506138942121e-02,7.506279031441547012e-02,1.375209113865816148e-03,2.227546236949221265e-04,1.162268893149101599e-05,4.614228589109499738e-04,1.961176087215988142e-03,4.903488171945384264e-03,1.264030103369669956e-02
2.621284053389169805e-04,4.625673948067914737e-02,7.842818742054373515e-02,4.151047042156810643e-04,7.603852693732185333e-05,1.212217376306896937e-04,4.230464944671676248e-04,1.965160964721346035e-02,2.955531897789709719e-03,1.938727435423771850e-02
4.631559802572145722e-04,5.111305398096193525e-02,6.616268876330780313e-02,7.721480663660379440e-04,7.133315501968011960e-05,2.297441770236517472e-04,3.796380021079824216e-04,3.249583250600957679e-02,4.071711465920881297e-03,2.473014475964337849e-02
5.400041010932911433e-04,5.787873812550817926e-02,4.885978287622100985e-02,2.056272113009796013e-03,2.161081847440700430e-04,3.346243472420199145e-04,3.094964151086731629e-04,2.969352623819195708e-02,8.893957276251673524e-03,3.442290189742065742e-02
2.614815209762444436e-04,6.347942773678984241e-02,3.356784886728246542e-02,3.141802794983746330e-03,3.550462998665693216e-04,4.333577897993922193e-04,2.287691240107814390e-04,1.032055790708523955e-02,1.293422757386325159e-02,4.749950779525628081e-02
1.757420801929973804e-03,6.308481873151201846e-02,2.195184601616249204e-02,3.373306560087486767e-03,4.850342532895376372e-04,5.235613125948599062e-04,1.359799809359733933e-04,1.211522133427436407e-02,1.220492834023220730e-02,5.280795135942300406e-02
2.562435909823739411e-03,5.719096196723200132e-02,1.317277548889877678e-02,2.851511912569023536e-03,6.031583651051963075e-04,6.030298814881801268e-04,1.889157538860746638e-05,2.026262698585375513e-02,8.823686888020492933e-03,4.424423218025158588e-02
1.806349379204977594e-03,4.981368621745735359e-02,3.483351355223692023e-03,2.095386259245165562e-03,7.067328233786209900e-04,6.697889746890300531e-04,2.209742460828839714e-04,9.978308248581313489e-03,7.558447682520968817e-03,3.120748175173361158e-02
3.585663194901016876e-04,4.083477531686728612e-02,1.232724090509954018e-02,1.727591684916167727e-03,7.933639406255199112e-04,7.221411568408538182e-04,3.635190903753952917e-04,5.255508755975696854e-03,9.055698129064204682e-03,2.682814538138266966e-02
3.963075050608578132e-04,2.859590387140681020e-02,3.287015806588176187e-02,1.920133854371591352e-03,8.610690815307697711e-04,7.587057798048049652e-04,4.877493767760161976e-04,9.560000300170970466e-03,9.459441773851821889e-03,3.256177634291327477e-02
2.751197995636563793e-04,1.952544765622913486e-02,4.667186866108485876e-02,2.328320989286477866e-03,9.083185590233467917e-04,7.784508928599486030e-04,8.297117485605462429e-04,9.150059282304083205e-04,5.461249412988451214e-03,4.041379848284181592e-02
3.266813247131778938e-05,2.340798927324526379e-02,4.330194956169233778e-02,2.730693171518772024e-03,9.339451328479744189e-04,7.807166418341688046e-04,1.313560804060914930e-03,1.183095460618577288e-02,2.104763372224926175e-03,4.397692067293892948e-02
5.779236530045437378e-05,3.771359205179426050e-02,2.528061126655234067e-02,2.702511523395290539e-03,9.371768512178644921e-04,7.652296495861529626e-04,1.388933173401068859e-03,2.203235956416343955e-02,9.132408916937619428e-03,4.179781351197675576e-02
1.369407212435402063e-04,4.827758035184512991e-02,3.064005507140122285e-03,1.019070767073454193e-03,9.179187455943813630e-04,7.321080939363068443e-04,9.494187285817451156e-04,2.758441018031516923e-02,1.217324863097968106e-02,3.555914053010034159e-02
1.004020123481521286e-04,4.708304858869100107e-02,1.656096651098722811e-02,2.654502243984532654e-03,8.767480868416767555e-04,6.818574280348122527e-04,8.349767310448800908e-04,2.669255774136084988e-02,1.166842219161589971e-02,3.019249087143967628e-02
4.109977397470480231e-05,3.852671520976842096e-02,3.037725687582534806e-02,5.933376246866029977e-03,8.143384301706335518e-04,6.153569166150426109e-04,1.641776938024985767e-03,2.100595302419841492e-02,1.089201450344133397e-02,3.104111530000033467e-02
3.890578348319777432e-05,2.716206026458061959e-02,3.489825228271393326e-02,5.947321650737528304e-03,7.314431981003614424e-04,5.338373840214091868e-04,2.787697331295193107e-03,1.819378944516050756e-02,1.199576393409639702e-02,3.664695049576969371e-02
5.163449968715311928e-05,1.046455651247926895e-02,3.103818099966011365e-02,3.139555375996143111e-03,6.300774899052241813e-04,4.388507809245783273e-04,3.487316469273531779e-03,2.398056499477799891e-02,1.398191954602893798e-02,3.935211508433921618e-02
4.150219531793016789e-05,1.337038108077428025e-02,2.554380593350269110e-02,5.802569212603547006e-04,5.135032580079502973e-04,3.322323711679216608e-04,3.737376412111414158e-03,3.575601663417023873e-02,1.380204734600413985e-02,3.628672867536357483e-02
2.778271759853222095e-05,3.964060317328969157e-02,2.172665904404583528e-02,1.793750015296848087e-04,3.835930715272214270e-04,2.160565135947985866e-04,3.907264837786199492e-03,4.770457961188668411e-02,8.725793255286957290e-03,3.336267955141122149e-02
2.830093241700217996e-05,6.353481239669134251e-02,1.630754300600443379e-02,2.441668390413531935e-04,2.406515346894457516e-04,9.258716190839108573e-05,4.321276245100539454e-03,5.711751589297421605e-02,9.275945393121310962e-04,3.468247891744790506e-02
3.406541928713017559e-05,8.554755404200659052e-02,8.273919642189923873e-03,6.888393436362715743e-04,8.887320189332160124e-05,3.577567481466004519e-05,5.159910776281558323e-03,6.341966110052403571e-02,1.090094138977241306e-02,3.439369572167913502e-02
3.635632704972192164e-05,1.048291174489559552e-01,1.244085247408821104e-03,1.141957383166173571e-03,6.332259598423940522e-05,1.665521800992317931e-04,5.814133298868762179e-03,6.523810392694860683e-02,1.636142511144570572e-02,2.387356317088188545e-02
3.894151049366657727e-05,1.127532160547822238e-01,5.173436480581490408e-03,1.127532635269779806e-03,2.151451578289515691e-04,2.972403006863329222e-04,5.136303869888486813e-03,5.994947146470683969e-02,1.600154123566234834e-02,3.311654265227246229e-03
4.555104303468207816e-05,1.018746857528696204e-01,1.650420235801328475e-02,1.029697690562616629e-03,3.746752998546847425e-04,4.253732332742250722e-04,3.450760090966586025e-03,4.504561109206168396e-02,1.154142863956319001e-02,1.796128330377003146e-02
5.401455178760319339e-05,7.814075238084811081e-02,3.319770690521793577e-02,1.373528679327461633e-03,5.338090890304910937e-04,5.485754347688504094e-04,2.853544691816529370e-03,2.190646799841756628e-02,4.745271536412919849e-03,3.149258262650740658e-02
6.206670246558916798e-05,5.473962929547943751e-02,4.667601610482653707e-02,1.944907209652269780e-03,6.651771396484422016e-04,6.646158112668266310e-04,4.250678047284192976e-03,1.436782961054326995e-03,2.601503899626459067e-03,3.728340022079383587e-02
7.017649065896744919e-05,3.680537167336685178e-02,4.744924392625039788e-02,2.045249611976984131e-03,7.757999548582884429e-04,7.714568213371406687e-04,6.057655625721079448e-03,1.588445603031230294e-02,7.248050414800648496e-03,4.108838204151899626e-02
7.887680717749879925e-05,2.139984458409604703e-02,3.355693407472414014e-02,1.626563253153431084e-03,9.152885326189726849e-04,8.672983397861881889e-04,6.926320989529957672e-03,2.023734043662102008e-02,6.700752736302627299e-03,4.588130178718231172e-02
8.742066182608914423e-05,7.782225436040175574e-03,1.257317681936672912e-02,1.608062152643771701e-03,1.061665233517554950e-03,9.506152660343931146e-04,7.415670620194701225e-03,1.955051359640879241e-02,2.850618587784639613e-03,4.770704171074052063e-02
9.502992169592272391e-05,1.771061562182697086e-03,2.656580932524172864e-03,2.556489731080774808e-03,1.100920906041738404e-03,1.020188022905028349e-03,8.177764414922029587e-03,1.559643773591024365e-02,2.948054509841270847e-04,4.066069853800590578e-02
1.015544104754557194e-04,6.298796914298680771e-03,4.145397588380345631e-03,3.818211420756860951e-03,1.070476812951727530e-03,1.075125272878428746e-03,8.800092266159850046e-03,6.055449416914283553e-03,1.180160894113515624e-03,2.490703053982920578e-02
1.069068795918744436e-04,4.880139403095416772e-03,4.296965807976557868e-03,4.607931929612799071e-03,1.212238985549833614e-03,1.114878375102624011e-03,8.958416040781220710e-03,7.240941928426882987e-03,4.320865250377548678e-03,7.417282147093902031e-03
1.107575035265314479e-04,2.284053355957682031e-03,1.419521049768016768e-02,5.006188722407412493e-03,1.458040894020159193e-03,1.139247312749551216e-03,9.004684179480892600e-03,1.765003691894003607e-02,8.217788023315106966e-03,6.154331640594850467e-03
1.128082537108585369e-04,9.037924776836663704e-03,2.434918138295790249e-02,5.389245116718259163e-03,1.244405415834873990e-03,1.148378031532820654e-03,9.205795799439336902e-03,2.349770025247869057e-02,1.201865755724834672e-02,1.744967473589446177e-02
1.129525749995003776e-04,8.704947311556215928e-03,3.910081161939901045e-02,5.918222617151495599e-03,4.473524870817785926e-04,1.142751341147566586e-03,9.418097792880192332e-03,3.009644792068257024e-02,1.485925711480859043e-02,2.932788633526896976e-02
1.111499367805704220e-04,3.647751506413756707e-03,5.586953484631037442e-02,6.696577699688724926e-03,6.211578701554806587e-05,1.123163736893411898e-03,9.510128966126350433e-03,3.747930428252796431e-02,1.651470353963128621e-02,3.610714544412481353e-02
1.073453935134193019e-04,4.953501595257947879e-04,6.179600251654806392e-02,7.169441747856187055e-03,3.582553107734866749e-04,1.090700693811364483e-03,9.546167538932880461e-03,3.596179236234667287e-02,1.703839084041771160e-02,2.854238118972537638e-02
1.015430359886990543e-04,5.521252879829584986e-03,4.647766838272896633e-02,5.684858550346974689e-03,1.071083403502719319e-03,1.046703165613871315e-03,9.588325649617668658e-03,2.178026071360733562e-02,1.500500290371012228e-02,1.002168120382546795e-02
9.386534150403164729e-05,1.579470728666100554e-02,1.557263691545808341e-02,1.592239858915064357e-03,1.202777021137940716e-03,9.927281812320955332e-04,9.607084326834738203e-03,7.355829332164537555e-03,9.320072549525463754e-03,3.109188850950973023e-03
8.449120563873596700e-05,2.892089894669571185e-02,1.300692201429992992e-02,2.531452589425159296e-03,8.801926419664755485e-04,9.305045691736453560e-04,9.573769715446781015e-03,6.453492997915187025e-03,3.003598449787590538e-03,1.926530441541053585e-03
7.357993224645386938e-05,3.845721565009638937e-02,2.701414622440610064e-02,3.337668363843627767e-03,6.815224205271628406e-04,8.618849509036744221e-04,9.503039451928228798e-03,1.672848092115164498e-02,8.649312812040036488e-04,5.536723261526699941e-03
6.134923144097262685e-05,4.064598707980324882e-02,2.900876537895295815e-02,1.134915651818756317e-03,6.749083602066362165e-04,7.887952266299009477e-04,9.407953907133793578e-03,2.522807216853137705e-02,3.418888935978368730e-03,9.671973191541234638e-03
4.819839902491822510e-05,3.584920760479343854e-02,2.668513391425518869e-02,1.124247180475174395e-03,5.937067546354847947e-04,7.131828284120269408e-04,9.280524622315560260e-03,2.568496950229054443e-02,7.286674396645827223e-03,1.164811339491183574e-02
3.454659340788413473e-05,2.690602590621048867e-02,2.125601007987928601e-02,2.648442631753822416e-03,4.069036216363121046e-04,6.369650354171189693e-04,9.116913250756562143e-03,2.235098556825677180e-02,1.029735913922976212e-02,1.531304461823714338e-02
2.055668527169369678e-05,1.610597188403570940e-02,8.974391646527262248e-03,4.977549085243900863e-03,2.865275996052051304e-04,5.619786341764871273e-04,8.924631605156666675e-03,1.872089954824855684e-02,1.206194884097263817e-02,1.894139419762489590e-02
6.439297309929449884e-06,2.838230304314326088e-03,1.068127999053897215e-02,8.003607962765042425e-03,2.454732838067459665e-04,4.899321634202506368e-04,8.701185436797674588e-03,1.185093774582381999e-02,1.188713272099573004e-02,2.044436216068526435e-02
6.983289421316154382e-06,1.472200970441030557e-02,3.025304427242078015e-02,9.637144443802866250e-03,1.118984726901793347e-04,4.223619097888054396e-04,8.434753111348117921e-03,1.414412172197699984e-03,9.723353894369181696e-03,2.167282031569111103e-02
1.893699199373024509e-05,3.491717274329091819e-02,3.614103605500172678e-02,9.221397411866130711e-03,1.044221915747353885e-04,3.605927194848946422e-04,8.134761924524025814e-03,3.827770310357229370e-03,6.827258989924994519e-03,2.446850947792116732e-02
2.994503392163087028e-05,4.903295618317062010e-02,2.018330851496228859e-02,8.299236083435733782e-03,1.129744896181638492e-04,3.057045644423365786e-04,7.823164040364783203e-03,4.278739887841094200e-03,4.088393848561496305e-03,2.878241556093002682e-02
4.048413787975202964e-05,4.482225964184249900e-02,7.891328811552746417e-03,8.086188685618970681e-03,7.202594788509563946e-05,2.585056531495334470e-04,7.475784298196623719e-03,2.049204901153212771e-02,2.216130739291478045e-03,3.344966292715465667e-02
4.831366944320256265e-05,1.800046901919723219e-02,2.814173914061713841e-02,8.104323246831584768e-03,1.666918986851960102e-04,2.195127096890977397e-04,7.043251510928003403e-03,2.924439498835274334e-02,2.498323088070642135e-03,3.323516812551465666e-02
5.130413786092925137e-05,2.070621665866718281e-02,3.221979504176319953e-02,7.359197112372206639e-03,1.055874500589377291e-03,1.889388640626676202e-04,6.573645952948118341e-03,2.262992882354417090e-02,4.467141914363996838e-03,2.113394699151344147e-02
5.324151878061734897e-05,5.252111840637778417e-02,2.691433450602065056e-02,5.915268153722255846e-03,1.628530962745276291e-03,1.666894069905742201e-04,6.169221022932337359e-03,1.110591859855294440e-02,5.137103888985785662e-03,4.022245489391546198e-04
5.796305552534866950e-05,6.376512689816329904e-02,1.817333464821261485e-02,4.864455381134985719e-03,1.021947134155410135e-03,1.523654678292007893e-04,5.724755058531882240e-03,8.730066541731119900e-03,2.977362867769745274e-03,1.450129275174220564e-02
5.682994476642180067e-05,5.427670145702966770e-02,6.931391073726695176e-03,4.769543427009391608e-03,5.753260384721253882e-05,1.452754798286291890e-04,5.013857876894395674e-03,1.186266463899035908e-02,9.202791811899560265e-06,1.576354216972430944e-02
4.094145194005607765e-05,3.628366696243316702e-02,7.832416741820361029e-04,4.883652277813764660e-03,1.307179981145808968e-04,1.444541074099038841e-04,4.252219017877169153e-03,6.430522069231524307e-03,1.412105933841582058e-03,1.075693368706475209e-02
2.822050615140916712e-05,2.270651374461022179e-02,3.223123491445782120e-03,4.391505590777057891e-03,9.985853979216472061e-04,1.486881300655597596e-04,3.937317705900834387e-03,7.071161770940306672e-03,1.009558636695905877e-03,7.938921176035016250e-03
3.804382134297703768e-05,1.531340560633359833e-02,1.466300981773719335e-02,3.517763686316834667e-03,1.297124309492754535e-03,1.565486111983064633e-04,3.593798443407302239e-03,1.439463211743071888e-02,2.985974090922832161e-04,6.532128962419567544e-03
3.273270459615981666e-05,7.765897538739695120e-03,1.898903890383098897e-02,2.800563229353006476e-03,8.858255478257071307e-04,1.664285316560954093e-04,1.813087001920846413e-03,1.233051413023823761e-02,2.067947440415903500e-03,4.931706011124095679e-03
2.979354889275460320e-05,2.433058486436618078e-03,1.026421068048715031e-02,2.194058883630538564e-03,7.724460029732325376e-04,1.765849403756683956e-04,1.301443303689375297e-03,1.361648246064446968e-02,3.893710604129499778e-03,6.870802038076582324e-03
6.956096744650705184e-05,1.324860094181460474e-02,2.911886949758023344e-03,1.504460637059319575e-03,9.978258967779868663e-04,1.851845713406511892e-04,3.287796069024379909e-03,2.508662539279355591e-02,4.213567214805509845e-03,1.286075348255160539e-02
6.450478837057641126e-06,2.593417014460769679e-02,1.143506335839308136e-02,9.276434025473079010e-04,6.887042427800417824e-04,1.903517993061166363e-04,2.732071613508434572e-03,3.684474098511837659e-02,1.293178569756804749e-03,1.516887546954936473e-02
2.861764132653782909e-05,4.100070594106237920e-02,1.557158423678628792e-02,5.192602980074274496e-04,9.550496230186007632e-05,1.902177580843572092e-04,1.680030139275825790e-03,3.735349653290850197e-02,3.725718450091630458e-03,8.564420386778655650e-03
2.165327771473432431e-04,4.903373021042271851e-02,1.778443748551283149e-02,2.127256473584517634e-04,4.928397993116228736e-04,1.829694255743036105e-04,2.474290612918469967e-03,2.789004637470021697e-02,6.973078499071413278e-03,3.902448014344488472e-05
3.400931944394551217e-04,4.050064047197910605e-02,1.514710988193751842e-02,1.459344582690599119e-03,3.732567154359876663e-04,1.668974893786700727e-04,4.309422506492369132e-03,1.690546461571937678e-02,6.952227078703133480e-03,2.049513255740769042e-05
4.127868632746401964e-04,2.248541072092802642e-02,5.782525506781094685e-03,2.469416600903830486e-03,2.936277994733499071e-04,1.404418452906333798e-04,5.250443576726896745e-03,8.100051369900418061e-03,6.791666868255706938e-03,7.948039023156008853e-03
1.858990083511887761e-03,1.092228450595886940e-02,3.984747380003284337e-03,2.542175426667982879e-03,4.315602515480773389e-04,1.022336469491297339e-04,5.479441610790115359e-03,1.092695229584869643e-03,8.968509347915499738e-03,1.295173528071131078e-02
2.613931731097411237e-03,9.472209496572259538e-03,6.922203815761807100e-03,2.070918229602269640e-03,5.260208358002675189e-04,5.113291671803229941e-05,6.310300289431269340e-03,4.782549880726432411e-04,1.134674702042447712e-02,9.802278433111323921e-03
