6.575184728871496555e-03,1.913542698344195632e-05,2.371453025768388220e-04,3.536548514194188945e-05,2.819304880368652668e-04,5.326585806958531464e-04,7.147678619414248383e-03,1.406321842424864896e-02,8.563241947270251037e-03,1.587810713085941470e-03
3.979467889508037093e-03,2.336618177393897094e-04,4.315264927302087951e-04,3.473080120438614213e-05,1.440870870547753533e-04,5.276155857064125654e-04,1.631207883008791923e-02,1.128940402265994625e-02,8.462280858395928966e-04,2.888002168468106843e-03
2.001236493787091064e-03,4.390976844457922528e-04,1.895510282384577842e-04,3.325149629319322519e-05,2.005855830527005531e-04,5.197714390663125310e-04,1.393770502489654825e-02,1.174235889071030374e-02,1.582937394292133204e-02,5.706812057986196049e-03
1.351334917830484400e-03,6.303555263985962396e-04,6.120221055840131472e-04,3.204203799258540541e-05,2.383582477765553060e-04,5.235196443623125985e-04,4.069866730213635977e-04,1.377161551381060438e-02,2.477455502963188047e-02,1.200000351550560215e-02
1.968928012289165776e-03,8.026910274398594289e-04,1.107625421049900777e-03,3.136780440085687764e-05,2.182509067564038414e-04,5.478483673189019423e-04,1.761935546537817324e-02,1.411254957659478261e-02,2.154912138995596776e-02,1.957025453892230135e-02
3.753418054384320950e-03,9.518218116685545722e-04,6.555245589115769531e-04,3.066820455244084097e-05,2.226164360959115231e-04,5.648776820897243077e-04,2.488369562306688015e-02,1.077671740014437413e-02,1.106220882274603495e-02,2.567389285070871205e-02
5.988518546632794551e-03,1.074035339118633876e-03,1.181728187247575111e-04,2.976877102663044413e-05,1.836025321748753427e-04,5.555847245303336497e-04,1.214125323511055544e-02,3.526649802941867265e-03,2.022781393567625943e-03,2.956191602402605950e-02
6.975943373180765010e-03,1.166283541947361500e-03,3.394558699060841326e-04,2.888627024867232177e-05,9.322522718852309679e-05,5.801704287550863088e-04,9.733497613273758842e-03,4.976127882686523160e-03,1.862579723316726017e-03,3.026401585468701388e-02
5.836766578942328282e-03,1.226261319573846743e-03,1.078056892340757119e-04,2.806232804482953103e-05,1.731501793581575381e-04,6.822263224933475343e-04,2.051488318012970047e-02,8.943648431926898984e-03,3.171017028204180677e-03,2.699956833761524289e-02
3.820398593143588956e-03,1.252466198283070774e-03,3.070362083320787535e-06,2.715520696032126975e-05,3.771342500280603738e-04,7.348431598615099867e-04,1.413981615646220033e-02,4.485037873503149031e-03,5.047895129566833117e-03,2.149114414160881864e-02
2.604728874467355463e-03,1.244238611862186943e-03,1.273880515981080908e-04,2.610594312399367812e-05,1.523130609431643369e-04,6.409583337400840287e-04,3.433637273586071133e-03,5.099021300223079492e-03,5.188882224528808436e-03,1.511853787712489142e-02
2.598081755544532669e-03,1.201783201368448930e-03,2.364273701912036104e-04,2.494640339842654840e-05,6.344144171267822535e-04,6.704298853620771102e-04,2.508127068381589640e-04,1.242233383427663630e-02,1.263669661120542242e-03,7.028008748084096056e-03
3.623145463467719422e-03,1.126168385241192336e-03,1.730404017080568570e-04,2.367562077221441403e-05,1.118083107634608008e-03,1.050302926193128405e-03,4.898412966359360580e-04,1.333531187131934900e-02,1.220269914711561918e-02,8.611028951312743162e-04
5.435310620232938414e-03,1.019300883530370504e-03,8.875031940669257137e-05,2.225524594081402933e-05,6.556352145068910977e-04,1.185742150336064824e-03,4.621236012679779889e-03,8.451099589631411516e-03,1.858751700457266301e-02,2.894480161037292498e-03
7.136296140005959389e-03,8.838801771603578637e-04,2.453177133516965024e-04,2.066799726574635956e-05,1.171119579626333021e-04,2.500857661221574015e-04,1.234652054384261996e-02,5.666424927463875431e-04,1.614569037655989164e-02,2.230707798648581906e-03
7.820895708141241409e-03,7.233409299094655616e-04,5.207859508386872543e-04,1.892095671874956708e-05,3.282725582058726422e-04,1.357821586664124990e-03,1.500354196126107119e-02,5.859712472803307350e-03,9.404308759473012369e-03,8.243448252051428782e-03
7.752365412166958326e-03,5.417753663989281071e-04,3.424648692048497039e-04,1.701853593699877520e-05,9.982089028450134263e-05,2.475497173775077341e-03,1.504486766660866406e-02,6.213476928372807344e-03,2.573628098518911892e-03,8.556426451304242897e-03
7.535127038168756321e-03,3.438222276535906155e-04,3.870078010897146136e-04,1.496073457801291179e-05,3.967333209217797354e-06,2.935335329608238127e-03,1.994125044170917335e-02,6.156505662109786319e-04,4.839927459303473671e-03,1.545082853408736830e-03
6.816023746252106164e-03,1.345444916931139634e-04,7.962268782772162837e-04,1.275574493183600982e-05,8.580062179127380905e-05,3.185464942394627009e-03,2.558426698742224600e-02,5.221038654350299534e-03,1.210943940869472005e-02,1.111343218793090122e-02
5.013453400299196748e-03,8.066821797806899273e-05,2.642109465238462462e-04,1.042072605875548849e-05,1.257925944433602086e-04,2.822920717778557541e-03,1.871515180187027783e-02,6.537537531711059245e-03,1.588811062041985134e-02,2.507168637631023572e-02
2.403231366870023540e-03,2.962110355532913226e-04,5.720569974719625977e-04,7.975558647060766089e-06,7.635651338936251488e-05,1.339343784876979816e-03,1.720005994258565814e-03,4.738076238967903545e-03,1.666123369958322567e-02,3.337230856909510768e-02
4.280154055543962865e-04,5.064578587639875264e-04,8.574713003798146126e-04,5.441905631726438468e-06,4.993259817814928219e-05,6.859130731759953371e-04,1.689953751154535042e-02,4.570605392958996226e-03,1.896971948162774757e-02,3.266076673397620006e-02
3.127123420636582739e-03,7.059478314755066736e-04,7.049174352157967782e-04,2.845488699917572465e-06,6.701983290516811082e-05,2.281430104425924595e-03,9.211773077153295394e-03,7.957523348908788347e-03,2.254854938991089283e-02,2.742008684973435903e-02
5.016506939199695883e-03,8.894048059180825923e-04,6.509997784718861077e-04,2.157993126887764406e-07,7.504203978682048957e-05,2.462496750782501923e-03,1.562993547810890421e-02,1.213382547040028729e-02,2.001391484442649471e-02,2.102305808864605996e-02
5.406268167854245792e-03,1.051767580712360903e-03,7.833369566309562361e-04,2.415829906032185641e-06,6.284145545397559025e-05,2.953414110526251688e-05,3.555192245057797740e-02,1.324830289517383956e-02,7.750286243394518410e-03,7.500158048525624316e-03
5.060483355171885127e-03,1.188565637121178666e-03,9.086657509960997412e-04,5.017054916790082834e-06,5.532682099229783220e-05,4.615319509706876204e-03,3.604240304468340345e-02,1.032246480530274978e-02,6.367737197295610455e-03,1.737785677277076807e-02
5.849395357591844445e-03,1.296259091796591722e-03,9.431750103332574514e-04,7.554629444851658733e-06,5.987436130326041143e-05,8.154714856858655617e-03,2.007870319061247355e-02,5.192689590313556182e-03,1.149061309613616175e-02,4.233836728161916030e-02
8.303030326198222386e-03,1.371808253760274047e-03,8.905172057799809037e-04,9.995057546263054737e-06,6.386600708008083999e-05,7.535747746952708645e-03,2.132958943010873501e-04,2.966316188518378300e-05,5.744066452572684986e-03,5.067605157905536589e-02
1.093966339354774352e-02,1.412258803974481393e-03,8.604829269921182447e-04,1.230560424023629307e-05,5.949002146541875179e-05,3.705028307532922706e-03,1.187495275972131129e-02,4.255921638646196874e-03,5.024729134977081943e-03,4.019127940363412255e-02
1.226696811031715781e-02,1.415923836690279047e-03,1.034045186385724058e-03,1.445504634440627519e-05,5.440060010530954181e-05,6.042490634970386896e-05,1.143675154178763753e-02,7.331509269881384544e-03,1.583232679228979353e-02,2.242161123837607684e-02
1.182890269609245329e-02,1.383518417090990682e-03,1.222178561212668331e-03,1.641421938294831999e-05,6.105156027596289441e-05,1.717109306090295988e-03,1.523785668646230988e-03,9.649581278085709798e-03,2.517906485092050173e-02,6.793323417917596779e-03
9.531162205474879440e-03,1.315821188856691141e-03,9.026498490437231828e-04,1.815662812494446958e-05,7.194800691057384821e-05,2.296052433798296578e-03,1.063224801498269256e-02,1.106423695640558133e-02,3.279727593661440482e-02,4.171016119602004996e-03
5.848173437181494044e-03,1.211281219916906333e-03,1.964946970679030394e-04,1.965907683379049909e-05,6.209155856539642221e-05,2.207366721114404837e-03,1.746884785567179993e-02,1.049308846847581481e-02,3.825582475707352964e-02,7.370236788531736929e-03
2.519731857712753566e-03,1.070972254567048110e-03,5.828731980873437161e-05,2.090217425004945904e-05,4.246512931257712657e-05,9.867232089874116915e-04,1.542106757675713695e-02,7.664527221535083652e-03,3.964634463975746925e-02,2.006973567838923021e-03
1.584824774810240575e-03,9.037866695304919845e-04,2.204620083026778178e-04,2.187071522403381593e-05,6.544762008249027684e-05,1.368302692932499851e-03,1.039499786149274650e-02,3.971129419050469997e-03,3.408864043512221942e-02,2.134970698969922143e-02
3.456415708627157395e-03,7.158762152281114306e-04,1.760317585662521259e-04,2.255399266118901532e-05,1.105815089856471449e-04,3.792447779866319531e-03,1.391124837995022685e-02,5.055223420228375716e-04,2.289037028323277420e-02,3.736243665595499058e-02
6.260478240319984275e-03,4.991041239411550794e-04,2.118896740124686848e-04,2.294602821721463683e-05,6.557816192369862610e-05,5.151625409323260137e-03,2.825103602666769256e-02,3.019853135142828212e-03,1.365315425816536476e-02,3.776212983731223188e-02
7.644018588565156501e-03,2.530528805932528600e-04,3.456213197684790601e-05,2.304568831497765731e-05,3.020614973962087817e-05,4.932946625223845472e-03,4.182411200968676190e-02,6.564100028072897969e-03,1.311071233386469116e-02,2.342128777002452922e-02
7.653209497604937517e-03,9.963075981730319815e-06,9.031956526254181997e-04,2.285668565241648874e-05,6.608720169111647811e-05,3.141722392191236089e-03,4.320126224448328500e-02,8.756488057860787114e-03,2.043478623725785218e-02,4.359334779560053094e-03
8.513322800384024933e-03,2.119625332208860120e-04,1.087986870734480383e-03,2.238748039870719437e-05,2.861168915306405410e-04,3.149371169526030351e-04,3.285202646907666585e-02,8.729386145442998360e-03,3.002180602271444648e-02,1.214944027319791314e-02
1.059910629006269138e-02,4.634248543551760559e-04,6.987871205356674148e-05,2.165108308921419945e-05,6.663882059066060190e-05,2.223542279051475296e-03,2.010953053303285443e-02,7.848246672646523245e-03,3.767415005606195716e-02,2.270223971040149363e-02
1.104177944172298441e-02,7.661521065561117862e-04,8.851798023080259406e-04,2.066475786633163898e-05,7.153928956804088803e-04,2.758565310412272424e-03,1.422461153837163705e-02,7.861618129713039693e-03,4.258721105728777850e-02,2.238944524362724425e-02
8.226640354831980112e-03,9.935994907367515401e-04,3.634323341824955995e-04,1.944963361507706195e-05,1.190172057119691981e-03,8.427346660566799015e-04,1.643276485662505115e-02,7.556240686832577449e-03,4.516936115813675878e-02,1.010844031766539725e-02
4.733519967586138216e-03,1.077316115943240289e-03,1.087985459162722031e-03,1.803023514461545094e-05,7.194264744542717754e-04,1.595795883637539554e-03,1.838642008372277231e-02,3.957706152940101627e-03,4.226083744468360492e-02,3.771644694386274820e-03
3.271634066695233364e-03,1.267836057741533826e-03,1.184692026578162624e-03,1.643394504319928517e-05,5.857575780079286116e-05,2.232785775609016400e-03,1.256525057583699444e-02,2.379987300314850753e-03,2.530788357759685553e-02,8.348612197017397235e-03
2.752792887764895884e-03,1.701481549763629066e-03,1.120277880760769907e-03,1.469040714322164328e-05,2.740929131914751063e-04,1.143402954270404843e-03,2.162917767723521352e-03,6.846201905685243491e-03,1.009369114807157942e-02,7.693688729316773382e-03
1.153270197804469929e-03,1.826626768780449921e-03,3.593874195691222281e-03,1.283088547699809332e-05,5.026243399163913574e-05,5.182786866091339967e-05,6.428206488125197057e-03,7.262826989750690264e-03,5.263737425095946221e-02,1.150683118432578762e-02
7.957655673027657804e-04,1.300918012646874733e-03,3.672244963644104472e-03,1.088759382057087710e-05,4.968015220577058242e-05,8.834339466073241930e-04,1.559105992199876813e-02,6.932803291348170818e-03,8.368257743824253359e-02,1.515074579046277008e-02
1.625004230616502662e-03,1.347492959918959905e-03,2.665929162160316033e-03,8.893010153713106988e-06,4.251734338685271141e-05,1.848301649465825631e-03,2.951040029927919084e-02,8.781691141000188411e-03,9.794043381929329328e-02,5.711504898807616068e-03
2.109922144534002574e-03,3.301581069222362264e-03,3.503378102915602824e-03,6.879190924308987279e-06,8.409298264929497611e-05,2.721770260480508349e-03,4.002279057705397658e-02,1.062315590993938123e-02,1.041798561495496517e-01,1.436968027133094829e-02
3.628431593732743196e-03,5.723109251636308674e-03,5.206130331686226881e-03,4.877101650001152937e-06,3.595699871516022000e-05,2.972359801637972955e-03,3.413976383588140234e-02,9.656248678754652398e-03,1.068541602308463040e-01,2.674235564388646735e-02
5.702062631957233868e-03,5.673811832607090003e-03,4.342259213468049016e-03,2.915978785525393496e-06,1.026467508832853994e-05,2.879338666151512374e-03,1.450931552302806710e-02,8.136106499819668880e-03,1.006823326718503525e-01,2.155542937679294849e-02
7.173347886790477912e-03,3.102843852236623380e-03,1.086431206623456091e-03,1.022733775045805195e-06,2.694802694109931499e-05,2.966169141041888509e-03,1.537729286577124059e-03,9.967481961005296431e-03,8.232307505192140717e-02,7.535211247508175406e-03
8.075886312221296562e-03,9.289631459985909188e-04,1.094753186021013439e-03,7.785881895256181237e-07,3.392504845127621249e-05,3.149860492740993393e-03,3.920924660347270031e-03,1.321157194432964060e-02,5.568678295698843705e-02,3.710430423511997845e-03
8.815798296707906198e-03,7.279945287563717319e-04,9.025847554727010023e-04,2.467276732025997511e-06,2.135112954602152633e-05,3.220545271656577013e-03,1.037128920993451650e-03,1.121485097873140858e-02,2.673424969060267387e-02,8.102754514939006572e-03
8.853763535862615303e-03,1.244397966872422571e-03,1.704722055709324727e-04,4.026341396352150264e-06,1.361109915335815243e-05,3.414517893873900839e-03,3.945268706641610716e-03,2.264358585724302562e-03,8.848242946290639684e-04,3.370694085873864043e-03
7.659931014694966629e-03,1.013248725828605782e-03,3.011839598823346474e-04,5.442818815763864442e-06,1.572407913235721925e-05,3.768055336712299724e-03,4.090033373716301691e-03,6.804125377856609126e-03,1.683749316921553940e-02,9.555489479676073511e-03
6.239583480065962612e-03,1.920371837336883839e-04,8.168041990730961913e-04,6.707997753325446769e-06,1.643389505864532727e-05,3.418204342737318768e-03,5.173442229341565154e-03,9.514807585036186288e-03,2.499623309919897507e-02,1.821752291855659178e-02
6.175455915675497065e-03,1.705649780225019900e-04,8.591702174535103056e-04,7.817528632408016410e-06,1.333954631631068217e-05,1.549896315704957879e-03,6.981414794737978574e-03,7.536830371019362373e-03,2.786732755299389797e-02,9.030831559767317149e-03
7.368213980132874361e-03,2.082916151532071157e-04,4.675533642494465779e-04,8.771410469830420262e-06,1.175098462529255697e-05,8.730832669145407923e-04,6.527045885773745566e-03,5.541301567681227759e-03,3.266907822772225495e-02,1.152734943406787810e-02
8.244844263393327419e-03,2.899402739673135492e-05,4.839206242379284263e-04,9.573917691757282870e-06,1.290657516288600548e-05,1.419429687447915480e-03,4.963762656392962588e-03,3.345267797643912151e-03,4.475383397054866902e-02,2.088023728177652513e-02
8.100889908095279535e-03,1.619242850650003248e-03,1.018610812534927884e-03,1.023348168673229492e-05,1.436820890023091687e-05,8.331761019143681460e-04,7.940275565187029233e-03,1.197118138154210348e-03,6.060029420456591875e-02,9.669416365134436697e-03
7.716763301445535815e-03,2.241516934143229171e-03,1.678043069786211200e-05,1.076239888057854027e-05,1.554163201726092679e-05,3.510745967112146020e-03,1.712593045916938062e-02,5.617692366260648197e-03,6.422055041926263974e-02,4.208111724333336856e-03
7.724066144467320837e-03,1.715956967235066598e-03,4.511897414248211211e-03,1.117634169585887806e-05,1.754867903586925960e-05,3.725330125528971120e-03,2.498249033559263657e-02,5.287384812428805661e-03,4.120513147510926344e-02,1.583621373327757497e-03
7.780402172370923589e-03,8.214192173572120587e-03,9.648476826467021136e-03,1.149396333974366748e-05,2.064243545928702041e-05,1.892683560461099661e-03,2.234667934115835281e-02,2.214306655982763367e-04,3.268318524903366523e-04,2.392996689286622236e-02
7.569582696668157237e-03,1.022071795724100417e-02,9.899036985723903490e-03,1.173667812909924132e-05,2.425723605116486992e-05,9.399359603253935663e-04,9.506034893248430095e-03,4.930305494076611499e-03,3.079684586559446741e-02,3.795761374371830338e-02
7.526945504694067951e-03,5.212144248775265297e-03,4.846139011007463346e-03,1.192802713481792333e-05,2.821822013595350602e-05,2.516864327945456115e-03,5.113617853814264938e-03,6.301491072904837759e-03,3.501406578812646386e-02,2.818452619732755501e-02
7.869572259202040065e-03,1.226098571688275180e-03,4.517478212414234541e-05,1.209247294899327273e-05,3.268915152528665348e-05,5.329171874046774796e-03,1.564492060037484325e-02,3.974612683674797094e-03,1.909096118314961357e-02,4.802824691811877558e-03
7.497786914077062513e-03,3.610280337229270983e-03,1.011157024589864374e-03,1.225491764111574633e-05,3.761162912410456727e-05,6.263199610316638050e-03,2.266525661901238470e-02,9.576409191173824087e-04,1.983948692667080078e-03,1.183653614994445435e-02
5.208817699321998014e-03,2.964957364842184077e-03,4.652327148825811313e-04,1.244135202348173150e-05,4.282151753846860550e-05,3.071394344192317737e-03,2.737630753802748965e-02,1.716786476099588015e-04,1.996269776729564863e-02,1.403761907712849227e-02
2.119387462571987579e-03,2.660380809833572981e-03,9.548597158034665897e-04,1.267792623237912735e-05,4.830911843821590769e-05,2.735396911148568234e-03,2.709194378888055491e-02,1.978423731854140428e-04,3.089753688840401330e-02,1.136252155783847376e-02
8.651561100178917782e-04,2.924870373252987099e-03,1.867285918531241297e-03,1.298754360032322050e-05,5.396449450221816555e-05,6.572180724237810731e-03,1.795708599803106167e-02,2.012814981643210651e-03,3.058302148806554474e-02,1.698557731322552361e-02
1.447175426832868726e-03,2.464774569179636887e-03,1.655809024773641962e-03,1.338978651809767022e-05,5.946410953424758993e-05,5.708803609997609857e-03,8.374933182088671602e-04,5.898456132188023386e-03,1.840083246094003505e-02,3.199797204059027372e-02
5.920655032541322863e-04,1.840748097115693649e-03,6.102673759450014243e-04,1.390628764668951831e-05,6.483253390158115416e-05,2.320487145839453778e-03,1.634484825684886372e-02,8.485935510078614769e-03,9.993305355267361172e-04,4.360580030752570641e-02
3.024271178391850154e-03,2.222308746321532882e-03,1.708956925705230488e-04,1.455923875224710603e-05,7.049890938847077834e-05,5.230946955222937197e-04,2.382708558141761329e-02,7.716808778727975680e-03,1.154786995357657414e-02,4.049026949877061049e-02
6.291242818250236506e-03,3.037661290147328132e-03,8.043973127080761114e-04,1.535824248351975871e-05,7.609646030801308519e-05,1.265554836444456347e-03,1.950775710832456170e-02,5.523894919436407765e-03,1.339875861344647610e-02,2.804362699223465066e-02
6.592184881589095193e-03,3.171360886161283914e-03,1.603617301065900832e-03,1.630170313627250201e-05,8.041404188746743213e-05,1.514009168491728570e-03,1.162743602187867042e-02,3.684714880938599803e-03,6.931202285162572398e-03,2.124340840994112453e-02
5.462074400147215632e-03,2.905501225223496107e-03,1.786655555856087128e-03,1.740371188923067264e-05,8.397042013751844134e-05,1.047823734917149516e-03,9.137566088084058888e-03,9.920659838382360138e-04,1.073535605332045801e-03,2.248400573977236971e-02
5.219353722738028639e-03,2.942260039570764561e-03,1.599514261041741188e-03,1.869079484290509237e-05,8.914543213322156847e-05,4.112802764064421579e-03,1.243466424353534966e-02,3.013965347832251243e-03,6.677899861709404514e-03,1.760627756935682561e-02
5.647114598990350329e-03,2.887898883998749056e-03,1.545099626615157630e-03,2.014369739856079259e-05,9.468776682846515697e-05,3.834724241949888802e-03,1.797463548589027169e-02,5.493886389092861137e-03,1.067690544602506279e-02,2.439634275495173536e-03
5.633795022493217827e-03,2.397681676436447685e-03,1.647003436528841468e-03,2.170238173089509312e-05,9.531713415665419220e-05,6.390348365188250421e-04,2.636488093681946601e-02,4.225839233333325215e-03,1.647569628033749775e-02,2.705480073251972581e-02
5.206459032600983632e-03,2.524313586836336287e-03,1.740299770335855273e-03,2.339035091727446436e-05,9.344850422395388067e-05,1.385328687026495280e-03,3.766107388427251262e-02,8.256513287693735418e-04,2.947962389860230015e-02,3.850638830885078079e-02
5.120115119371076995e-03,3.569392277011868963e-03,1.785647391997097775e-03,2.530738588632017844e-05,1.003404032928818828e-04,2.067771234164830362e-04,4.415243876325253281e-02,2.294881733801974397e-03,4.972709317570567222e-02,3.119908093836402246e-02
5.847941991920056239e-03,2.789881247144803886e-03,1.756662118466040126e-03,2.736430715892595675e-05,1.110869399086307979e-04,2.325564238033061594e-03,3.796551329146304748e-02,5.108396467954929437e-03,5.888523315740445269e-02,1.537294477626059523e-02
6.786809280684301740e-03,2.003140788642835107e-03,1.721584640023255059e-03,2.929231214758587577e-05,1.015179095631801962e-04,3.718605607257971166e-03,2.211838433090333039e-02,7.477907705511318420e-03,3.149683990316352877e-02,6.032644607405182775e-03
6.414332238356420558e-03,7.277081821501678663e-03,1.920911883072436328e-03,3.121068601574386668e-05,8.152629417513522503e-05,3.251102348579200732e-03,6.123365388310733799e-03,6.420921946767424449e-03,2.827760937127039506e-02,7.741562079040313800e-03
4.052988908654035251e-03,7.221052099296031840e-03,2.239118880226978990e-03,3.362294003840271436e-05,1.030820288208713351e-04,1.844905211757684937e-03,5.012720264786010849e-03,3.611583744173385915e-04,8.005875478305304882e-02,1.048555744913465086e-02
9.341275281834495424e-04,2.123717288879382447e-03,2.037624938349860085e-03,3.620577924208234912e-05,1.465434045050144818e-04,1.116872317924238458e-03,1.119804155186186756e-02,9.876182389426373803e-03,9.107049926564765585e-02,5.186639729892849986e-03
1.071612480245604567e-03,2.333698434233555299e-03,1.288551910175190400e-03,3.778742515856447809e-05,1.004399268259492179e-04,1.752604463019582148e-03,1.177325771262463863e-02,1.656228803744912506e-02,6.794669099658952327e-02,2.146127969856746840e-03
1.183484860208125489e-03,3.767214921727283540e-03,1.068134078238402833e-03,3.893519215585764453e-05,3.727275563570661614e-06,2.194100237829079390e-03,6.767352597813851289e-03,1.874888111198599883e-02,3.532488148719530735e-02,1.803348531471662443e-03
1.743051782165028945e-04,4.488052875646087077e-03,1.830564531834166786e-03,4.207124350970065530e-05,9.818770761966142085e-05,1.545624773094117369e-04,1.858841523416910474e-03,1.898456375104766100e-02,5.680688677989077784e-03,1.929477331753871958e-03
5.085707651492431909e-04,4.542254359161007268e-03,2.431624109300182038e-03,4.595152799652813935e-05,3.163219897500061241e-04,4.226151371387754790e-03,4.801703195397982564e-03,1.863023076707337813e-02,1.718904258773906735e-02,1.372466983267618072e-03
4.276354108684476572e-04,1.327144055298314475e-03,2.128174549725144783e-03,4.527654375062830933e-05,9.749203120385631978e-05,8.055296945745322318e-03,1.377944012624096430e-02,1.568035300854710504e-02,2.640642131357108166e-02,1.031090455555650279e-02
8.656800390597367469e-04,3.092004517999468165e-03,1.814183558234244448e-03,4.247413791485674729e-05,6.825132362711989380e-04,8.581775170171100989e-03,1.532094610199071470e-02,8.336077328565541858e-03,2.143572368557723068e-02,1.709035990000100022e-02
3.143999816897721528e-03,2.747776762594835321e-03,2.111959347670076381e-03,4.884019572481554589e-05,1.159091409373634064e-03,5.497810090391761460e-03,6.515049141252180279e-04,1.570329213044882816e-03,1.624862216169635151e-02,2.260968588305972693e-02
6.613284015476528568e-03,2.692016841988977005e-03,2.387504588746423070e-03,5.940655758475060842e-05,6.914216609604557527e-04,1.248709573805598929e-03,1.976381318636080686e-02,9.441034013722551799e-03,2.254449136641134208e-02,2.927923300003864790e-02
9.384019624938082574e-03,7.040361685853090655e-03,2.430390330035186400e-03,4.985063402869256997e-05,9.360814669574030135e-05,3.385003786850978072e-04,2.623384315880885817e-02,1.177509299075683857e-02,3.403184834508959922e-02,2.831569049884285691e-02
1.052787206869694979e-02,7.063862240059084335e-03,2.835574050354497909e-03,3.008970696004006543e-05,3.213184692606749302e-04,2.438898452055800019e-03,1.300154816344231863e-02,9.412297950697919718e-03,4.051471144927015072e-02,1.305996996034716924e-02
1.010094424882374345e-02,5.741139287277900391e-03,3.563402141022401458e-03,5.228632002307834355e-05,9.052836125341207009e-05,6.733495015214597743e-03,6.142496006239019611e-03,6.673044953448992872e-03,4.607154317979151453e-02,3.566605485462404686e-03
7.702543599315104551e-03,6.226270114918933639e-03,4.098818912244185306e-03,9.659349972399031213e-05,2.560282389739670076e-05,8.343197422553075976e-03,1.583144310557426521e-02,6.811059507701988473e-03,5.545612040705039797e-02,3.014676113680498162e-03
3.192081509298524186e-03,8.408028380320908129e-03,4.447235093542320494e-03,5.094396120741058486e-05,9.333286832157731332e-05,6.909131530093395174e-03,1.554534056577127135e-02,9.223559207106067637e-03,5.375177889302398815e-02,1.407093375524760132e-02
1.473753965504849420e-03,1.039295583935632983e-02,4.519523495892084457e-03,4.548094166963290012e-05,1.846480254484688917e-04,5.429364613796042530e-03,1.462593761014441274e-02,1.140619631575545169e-02,2.357319489017804109e-02,3.182735638563151392e-02
3.572126570404016675e-03,9.573618829687545115e-03,3.823894079411528993e-03,5.017303022889905062e-05,9.704773754058606660e-05,5.170423215922557991e-03,1.619363116514552572e-02,1.173928578682872925e-02,2.419799139218365217e-02,4.221308565614231845e-02
3.028799417154373532e-03,4.957986568766366633e-03,2.823081087859592286e-03,2.697385622143144354e-04,1.820168288989860775e-05,4.059151063285235117e-03,1.317968866767401347e-02,9.684948635822036161e-03,5.978780929068087946e-02,4.982601961924553596e-02
2.278623525666211101e-03,5.505577857020889148e-04,2.936869928729983481e-03,5.005653887938916015e-05,1.016754686491493862e-04,4.597458652441630575e-04,1.814579341393475747e-03,5.336159935728403657e-03,6.858417778769093642e-02,5.655512611739263451e-02
2.500165517444836050e-03,1.786111328709397974e-03,4.403594626897449141e-03,7.319317453094981553e-04,3.362159781790966472e-04,4.207454735277202200e-03,7.173431803519978930e-03,1.854538707299281566e-04,5.749634830596332680e-02,5.641838659333316131e-02
2.493238487402476070e-03,7.576178255520559825e-03,5.741762164784613987e-03,1.206407085927048081e-03,1.120126392336579473e-04,7.473234924076178898e-03,2.774393041826302402e-04,5.040356835081949947e-03,3.754687865333743158e-02,4.659854982832779824e-02
1.540172862915718723e-03,1.177898634646139947e-02,5.817269940210248978e-03,7.350539487165870045e-04,6.696296887719502093e-04,8.121175099673458297e-03,2.069716595935475190e-02,7.697151102165677126e-03,1.763054140504502834e-02,2.966854223906437160e-02
5.175127412985930679e-04,1.253743832129276640e-02,5.083190998697987607e-03,4.387471034923258126e-05,1.133512912805278994e-03,6.027494536947008985e-03,3.529911413756513933e-02,7.264615047526000804e-03,5.359509190850042515e-03,5.171650673841275171e-03
2.416310672559715349e-04,1.305036697280772748e-02,4.540785365371896240e-03,2.606209608396759252e-04,6.530458742214615992e-04,2.090109827106405652e-03,3.351565139259157083e-02,3.796545163592132156e-03,2.117291145485103985e-04,2.672481035994753520e-02
1.434853210403135059e-03,1.346808975227467217e-02,4.595366986545857194e-03,3.830220304625560411e-05,1.298037537190348885e-04,1.632232969687124387e-03,2.165685307283685135e-02,8.393639577827911001e-04,4.010437307997172414e-03,5.633911982576111227e-02
2.636362348312720847e-03,1.064221502811451767e-02,5.099772594723918362e-03,5.986754907907437763e-05,3.510228550241786707e-04,3.782314470143253483e-03,9.015034126075072152e-03,3.370392675467913206e-03,3.357361434023440998e-03,7.275663771418497405e-02
2.018240860621267098e-03,6.309644243916947941e-03,5.427314276715164594e-03,3.432898974220469795e-05,1.372689242903331417e-04,5.028840015753806812e-03,6.607646300667976633e-04,1.758605292597326250e-03,1.347989290052328468e-02,7.601136774520819706e-02
9.473349943360194264e-04,5.137653165962061640e-03,3.917271584407826766e-03,7.808160191256060601e-05,4.796188225537380279e-05,5.929590925407325630e-03,4.446861718797700050e-03,2.503983586129800501e-03,4.250964461557619339e-02,7.163266505952746444e-02
4.223730822798558646e-03,2.908225607537810384e-03,1.587844305224561051e-03,3.224611865061834505e-05,1.453256917767048169e-04,5.273520934881948188e-03,3.173103596417108443e-04,5.675228680573548949e-03,6.391259714511471346e-02,6.025003140345053243e-02
5.681962253596874873e-03,1.050038463739176760e-02,1.072194897922565046e-02,8.919439560024359007e-06,1.900288509072236870e-04,2.572510549674931514e-03,6.581794089750356638e-03,5.756912705429645567e-03,6.664418977256496290e-02,3.973558541008698208e-02
5.512807714224661829e-03,3.236007796413731263e-02,1.853416796494078769e-02,2.797001831591127227e-05,1.544335923498520201e-04,1.104707743412142141e-04,7.048115462416751353e-03,4.339271088364555704e-03,5.590122865335747648e-02,1.316914680972544258e-02
5.140662426596723060e-03,4.549836404157689418e-02,1.969116766342229180e-02,3.724827480808920075e-05,1.450603656924143083e-04,1.457943488042866222e-04,1.146128568846136592e-03,3.904928513660245199e-03,3.827643135718199890e-02,9.547081575707343573e-03
5.140808614805760304e-03,4.132274780805272191e-02,1.527310061457120074e-02,2.684118316358381724e-05,1.572418747504697261e-04,3.621588865044709712e-06,1.155136264252800381e-02,4.501913596778209063e-03,1.655393725263269028e-02,1.940803754050867205e-02
5.354737775633893089e-03,3.092771941602250399e-02,1.150147453871716921e-02,2.106688584129072335e-05,1.489396307524423876e-04,2.230632967432387426e-03,1.895055893919707704e-02,4.284908821213734634e-03,3.885145639259318662e-03,1.788903681766374626e-02
5.659986016577409247e-03,2.708710624932212513e-02,1.130521665207439783e-02,2.488059041216293844e-05,1.624369636724580089e-04,5.393998347313539582e-03,2.463227195372453410e-02,2.442922972338174969e-03,1.648178738591202924e-02,1.360183370111699153e-02
5.561301561384092255e-03,2.776791707286089053e-02,1.189073744554559366e-02,2.696534130199294770e-05,2.020581950809791712e-04,5.062566581205033868e-03,2.994402312326333720e-02,4.557357542798879925e-05,1.817618123624428761e-02,8.996845978279831985e-03
4.304320606649980618e-03,2.436743033918358989e-02,1.069860274143231288e-02,2.486467203711606154e-05,1.606316085689772221e-04,5.786459423323304669e-04,3.129784085304026381e-02,2.344799177045044265e-03,7.909473431435639149e-03,8.641657700964792792e-04
2.269151703720196332e-03,1.559072308193137045e-02,8.346019477356515087e-03,2.384265518566517833e-05,6.608391515058593783e-05,3.340338593708452614e-03,2.639950119274694570e-02,4.811327468502699968e-03,1.127607443780968485e-02,6.181372564736099112e-03
1.129181533774254982e-03,5.681765615691518681e-03,5.649415570818544854e-03,2.510198797618572126e-05,1.588697908018337249e-04,2.966505003551463300e-03,2.023057282966261167e-02,7.783716813656327629e-03,2.754627591250286001e-02,1.812146214838877313e-03
1.763283326239864154e-03,3.202300134077420979e-03,2.755872502978230169e-03,2.617423872620053434e-05,3.760741765046158864e-04,7.024874212422651479e-05,1.816719558784849614e-02,1.074195707100246942e-02,2.879799830562024265e-02,1.254941573361821432e-02
2.727282988106747175e-03,1.041334403600479783e-02,9.659494583903954290e-04,2.644203587250062014e-05,1.557223343461938627e-04,2.364079532705527960e-03,1.696024849170841425e-02,1.310349493837281200e-02,1.527368149249225607e-02,2.198465486347020437e-02
1.828078204697809392e-03,1.421614868949491392e-02,1.336601869511115648e-03,2.702452901745033682e-05,6.276121585032096292e-04,3.256691514807690327e-03,1.046676404199149181e-02,1.447160251691446617e-02,5.303785717305237873e-03,1.692613086114133983e-02
8.994729639735665619e-04,1.422611079493664096e-02,2.066595870052628531e-03,2.819106419212720813e-05,1.104543649745978739e-03,3.926772193993714570e-03,1.296307202653095274e-03,1.389033287150068761e-02,2.965073740981712808e-02,5.010703470785035987e-03
2.910605380828793984e-03,1.305806948296438924e-02,3.173372629665541320e-04,2.938411313912767659e-05,6.356382440973478050e-04,4.684650204922754385e-03,2.509839614260597502e-03,1.058418153996968682e-02,5.718369184371184522e-02,1.237216616773794331e-03
2.193018735455369052e-03,1.342105307732818428e-02,3.863441925433429118e-03,3.043159105920058673e-05,1.409545119546821990e-04,4.958204665901710419e-03,8.261560137781428885e-04,5.718551695429942468e-03,8.429645975461839968e-02,1.024187512046146123e-02
3.633237557972084867e-04,1.504060201109951034e-02,7.412427168205558935e-03,3.155202004351391904e-05,3.551514690535976680e-04,4.495696989671714786e-03,2.561481300454657248e-03,1.575475724408673030e-03,1.088463715211587940e-01,2.093935391157236703e-02
2.180333656254490864e-03,1.484662261394046820e-02,7.682931291086393319e-03,3.278797475194355885e-05,1.305164797943605818e-04,3.643542249811449352e-03,1.334722880082335299e-02,1.393849915271816193e-03,1.309045173928667094e-01,1.938593121876513309e-02
1.944926583219422443e-03,1.002673565186490423e-02,4.375575727318899155e-03,3.399769903870443737e-05,3.027829085578506469e-05,3.071799869012444093e-03,2.802335091599062605e-02,4.695474927682371721e-03,1.398167855589419195e-01,5.584187535518293777e-03
5.157985219670067640e-04,8.957236374418061156e-04,1.722953623006525650e-03,3.512135360650116077e-05,1.216478643265700557e-04,3.347187195645198558e-03,3.549257782034272168e-02,8.548946188250914832e-03,1.132243847461586878e-01,6.251210604041840951e-03
9.745847351698751909e-04,9.490281688353068706e-03,9.354221859745557102e-03,3.618939309877320011e-05,1.623516098138997124e-04,4.334593503391419994e-03,2.913476427905361751e-02,1.104756442061103489e-02,4.581497180904562511e-02,5.045663272833785656e-03
2.523898589460343064e-03,1.694700642338938315e-02,1.529419294630722168e-02,3.719883817223024251e-05,1.157045569497585312e-04,4.897961068088804715e-03,1.444269210691697530e-02,1.135612605810848094e-02,2.887954781775035201e-02,3.575092043356406773e-03
4.078414446915279781e-03,1.672273257329139409e-02,1.531966252276054097e-02,3.810817165097560739e-05,9.269677623031270114e-05,3.701059389859687535e-03,5.548856143087763440e-03,1.088188275992267931e-02,6.441446780750979817e-02,3.920601469762406178e-03
4.579916272569182351e-03,6.908404492070937750e-03,8.777236160934256265e-03,3.889601689764952746e-05,1.080060943641595483e-04,1.152404779532018898e-03,1.034706518760290274e-02,1.026001047446299316e-02,4.815090722190167039e-02,1.135474850111892718e-02
3.511357415909574682e-03,6.353154380637224610e-03,1.296935670525956410e-04,3.956580831111145604e-05,1.119266216548194171e-04,8.911903810388113268e-05,2.186007054684629969e-02,8.159164455322874890e-03,1.009458191379462508e-02,3.308041678072937142e-02
1.877685367272123769e-03,1.258096970494372926e-02,5.742100262887455710e-03,4.011854637939087298e-05,1.058254641489793531e-04,1.627011920942344776e-03,2.835743702726848531e-02,4.088183007744647379e-03,1.343209372653680726e-02,4.743216181033064333e-02
4.128309760576942935e-04,9.107242957588437132e-03,8.083210615868354973e-03,4.054835707253437416e-05,1.091313776572014869e-04,3.920675610040725602e-03,2.671857492574323742e-02,2.986529077219349975e-04,1.557260444352453338e-02,5.222271755641273022e-02
1.382795095928406092e-03,4.361699335499421779e-03,8.966853395311349950e-03,4.085571424769525705e-05,1.026149654922771956e-04,3.261968860885742540e-03,2.172958300292405706e-02,3.234011614012463447e-03,1.521354205843018607e-02,5.511086725930696567e-02
3.317589109586836695e-03,6.472557139236988569e-03,9.599277153085842423e-03,4.105424116483857080e-05,8.480600584384636307e-05,2.004842856674030494e-04,1.821520262058362594e-02,3.966588461084782392e-03,2.276901564260667629e-02,5.741230893326028373e-02
3.876265287562223431e-03,1.383336547369464452e-02,9.838092473239514954e-03,4.116355068018501051e-05,1.051529678987250750e-04,1.489328379437155139e-03,1.726583465149136853e-02,2.265694640769510323e-03,2.287502233393488155e-02,5.019474779564772615e-02
2.826471464035541434e-03,1.960431466683960552e-02,9.881066024815350277e-03,4.119563895710299465e-05,1.491967023070442930e-04,7.406030422235991258e-04,1.652391618074875584e-02,1.211199428780085699e-03,7.672246726164095622e-04,3.047826684899320945e-02
2.184936942335312816e-03,2.071099884899291199e-02,1.017327783729947595e-02,4.115898941873464742e-05,1.065679519120050968e-04,8.649131995913695052e-04,1.402056033834919030e-02,4.909898540060701234e-03,3.673244657290556520e-02,1.174729482399685179e-02
3.060402946474970274e-03,1.866099431413633519e-02,1.023965604666395891e-02,4.108556256733138679e-05,1.363528880621253409e-05,4.191386321198660621e-03,1.253827309410349665e-02,7.825853777827794164e-03,5.966722874123214782e-02,8.914407963497841467e-03
3.776715701896074182e-03,1.494509117046404975e-02,9.424743029828121926e-03,4.102582591301979999e-05,1.114332332426981202e-04,7.927091533191175932e-03,1.602016865737228984e-02,9.821903125330820258e-03,6.357939800291775856e-02,1.786840338546720128e-02
2.949556817271576249e-03,9.892241939765979847e-03,8.147662119474390410e-03,4.098970175776355641e-05,3.334418854865611043e-04,8.060716214355959086e-03,2.233673916449363875e-02,1.074881273575484242e-02,5.926296390800310510e-02,2.189461097174584536e-02
1.992213113934152534e-03,3.353337626810760051e-03,6.582645761412242967e-03,4.095151160314550995e-05,1.191457060710190876e-04,5.698832350235110908e-03,2.611658577810503645e-02,1.070092267791938369e-02,4.698933939617502137e-02,1.703320551410312036e-02
2.208184927591919262e-03,6.633019653505851411e-03,3.265432553824632392e-03,4.097383847633142537e-05,6.563712772544203714e-04,5.628650041085040551e-03,2.683899237392721113e-02,1.038483582925221228e-02,2.251901638791549420e-02,1.717293557181042221e-02
2.038134298301188044e-03,2.125633988168796479e-02,2.182978487020671102e-03,4.119897983803252997e-05,1.128822637705745226e-03,8.967690458255631741e-03,2.677018478032679866e-02,1.017642082903660525e-02,4.988870741390516103e-03,3.141538792114294265e-02
4.556621677053764030e-06,3.453340230896375512e-02,5.935318279413502943e-03,4.158205754618235381e-05,6.573117197672862953e-04,1.144964934127156754e-02,2.324879366285337659e-02,9.471041049099598874e-03,2.014802992490604197e-02,5.040668677030327172e-02
2.386396583335568915e-03,3.652978516266446041e-02,3.614443905495235386e-03,4.189956795425469168e-05,1.311784143752092995e-04,9.568706703610924472e-03,1.087880702924348686e-02,7.472171750396863245e-03,5.594347968444680907e-02,6.201042003071514930e-02
3.399592311067946467e-03,2.665965976732173615e-02,2.300685556636127178e-03,4.231730628348598827e-05,3.617099346155820726e-04,5.013507552697675333e-03,8.300585972128363133e-03,4.533972573724931975e-03,7.412182585291922365e-02,6.896391578330453298e-02
3.734003904437511057e-03,1.727338311720548816e-02,3.265663841787621625e-03,4.338505037151417563e-05,1.329494689353728364e-04,2.206809801071781506e-03,2.265676459035867105e-02,2.499039877305751257e-03,6.551817575400351035e-02,7.985056530428230603e-02
4.276209145906421927e-03,1.907468794100620341e-02,4.398346229721888240e-03,4.482165142488227439e-05,1.799316194880725160e-05,3.410444920096066500e-03,2.253167886803711731e-02,2.869072416381499013e-03,5.431612360103352244e-02,8.971997668945654036e-02
4.308644635632520939e-03,2.715648097624527579e-02,1.370040401882657681e-02,4.549286487877752047e-05,1.371538147379839940e-04,6.741043239884111221e-03,1.141259357838593502e-02,4.476998954557553922e-03,4.931882088762466754e-02,8.402771810069371849e-02
3.375977194695007136e-03,2.769510957789358963e-02,1.596252864760352302e-02,4.600388156447007761e-05,2.276728275816698580e-04,8.332538793528640811e-03,9.480594088214955480e-04,4.398796779206538658e-03,3.319745086393589839e-02,5.987999162021602484e-02
2.150674274011452839e-03,1.658701545470545394e-02,1.108076688053977361e-02,4.881319272674461283e-05,1.382687770312707729e-04,6.246200271815932972e-03,2.877811195184148442e-03,1.596991702196632950e-03,4.348358682508442208e-03,2.961140675881822684e-02
1.003768893322008532e-03,3.373261112428722376e-03,4.496848729581556098e-03,5.269803336315481826e-05,2.018492935351166352e-05,2.014059909887226663e-03,2.595341299608621040e-03,2.037886309048324296e-03,9.677620425007372670e-03,3.933619701322071775e-03
3.972422990940164427e-05,3.772274434151686763e-03,1.172356581232337916e-03,5.236625270100347349e-05,1.361052497298554189e-04,1.578359760274533749e-03,1.241249402231170505e-03,4.601689758006823928e-03,7.629193420651953633e-03,1.586302039805112529e-02
3.567384795570047824e-04,7.493648329546518869e-03,6.267697973043149552e-03,5.026576889041283998e-05,3.656712140637256511e-04,3.275487398957021602e-03,1.247450433136860787e-03,6.072730655350183117e-03,3.681858898054215373e-02,3.066713241329816625e-02
5.692292162580075759e-04,1.314832227786808666e-02,9.777166633842579446e-03,5.772183600880714907e-05,1.358064998480375068e-04,3.635513153636748662e-03,5.657782495706809023e-03,7.135473466998665248e-03,4.862444064006750388e-02,4.074596738532791640e-02
2.176644073066670917e-03,2.038194067718097913e-02,1.058966305199794330e-02,6.974664569668625634e-05,6.521981829947126911e-04,3.626000819361939291e-03,1.288797536614714502e-02,8.441355309907314433e-03,3.423638759293690798e-02,4.932926631092750258e-02
3.428607277168598151e-03,2.580733917999586402e-02,1.074445905748975562e-02,6.195391195035272508e-05,1.123565994333830531e-03,3.699527639535129479e-03,2.321730250469822635e-02,1.086853761309833528e-02,4.570839303412111559e-03,6.043231264311688111e-02
3.786413831280804800e-03,2.640215782822636845e-02,1.195607717310064738e-02,4.427753850779297365e-05,6.513208520543415161e-04,3.832151778283338171e-03,3.302035168691476452e-02,1.411878021891463213e-02,2.306086398642824553e-02,7.409316835232634957e-02
3.486074355387825102e-03,1.948218123119219158e-02,1.074774078490783706e-02,6.896985676373451233e-05,1.239064339082905533e-04,3.905664214804051813e-03,3.655142577209711391e-02,1.594269662118800654e-02,3.633592745352370867e-02,8.746140039382355180e-02
3.341181258694405232e-03,6.414656045855135144e-03,3.182413116292772542e-03,1.160817864073372555e-04,3.377931533292203290e-04,3.974726187458220428e-03,3.397394778627556289e-02,1.506755186751263832e-02,3.751048426521029489e-02,9.736996427347073546e-02
4.022166996836090865e-03,5.338742893864226180e-03,7.061394283891611959e-03,7.326161906243296423e-05,1.146547542632158132e-04,4.180848604895760247e-03,3.206363942608235484e-02,1.303229695667905072e-02,3.745122637671231824e-02,1.008634847499315229e-01
5.259989629043936368e-03,9.651418115469077158e-03,1.218936810243502478e-02,2.020802389260710087e-05,1.506369022286797730e-05,4.421495078899457393e-03,3.370852996000912871e-02,1.111624574882792010e-02,3.649306163535599723e-02,9.859282332664867643e-02
6.082978633387815456e-03,7.575633437013546898e-03,1.082090499520585794e-02,7.901053971795991718e-05,1.068440787654556469e-04,4.429561590772347103e-03,3.378118614671889869e-02,8.307816069723351210e-03,2.577190151732852014e-02,9.715497246407543697e-02
5.715928730292363369e-03,3.086561717116167482e-03,8.536505537412137148e-03,3.024049688468279464e-04,1.489193269384688531e-04,4.409569488168544986e-03,2.973525513709637802e-02,4.218126386806286647e-03,1.010991414456075335e-02,1.002756918843160927e-01
3.817746844985030630e-03,1.077804795448732839e-03,9.064986370358126683e-03,8.562139473623089718e-05,1.022053635710344047e-04,4.929158433863626773e-03,2.797147233263214475e-02,1.015604649400832617e-03,8.870028711203341298e-03,9.907011272848097183e-02
4.256161784560515571e-04,2.567367550439852639e-03,1.061835265566961860e-02,6.938553502541222042e-04,7.718531729070078010e-05,5.543015889009248257e-03,3.310325848639444901e-02,5.875509499646023670e-04,2.874641119213003013e-02,8.211090423731398635e-02
3.520533136449072262e-03,8.326289158450061404e-04,9.912835763697872352e-03,1.163808022604566339e-03,9.423689567253266616e-05,4.702581878310347144e-03,3.848636932130874988e-02,1.938768742016845972e-03,5.448455173649342786e-02,5.527050640194726416e-02
6.234815559854237077e-03,5.107502273418647624e-04,5.530471879159279576e-03,6.871891557003714833e-04,1.039580396776070757e-04,2.441361428123030482e-03,3.567287885848359485e-02,2.986508909116909923e-03,7.200764748787727432e-02,3.926814562298330813e-02
6.677564231678949878e-03,2.597504322320569586e-03,1.496349237471514357e-03,9.242533061620429179e-05,9.533153568013891775e-05,1.515231247245201222e-03,2.741652507941860425e-02,3.422891265304441131e-03,8.420541862262578836e-02,4.377585936739429584e-02
5.675557726063404189e-03,9.442067437578038208e-03,7.606019468784861945e-03,3.076828731423715416e-04,8.732558001927761084e-05,3.504435425359698607e-03,2.260763393375455829e-02,4.222956067310531213e-03,9.524570351091904419e-02,5.335191634595444488e-02
4.618667233564989309e-03,1.627436423291850690e-02,9.049180902677877308e-03,9.297565864952189610e-05,8.734573888573459095e-05,5.706370912796430127e-03,2.316393355456530107e-02,5.516557941177332308e-03,9.314460949959872671e-02,4.669267088143202321e-02
3.711936305788048843e-03,2.117521475563247796e-02,6.119658174782768162e-03,6.530185541133171079e-06,9.545976361106006712e-05,5.114355511464526230e-03,2.480237501924736909e-02,6.716158400608949509e-03,6.486940633317933580e-02,2.537312971635857783e-02
2.746990082472728235e-03,2.324160953762918411e-02,2.714480799037764791e-03,9.222385288661020099e-05,1.042740406124417388e-04,3.341676053723475343e-03,2.615138939487645503e-02,7.760785451905400333e-03,2.263662180809653673e-02,1.145742238285714018e-02
2.638496287026251014e-03,1.953978736159188434e-02,1.296478899478573435e-03,1.171487518773284612e-04,9.472484967382306350e-05,3.763777472094286241e-03,2.758925146628794095e-02,8.570958391344106475e-03,4.873333814441354293e-03,1.568544033265410406e-02
4.063739947861489191e-03,9.018454260844768061e-03,1.515557465593806189e-03,9.431081472517166900e-05,7.794671984900682093e-05,6.008606954338682402e-03,2.522245755848971996e-02,8.276193994735623130e-03,5.871937460769093703e-03,2.456198168157808920e-02
5.412356815496672906e-03,2.150416461301926825e-03,2.959573132788602227e-03,1.159502005660307698e-04,1.036126906815092424e-04,7.366235742874132492e-03,1.587159278193996451e-02,6.440871528505364395e-03,9.077579424408125514e-03,2.577152872557921318e-02
4.576873340920209129e-03,5.832702642675678673e-03,5.216531466727134317e-03,8.986106827864102735e-05,1.511770844926562318e-04,7.477930455983214549e-03,5.010198327485370848e-03,4.095042412701925712e-03,3.075675489209131475e-02,2.729720422493212006e-02
1.929534072282208324e-03,1.469517489470251051e-03,6.298702490367665517e-03,3.070955198451474718e-06,1.096737864896800012e-04,7.561081228229523700e-03,1.204992372001121529e-03,2.389523957383679446e-03,5.557191084870234665e-02,3.782513813306866840e-02
7.418518943418307048e-04,5.143262012042958652e-03,4.633915860453047091e-03,8.851956323042919851e-05,1.861098343178494026e-05,6.801970889544742618e-03,5.239578782180366427e-03,1.235779107221302801e-03,6.803532458044858622e-02,4.545728740320445493e-02
3.026150358679941671e-03,1.097986000662479894e-02,1.860916986805733050e-03,3.023588224411961141e-04,1.201541034302287662e-04,3.567380074170780832e-03,1.147416944351887375e-02,2.395585875681161903e-04,5.132086864864724568e-02,3.504731663597539931e-02
5.410075630429897822e-03,1.839345934058126894e-02,1.398087842981514135e-03,8.638837158500103680e-05,3.456355857487479065e-04,4.977881525181228990e-04,1.659226327087944680e-02,3.901218139811947309e-04,2.022009520068543398e-02,1.479412670231841295e-02
7.209349728563825034e-03,2.804114461487965462e-02,4.369064963071925788e-03,6.937616818711846113e-04,1.321599476568382212e-04,1.360197498993334555e-03,1.984844229056580839e-02,1.119765625103127894e-03,7.230150306179713819e-03,4.159103912757517070e-03
7.158002376634713115e-03,3.255690443358990466e-02,7.535735183744426795e-03,1.170720881538730128e-03,6.428431780208400783e-04,1.616089536480859543e-03,1.769327224111710145e-02,3.604397168551363908e-03,8.378284260489216734e-03,2.471199127560068723e-03
5.469195627842922229e-03,2.166690685956989756e-02,5.947141403146120192e-03,7.009002672695572493e-04,1.110062067939579945e-03,4.151219085634979405e-03,6.857655767669040142e-03,8.086566478657776502e-03,1.497683054003164094e-02,7.958687431203289100e-03
3.654607764330952951e-03,4.009664533405086183e-03,1.275500787909522290e-03,7.866054716510216321e-05,6.324975467437164755e-04,3.362421921581659930e-03,8.168815685297536877e-03,1.180039966740693488e-02,6.975672506957375507e-02,3.023046672627556150e-02
2.542941626223682236e-03,2.847032292466567319e-02,8.893491795398222877e-03,2.957467744074717938e-04,1.520741857397743990e-04,2.068964672405314547e-03,1.897248792352888846e-02,1.185658995551909685e-02,1.109371061651155677e-01,4.670726433491341478e-02
1.691650069963089196e-03,3.549431263895976713e-02,1.118205293776579345e-02,7.287056282222996852e-05,3.762829215307221466e-04,3.470502160471345288e-03,2.365114480133960473e-02,8.312991788945090291e-03,1.038042678153142245e-01,4.612734507613164281e-02
7.376771729408320702e-04,2.550893487626088377e-02,7.844897982691926078e-03,2.562265987868839369e-05,1.620134087745090561e-04,5.219798939581875297e-03,2.595134967290299230e-02,3.164008849124605102e-03,6.901603024493543903e-02,3.664136409771501929e-02
1.892942160087693641e-04,1.139427394986975740e-02,2.132937546363969372e-03,6.876576939793409998e-05,6.703276626188612772e-05,3.226877447143938586e-03,2.749768396227510528e-02,1.737850363696118129e-03,4.578578363733703388e-02,2.676245609897997743e-02
4.260888331337770590e-04,1.044550095554166134e-03,4.002080431901697440e-03,1.126795652828282198e-04,1.616931706369960679e-04,1.670072194986838184e-03,3.000269139939402627e-02,4.906545723671529823e-03,3.764101191138108371e-02,1.195631790277402150e-02
9.171836116224848807e-04,8.386574644369674744e-03,9.781853487753858212e-03,6.681300899814534015e-05,2.145804791119454522e-04,5.149981511638470830e-03,3.978874917452877163e-02,5.571620232081288433e-03,1.967684395223547045e-02,1.018365110318156935e-02
1.060093643040681917e-03,2.054994927719075784e-02,1.354567215087800272e-02,4.349075739463072849e-05,1.820710675092362236e-04,5.299783815919052558e-03,5.881310702527096923e-02,4.509248232272947826e-03,1.598613179873927675e-02,2.732125786381007018e-02
8.234199909602498780e-04,3.230872248313450268e-02,1.426997680416786443e-02,6.263152131179039765e-05,1.516240685774318704e-04,3.759226892066126757e-03,7.658952907954359735e-02,3.295714043140833289e-03,5.081188182915744728e-02,2.818562061356376727e-02
6.914565948384633317e-05,3.852024275502587136e-02,1.340264081101688425e-02,7.194999895376585637e-05,1.518841471692921859e-04,2.560857282032767517e-03,8.164856692017878614e-02,3.003357554993434358e-03,7.094105241713850873e-02,1.958085831864320864e-02
1.726933204782383048e-03,3.872386316375034387e-02,1.282070137136803213e-02,6.147749588912345959e-05,1.834655686888739116e-04,2.172993003923343221e-03,7.483146980055320474e-02,4.011806843991743386e-03,7.987198936505693347e-02,1.646341962822599550e-02
4.580311063841329897e-03,3.484571028074412435e-02,1.211213295898036675e-02,5.556451264288923088e-05,2.190679386388199169e-04,2.265684160684990067e-03,6.305255790849176312e-02,5.689857431283814639e-03,7.941496899082789440e-02,2.384059533865464861e-02
7.495396850259255887e-03,2.682373454710269833e-02,9.668655650030182416e-03,5.916292784939251290e-05,1.697674959309847578e-04,3.267387062141744944e-03,4.865302597287420039e-02,6.106813456929650365e-03,6.367054767626205425e-02,3.238883725559807414e-02
9.311287604735853096e-03,1.587412083453324310e-02,6.010678654685808371e-03,6.091226858278374194e-05,7.449825308371922812e-05,6.225651936753722783e-03,3.264438979155505349e-02,3.941832009680487463e-03,3.645890507197224045e-02,2.297872636491378462e-02
9.874289363782326814e-03,7.183961030982789243e-03,3.794426754679534625e-03,5.833094786468448646e-05,1.672884569592716117e-04,1.073232502144683652e-02,1.980085387569397240e-02,5.874795249352155390e-04,1.297006355479385364e-02,1.874603880761650104e-02
9.958782909149787796e-03,2.566914831956466827e-03,3.397802254619316630e-03,5.667980063664564242e-05,3.888421799311506284e-04,1.447101294013886444e-02,1.347155500644878386e-02,1.516144789674309752e-03,9.629485698706035431e-04,8.083648389145324520e-02
9.959682545731441891e-03,3.981173729377798787e-03,1.048595939170801281e-03,5.715337655457313311e-05,1.764195482171392797e-04,1.594649935731912854e-02,1.130469000140238260e-02,1.938227985807083366e-03,1.195766764805497595e-02,1.294900546269272534e-01
9.364427248333402273e-03,1.603553732879405350e-02,5.849204656028120924e-03,5.726874351598084702e-05,6.159531487617745217e-04,1.586181546827741123e-02,9.969697743199796430e-03,1.924959777542360317e-03,1.825002976098979990e-02,1.436391069863314773e-01
7.982904245581021532e-03,2.719213918543307573e-02,1.382930548426876058e-02,5.640062861069513564e-05,1.110989678237027248e-03,1.464296182049246685e-02,8.862208719644049104e-03,2.624224723606384101e-03,8.334352033564010678e-03,1.299645123240142919e-01
6.917281107866014682e-03,3.108684894055418688e-02,1.749008346171816025e-02,5.566803360236103612e-05,6.189913812013294507e-04,1.104947982344733903e-02,7.254938156527350815e-03,5.263900662123926176e-03,1.139371241666290585e-02,1.045136462044041481e-01
7.272740309675409208e-03,3.005748156859123013e-02,1.644465630047416138e-02,5.534206888625278759e-05,2.032837195952220174e-04,5.111145991637621074e-03,3.822357713341706202e-03,1.072975148582195996e-02,1.192316918442641420e-02,8.250636395844854198e-02
8.030977932084331500e-03,2.719223549175238050e-02,1.411377930019957865e-02,5.486836357248521870e-05,3.748807326347121361e-04,2.968585203650827252e-04,1.344710856841506430e-03,1.747125732760940187e-02,1.824627498658390121e-02,8.086326940111375483e-02
6.558926749056266312e-03,2.041801570176799557e-02,1.151383040371979812e-02,5.408208567298408270e-05,5.730638329427272139e-05,1.068676098979824511e-04,5.469444685144666217e-03,2.217952492096117445e-02,5.078262382247939605e-02,1.040011127213656406e-01
2.161101518281128425e-03,1.121486763362778381e-02,6.956408606327702318e-03,5.321323659670939437e-05,5.536277155305475902e-05,3.531554214769878214e-03,1.508152908297279854e-02,2.326254964655350213e-02,5.857471680151873222e-02,1.311984324331502416e-01
2.293479309009973169e-03,8.375324437990530960e-03,1.264182303512179778e-03,5.231857282899401274e-05,3.699502189428986081e-04,6.387892239999328620e-03,1.952319346379094087e-02,2.154880218274279544e-02,5.534554365188484176e-02,1.381714925020632867e-01
4.067154754311258329e-03,1.578551908687621935e-02,1.605023928419195382e-03,5.127277338078705049e-05,1.976136232496456251e-04,6.408472068951830483e-03,1.024098849229063482e-02,1.804264103036173905e-02,6.464923919520758344e-02,1.240144572428371755e-01
4.183995015901032476e-03,2.576311117525756367e-02,3.633717686257755767e-04,5.003492565472222035e-05,6.252027172540411491e-04,4.551715277391939728e-03,7.614711768577817411e-03,1.365816581974949907e-02,7.437714754921931348e-02,1.020705820544456216e-01
4.987222915567455540e-03,3.133007650875541811e-02,1.562366963608955578e-03,4.865655637143876430e-05,1.121926650599585577e-03,1.970861598685686496e-03,1.922893686373835370e-02,1.060813515919383464e-02,6.011528214956203542e-02,7.576090156518991425e-02
6.243925740542804158e-03,3.580339697243838798e-02,2.313929917315651983e-03,4.715715350848927509e-05,6.319187261463291320e-04,1.438774529777360955e-03,1.558385983799685966e-02,1.094569093223641404e-02,3.533653698884186428e-02,4.134185950117022501e-02
6.619179755030696159e-03,4.286294771291587063e-02,5.518147383909590038e-03,4.551852142005746764e-05,1.656901374381632207e-04,4.808758326781873045e-03,2.647239122229426683e-03,1.340309836640747945e-02,3.732176344620747460e-02,7.523532571312991149e-03
6.837086351290509734e-03,4.697116147712297046e-02,1.383069778161468213e-02,4.374306472533302830e-05,3.861797656001722382e-04,5.084777676784953127e-03,5.384833790580004567e-03,1.401960641707582916e-02,7.050679965828440809e-02,7.581001774227480276e-03
8.251910041176462735e-03,4.230379289354441880e-02,2.244014170716480960e-02,4.185794072387403884e-05,1.525846158254531197e-04,5.466622489451416871e-04,8.395736120329899688e-05,1.055395842163789864e-02,9.942608417777107355e-02,8.778024026067331176e-04
9.885229761364184090e-03,3.210340043249495373e-02,2.410518412961274240e-02,3.988722231858187834e-05,4.292108176160222685e-05,5.680510610001188176e-03,1.485752164024543333e-02,5.158710853860399431e-03,9.660357905596267392e-02,9.505100752260667654e-03
9.727488359203511833e-03,2.189273689727312677e-02,1.820476416923812527e-02,3.784693765487193542e-05,1.661645438330627876e-04,8.724321069912124860e-03,2.912157448577225652e-02,2.249285391100428258e-03,6.914857024831312649e-02,6.979587878063003153e-03
8.116836913470246162e-03,1.326081036870718766e-02,1.060746727799695768e-02,3.575783153493082008e-05,2.570937596621272704e-04,7.635498149592854708e-03,3.538659773210978132e-02,3.759969207489269848e-03,3.876580423679810289e-02,6.179114717187847612e-03
7.323246915981152308e-03,9.689944795883581943e-03,6.480589003024720372e-03,3.365171230085522140e-05,1.696491081315098105e-04,4.835637825587305386e-03,3.370935479834408222e-02,6.814189275985932034e-03,1.892551694324414238e-02,1.912144380107545089e-02
8.055977017854142400e-03,1.663833924927434968e-02,6.116858186001921521e-03,3.156388900689646200e-05,5.620416756395165238e-05,1.552685890116998167e-03,2.879084996002404667e-02,6.846183227267265380e-03,1.225312262189916061e-02,2.931773467596463997e-02
8.732800156927884513e-03,3.026036599412877670e-02,6.190573174789544379e-03,2.951925774093651692e-05,1.769061332967546596e-04,2.421639864993230425e-03,2.580288769618028014e-02,2.517435170239860995e-03,1.322767989254949698e-02,4.053817376191874711e-02
8.289368582785195186e-03,3.699487547204935445e-02,3.405852502920875095e-03,2.753613774609934935e-05,4.107026089930171332e-04,5.937140011759252031e-03,2.890993376930418510e-02,3.843064533873773083e-03,1.060927848239429094e-02,5.017559544841462826e-02
7.378082776461280037e-03,2.902805660250215927e-02,2.136694748960454165e-03,2.565301333616722628e-05,1.855185343800831201e-04,7.228323097796210406e-03,4.016600647938050467e-02,9.765514935052076878e-03,4.403721515951332204e-03,5.023307615725822184e-02
6.512470552262176332e-03,1.169186195029858939e-02,7.238370809509744874e-03,2.392347404743946031e-05,5.972121751804821679e-04,6.624535871211431094e-03,5.680661828157767407e-02,1.434547829519925918e-02,2.888194019251637268e-02,4.085470368096834337e-02
5.287507142201759366e-03,5.817777798447966268e-03,9.586631334018930542e-03,2.235727008969481396e-05,1.063342649053891035e-03,5.902761389629244959e-03,7.090355764409628225e-02,1.706041586885331807e-02,4.716476104558615934e-02,3.168680587235062768e-02
3.835899020027728860e-03,1.861682075677446521e-02,9.298946000886322907e-03,2.092527971067476475e-05,5.861505192906322137e-04,5.767318523101078523e-03,7.540943210553223419e-02,1.753992872651138207e-02,4.203163113332325507e-02,2.831075579736953146e-02
3.124079631582708967e-03,2.500219110412212412e-02,6.587103444770573205e-03,1.968323373480251675e-05,1.937429973456201559e-04,5.682427130136079307e-03,7.152293254791493304e-02,1.674789953496561706e-02,1.243985648543539935e-02,2.906408131300062744e-02
3.480979352473579334e-03,2.532678575637561241e-02,1.943233087328368651e-03,1.876346835809053067e-05,4.118619446066902503e-04,5.332317376160937948e-03,6.626116937368133064e-02,1.628036942677181173e-02,2.194185683350904914e-02,3.518510217122392675e-02
4.259685650707126237e-03,2.297543279389990464e-02,1.497204035907688090e-03,1.810893761951465271e-05,1.924583155827442422e-04,4.954637741667069356e-03,6.035659229010647414e-02,1.578745016431703022e-02,4.119292222637230272e-02,4.911129707145097528e-02
4.733076972765351033e-03,2.157112328041667013e-02,6.166292619601395015e-04,1.748198095046989514e-05,9.611245819809493488e-05,4.701235874356258192e-03,4.393842770947336412e-02,1.316882672957784411e-02,4.571428607780853720e-02,6.280368143194972608e-02
4.044064278189449767e-03,2.132446510991246880e-02,2.978677591983038865e-03,1.703137652659886741e-05,1.901814389298586466e-04,4.465688261871707254e-03,9.901569857807129837e-03,8.918031588980239455e-03,4.781587272664410138e-02,6.428075390137429068e-02
1.175324585508315169e-03,2.056279882497085917e-02,5.185046285265875604e-03,1.728777973889196283e-05,2.331247119267587284e-04,4.178088771329228727e-03,3.325525065653098938e-02,7.308742095687220316e-03,5.053231559133504469e-02,5.597616202268078378e-02
3.459374173063895115e-03,1.903786979185495207e-02,5.013562794794412629e-03,1.795209574026340082e-05,1.865991724770037284e-04,3.889577814835729671e-03,6.915451999784899551e-02,9.697664782905479966e-03,4.633950307197466645e-02,5.113310886074898254e-02
7.453818089630140191e-03,1.767238149895914573e-02,4.285282927422416274e-03,1.787331220617191556e-05,1.618453762834412340e-04,3.635482492793004096e-03,8.976156734646703605e-02,1.056078758297623703e-02,3.137726455306165396e-02,5.352217131325862076e-02
8.904267138638132656e-03,1.672177898247606542e-02,3.899198962964998960e-03,1.763563946748064577e-05,1.774155251528715957e-04,3.394122800164276702e-03,9.616815618902757601e-02,5.928578802818995630e-03,1.100155878740000787e-02,5.590127797852967317e-02
8.456671884781722520e-03,1.578787952129350261e-02,3.637411453533882875e-03,1.967389849978365494e-05,1.820719332501692406e-04,3.150242873339000223e-03,8.829878667657602154e-02,1.169155831536325971e-03,7.525481453537838025e-03,5.607933581233365966e-02
7.971996139045946922e-03,1.474993556857803235e-02,3.642547787339518121e-03,2.275219401415457348e-05,1.685794896092619602e-04,2.914847253065116963e-03,6.530050341232654376e-02,2.948692048313894705e-03,2.386407124865966289e-02,5.921052738492806750e-02
8.271721792561843520e-03,1.379755596255675433e-02,3.938739946766458763e-03,2.157452233073882552e-05,1.599156349964748114e-04,2.695973564806850107e-03,3.544763108031641352e-02,7.874228809401456058e-03,4.413610090991806206e-02,6.402611285466758284e-02
8.694677287163452353e-03,1.299349267628580745e-02,4.009401126952646423e-03,1.856751149122546997e-05,1.555603629010806949e-04,2.489489813856887376e-03,1.426232635765843984e-02,7.125624572717623867e-03,6.825209623385079805e-02,5.967970740010253294e-02
8.007397381032321446e-03,1.225147810406263318e-02,3.691669949678440341e-03,2.502114838453752986e-05,1.469361378391938796e-04,2.292156856868047491e-03,9.452241815506041284e-03,8.206208441472191261e-04,8.222978882981016313e-02,4.044730483059626874e-02
5.740596406111644900e-03,1.154064977147007710e-02,3.375551841634058525e-03,3.595683595796133421e-05,1.435494139556430697e-04,2.105132743979143059e-03,1.542957406561738971e-02,9.059998940612516358e-03,7.555060816573887228e-02,1.527804555001059834e-02
3.014294164998254037e-03,1.089856595264282121e-02,3.259311053606835529e-03,2.703724596635713383e-05,1.455019049229726302e-04,1.928980864798297270e-03,2.407810030822503736e-02,1.177057310095122079e-02,6.127994847793538646e-02,2.814468672870758768e-03
1.335503232173009588e-03,1.033586488790909017e-02,3.182068220053064448e-03,8.160946369810374249e-06,1.286514181086234328e-04,1.764093841599535502e-03,3.189133498743089434e-02,9.299207287593690488e-03,5.775121302964233289e-02,1.058546033226051564e-02
5.757994804821335664e-04,9.829160566688487782e-03,3.042785215576326863e-03,3.146819816145786884e-05,1.011820857195401438e-04,1.610839898659001575e-03,3.532458937575103791e-02,4.845433859196452385e-03,5.412538025022455707e-02,1.207618041351701983e-02
3.785676498701031072e-04,9.365595648399834688e-03,2.911278037343542971e-03,7.708665480866715494e-05,1.172167321245558963e-04,1.464846702085864823e-03,3.015465338250449337e-02,5.888027309596337820e-04,2.332726152747297693e-02,8.897542963885105016e-03
1.303952550679821987e-03,8.946959777940508007e-03,2.833753721500709491e-03,3.292110683562451327e-05,1.569217790971616738e-04,1.321542482992492124e-03,1.892957671141054163e-02,2.381468793078365866e-03,3.061363847568374791e-02,1.199602773694873059e-04
1.280125259344812565e-03,8.569587479150798937e-03,2.777177761628371513e-03,6.187698208269190462e-05,1.033303175914700243e-04,1.188303200230236400e-03,9.602272627410925535e-03,3.061175380611337333e-03,6.953024658156967130e-02,1.304487403236535142e-02
1.108385115318730185e-03,8.222465246178135151e-03,2.715321991575894451e-03,3.551539125085638747e-05,2.385578691162816217e-06,1.072886597188780090e-03,4.139252517821233324e-03,1.399368595986846039e-03,6.951629949682694432e-02,2.284191496475952016e-02
2.220148415708138399e-03,7.895978574412038445e-03,2.655884159714739547e-03,2.568989704800312226e-04,9.385366150671253652e-05,9.563761648119283119e-04,1.721277579602521583e-03,3.139254583091301764e-04,4.584177142112317443e-02,2.161104912204874634e-02
3.754705358942702059e-03,7.583205252079642730e-03,2.610043231388066518e-03,3.908263877785074671e-05,3.192109387754967940e-04,8.183256582788951076e-04,6.060699044756349789e-03,6.001613858804810946e-04,2.544004307084622024e-02,8.505425614532446249e-03
3.400525765749149148e-03,7.278161876783867737e-03,2.580001899768523746e-03,7.410237333107495220e-04,8.630622318227943032e-05,6.957361688024583067e-04,1.470103003189270410e-03,3.100545046517386421e-03,1.601772010813314745e-02,7.008785105489106181e-03
5.339252884218050835e-04,6.975548533474274122e-03,2.553068945276250855e-03,1.213631173116446913e-03,7.181063429227234601e-04,6.305008408888119077e-04,8.605437967218248704e-03,3.294137540796319985e-03,8.447602894998948453e-03,1.373722742060344906e-02
3.242916118927246290e-03,6.667541475254408663e-03,2.505856578764842357e-03,7.404526063240825804e-04,1.172091488720018986e-03,5.418239749920089826e-04,9.887194486422275913e-03,1.901156836721159681e-04,4.808664299374122535e-03,9.893222617645530334e-03
5.992089650921485038e-03,6.343866726321051135e-03,2.450083306890390306e-03,4.023285543695340031e-05,6.571614750520977759e-04,3.352881574707498652e-04,4.951772136573171727e-04,3.289503666427127503e-03,2.216020319030426872e-02,1.569541256141108142e-03
7.038929392267290024e-03,6.002727525888468425e-03,2.435881838364090373e-03,2.586439032201673024e-04,7.632554336565520298e-05,1.811053586460396056e-04,8.339716744565331755e-03,5.088181214071675965e-03,3.769768173734901889e-02,7.617854180800394913e-03
7.086770377849100147e-03,5.651908141888031464e-03,2.438941927298761674e-03,3.787773950559742710e-05,1.976944089787320059e-04,2.952044701554223808e-04,6.282562113971358608e-03,5.425838287769648924e-03,4.699304236845616017e-02,1.809459555638821132e-02
6.897045926569221608e-03,5.284211119056264443e-03,2.345194933830752407e-03,5.886830947679036496e-05,7.281716544927106837e-05,2.875045461571939099e-04,4.951077482147138095e-03,4.462803212830535743e-03,5.023744480112555394e-02,2.493300571980270469e-02
6.262539599846750522e-03,4.874510478837619162e-03,2.198609403703740382e-03,3.661011334889734256e-05,1.966451578114469193e-04,6.014764733780473584e-04,1.065270327780508397e-02,2.613173801197767737e-03,5.298360532530906053e-02,1.678943255172524185e-02
4.959249148886210427e-03,4.433113609219998912e-03,2.245907550657502347e-03,8.149378049713392402e-05,7.412099625526718161e-05,2.184952528606845783e-03,1.222290789641311548e-02,1.374560593188849968e-03,6.036454348326310282e-02,8.713322248235318493e-03
4.009690497020183472e-03,4.013693365879468684e-03,2.409056578343294827e-03,3.663349656596947510e-05,6.607588483307283694e-04,3.066472819616646028e-03,2.891185386033561996e-03,1.148921969711033490e-03,6.825896326411126647e-02,3.623400553707271932e-02
4.772423030212407692e-03,3.599176934098434824e-03,2.116046960980522054e-03,1.412510233163099356e-05,1.177457203280989073e-03,2.381743984808082706e-03,4.589025489800547392e-03,7.366587300463550269e-04,6.664868575500876302e-02,4.816140547973732366e-02
7.009052585881910685e-03,3.081535899892964663e-03,1.267860729780484735e-03,3.383986852952352805e-05,7.256984916514568409e-04,1.023481938262004029e-03,1.551010559983127812e-03,1.792032855932751965e-04,5.502831138349008333e-02,4.284578148564547467e-02
8.754220846826045108e-03,2.504921184611242323e-03,7.676569384773954292e-04,4.363471399214203042e-05,7.599437728667151368e-05,3.633531185024810642e-04,1.450963037093158832e-02,8.471929991867965370e-04,4.558910758971517624e-02,3.065564769581329702e-02
8.027462885623115607e-03,2.117819990532465897e-03,1.177911472545967002e-03,3.360649716336454350e-05,3.055768013277271582e-04,5.329514536284420340e-04,2.374170837158333727e-02,1.982853054143749946e-03,4.589645111784012438e-02,1.906301923943713728e-02
4.376762756428799125e-03,1.858613485151379852e-03,1.517704211221606540e-03,2.808630043948479542e-05,7.612350658642682210e-05,8.019355970817868299e-04,3.100578216027508049e-02,6.449079024401094132e-04,4.791019956406729341e-02,8.685426428370919896e-03
6.215684895532185700e-04,1.171713890301913797e-03,4.258957147517036519e-04,3.204498632805692843e-05,2.495214087537205125e-05,8.901582535651950427e-04,4.254216410381072427e-02,3.769821377806534778e-03,4.092906809357541725e-02,1.106413151716798948e-03
4.176255618445387160e-03,5.836273264731690023e-05,1.808104124425893031e-03,3.418349484288980334e-05,7.541592103216314359e-05,9.595566052480805760e-04,5.862488841275792506e-02,7.965039154525141094e-03,2.657743968753478736e-02,9.264655157588602002e-03
4.612148106081929641e-03,9.550397607309618142e-04,3.149700413074172593e-03,3.206486530039067632e-05,1.230089596705320320e-04,9.411411963264620798e-04,7.515057833360395956e-02,9.081293879506251512e-03,1.327414064518713140e-02,1.451722926405159611e-02
3.004526980800322020e-03,8.725341204383053840e-04,2.083148491193102629e-03,3.097379360372916958e-05,7.615279855245986036e-05,8.339374985707938975e-04,8.508781976373060163e-02,7.917999468274128025e-03,3.583233712029051075e-03,1.602077524717619023e-02
1.664588243388397809e-03,4.397666454865345204e-04,3.919460286288657756e-04,3.213445328077737498e-05,5.215474050040398528e-05,1.110028510248753288e-03,8.009923318420605898e-02,6.465529489367461725e-03,4.359765200827986006e-03,1.242274379740557905e-02
1.634558264728603336e-03,5.191640020306240600e-04,1.973624073388343357e-03,3.310011688807162124e-05,7.205263468261033518e-05,1.880621327548029570e-03,6.035704626645233689e-02,5.046451936751586431e-03,8.463891400151149491e-03,2.850570987436376776e-03
2.588759244593551081e-03,9.854749692249464670e-04,1.969714525994120235e-03,3.327418929233753539e-05,8.121651418871070989e-05,2.333331648432129292e-03,3.824338363997878409e-02,3.635365298662391470e-03,4.174929449626683942e-03,1.010283192008287236e-02
4.163347159418845714e-03,1.270988185284122269e-03,1.562465304263438090e-03,3.379527283459395152e-05,6.912717686837891492e-05,1.923924220763416912e-03,2.592132375389416890e-02,3.630307056463549700e-03,8.000301758144961334e-03,2.022378741333718741e-02
6.173153533462816256e-03,1.294169194150350272e-03,1.600175871206919662e-03,3.495164154030527956e-05,6.125588284044653582e-05,1.231649023149696161e-03,2.550216894316711599e-02,6.283003256994497410e-03,2.201546479572867934e-02,2.220581306630832821e-02
7.902108814246428664e-03,1.292180600183344841e-03,1.823046660546506640e-03,3.620345559286632895e-05,6.288039903113350150e-05,8.874890946572495812e-04,3.285670805694835411e-02,1.022579580515429673e-02,3.279139642390162951e-02,1.640841995110151053e-02
8.193015807940120729e-03,1.320851152603569594e-03,1.957983963263211329e-03,3.739188509432695361e-05,6.219794116897799932e-05,8.476426744317712945e-04,4.172195470327529077e-02,1.169172807069849759e-02,4.071659136159669345e-02,8.738831799709698492e-03
6.774180968002697402e-03,1.272634765955020465e-03,2.092792968505086462e-03,3.874439102843422176e-05,5.667445531712514200e-05,1.117595765662078534e-03,4.436756361816456690e-02,7.626905803412093593e-03,4.898010961587449807e-02,4.929002170548075698e-03
4.949578052466801353e-03,1.088144831399689635e-03,2.108746832636547268e-03,4.031384076633063934e-05,5.190692321462086150e-05,1.742782126401072346e-03,3.864066169621149099e-02,8.266953074533742955e-04,5.677026053598829836e-02,4.928692238801641798e-03
4.092270371863686827e-03,8.088997034584271108e-04,1.760246007891628573e-03,4.196906241977181595e-05,4.925961400561812230e-05,2.078148106707361845e-03,3.423839658279586445e-02,8.436958239735734347e-03,5.808664510216419302e-02,5.139545629552683126e-03
3.911868811839878946e-03,5.332555804374080471e-04,1.229603697928779776e-03,4.364821152918122159e-05,4.624444443137234605e-05,1.538770246112469231e-03,4.066717210803431209e-02,1.087074345950347042e-02,5.009863019352366748e-02,5.466297741970979618e-03
3.102436541123524544e-03,2.704053045290595592e-04,1.057088127830310871e-03,4.536856524063546248e-05,4.233355200336738904e-05,6.947873101087329506e-04,4.732576846042618746e-02,8.671223289221687003e-03,3.919425802953181714e-02,9.192277393936253843e-03
1.307608963199511937e-03,1.600662538158408987e-04,1.590147064344776557e-03,4.713006356087978303e-05,3.884762053816455000e-05,3.726658356604452987e-04,3.024719336391652746e-02,4.680394756683951656e-03,3.419612219782847129e-02,1.590433260954099079e-02
3.793403179235362217e-04,8.063521410942228740e-04,2.578876175087616626e-03,4.890785693003016116e-05,3.618410434969687701e-05,4.087474887020181385e-04,1.528040878765905657e-02,2.138610206028240574e-04,3.653061872996990478e-02,2.040661621536168230e-02
1.026266598346706020e-03,1.271993398120674790e-03,3.321821129806164057e-03,5.065289470805631568e-05,3.383471535430006928e-05,2.997063222154582062e-04,6.530136253777296673e-02,3.458224821928877583e-03,4.159919436398654136e-02,1.926382355291312437e-02
1.237002420540530851e-03,1.405381791558903744e-03,3.522089520991195447e-03,5.230053956158185312e-05,3.177750803492549315e-05,1.576350895328157225e-04,9.712028963856940422e-02,3.653782232431658939e-03,4.641060408491388262e-02,1.401689135484648560e-02
1.800695676744670012e-03,2.043275373788030255e-03,3.727939986263406873e-03,5.386815231000004781e-05,3.047992013975698113e-05,1.226075808112890380e-04,1.109923469238505156e-01,1.052141824833839937e-04,4.958075942783665702e-02,8.155504905801634272e-03
1.676293145595947548e-03,3.464346996110460267e-03,4.245946625778053950e-03,5.544636319018656114e-05,3.003581713817098014e-05,2.032638432760101323e-04,1.182187513224152581e-01,3.372604191367482591e-03,4.541785407147587439e-02,4.030152665864915676e-03
5.211301107289560263e-04,3.278145762546524292e-03,4.345183547906146526e-03,5.694665829017895930e-05,3.015031310773133946e-05,7.074377667445309274e-04,1.257860611569092124e-01,4.517820594063333764e-03,2.514398352561651034e-02,2.184725463730221098e-03
3.547867442442189777e-03,7.478565815367736822e-04,3.895585024591070519e-03,5.811163764383021988e-05,3.098493069221088702e-05,1.285681235584648576e-04,1.351576616507653150e-01,6.206155048341020081e-03,1.366711072213147235e-02,1.794441843661230204e-03
4.800017697718694624e-03,4.960070686222119510e-03,4.542520509271878552e-03,5.907661203120728467e-05,3.318449751673874357e-05,2.049161744539384003e-03,1.422167154417008084e-01,1.104979672855991787e-02,6.189951695926904085e-02,1.349096724904769173e-03
4.223122516444839311e-03,3.066547477660214530e-03,6.350017961315926503e-03,6.036492966682695336e-05,3.653157642197555336e-05,3.928503632775048361e-03,1.366859037930478193e-01,1.600819204770423387e-02,1.057430683444863379e-01,9.690077752676730036e-04
3.885182736789936399e-03,1.372063198659984051e-03,4.433987546430548723e-03,6.167921010367877546e-05,3.986550279299044803e-05,3.474308811196051040e-03,1.096139705845005086e-01,1.607879679088028424e-02,1.386279655910569175e-01,5.764907034571559695e-03
3.935517400170960092e-03,5.442292615277712943e-03,6.127901094820605195e-03,6.187919806108937472e-05,4.373360613928912744e-05,1.799327664817936250e-03,6.371324969257502469e-02,1.080194403147978661e-02,1.628051141477566688e-01,9.529311888224069327e-03
2.633734151540550062e-03,2.778303222530688690e-02,2.170917748394409277e-02,6.156734546631430303e-05,5.062090604868641522e-05,1.653630635049511141e-03,1.542298269309996112e-02,3.750620359935505528e-03,1.776271019560704267e-01,6.394813694945411173e-03
3.965003588266009077e-04,4.959521996226457646e-02,3.160879174938566877e-02,6.320386160556461621e-05,5.939432241383741631e-05,3.041274479470976004e-03,1.567028760056780184e-02,2.457848787237555416e-03,1.740534373027591009e-01,3.885078918784268427e-03
2.385012056251819331e-04,5.323674299163555501e-02,2.950400107450277740e-02,6.558525652182678684e-05,6.467299578476349154e-05,3.219761272178909856e-03,2.484614400786388372e-02,7.227780318925140259e-03,1.472003986013481203e-01,1.324202448111200942e-02
1.046112969068552483e-03,4.043856399237482496e-02,1.985362070365188913e-02,6.345359696779226020e-05,6.863051059218443033e-05,1.069995531001976564e-03,2.611212536442280435e-02,9.358560345427445470e-03,1.070687726658471339e-01,1.442225928552750072e-02
2.029765445068710400e-03,2.544657528655668716e-02,1.184867621944470442e-02,5.927815612763938537e-05,8.264635877485346205e-05,1.392307945825577110e-03,2.838960100774983245e-02,7.102556100858299463e-03,6.870239830311722362e-02,9.651034826094589611e-03
2.095426402496911294e-03,1.558150336908919673e-02,9.347228217237582917e-03,6.439633056699424019e-05,1.021691777619593446e-04,2.254354066586301223e-03,1.889180798935725242e-02,1.150249631687090546e-03,3.713419768318696607e-02,6.481584897357883616e-03
2.763249957586178061e-03,7.861676246769805712e-03,8.513123316383985895e-03,7.388039129025966505e-05,1.025397025343926280e-04,1.981301588058306893e-03,1.050500104886433091e-02,5.012582121580123375e-03,1.007326674137905796e-02,7.449979372091444264e-03
4.010059320260060504e-03,6.079368753419828186e-04,5.059562212481776185e-03,6.344336790494244126e-05,9.255985562148171214e-05,1.860624254720746407e-03,3.570353405082421494e-02,8.400847995435049842e-03,9.274281172281774455e-03,7.872665099548160558e-03
3.753977034926394164e-03,7.444354618278033187e-03,6.766607677538682281e-04,4.303290229957007273e-05,1.248216991390335619e-04,2.111630242840827065e-03,2.679317419693923522e-02,8.699849525105508505e-03,1.301427685959385787e-02,3.273111462034401613e-03
1.322139148459092412e-03,8.992728016021056189e-03,6.145520538138442030e-04,6.484172915156600093e-05,1.815773614461100075e-04,2.280757152135450515e-03,1.000530987086501941e-02,6.996783461848242285e-03,2.058994046696974167e-03,4.565280578050604464e-03
1.377825158821160273e-03,5.036153308739284816e-03,6.934756601375555510e-04,1.090512120678521535e-04,1.495759175378483968e-04,2.272265682133710937e-03,4.169740697507754584e-02,4.195282051827384229e-03,1.105979260216100740e-02,1.006235721326858602e-02
2.264827171492531186e-03,3.926729847150895771e-04,1.312252877996695393e-03,6.360723848000942454e-05,6.314130587239861439e-05,2.299104803381219354e-03,5.096344764413163198e-02,1.428192082556122315e-03,1.536245384147678916e-02,1.055315292689014244e-02
9.957752899980977599e-04,2.150670777852132457e-03,1.037886594017874619e-03,3.230956113499338207e-05,1.671696525947254628e-04,2.405502570099313144e-03,5.143330808243731095e-02,1.059497333280891014e-04,1.046343084926028809e-02,8.931508206775370592e-03
9.290229140582176217e-04,9.297957917189100200e-04,1.547145046697335873e-03,6.416727048245365222e-05,4.035544067343953831e-04,2.479582771677155042e-03,6.452997531114933183e-02,2.653495151444397026e-04,8.173194379214633598e-04,9.315913470759091750e-03
1.222918270341775363e-03,5.009788078169964687e-03,1.746745434595555792e-03,2.848923514478265387e-04,2.046728877053674198e-04,2.508682177229596376e-03,8.968753495448458790e-02,4.707937327453323500e-04,1.177168945761956909e-02,1.131614308264436951e-02
7.039497328411334180e-04,6.450152099545383017e-03,4.770576936772231080e-04,6.668008286288263069e-05,5.744938868380455215e-04,2.577695967815918192e-03,1.003967221348051608e-01,2.652463272991673841e-05,2.568432532195418644e-02,1.094628103107577431e-02
2.483605922914567526e-03,5.666579700022910011e-03,3.832202080004214455e-03,7.135979998505063765e-04,1.055509486553712515e-03,2.679301522194118493e-03,7.454890095940511219e-02,6.124312452032338889e-04,3.516739827903141158e-02,7.043310652395136720e-03
2.115497271597242563e-03,4.751879507768756380e-03,5.333923280147340185e-03,1.186111197723233729e-03,5.532485008243549687e-04,2.708292743182497044e-03,2.526404649308951894e-02,1.535265022091345313e-03,3.584581494251926764e-02,2.817585622313784326e-03
1.472211450530631427e-03,4.485746619003577219e-03,4.846886375483615457e-03,7.124582298114560128e-04,2.765678003954636895e-04,2.700199452881465751e-03,1.164761183356042250e-02,3.250958836282725334e-03,3.343012505627699499e-02,3.256052755951533307e-05
3.369531307159613111e-03,4.784058301783696877e-03,4.403660394088490353e-03,6.900301737920327722e-05,4.633697605346811187e-04,2.849441257705728151e-03,1.766919762805661473e-02,5.279364402603207648e-03,3.925848167594899601e-02,3.258225920996488719e-03
6.637732333320075888e-03,5.078418354059973522e-03,4.192120963183478856e-03,2.882286916510493871e-04,1.644565246376450667e-04,3.077774259678487615e-03,2.590222042951523078e-03,6.444099754080584441e-03,5.317125388568842703e-02,7.152447769479801203e-03
7.847121265736875517e-03,3.801418318989996728e-03,2.295002277741683798e-03,6.843737232133318337e-05,1.615426123333884277e-04,2.984494234424762017e-03,1.680496395593809172e-02,5.725736158661642351e-03,5.656890966407713411e-02,7.816469930662097235e-03
6.419539674243378291e-03,4.876986894248346634e-04,1.635945868290997456e-03,2.667210441884823374e-05,4.645654212129481553e-04,2.735224421382021799e-03,2.702661852699173375e-02,2.417390098028234131e-03,3.184738126918333634e-02,4.209738477039647563e-03
4.416142150019511207e-03,2.019781494675982475e-03,4.725697468862434178e-03,7.077539597741037915e-05,3.197085317079393241e-04,3.211864913949139498e-03,1.625266884548848267e-02,2.853635356106473935e-03,1.324458733740516668e-02,1.770417163332215198e-03
2.699079936159041841e-03,8.120194035187917100e-04,4.039678289732696707e-03,1.167792727017928839e-04,4.550689105092175970e-04,4.053518647043036216e-03,1.234700171752234343e-02,7.379318443391518975e-03,5.224509942022641934e-02,5.247283995821955434e-03
4.756795088731519605e-04,2.595534023028421653e-03,3.179590762621699014e-04,7.274472641585293228e-05,9.899315441012585069e-04,2.715250450798639085e-03,3.422643136869320257e-02,8.906891847988276933e-03,6.933147892210668461e-02,1.153031313079112483e-02
2.129724805762938950e-03,4.488439669177786417e-03,3.032127535778486160e-03,5.317392429984349174e-05,5.875487871033507241e-04,2.161090760079345009e-03,3.083282885619749447e-02,8.598353819132575557e-03,6.901924545418665347e-02,1.397065534054308007e-02
3.278664926487502313e-03,4.233726127867420801e-03,4.176142763187028206e-03,7.667578254297992637e-05,3.045609864753436296e-04,7.445059547326235080e-03,1.018844007245005463e-02,8.979634424219777589e-03,6.062862222685942715e-02,1.125989856496551617e-02
1.526857896019325096e-03,3.884272626335765182e-03,4.092235191548562225e-03,8.578746407997708096e-05,7.386516272440680998e-04,8.523530380342900920e-03,1.377037658746098174e-02,9.632297843456880462e-03,4.882343097417590760e-02,7.449967488825685706e-03
1.913374314318871516e-03,4.124786992052462825e-03,3.780440656465760586e-03,7.301204055467441724e-05,2.989674693649777915e-04,4.847761243809452572e-03,4.001750970783927996e-02,7.870039570557797737e-03,3.730942083713574553e-02,4.927498875145173984e-03
3.854553666775339948e-03,4.117085135060262815e-03,2.911992647432439657e-03,7.395401520364365924e-05,5.695399293744431634e-04,1.110500913529511528e-04,6.557757031658432989e-02,3.360513886550045484e-03,2.850135555612211616e-02,2.226831692697812601e-03
2.502628232361186512e-03,4.201961093672105380e-03,1.749249019181990661e-03,8.859329762858564664e-05,9.400421968213509751e-04,3.342406244355915299e-03,7.766612117096123591e-02,8.269004472140837865e-04,1.926795485141383907e-02,1.924803972327629106e-03
5.327046403265577827e-04,5.160862550016120757e-03,1.662640680939867811e-03,8.128568853152864514e-05,4.191014614487602362e-04,4.390479271930065354e-03,7.300695959585956629e-02,2.436397760600741546e-03,5.236860074143386175e-03,6.693308833752123141e-03
1.965340665298472012e-03,5.347762209205074967e-03,2.853994007165988611e-03,5.948986249773747522e-05,3.209722397465079001e-04,4.153177805097524322e-03,6.363640520408181400e-02,3.156054459045541313e-03,9.708996377796411462e-03,1.087944779935650676e-02
1.157664008580999173e-04,2.600374710713115010e-03,3.842146849422904686e-03,8.063276778275783202e-05,5.229253927417398850e-04,3.839580380116421401e-03,5.998653670883578176e-02,6.261198502300305453e-03,1.425118290372977964e-02,1.315517552450009946e-02
3.464951662522584505e-03,9.872435046197121800e-04,3.801360283714785761e-03,1.260728307664501211e-04,3.276642829626782169e-04,4.411612019247218922e-03,6.606352920158473085e-02,1.265790550260739722e-02,3.274863358923328378e-03,1.158523706739793963e-02
5.652189404313632225e-03,9.015211308114538628e-04,3.476407876502217095e-03,8.127924763174866260e-05,2.473640319663625796e-04,5.175908321792428539e-03,8.105990449084268801e-02,2.016762350540656640e-02,1.371223579617520706e-02,6.357160765616158733e-03
5.349740820250626500e-03,2.902766699684939528e-03,3.496442412011107302e-03,1.517710605219708113e-05,3.406674184448623744e-04,3.675486789343343236e-03,8.707142002061574182e-02,2.498539875615851669e-02,2.231337537455695477e-02,1.876008092407424350e-03
4.458264119330489043e-03,5.929913906141615933e-03,3.494205677289613076e-03,8.068573762466722896e-05,3.856280112200617194e-04,1.056820383264326074e-03,5.733220387020487863e-02,2.398420973686978680e-02,1.713768869816777868e-02,2.682189898977263044e-03
4.662706582099190866e-03,5.939932470972453943e-03,3.259675738541927773e-03,3.009797549958798807e-04,3.490367074151301606e-04,6.183072857423374882e-03,3.171342409650252693e-03,1.807765823033255156e-02,2.136335110415293718e-03,7.643648913217767314e-03
5.300594994094708079e-03,4.971667065870469596e-03,3.316297295511083654e-03,8.199928173974122263e-05,3.394399892080197240e-04,8.071237886842020162e-03,5.195793323326893670e-02,1.258618624533762269e-02,1.588908096954060739e-02,1.085492498226512531e-02
5.432793452231620204e-03,4.902280838714167741e-03,3.593994576989063827e-03,6.994748608190156291e-04,3.713158891138283973e-04,6.175421005390565113e-03,5.970218814303264454e-02,1.180706125971864653e-02,2.901909910201904558e-02,8.570925256534290410e-03
5.461943621237742158e-03,5.207172112477313417e-03,2.755496145193932472e-03,1.173393177604628492e-03,3.806859225008753494e-04,2.422477900923219844e-03,4.069699037064825747e-02,1.392405906986278648e-02,3.131680525909664309e-02,3.381135674258166184e-03
5.393137539127294128e-03,5.044982642637921982e-03,2.387737212340680865e-04,7.013860253397286026e-04,3.648619001815769187e-04,7.538053256837256178e-04,2.627619679279297876e-02,1.298028311638015249e-02,2.550609866532102185e-02,9.154841402654071911e-04
4.004938479532284094e-03,4.634046784203235507e-03,1.953781157850251454e-03,7.816292059418939570e-05,3.822524544316259270e-04,7.626808513261270619e-04,3.298726048102273295e-02,5.784859340532111024e-03,2.001032400575708178e-02,3.895833317596811285e-03
1.030887886437402076e-03,4.368738181844929354e-03,1.433455439193149225e-03,2.954459924677568230e-04,4.248595348347037389e-04,3.376429552710128769e-03,5.984255038039387048e-02,4.042278418577700989e-03,1.769859016089917608e-02,9.867354169114933918e-03
1.928229284023296472e-03,4.154713686659146192e-03,1.168387150234578365e-03,7.361953559855116116e-05,4.036506536156449785e-04,8.802087040079493649e-03,9.613484080661577336e-02,9.882824853305376134e-03,1.530159559077932767e-02,1.337630701938516235e-02
3.496919732822990901e-03,3.810487105409827990e-03,2.937460325893434445e-03,2.409877778344829554e-05,3.402844170197039217e-04,1.135894394934900027e-02,1.258951048869542122e-01,9.829392554085096545e-03,1.279569526209356489e-02,1.057019538763992808e-02
3.946565054818728518e-03,3.383711882528325776e-03,2.414334450299590769e-03,7.047199056692145366e-05,4.105814645280862220e-04,1.032903933457141391e-02,1.355903898629982340e-01,8.510080948536077536e-03,1.408204030782212769e-02,3.068743819425443810e-03
4.351915578849176527e-03,2.967078764069575134e-03,8.981937684826237119e-04,1.145035526093257422e-04,5.776907258247364211e-04,8.072359149058632929e-03,1.235558109798951254e-01,9.877868149559432265e-03,1.972784895872785674e-02,3.482610987360090088e-03
5.356889905813525844e-03,2.547803146131279346e-03,2.547860138618456005e-04,6.885502014529078078e-05,4.322664118210086076e-04,5.915841707980003424e-03,9.808663709379744633e-02,1.074126610376234872e-02,2.680588260766469250e-02,5.423643854598990226e-03
6.507968998246680022e-03,2.091775438357793351e-03,7.402038798111934504e-04,4.562090238341984585e-05,2.013211878373443310e-04,3.323953754213699891e-03,6.762691649794544402e-02,5.792896884086124257e-03,3.404723210388299615e-02,3.725161272950599893e-03
6.548573038578727259e-03,1.614844051071384796e-03,1.278635272293669571e-03,6.466018163731079068e-05,8.276066659267201702e-04,6.916966888357552537e-04,4.165060471241534279e-02,2.149342205161428477e-03,4.161553472021817940e-02,5.280474160504534421e-04
5.011875734366523158e-03,1.144061426971248758e-03,1.167338488438462388e-03,7.381937781640475471e-05,9.522019881195240964e-04,1.585983391490347854e-04,3.497963254075648482e-02,4.132485879959301583e-03,4.813191228437375957e-02,3.426997347930805897e-03
3.228939461862032675e-03,6.835723822319091222e-04,7.384582348821571232e-04,6.318749557871482811e-05,7.864742790853322153e-04,8.983184888342801841e-04,5.218724397958775241e-02,1.423676636417988643e-03,5.144924183913143767e-02,7.072461134990516533e-03
2.842260295538872120e-03,2.320328737150969796e-04,4.840373132733109254e-04,5.708479179029395882e-05,7.741123765360296552e-04,1.274247232549396893e-03,7.090233292513090091e-02,5.536952538074793422e-03,5.000311844362908403e-02,8.418640316908310162e-03
3.822291627284224794e-03,2.014670502737274426e-04,3.776232351800958833e-04,6.046933730748906883e-05,8.613598992690755640e-04,6.514888412183894150e-04,6.225036408053113285e-02,2.336155128957511252e-03,4.238943930712880254e-02,7.375806731495322156e-03
5.020613040331070240e-03,6.055296205808636568e-04,2.122870834811057313e-04,6.203014364317457191e-05,7.770058496588537911e-04,2.917016571580323576e-03,2.713522827889779110e-02,1.746549958112634821e-03,2.900950836722272080e-02,6.850302508512279114e-03
5.777489948855116242e-03,9.742611141875310958e-04,2.769914455061979908e-06,5.931715321976428377e-05,6.905839861707312698e-04,2.851130528960803441e-03,6.275114870707487920e-03,2.682823223380279530e-03,1.380177405621770166e-02,9.326276168020756693e-03
5.503119636184318660e-03,1.304001687040304150e-03,1.682882656944755884e-04,5.760032104973134622e-05,9.567120219515516579e-04,9.102011388503609187e-04,1.771965778670597444e-02,1.471328801656813200e-02,9.644640677845461516e-04,1.288633244957514308e-02
3.169185566974524332e-03,1.589827800825488642e-03,2.845149371346288839e-04,5.809326104813300798e-05,1.382990483740264166e-03,2.387605341976000253e-04,9.830478448373319508e-03,2.462116179897668247e-02,8.307904803500590352e-03,1.213028039435728664e-02
7.176133842790596113e-04,1.826778482064864411e-03,3.959472269529317173e-04,5.834287356640944735e-05,1.461855720724256069e-03,5.841277790966803310e-04,5.625167697900504242e-03,2.585122008366445845e-02,1.383244529411697954e-02,4.471847663137852071e-03
3.460623178382331386e-03,2.011663034474415416e-03,5.010701392182756323e-04,5.773864093830761085e-05,1.144423914128235012e-03,2.062717113326273648e-03,1.678096115448124079e-02,2.002788111818253752e-02,1.530415068286746297e-02,5.596036537427252419e-03
3.693724899523212219e-03,2.143566586288346825e-03,5.770109241780332346e-04,5.739927896590272974e-05,6.886836373635745086e-04,2.671755609193338619e-03,1.239555390423577319e-02,1.148883988333132718e-02,1.435763075359692935e-02,1.112440105261247418e-02
3.470957446591978017e-03,2.223092304912619322e-03,6.239900643416686514e-04,5.761327047259847951e-05,1.640428851338164606e-04,2.429241878806778169e-03,8.069520093913309586e-03,2.782042786845623575e-03,1.268535474088624236e-02,1.039797605471814990e-02
4.542147602335394954e-03,2.250128101240643150e-03,6.545828009287518300e-04,5.785862180498324282e-05,3.189349483127406097e-04,2.157145592770554933e-03,2.971707438604829707e-02,4.196760979241698913e-03,8.423862331958586330e-03,6.902257666147663256e-03
4.800265619419669810e-03,2.224092652125505502e-03,6.688011686883056292e-04,5.795680651328304354e-05,4.976073619596878706e-04,2.150564291792150112e-03,4.083478504549843680e-02,7.300620207363858576e-03,2.271404916647980915e-04,3.528664689727504210e-03
1.452056223938458668e-03,2.149246822947661895e-03,6.581649173900186965e-04,5.808255101311019756e-05,3.933924565798492903e-04,2.162532276213358605e-03,4.859391886721739495e-02,5.676070092160485046e-03,6.690477935694932356e-03,1.015077119273122708e-03
3.819317996414399799e-03,2.034823480284056723e-03,6.258475800491107533e-04,5.832128309206534625e-05,2.999782695885033290e-04,2.065730260023990617e-03,6.489627383072738009e-02,5.766556329748935561e-04,5.500375627505674214e-03,7.032546996614083990e-04
6.288817123537715145e-03,1.883215242549175772e-03,5.865464913015416230e-04,5.865324256459832639e-05,3.246488026185306375e-04,1.967973276981104750e-03,8.499251033019797341e-02,5.178234742063856852e-03,2.276680584801382776e-03,4.078636362230999603e-03
4.404704564221172992e-03,1.688796681695850163e-03,5.389600073696903648e-04,5.895398899867192849e-05,3.503691420974564745e-04,1.928052410682488211e-03,9.162899728529926013e-02,7.955054864934829953e-03,7.968135310466412449e-03,9.570068478224948508e-03
1.472154995290108400e-03,1.462881755944688217e-03,4.616007380183917322e-04,5.901129892291230995e-05,3.215570558368640881e-04,1.895036798663376001e-03,7.631796821731051672e-02,5.318538040216170062e-03,6.131038944818449285e-03,1.332704336307961347e-02
6.320227796287657216e-04,1.236616416166818732e-03,3.639633736240822188e-04,5.896865950033269009e-05,2.914007027105860992e-04,1.839335947410825024e-03,4.744618465423463410e-02,8.599488765965532938e-04,1.135435710505504434e-03,1.340393890310634210e-02
9.551007348518939215e-04,1.007230932675911780e-03,2.983569408838838803e-04,5.931632077845796754e-05,2.868620511002931920e-04,1.782843431166514052e-03,1.806347912506771347e-02,5.025362763745285996e-03,8.916562998101638937e-03,1.130639587822885629e-02
5.431871608847853002e-05,7.298785710318627393e-04,2.542314698292527046e-04,5.973818211559996750e-05,2.835718496025686221e-04,1.738045708415829164e-03,5.909838000415192777e-03,4.458458326126004019e-03,1.401371496354828459e-02,1.008728734454305935e-02
1.790544802573268294e-03,4.317057727684417943e-04,1.264732884638051363e-04,5.909286848566023550e-05,2.687367950129639321e-04,1.693202150351609623e-03,2.221097609327764288e-02,3.232012778431753337e-03,1.544315282688138793e-02,1.172042529909985906e-02
2.584223937648174024e-03,2.318776194782766345e-04,6.546278342523664806e-05,5.797373850167374955e-05,2.537209961962870594e-04,1.640722441483622070e-03,2.575197320213502145e-02,5.674865550800775940e-03,1.421747010361794697e-02,1.497012308552657378e-02
2.121260364246948821e-03,9.794165220270546019e-05,4.834970724633305249e-05,5.882239661950307573e-05,2.447460733240857398e-04,1.584520200733142200e-03,1.375855301320392382e-02,8.419725896368530915e-03,1.317993878218794331e-02,1.595401988813214059e-02
1.849211374780440967e-03,2.067522317066490816e-04,3.961815590684893184e-04,6.041977083597575718e-05,2.366379191252810841e-04,1.526856566825844337e-03,6.732781413740826504e-03,4.967533917954946102e-03,1.424911219897955807e-02,1.228536580761535775e-02
1.989153167805105763e-03,6.085048926914248500e-04,1.070562353638604674e-03,5.749722941169773652e-05,2.264667332112148973e-04,1.464730289780377019e-03,2.268191015566694071e-02,3.624632711567661592e-03,1.471499682715501738e-02,5.705816781569766211e-03
1.217731294736690457e-03,5.394284466563188099e-04,1.411557523122971289e-03,5.251276717596082145e-05,2.166421528833375445e-04,1.396032930094465814e-03,2.559412061801510582e-02,9.338999910145201130e-03,9.483846133471970224e-03,6.002823532341656013e-04
8.617410998745529249e-04,1.273539574964427270e-04,9.568068635086143716e-04,5.679045130753458703e-05,2.085692638234895320e-04,1.321441332104196162e-03,1.848456595928223839e-02,7.684992893395073063e-03,1.047153865779854379e-03,5.529995893982316349e-03
2.938908004216222915e-03,5.248464887760660984e-04,3.006301035184009908e-05,6.539038165846326528e-05,2.011219800887570743e-04,1.241575797245048811e-03,1.446497690088156818e-02,1.875191315106545251e-03,9.447760353130905953e-03,9.166122010789734195e-03
3.944119628875713927e-03,1.650186807527126214e-05,3.114950829335707758e-04,5.401785863097919129e-05,1.935865236579424338e-04,1.155886549481003733e-03,2.421259141649642621e-02,2.998231366519543521e-03,1.014376557864090679e-02,1.013534185156081055e-02
4.009194982178366194e-03,7.587479585099926680e-04,3.124347905016893866e-04,3.261567769377177872e-05,1.864156370950177969e-04,1.063986199317361282e-03,4.044356937149391762e-02,5.670615381459663713e-03,5.369997816606105270e-03,6.931553106862166705e-03
3.230155214003093203e-03,9.315618466793372304e-04,8.860828006702175770e-04,5.336869554339860770e-05,1.798830909755071150e-04,9.666342439041955212e-04,4.141653816089744394e-02,8.101644990020938353e-03,2.000726449305411866e-04,1.417239367143703285e-03
1.323811376764181093e-03,6.265491044537814611e-04,5.576870591570940068e-04,9.644903247018541933e-05,1.737142306360765049e-04,8.651158528635093754e-04,1.626593653230958003e-02,1.079328261468990094e-02,3.385943196527988960e-03,2.357166625886672300e-03
