5.664777598009377441e-02,4.975382769127816018e-02,7.599546838678652994e-03,2.891696129178668220e-03,2.753918549730895084e-03,2.246052389628679785e-02,7.805874439249685381e-02,1.626564415078314563e-01,2.387192907304697478e-02,1.106976611491898993e-01
5.182204313018262676e-02,5.352963387658683792e-02,8.177473214199008564e-03,2.658189049302251555e-03,3.133041773330717209e-03,2.234869268330064510e-02,8.546141032647990021e-02,1.572853226753142541e-01,2.090873496129129483e-02,9.978046507905916074e-02
2.987374684530803154e-02,5.738094850957593113e-02,8.746249356543703626e-03,2.400659240844295328e-03,3.522055749050496173e-03,2.104663257862472020e-02,8.597635197043189403e-02,1.205688977959566560e-01,1.634366944525079968e-02,7.460107700988684309e-02
7.262156658592438044e-03,6.151368532850488152e-02,9.457836758924208914e-03,2.117550509997489280e-03,3.932939195294744665e-03,1.993991287608204085e-02,8.056589286564616592e-02,5.137167551289173462e-02,1.026644096876144080e-02,3.635350417283678137e-02
2.549674631888315147e-03,6.558879998809710732e-02,1.035817481835468040e-02,1.806639942291721505e-03,4.335686937442352965e-03,2.056318261495592228e-02,7.791832538244979067e-02,1.390399998828134934e-02,5.847119948974383030e-03,6.125120606547701345e-03
2.821343901475917813e-03,6.918223706933097905e-02,1.118136619415913829e-02,1.465314021159745727e-03,4.705396220265928471e-03,2.313241505049687050e-02,8.320892469705780392e-02,2.627421641304128475e-02,5.268871206375673986e-03,1.705556364901352623e-03
2.025870633524875716e-02,7.303514873846513045e-02,1.182754999239817376e-02,1.091824725766978987e-03,5.107966304576813665e-03,2.650340672023289088e-02,9.231660483350946633e-02,1.904837289759730642e-02,5.523251790445183121e-03,1.468055555376798250e-02
4.416207046469965147e-02,7.810522136745502719e-02,1.265433594160765389e-02,6.848162578798305377e-04,5.601714054137733184e-03,2.939277877046338541e-02,9.980937699887379444e-02,7.724521450185334315e-02,2.812483153361400139e-03,2.208213041585507103e-02
6.602398329075849503e-02,8.287889914529053548e-02,1.359633536689384969e-02,2.407300938307978754e-04,6.051433698409555174e-03,3.080931675356866212e-02,1.052160190386935146e-01,1.081238987630365606e-01,1.167995459578449313e-03,1.331536970181973131e-02
8.020208787254211324e-02,8.528986785243369839e-02,1.427689803403531070e-02,2.451377666386520644e-04,6.333257075014121773e-03,2.954033434636339078e-02,1.073605929667266617e-01,1.102652846025036631e-01,2.493039455835522385e-03,2.838459578645560061e-03
8.935943186296645135e-02,8.828242591702840925e-02,1.609834498729821595e-02,7.729413215322658440e-04,6.742377689728179871e-03,2.476504298297936557e-02,1.012404394904567601e-01,1.030036500035562963e-01,1.968253700128875551e-03,1.283419446961984317e-02
9.752858834293638701e-02,9.541833145898728774e-02,2.056602294404736783e-02,1.340258746259414711e-03,7.579218506689110353e-03,1.711173685653416543e-02,8.648016050247847586e-02,1.002159228619555198e-01,3.159712687645786951e-03,1.496641675906259378e-02
9.991225643025446190e-02,9.756442518001548492e-02,2.292449432415616037e-02,1.954166248503081630e-03,8.166230317980848266e-03,7.891238672949770633e-03,7.013731678652634915e-02,1.047126878749921192e-01,5.489835533331303800e-03,2.094494679410005208e-02
8.847862998946676161e-02,7.792991472744272008e-02,1.411020394593956798e-02,2.627193105095639112e-03,7.289345427837516309e-03,1.606754558233124608e-03,5.615752453702212849e-02,1.110169285258831989e-01,4.496522034726244642e-03,3.794727737226765568e-02
6.726640938893455046e-02,3.902552071621259028e-02,5.707985172654815413e-03,3.351287107651773015e-03,5.151464001480647766e-03,8.975431987285856228e-03,4.244582319242361929e-02,1.075120418437890413e-01,1.842215102393594383e-03,5.333967212948803605e-02
5.089439873183453783e-02,7.999473481632182054e-03,2.307188250130891988e-02,4.105635002130544713e-03,3.861289921208461463e-03,1.124788088682338039e-02,3.166355881652858223e-02,8.258232528092855629e-02,1.071842291561960273e-02,4.816779704680679286e-02
4.499320670803630406e-02,3.646721510395887350e-03,2.632269096305091607e-02,4.912346595313490071e-03,5.194478626252121978e-03,8.219525868198556545e-03,3.181570521889195285e-02,3.627862428847253295e-02,1.853469803238633543e-02,2.148686904868098158e-02
3.963596287616719116e-02,1.481082898130397021e-02,1.739270992369695498e-02,5.821089210366502641e-03,8.417365303888153794e-03,3.356196256030544514e-03,4.212724616613428008e-02,1.036265114526144573e-02,2.437146524730744376e-02,8.842369148406154650e-03
2.754422356619741150e-02,2.204645287511457219e-02,5.052520320088108377e-03,6.789405197984316534e-03,1.104538285697347771e-02,2.802396969740186990e-04,5.081829138039781202e-02,2.672641462598649223e-02,2.798950686441771876e-02,2.323045034008004717e-02
1.833796858344953484e-02,2.408254504980226335e-02,5.726652665642597076e-03,7.711897102406356508e-03,1.185634099576881283e-02,6.937447548590351329e-04,5.099655724739497048e-02,6.425126922536019553e-03,2.807089107329986677e-02,1.520024593847711311e-02
2.715366079547798517e-02,3.185369986550534716e-02,1.469976173459842592e-02,8.681519040858832331e-03,1.234952810669344599e-02,1.960639427172597340e-03,4.803880532619923815e-02,2.169377943690064398e-02,2.617381421225854418e-02,2.757300814094532093e-03
5.394437482266421779e-02,4.724978393793118070e-02,2.222610160946275615e-02,9.949426716369849655e-03,1.395177485560234951e-02,4.665476772298099602e-03,4.672659187490173227e-02,3.179247033572170367e-02,2.745975747690367064e-02,1.360832705119072866e-02
7.771470105252392679e-02,5.698003258776986740e-02,2.658584990990944807e-02,1.127608095088367124e-02,1.448908678872067382e-02,6.136311992534393411e-03,3.973724542176700070e-02,2.623562712776836281e-02,3.119696218766264059e-02,1.929939070119427932e-02
7.127526940775082143e-02,4.514223437723737659e-02,2.438246855997204532e-02,1.154969535149865875e-02,1.013582245891894718e-02,2.354015096850573668e-03,1.478611092037752581e-02,2.662433419282584420e-03,2.678295499154062162e-02,3.374956582476268396e-02
2.567153844015292868e-02,7.615317090653547089e-03,1.421781772554346970e-02,9.706237007228878458e-03,9.049652668867015203e-04,7.957567662413459614e-03,3.249441528269694096e-02,6.677738604330846206e-02,7.725799249061814783e-03,5.609953904082902454e-02
3.920209491415889425e-02,4.718457004742100669e-02,5.608675200742529185e-04,6.368576354772483017e-03,8.768015950331246519e-03,2.274073082124661999e-02,9.670006185339227733e-02,1.931959628500595216e-01,1.670969091007668342e-02,7.511068045401352034e-02
9.199628323811498420e-02,1.057783351915380643e-01,1.421466171975665181e-02,3.980005952269276455e-03,1.484401374881422035e-02,3.761164754298201157e-02,1.642423249761282011e-01,3.351301404012797525e-01,3.226091976392164717e-02,9.095831846290509948e-02
1.148210307946682107e-01,1.519064785091295000e-01,2.258284709232632331e-02,4.206380809995633949e-03,1.628666466798437198e-02,4.629867581009159544e-02,2.118736913507966446e-01,4.237382941860748931e-01,3.615078280876937722e-02,1.065181117263722249e-01
1.090638426964884444e-01,1.694800984193178817e-01,2.389768842250052788e-02,5.584677404821809452e-03,1.376141174460306094e-02,4.465634392651127854e-02,2.196900035229788772e-01,4.122078750899390576e-01,3.613272985606048177e-02,1.102331118401126825e-01
8.780948467435796545e-02,1.521175210790355059e-01,1.770642874573506026e-02,5.479484330463372556e-03,8.877826688702249863e-03,3.668010213565069122e-02,1.964337592224452145e-01,3.154141758506905924e-01,3.825666767219874226e-02,9.327736711056702767e-02
6.885070544949538351e-02,1.074914063121005930e-01,5.208556217822435906e-03,3.864355181845675110e-03,4.199285969171817103e-03,3.153353602859539778e-02,1.751269436965444681e-01,2.166362443911766800e-01,4.074165840954630663e-02,7.144566918742425998e-02
6.307584355960378641e-02,5.542602601544242835e-02,8.939584122558364918e-03,2.910073259611821624e-03,1.466772344080941991e-03,3.189880643420990591e-02,1.717498120147430973e-01,1.945188689337692400e-01,3.753684015968348359e-02,6.678328795702469234e-02
6.294712729942179841e-02,2.428891876578163217e-02,1.734900466079846923e-02,3.526817546790326358e-03,4.328413055556786307e-05,3.085336948317544264e-02,1.668409559072377424e-01,2.248726089457913913e-01,2.568002949982745725e-02,7.526248482853371835e-02
5.322110771376202532e-02,3.258440484713381879e-02,1.619044042741195691e-02,4.784534492517493812e-03,1.623955662564265448e-03,2.321944756962592005e-02,1.405063933957300948e-01,2.158423298833521409e-01,9.483382207604123398e-03,7.278916054794015711e-02
3.341389760947136717e-02,6.610816760789520186e-02,1.092033989461996951e-02,6.241321327559621983e-03,2.433886373455970697e-03,1.337413366443396083e-02,1.041832928284880111e-01,1.490994587403001448e-01,3.570699986590538527e-03,5.035595348921063918e-02
1.430629811248670946e-02,9.173089407093677761e-02,1.087850584970193046e-02,8.554525200785300168e-03,1.265521201589790787e-03,7.541600261881591799e-03,8.024188476317434260e-02,9.445002035567669207e-02,1.058358733991815112e-02,2.557991096192286512e-02
2.847451790186764954e-03,9.778748869804228250e-02,1.612924381942799912e-02,1.144807874188391583e-02,3.648030960786853962e-04,4.840790295394574450e-03,6.852059207457758538e-02,7.808202677956929683e-02,1.295031120043531325e-02,1.780098723682001921e-02
2.138551400305152908e-02,1.012553341280475749e-01,1.516558090542346332e-02,1.257039254200316078e-02,6.874905020895370669e-04,1.326995834676302551e-03,5.340649149489247460e-02,5.331909511072507879e-02,9.433011111307017249e-03,2.636456941569367135e-02
3.101321958736057496e-02,1.154248902955944955e-01,4.620342100219115931e-04,9.806264393784961536e-03,1.399231519964390900e-03,2.611427669723929458e-03,3.034001209384771386e-02,1.362209184947330357e-02,2.630112712196456311e-03,3.882824917272770238e-02
2.215165060654713386e-02,1.304099980363603861e-01,1.854990517484886997e-02,4.634828636181221109e-03,4.556081684950454014e-03,4.551747600662377560e-03,5.116268496889930448e-03,8.263418732282746398e-03,1.825222362313462868e-02,4.849926051795518112e-02
9.875386013245057715e-03,1.286339003778528833e-01,2.564427692925024330e-02,1.364051540819573825e-03,8.198414121205723631e-03,5.230332684808784195e-03,2.054431247198876959e-02,3.240810755873690940e-02,2.609341195078445155e-02,5.291088491583383763e-02
1.409362460757906423e-02,1.073868322402977138e-01,1.785433096600612390e-02,2.279066805043120439e-03,9.324041018415503423e-03,6.100335277979543162e-03,4.236830804431915287e-02,2.456467376947620712e-02,2.230992847486645836e-02,4.379206608333272716e-02
2.625279475277637886e-02,7.953615909649738858e-02,5.982831496296371274e-03,5.448258247010188439e-03,8.537857325309259823e-03,5.573934548933909619e-03,4.548080058082488997e-02,1.755598983245592465e-02,1.599783749581661432e-02,1.623927407916919349e-02
2.349236459796252147e-02,5.594278498162001678e-02,2.744321925774161411e-03,7.888293611328671059e-03,8.551403545043304716e-03,2.152113238608832982e-03,2.191830897886633267e-02,2.910037032310452271e-02,1.745311547401114105e-02,1.524970338080254215e-02
3.944671627466271070e-03,3.552355009445385542e-02,1.055927162141494409e-02,8.403015860056685382e-03,1.084907558680706791e-02,2.501455472960074835e-03,1.548950643521783931e-02,1.014169597670571549e-02,2.647353176557608323e-02,2.983120755630864346e-02
1.583354561913369665e-02,1.324434058478119423e-02,1.753294423106831548e-02,6.866965368711186631e-03,1.543877305682055980e-02,6.550378671735745083e-03,4.697801315670286498e-02,4.427029565217838886e-02,3.507506753837805191e-02,2.894175657198465312e-02
2.783165066546748265e-02,8.888834091178791919e-03,1.700040683850590623e-02,3.716574703660878963e-03,2.080881935445602279e-02,1.009476981250623587e-02,6.134884813941455378e-02,2.535750175109310195e-02,3.733512139413448783e-02,3.084172793179409261e-02
3.884410303332782449e-02,2.039431486092250362e-02,6.369512827260559451e-03,9.695610577380897772e-04,2.364772623482317912e-02,1.299195176573653306e-02,5.786832562420089754e-02,2.674669881215971726e-02,3.332867856925886968e-02,3.801624989376060915e-02
5.556196168274454839e-02,1.231701202247465279e-02,7.031399517598156852e-03,1.057894758320923178e-03,2.148408993427291733e-02,1.382340036278200714e-02,4.472597014701529955e-02,5.462713886561174070e-02,2.588477014725658332e-02,3.636242706912752587e-02
7.340319942699959077e-02,8.026116453496962011e-03,1.506132406686452874e-02,3.767401977785361875e-03,1.538143978836285439e-02,1.106251018136452519e-02,3.068100754843448158e-02,3.350875643922924391e-02,1.700155521493224714e-02,2.755682571005329401e-02
7.914953344140226998e-02,1.896685493589121002e-02,1.732119652992999623e-02,6.458470883025259693e-03,8.408373177959595213e-03,4.066959579917281929e-03,1.480743330792246709e-02,3.168940099313342570e-03,7.563554437488542899e-03,3.101410689764166895e-02
6.265201167685265082e-02,9.104486480652804192e-03,1.744691420976162213e-02,7.469800855038083269e-03,2.855023032062440312e-03,6.306006707940109597e-03,7.671787832303249982e-03,1.941972723849502008e-02,1.688311277858921267e-03,4.897005283220832311e-02
2.544057491663899093e-02,1.033160858333703573e-02,1.633861912450248685e-02,6.939519751670199070e-03,5.858343969775343160e-04,1.861291474923263550e-02,3.646733248500804575e-02,8.478581608254878721e-02,1.024675061290957791e-02,6.283760526687044712e-02
2.212755399725022804e-02,2.621017120424646088e-02,1.296212858013645088e-02,4.920999647310172163e-03,3.062008477706296139e-03,3.122828643792377804e-02,6.933031500764444410e-02,1.569617429591609881e-01,1.806860333521923337e-02,6.783281820465712764e-02
6.684084308945879849e-02,4.100977545483219106e-02,7.849775698127019544e-03,1.923223703727199941e-03,6.373939721223734721e-03,3.841611895543216304e-02,9.731791303788851766e-02,2.086848380980395323e-01,2.483514161237783749e-02,7.155643052710440599e-02
9.440841671085369036e-02,5.837781338900584205e-02,2.188359336508054025e-03,1.584326840331023404e-04,9.447415234277330848e-03,3.007511770165893078e-02,9.653534951369659167e-02,2.370988824595982314e-01,3.002979540095403535e-02,5.727350517902774635e-02
9.679967833214134232e-02,6.922804172379853904e-02,3.536725949142720694e-03,2.755338592476113822e-04,8.229581870400572499e-03,3.331553615476209613e-03,5.126294311175632473e-02,2.364905655815836560e-01,3.464824598085693153e-02,1.352405823006286485e-03
8.279332205956095592e-02,6.830758689761790015e-02,8.276534252805330810e-03,1.301547257534273758e-03,1.628151374112592675e-03,2.874538215337683889e-02,1.480902248068526571e-02,2.133080675234272916e-01,4.074079180339539030e-02,8.485452626614137239e-02
6.911731311042784709e-02,6.829326213881078966e-02,1.066056930831420571e-02,7.153414267254024766e-03,5.438050551219130932e-03,4.804747389002698987e-02,5.733386925468875878e-02,2.082149253135067990e-01,4.679038712697097813e-02,1.361301145221318620e-01
5.766859301198087873e-02,7.722568647124947172e-02,9.718568556426328969e-03,1.357509509031159037e-02,7.871745507515719859e-03,4.886935178020321985e-02,6.021455495450581813e-02,2.482329200331803987e-01,4.548495220295992181e-02,1.270740698743914598e-01
3.452084620369065548e-02,7.592791772576386322e-02,3.447759054527035558e-03,1.548995788383045191e-02,6.584597528459004180e-03,3.943302918378005506e-02,4.492275660141419047e-02,2.888932529953954220e-01,3.055718408220802623e-02,7.931083498059984804e-02
5.872977117808002648e-03,4.312506038885345616e-02,8.937185651118506602e-03,1.364239876167322972e-02,5.994844693517455310e-03,2.986350281285134536e-02,3.566781784410940487e-02,2.589632489603744814e-01,6.299760337123521542e-03,2.560644769619682681e-02
4.570536994774047207e-02,6.796799929408295186e-03,2.208237670863702484e-02,1.229724387234782529e-02,7.495362734869701754e-03,2.368945066020286191e-02,3.430242583660003675e-02,1.607957163017168511e-01,1.320854814527338585e-02,1.632297478113465747e-02
5.614393447363955764e-02,3.819858896006108478e-02,2.861027260109566539e-02,1.291900461675650306e-02,8.438844238903149900e-03,1.899549696973114668e-02,2.979839681899453321e-02,7.167928662607130075e-02,1.593352218622826055e-02,3.984989084760037770e-02
2.532792321395515092e-02,3.833230226618022235e-02,2.789124683804018734e-02,1.375884866470034745e-02,6.735179577388963890e-03,1.363429724093779237e-02,1.819726299481906270e-02,3.981991975224839775e-02,2.091168440376151363e-03,4.372015093777111006e-02
2.149735189747800992e-02,2.120409729223131368e-02,2.301734628772755115e-02,1.273800297487531590e-02,3.524174318153717490e-03,8.082797065372572878e-03,3.932499733013971460e-03,3.815981926180708056e-02,1.832993321637225309e-02,2.761800800472568110e-02
3.650860419875815582e-02,1.439684296616633268e-03,1.250800960046415979e-02,8.536382202990990681e-03,6.167349335549434947e-04,3.853082161363435496e-03,1.404706082256848218e-02,3.565823017982826248e-02,3.773215500472420353e-02,1.030279369176181556e-02
2.591485971980894785e-03,2.414217206170916896e-02,3.703166906462255440e-03,2.594630742375552204e-03,2.160442006029186096e-03,9.272050746461723376e-04,4.139354618767756427e-02,4.400109912500578535e-02,5.479569115138094998e-02,6.255238480189631578e-02
6.378511774726432215e-02,3.257457087056092604e-02,1.312405042524489307e-02,1.857905597341223984e-03,4.971963615502198071e-03,1.656133636689184185e-03,6.945550028193608894e-02,6.033513926009353989e-02,6.236520208806344695e-02,1.049148032411748033e-01
9.457137992337512344e-02,1.530321764334294926e-02,1.073633362625059373e-03,1.372438342357970749e-02,5.698328979832205723e-03,4.048890070320344467e-03,7.894901905836546052e-02,3.977357793401878339e-02,4.448968918266883732e-02,1.130229991887267693e-01
7.982498028152423819e-02,1.242275494203134989e-02,2.618785963387100166e-02,3.472509814150975815e-02,3.040246362773731115e-03,5.831267228355284556e-03,7.113047256113309846e-02,2.494940735608802002e-02,1.241294170808668416e-03,8.327359862168924598e-02
5.315096594370351951e-02,2.306606598968628796e-02,4.432912297514111227e-02,5.073861512308809607e-02,3.350520664927377108e-04,6.085156269371530709e-03,6.741458160423823009e-02,7.692542871255175774e-02,5.168238844992253944e-02,3.286902787631347522e-02
5.571159795414137167e-02,1.265630284350046861e-02,4.013423761532938783e-02,5.223947789665590175e-02,1.388686680245197064e-03,2.999193645890832396e-03,6.973438918894490912e-02,9.992830507098440784e-02,8.334198660562786021e-02,1.529331887703421974e-02
9.383130771280999427e-02,1.116211015578404651e-03,2.326179204969119896e-02,4.277570790659825789e-02,7.914805630049997218e-04,3.543261511626220796e-03,5.590800567365556556e-02,1.525961038265202241e-01,9.577829436851037492e-02,4.629301831682554325e-02
1.364220413916864827e-01,9.970351263689572474e-03,8.606573302516627375e-03,3.109094097028535994e-02,3.552423290897479364e-04,9.640590354589109040e-03,2.148912817347849863e-02,2.492982237166189163e-01,9.832002074721506168e-02,5.893831615452001238e-02
1.506191745500634616e-01,1.807542515904180663e-02,2.661856021975781209e-03,2.256392625461722118e-02,2.824399165031272942e-04,1.072685505156752324e-02,8.631428379242547105e-03,3.188178421773992244e-01,9.081785356200665349e-02,6.532319122310376036e-02
1.339724135795300752e-01,2.194615877530619805e-02,6.375065738779137764e-03,1.801906173860308089e-02,1.948857662274794053e-03,5.957379284322634506e-03,1.515001609603014443e-02,3.235299764267424716e-01,7.048117896776719127e-02,8.427685557042111086e-02
1.063160801088207513e-01,1.476751557684884836e-02,1.612176804154185142e-02,1.365446550793537883e-02,4.001480269418702593e-03,2.051486534274587614e-03,4.863747032861430453e-03,3.134237157321168588e-01,4.438872935288708244e-02,1.237898835587335905e-01
8.188822941546407275e-02,4.656005523402485802e-03,2.142890805296678372e-02,3.530444696788810448e-03,5.683282954376097686e-03,9.433990697804794587e-03,3.718852105928200161e-03,3.369927805336573323e-01,2.316539143951531696e-02,1.637951585463275350e-01
6.360362760099637358e-02,5.115303472735597060e-03,1.304287470603013831e-02,1.187590940312225479e-02,7.231423716059572591e-03,1.343082122886603454e-02,9.571161303807088766e-05,3.805971600181007330e-01,8.528045504675552807e-03,1.715088560433352116e-01
5.271827786258816151e-02,1.233473158953527632e-02,5.200185151108083909e-03,2.179982044341426464e-02,8.948299115144399060e-03,1.511715597067868865e-02,1.148809281649884606e-02,3.974325381409751778e-01,5.539419200816067188e-03,1.438843708145467470e-01
4.578813186241034727e-02,9.756109703613910847e-03,1.866903551844160264e-02,1.573868267330208112e-02,1.029342406869088698e-02,1.820143591433135560e-02,1.971410877648871809e-02,3.461746061553018783e-01,2.193891647999452604e-02,1.147894465752495041e-01
2.962199955247276154e-02,8.239103015502981936e-03,1.722552555105234112e-02,3.477422167365088346e-03,1.022402536003199323e-02,2.393620564149918570e-02,1.814449593201250197e-02,2.246968206988229633e-01,3.563098265041291651e-02,1.076986246611452286e-01
4.432710003674229619e-03,2.940923890012121095e-02,5.413951554239819150e-03,2.201335045713193397e-02,8.634064990988695940e-03,3.003822320852887751e-02,6.364516292173452716e-03,9.162262127620236785e-02,4.028333483838587858e-02,1.057645476966609238e-01
4.451940519224307363e-02,3.905356158668062821e-02,2.798157267230114674e-03,2.862415367649645548e-02,7.384959340285024952e-03,3.419907408285243616e-02,1.201660139847658682e-02,1.242684032716823671e-02,3.673590251614887447e-02,8.291621759619804966e-02
6.790901483216635337e-02,3.444225549135177672e-02,2.006580256784319932e-03,2.178623431998939416e-02,8.725140902405861126e-03,3.509794541592579226e-02,2.374908463279917434e-02,2.151512157056960015e-02,3.115817363362313047e-02,3.937739596876021347e-02
6.472593687247192584e-02,2.340194502275929136e-02,1.559496020252523416e-02,6.974575125396734881e-03,1.258963998416788230e-02,3.192063258398109005e-02,1.391254050573079507e-02,6.157588588600149820e-02,2.647095799009228576e-02,6.805904877435292599e-03
4.532041118254022394e-02,1.386663934381676330e-02,2.463627338698429203e-02,7.775596718224572768e-03,1.688474802959303439e-02,2.679440079341573883e-02,9.130307602091450314e-03,1.053617792977826761e-01,2.176576151262670997e-02,4.017188088855386252e-02
2.805213314830626997e-02,6.732900389958806561e-03,2.095974189696633502e-02,1.669306883937844363e-02,2.022581959973217963e-02,2.463515797351159553e-02,1.740413708465891190e-02,1.150996785988779442e-01,1.854095662464476379e-02,5.161853500626968627e-02
2.619186869415622565e-02,3.218215030806062093e-03,9.608542046168183290e-03,2.077875384769875544e-02,2.286021544959396939e-02,2.685947809568200312e-02,2.056639414580469644e-03,1.086585091934930691e-01,1.846773543584146263e-02,4.456382681930047551e-02
4.212443122645989635e-02,1.950368445315519769e-02,1.179681985391389711e-03,2.438746916918977867e-02,2.504371592701953170e-02,2.867504533816695941e-02,1.579053816026035686e-02,1.310744964508175625e-01,1.675488817919626797e-02,4.039786242919828074e-02
6.892330620752043502e-02,3.711629915892274145e-02,4.187540164391561574e-04,2.638118033628790091e-02,2.555154126832040115e-02,2.496835518739879550e-02,1.905851112192392255e-02,1.583112764521907856e-01,8.548643118441532490e-03,5.444336534128776245e-02
1.016180181313301734e-01,4.798080046518989755e-02,1.563457999179628227e-03,2.127294757566558503e-02,2.238287378969868596e-02,1.541346408893846769e-02,1.221843769649420125e-02,1.330392247043158394e-01,7.460643726476863134e-04,6.659179346427190893e-02
1.434317004197908363e-01,5.289245358637612721e-02,5.916992635116278404e-03,1.025977112644825724e-02,1.567527253345105814e-02,3.814622525843037668e-03,2.377482489856971165e-03,7.402463789404149785e-02,3.263327531895877064e-03,4.201628586503422524e-02
1.881401322604301374e-01,5.901036497615663040e-02,1.519759271915090484e-02,2.490115825850526196e-03,8.916728678307409006e-03,4.127479377429844193e-03,7.355799630313838988e-03,5.384138806425058793e-02,2.846756206328605442e-03,1.587482945877372736e-02
2.055411439041119614e-01,6.547993003484652019e-02,2.530072276125742287e-02,3.063789692189513095e-03,4.963988950356856486e-03,4.901797175361505103e-03,5.267441001386508406e-03,8.770415272162501719e-02,9.153451185194106526e-03,5.936684948239555337e-02
1.705006065074322619e-01,6.411264508023004072e-02,2.238130756799613930e-02,7.902541213451746635e-03,2.567909204290336547e-03,1.897367226389868721e-03,1.775199234007816124e-02,1.243832169450599656e-01,2.141208602431364169e-02,5.349371039263293992e-02
1.028953261129362945e-01,5.548917188601944217e-02,1.956588557773827035e-05,1.211052096693080761e-02,1.744035129147979320e-04,1.770906404866423416e-03,4.543512344843182033e-02,1.336269247187890641e-01,2.939603694441510207e-02,1.993329615841101313e-02
4.993274885645449662e-02,5.088934553361742358e-02,2.619937293792807403e-02,1.543708761349132583e-02,1.851763076440418425e-03,4.919069900677090074e-03,5.394197485270400133e-02,1.438294299323252257e-01,2.837855382898942305e-02,1.012930997003115910e-02
2.815740671228041114e-02,5.575671992180435826e-02,3.303160393577513065e-02,1.845361329327024208e-02,4.251788203368308140e-04,5.448896162527092427e-03,4.896255646671301975e-02,1.913970398529141748e-01,2.400482743211929462e-02,4.276277895277616481e-02
1.260257381592088007e-02,6.251972713247955227e-02,1.590637554675627605e-02,2.071283566737279480e-02,3.011360200187107160e-03,1.335193000755699466e-03,5.425812760533993417e-02,2.622375277015133732e-01,2.150654323475813604e-02,7.849190290671144432e-02
1.283825099774931096e-02,6.152660592278832302e-02,8.624289270143243105e-03,2.370764686483453967e-02,5.193019680477493905e-03,1.703985187031604488e-03,6.612147179620468662e-02,3.005061653976620617e-01,1.686581240679102187e-02,6.093376428723387694e-02
2.934796817493472154e-02,5.011200677226826383e-02,2.389958012150064648e-02,2.963464712320069624e-02,3.809622510633685431e-03,1.294504125600069114e-03,5.447515044839060933e-02,2.754645646320745267e-01,4.358737799335239173e-03,1.662278899722618650e-02
1.992501690769408335e-02,3.138822952905292313e-02,2.738946686554248611e-02,3.593321882545520707e-02,9.270871715723501272e-06,6.645196978203410550e-03,1.470204213896638551e-02,2.189258272549532425e-01,1.085038596613002379e-02,9.580114623061912471e-02
3.708070513831568382e-03,1.267049048056074351e-02,2.511838288651415188e-02,3.587052143672715687e-02,1.968140181001034206e-03,6.218603998282864857e-03,1.575950731092483695e-02,1.842294517036412171e-01,1.761666305742227295e-02,1.155551259515177898e-01
2.760402445486383888e-02,3.538728753231956507e-03,2.125090031560118720e-02,2.699306664500663797e-02,5.830944767974833697e-04,2.738633034733053539e-03,5.098860949560544108e-03,1.894480723770449460e-01,1.531816608060477050e-02,7.878454076897600800e-02
5.203742341123412940e-02,7.653862984322722281e-03,1.723339939053031983e-02,1.577646752372589486e-02,4.642256772801734051e-03,1.542324705298469059e-02,3.687968732686165013e-02,2.150005331945449294e-01,1.392496725677779684e-02,4.077389963747259094e-02
6.667100303607008394e-02,1.858524916080575226e-02,1.552651337771894687e-02,1.042351970767861104e-02,4.784612142562091192e-03,2.498229087105451052e-02,8.142295547777014808e-02,2.396634768874614241e-01,1.842540768091046471e-02,4.199369282414927573e-02
5.068049942716443268e-02,2.873015283028083205e-02,1.730655512887976921e-02,1.028508492432546502e-02,8.164198246121135956e-04,2.689315668785234939e-02,1.118255870376159145e-01,2.604306356726990845e-01,2.476694292208282688e-02,7.249931326177055935e-02
1.096814302362598449e-02,3.622964117606076312e-02,1.776450797416293317e-02,6.160073669613909744e-03,9.523583855821346478e-03,2.068705278043177220e-02,1.214421856654095966e-01,2.712779074039928795e-01,2.893833930716837449e-02,9.957357359689028575e-02
1.879272758206259469e-02,3.875160529228537099e-02,9.721159314315728009e-03,7.673297439218058555e-03,1.736094019223356766e-02,1.116600723393121504e-02,1.077770809379287043e-01,2.380017596351428621e-01,2.996793949541200902e-02,1.092593647842506205e-01
2.202598962752504858e-02,3.172200676838062700e-02,7.012525227680890122e-03,2.456365558933700996e-02,2.099587921220770481e-02,5.886557075588529954e-03,8.157574988735115384e-02,1.315421777721862695e-01,2.868158668059700780e-02,1.093891164437097441e-01
7.785286556417995649e-03,1.905824510682049833e-02,2.366769181299326757e-02,3.205500034460889019e-02,1.878235604174884749e-02,8.364829592054286514e-03,6.318681083826742373e-02,1.102144680435839311e-02,3.061434089095178834e-02,1.044960766487977866e-01
1.738348175450013175e-02,1.325602083546363608e-02,3.106772804436280441e-02,2.615796229292650932e-02,1.246718473358758572e-02,1.487067178614193998e-02,6.156422884766567932e-02,1.017440345783700156e-01,4.187942618090494118e-02,8.872741595793265379e-02
5.289579218230500840e-02,1.903464058542151185e-02,2.757930769970353552e-02,1.449735483086576730e-02,6.560679317411588149e-03,1.913428448194177608e-02,6.798158802845369331e-02,9.246302807043539629e-02,5.654455663153760275e-02,6.286594200116402131e-02
8.699016219825130014e-02,2.738901851379433108e-02,1.830219067256944748e-02,5.283904692648879083e-03,3.665893952383242511e-03,1.833095619622165592e-02,6.752278513013469652e-02,3.037945176981106735e-02,5.812364540506666233e-02,3.878077339426751896e-02
1.018065577613170153e-01,2.820009635407169299e-02,9.459723393798902952e-03,1.328801589598909956e-03,1.735206491289842997e-03,1.395546631883393812e-02,4.690598851581971596e-02,1.295305416522666772e-02,3.950657686252193740e-02,2.221867133822581428e-02
9.452953236674734028e-02,2.112367662702812135e-02,3.622306770996755639e-03,9.220671658005127544e-03,1.882569070823030986e-03,9.781683276611573274e-03,4.435119987995671774e-03,7.935325912617269273e-02,1.271856799427470951e-02,4.632426637879903664e-03
7.846967009069623356e-02,1.382531109960560486e-02,2.644109241768764253e-03,1.867031752736980979e-02,5.625451234466231215e-03,9.077874643714145889e-03,3.825139731144071298e-02,1.605422230812795226e-01,6.186797162553100277e-03,2.262119326397111357e-02
5.856460953136775199e-02,1.237256074805384402e-02,1.504028398669175412e-02,2.594631570496906334e-02,5.468316389010558984e-03,9.921943870985707944e-03,5.582554221131715011e-02,1.762725583389053163e-01,1.327763209505867202e-02,5.324775111339877243e-02
2.055549763988867920e-02,1.378835462752969407e-02,3.146098270684816178e-02,2.810055751514423800e-02,2.571964788590532219e-04,4.468798809445354882e-03,5.688541779430039691e-02,1.526711712904999796e-01,1.306561163417292205e-02,7.203752085956938167e-02
4.092739587363726506e-02,1.022785393833705939e-02,3.964213797641983478e-02,2.562212508222202687e-02,9.817089636368236949e-03,1.143904692103684881e-02,7.350452313824962225e-02,1.707617936796607394e-01,9.072361606442045159e-03,7.495185011696521571e-02
1.025356309002416477e-01,2.636940809954709149e-03,3.292124940653647081e-02,2.087940058726321310e-02,2.020826416731129685e-02,2.992692104837867823e-02,1.097994517911810436e-01,2.363416529419941070e-01,5.526393541465845355e-03,7.352184420204295467e-02
1.410930886782805760e-01,2.628688991781606699e-02,2.424282284775255286e-02,1.631136573671412848e-02,2.847955596627994163e-02,3.898328584345357728e-02,1.327140590928196640e-01,2.911827319761353672e-01,9.944802079682173168e-03,7.704120746933208752e-02
1.572868838604231101e-01,5.954829532847075863e-02,3.201739186619091682e-02,1.505600564722502782e-02,3.214211877993131822e-02,3.642505232443480484e-02,1.180160058673720563e-01,3.111631346579480928e-01,2.475890034599346687e-02,8.579711768770278968e-02
1.533652410503218988e-01,9.210274054336335670e-02,5.285270868365020414e-02,1.868575907393946883e-02,3.081470361798894012e-02,3.008266844538489207e-02,7.841576700295832536e-02,3.044568609919791613e-01,3.939734241315722557e-02,1.054475343752421801e-01
1.230666582848262136e-01,1.108058250210644663e-01,6.244937641248227839e-02,2.077869187638303056e-02,2.760196074832230173e-02,2.698397683710932610e-02,4.258283677183649640e-02,2.612317225321094116e-01,3.796399929635316250e-02,1.440204641177836031e-01
8.081077900204658437e-02,1.161596102785551338e-01,4.755059484578026685e-02,1.051844138792367052e-02,2.647344094621532917e-02,2.756813003231660397e-02,2.546118054636693773e-02,1.910060488914786248e-01,1.697880185552585325e-02,1.852148082597993295e-01
6.400807062717689400e-02,1.180857111936746834e-01,2.380507723716721383e-02,1.095523985366222974e-02,2.785347294861158229e-02,2.821613701696708276e-02,2.264414742452785373e-02,1.613875406678336177e-01,7.805452554746688740e-03,1.909700721171726789e-01
8.763250001987844817e-02,1.165669078393313379e-01,1.371245280880752614e-02,2.711443436205304008e-02,2.844601385602794213e-02,2.549062475267716704e-02,2.352184255537720370e-02,2.153914656097221936e-01,1.694169550700638099e-02,1.447013684536238021e-01
1.205843595465711654e-01,1.027008534730957517e-01,1.834885566890231273e-02,2.610914142940402513e-02,2.491008352329161443e-02,1.908479247675526347e-02,2.529482455267742513e-02,2.887189448748068155e-01,8.469623915155318622e-03,7.136545299784298468e-02
1.218619036296304387e-01,7.794917405672081856e-02,2.293039928197597790e-02,1.526471556052829553e-02,1.684462348515754215e-02,1.231940110116685159e-02,3.395117404803126016e-02,2.877018102614072870e-01,2.433773009679466616e-03,6.955358538635268359e-03
8.739150460977121448e-02,5.706860938115571741e-02,2.197304738633137910e-02,9.211796095788538086e-03,7.449012494292653330e-03,8.247853705832615748e-03,5.196940511355163661e-02,2.164134461017865330e-01,3.802709925451549199e-03,3.144299820217135583e-02
4.567556465043465241e-02,4.845202209508951696e-02,2.371440615103030322e-02,1.127729808389342156e-02,9.943653809037127436e-04,5.198012307757630263e-03,6.923891571546467172e-02,1.479196367927064215e-01,1.515451920762419993e-03,4.316666945187849769e-02
1.250393941769791482e-02,4.321150918404811914e-02,3.175415537672603150e-02,1.359204083252118188e-02,1.864865053720305820e-03,4.772743258064692309e-04,7.202428259930288013e-02,1.006726448711870725e-01,5.527040637827483963e-03,3.348687834119834505e-02
2.346971744491725687e-02,3.070667926829851596e-02,3.716630561673558986e-02,1.167223331830596726e-02,4.720055722222516945e-03,6.882900107159650033e-03,6.074922514176332028e-02,3.052882333770067999e-02,7.240745632547455207e-03,1.405100041575733753e-02
6.235563267391640296e-02,1.490184846368280275e-02,3.181467243611752621e-02,1.106181359915225579e-02,9.790933939762859473e-03,7.077100664297792353e-03,5.024244487632988088e-02,7.518654001444109725e-02,9.920507269984550625e-03,7.219496366004475585e-03
7.495374470163619629e-02,5.383515502982161305e-03,1.757014419832704510e-02,1.790777334017451192e-02,1.429521470125434505e-02,8.602298186342616226e-04,4.834953617845666463e-02,1.813779412552625203e-01,1.223550319127147956e-02,3.971532119216467094e-02
4.615721308728294031e-02,1.123597755703384035e-03,2.760795279516928182e-04,2.863992048651618771e-02,1.483101259412643314e-02,9.908482704396391616e-03,4.547295836731753138e-02,2.698342196702278040e-01,1.034975637329443865e-02,1.155471245838455840e-01
6.007515096024889159e-03,5.053568793150962912e-03,1.756832504629281949e-02,3.361691722697507378e-02,1.291221214075237433e-02,1.338004454289909960e-02,3.238971835613337069e-02,3.438075323590590315e-01,7.646004076623999328e-03,1.928519595631193462e-01
1.024510000203866268e-02,1.267546573199743523e-02,2.953785399389180152e-02,2.880915601061425496e-02,1.265778410015988911e-02,1.274655698440542960e-02,1.484641217200387622e-02,3.803005444763921661e-01,1.316247560766086074e-02,2.124674786009169147e-01
7.876184376954569605e-03,1.479420987755481094e-02,3.524041084755001607e-02,1.935623899591940034e-02,1.443893839610555126e-02,1.255848503413632515e-02,2.003789882962170137e-03,3.464941796734332113e-01,2.674377084036368840e-02,1.621237121167512230e-01
1.172529587529939216e-02,7.806160511650993630e-03,3.971713240063382000e-02,1.132386623284675591e-02,1.521548945768356684e-02,1.220410179604808701e-02,5.545997744406817864e-03,2.565247499011358845e-01,3.503024945991629197e-02,8.961490856818854489e-02
2.313876710581728308e-02,7.175583089928781570e-03,4.388924843839048240e-02,4.569824443810589082e-03,1.460582322834894087e-02,7.650105136894045504e-03,9.104299854703077136e-03,1.607665698214877370e-01,2.880801801411233751e-02,4.175404987354675718e-02
2.848695791942735742e-02,2.768825593181062014e-02,4.196511951234932480e-02,3.248799608658388145e-03,1.517686505931960944e-02,4.334402913807175114e-04,6.240891167026876851e-03,8.923917967956389308e-02,1.407066958015813427e-02,1.790960897519621939e-02
3.137678735717708972e-02,4.841612370445576990e-02,3.407064388220821388e-02,1.048637589520876219e-02,1.681034636685715608e-02,5.789538774953393446e-03,1.958545643172333005e-03,4.349332144037657694e-02,1.273424742647631105e-03,4.473549445267194051e-03
4.007786317527715220e-02,5.947042602618650420e-02,2.826255116754746582e-02,1.454742578940075234e-02,1.705404069341277112e-02,5.524190144792511317e-03,7.221460312532831070e-03,2.535171218484610564e-02,1.845804752576651192e-02,2.977597000662451920e-02
3.722395384998314349e-02,5.323754767509219360e-02,2.748153725349935031e-02,1.618768697958669969e-02,1.642646784627321485e-02,4.575113328813378011e-03,3.960384332964048647e-03,3.168875894791620823e-02,3.806027544280876640e-02,4.699317654382233200e-02
2.976083881469400970e-03,3.496385437586404382e-02,2.690274439104288484e-02,1.571132162802325177e-02,1.647797782792547600e-02,6.994582184997913746e-03,1.335620584506276749e-03,3.426675401954558386e-02,5.277743418289541910e-02,5.011775604317109806e-02
4.392328291691420528e-02,2.047358312401518707e-02,2.327264616792430740e-02,1.089497668194212149e-02,1.442592835705737951e-02,8.378902443067390640e-03,3.362516275226250066e-03,6.152861433476094349e-03,5.651538210485858305e-02,4.067720275121986667e-02
6.938787290772180372e-02,1.865906246269952162e-02,1.916988854181636212e-02,2.807469814109913534e-03,6.950048758486347851e-03,3.094091624782562694e-03,2.076868827394217493e-02,4.167760795690356179e-02,5.138548628495914067e-02,2.146281727196978212e-02
7.102670778566218257e-02,2.225922098436844410e-02,2.311132441982725189e-02,2.967815418325697382e-03,3.071359808857833645e-03,6.031009703611391742e-03,4.044070148057785086e-02,8.485938497253467383e-02,4.432394634306222048e-02,1.823509760755479513e-03
6.298437320008722085e-02,2.049389185433889843e-02,4.567817613903966262e-02,3.742737517834917194e-03,9.603751152270363634e-03,1.173503649595177001e-02,4.888080338288297577e-02,1.257127988225692494e-01,4.158716889721312399e-02,1.603401348988230113e-02
3.936360255920906548e-02,1.293854564825633324e-02,8.480329745698919619e-02,2.396478707768116313e-03,1.037550500189427308e-02,1.234234797664248220e-02,4.233971431716166550e-02,1.727905996761445462e-01,4.333700671953399919e-02,9.252701488642316174e-03
9.741529733230440413e-03,6.125589219495283788e-03,1.192509291809972227e-01,1.943072087455051996e-03,7.040060883128291744e-03,1.226319215475756876e-02,3.134713747215935042e-02,2.107768257539783807e-01,4.265787680368040430e-02,1.046788465280006769e-02
7.050146013421992874e-02,3.397512893390227783e-03,1.285321406542872524e-01,2.799146149653952611e-03,2.043312639629953423e-03,1.520331391286368350e-02,2.937068711496619577e-02,2.226240660935682736e-01,3.398050725909700087e-02,1.745934059184892778e-02
1.198971937856356668e-01,2.440433344414319212e-03,1.118439133504869204e-01,4.541179682100191656e-03,2.235280538418749768e-03,2.174155860693757075e-02,3.700889821200723656e-02,2.069872500354593969e-01,1.981574969557821711e-02,3.335452434758234223e-03
1.462312151186326570e-01,3.032806301817188299e-04,8.026743606443885459e-02,6.079914834998922935e-03,4.081280645638705323e-03,3.117371733201146702e-02,4.547249746879437199e-02,1.625321963472335929e-01,6.770883507172175894e-03,4.367669576133616227e-02
1.450004725788691107e-01,5.787899685516664262e-03,4.409201264254868080e-02,6.467739917445482559e-03,3.497929382360012024e-03,4.015544632807729886e-02,5.044280906889118954e-02,9.899106010588468174e-02,9.274009413995842541e-05,8.673231777895419603e-02
1.183952349363216611e-01,1.329699743985970038e-02,1.439593641277929839e-02,8.041959328668765380e-03,1.641148724719232802e-03,4.167239537760646095e-02,4.911657162147484157e-02,5.611459055173476096e-02,1.793183195129832274e-03,1.171264391254612514e-01
8.355221904695835089e-02,2.219243219337893244e-02,1.856762577758637456e-03,1.439537016425379394e-02,2.700901201504186510e-04,3.159048899795128401e-02,3.266776133768239943e-02,6.464550841402502690e-02,1.122577889791114697e-02,1.225275658899341175e-01
5.963961829417106786e-02,3.010248044793733396e-02,5.365701187395759998e-03,2.351850228900222162e-02,9.746631165733973812e-04,1.480814479209924608e-02,2.240632382938775521e-03,1.037134899677077809e-01,2.060619918592231786e-02,1.017140915187178113e-01
4.390796134824506008e-02,3.338759414967160111e-02,1.136053042315241651e-02,2.812025826594163891e-02,5.138628485613738577e-04,1.576347647841428367e-04,4.133042626419609206e-02,1.302543208337011982e-01,1.911982889800445395e-02,6.645372436893966228e-02
1.781439341561081441e-02,3.268776000304239593e-02,1.000369279083950305e-02,2.464776777724553974e-02,3.535162051751711103e-03,8.566453271504039652e-03,6.280837947873946225e-02,1.282076264139705435e-01,4.202675573273464624e-03,3.160582567913123447e-02
2.377535812183275213e-02,3.331405165346107422e-02,4.772626045502757243e-03,1.779055960629688168e-02,5.634929395704875443e-03,1.311526517060021720e-02,5.632608033973185435e-02,1.063916203939156008e-01,1.212095517141675502e-02,9.907711193117072282e-03
6.611113709582984443e-02,3.759746717698169566e-02,2.811248402242822950e-03,1.413082856008951969e-02,5.053329310318709598e-03,1.591758856613778583e-02,3.169325606685498981e-02,7.046899966951175598e-02,1.567113402497349872e-02,8.775690177080849169e-03
9.517666618015874214e-02,4.191425960651509047e-02,3.521119375964552531e-03,1.441888389046272131e-02,2.686253373795158012e-03,1.826800579501680621e-02,1.249427613618066951e-02,1.814842346454920499e-02,7.273383691836256271e-03,2.094586142391547529e-02
1.090768237992519180e-01,4.314160375592152735e-02,7.709024890462648147e-04,1.397697467826112573e-02,3.067794580679415132e-04,2.030972077748380289e-02,1.482069487442601308e-02,4.606727730376305313e-02,3.132925587428451314e-05,2.707198920645569051e-02
1.109304481772321604e-01,4.302184754668137573e-02,9.006519053145648629e-03,8.757085162250361973e-03,2.267489122034681108e-03,1.982163126003123194e-02,2.836017664778679725e-02,1.057314950356502553e-01,2.451020676360412924e-03,1.704281304706686817e-02
1.049574505577463845e-01,4.438020954361876491e-02,2.392826051193319703e-02,1.709552572279239438e-04,6.510417928195488466e-03,1.372145203382370976e-02,2.832589067263562368e-02,1.454601328835426199e-01,1.312848907957437673e-02,2.480065351161159660e-04
9.978927543716288595e-02,4.704567911076729114e-02,3.894482025799476249e-02,7.182783681889514348e-03,1.190934682959069249e-02,3.309789910356956966e-03,9.104610424352293715e-03,1.624988295720033171e-01,2.639706425369415729e-02,1.392740146957708626e-02
1.033419605282202558e-01,4.835557415707016776e-02,4.982379673108226770e-02,7.268372719288632502e-03,1.518084987562946624e-02,4.684131537789202292e-03,7.997390605120613394e-03,1.575134267204099103e-01,3.701076764826399801e-02,2.531882863973505815e-02
1.120386507313044511e-01,4.546740081242129500e-02,5.615098406152549404e-02,1.428111901249336365e-03,1.372497467400214839e-02,4.833214996292580293e-03,4.396749414115901436e-03,1.235270579140720915e-01,4.145645625985767274e-02,3.853242056130244675e-02
1.135051310560740018e-01,3.883143403304083197e-02,6.065631504890386938e-02,3.547903228746599608e-03,8.548188598720460329e-03,1.417308049644810334e-03,1.413069877016781550e-02,6.341310433424877935e-02,4.140778079755808028e-02,4.951793402299638908e-02
9.946114222168543628e-02,3.321159584062070153e-02,6.518032989721216086e-02,1.547935237033351129e-03,2.669149436935685550e-03,8.368378814841332530e-03,2.897516447196897896e-02,4.945761287757102775e-03,4.338353598529304245e-02,5.239783665790741923e-02
7.182230001900297145e-02,3.066960232493669281e-02,6.813705622849361432e-02,6.427288583945384853e-03,1.951187106046559615e-03,1.162251313133867876e-02,2.802187728857195859e-02,3.059690614537564218e-02,4.941050471747948647e-02,5.046067157196681974e-02
4.450078316931065092e-02,2.652509002316903036e-02,6.799048581376342104e-02,1.336740953489790051e-02,5.058692712113858382e-03,1.050479988533076052e-02,1.362405159767678467e-02,5.554823808411155778e-02,5.032952837083042030e-02,5.708340715139322702e-02
3.768439650785064543e-02,1.936481357244015239e-02,6.710212377557417396e-02,1.454333071196874452e-02,7.176450466717406926e-03,7.877311455360469505e-03,7.664697836551994173e-04,8.128488301819114525e-02,3.483842376241977346e-02,8.234378069559848690e-02
5.301201117098824911e-02,1.612197624984131050e-02,6.530331453265959818e-02,1.230660223488424555e-02,8.611827721699319080e-03,7.466343492172964127e-03,1.825334363895990235e-03,8.725659699020979487e-02,3.813279820166383307e-03,1.121468012821394411e-01
6.442460781689414440e-02,1.829808403439994735e-02,5.241159563074958977e-02,1.084524207312363535e-02,8.902676659723676722e-03,9.550638783789238556e-03,1.005803017649646233e-02,5.747972895072059329e-02,3.026375627438886856e-02,1.112651703697908334e-01
5.522332171041884064e-02,1.634613730467197878e-02,2.068482278541470404e-02,1.002030070472762803e-02,7.713906667161768080e-03,1.112727395510603248e-02,1.047768900787655888e-02,1.436538567385187322e-02,5.497171584028463787e-02,6.593038074835008699e-02
4.190594004906617043e-02,7.501874914646359908e-03,1.581238624312353985e-02,7.794992193104271008e-03,6.041317297189717321e-03,1.120469339681168242e-02,5.569625251971993540e-03,1.488872743829155326e-02,6.305204725718882575e-02,1.202245428057409186e-02
3.840408951167794543e-02,3.388915857293866261e-03,3.124536265269663507e-02,5.263067848065145632e-03,5.233593152972667445e-03,1.202736463153642084e-02,1.135056529390695082e-02,3.470848945120483253e-02,5.235698539244350996e-02,4.153342164613557999e-03
2.876521620570732587e-02,9.809445118945762931e-03,1.970360647053671921e-02,5.261449342665398300e-03,5.190709672783024552e-03,1.417700342343540705e-02,2.872424963998632466e-02,5.982234735619905430e-02,2.929702571120824939e-02,1.690362537758414302e-02
3.656211982714947101e-04,1.525859604229122535e-02,1.019524590565342240e-03,7.828820380906794177e-03,4.673389891727089754e-03,1.514565710584081515e-02,3.944244006866338276e-02,8.748276792813988734e-02,7.264439064042269023e-03,3.564919960044297953e-02
3.252901057125420076e-02,9.675562625830198826e-03,7.979006312875909501e-03,1.016016234940719104e-02,2.930358629725491899e-03,1.386417660243954852e-02,3.318000010631980828e-02,1.096598044773678254e-01,5.081833890215816871e-03,3.002018177422523248e-02
5.061822988286759917e-02,2.717978543055454138e-04,1.206870615302395658e-02,1.032545295942191750e-02,4.661283155719727483e-04,1.266488897339997262e-02,2.156861776832376398e-02,1.257929188647245455e-01,9.831196036640371672e-03,1.827963062927012716e-02
6.454925581226995945e-02,4.269174632423107518e-03,2.063753274957386835e-02,8.722096431413486894e-03,1.230615291635158304e-03,1.386187504622619394e-02,2.058039608981158605e-02,1.308247990116933046e-01,1.184480568066173523e-02,2.569349139610910618e-02
8.508073704722746156e-02,3.814281875643391224e-03,2.739123393907735848e-02,6.397723943234973759e-03,6.951453525336741138e-04,1.685233016263990719e-02,3.143855421164826885e-02,1.153077373149380275e-01,1.196093392407681158e-02,4.837778554016327476e-02
9.565183508862699913e-02,4.981022523281752011e-03,2.149277241425504026e-02,4.535330420322817094e-03,2.004280391693130832e-03,1.892707372227948534e-02,4.512912830871113751e-02,8.671390326991988695e-02,1.079134320211215178e-02,5.984623969124130277e-02
7.841099431129032460e-02,5.621253141024397555e-03,8.859491298811682583e-03,5.024796784709033640e-03,4.668090424518132192e-03,1.797393644619402556e-02,5.660016407429592500e-02,7.058765851562431859e-02,1.157470393728526892e-02,4.534377810358480865e-02
4.646466994989752880e-02,5.097647176672470345e-04,4.283105841990150937e-03,8.069934533685763078e-03,4.605503913184955112e-03,1.435620764108066529e-02,6.601385419101298002e-02,8.271354138872542838e-02,1.501211706356520535e-02,1.725433392009473321e-02
2.207666895115144995e-02,1.229944771808784247e-02,8.066652707728100627e-03,9.984125915416003361e-03,1.360053134754784761e-03,9.893039827193436317e-03,7.139235037825276964e-02,1.129168415079453702e-01,1.673341909345208572e-02,3.389431956892395223e-03
4.485463901441579665e-03,2.170803582161322243e-02,8.302505622137405783e-03,7.656669101554370443e-03,2.780170077259384431e-03,5.349591518804859211e-03,6.902207705314893083e-02,1.399101696090595259e-01,1.359272970966701050e-02,9.953103300263220141e-03
1.340427591384107595e-02,2.314085065313837772e-02,1.745248911550885580e-03,3.918553053741350746e-03,5.545740408081303516e-03,5.187585513110179111e-04,5.920944781191510992e-02,1.507879959195959907e-01,7.846571454027161455e-03,1.183751567174102549e-02
2.076832522504792541e-02,1.721116734669985576e-02,4.526160739627931376e-03,3.539936051744357534e-03,6.638698896321115588e-03,3.506804862268035269e-03,4.591815330262817574e-02,1.430245048571912037e-01,2.033273627696671922e-03,1.843084619855499262e-02
8.320396488137073165e-03,7.512771471984252582e-03,7.853530609717343514e-03,5.743268785796106293e-03,6.072792744785792535e-03,4.570692205889205322e-03,3.294573872892028743e-02,1.199632750136129800e-01,4.674930662419920016e-03,2.443881545578183850e-02
1.184127448023512830e-02,1.657533817131693786e-03,1.111094471261169642e-02,6.033981391492058283e-03,3.138311136861834764e-03,2.511226218453872262e-03,2.335960052198604239e-02,9.212472652034663090e-02,1.134035716496410370e-02,1.603082402584546373e-02
2.535861601385511546e-02,6.401084722081588560e-03,1.322772016285009809e-02,3.490372192275434122e-03,1.313729024936031997e-03,8.809094504598404679e-06,1.883443978692100895e-02,7.571554332287400157e-02,1.302686387166122721e-02,5.553031926432411627e-03
3.151838965235916057e-02,6.443004766980191603e-03,1.121070934537020738e-02,9.274576641741774825e-04,4.380358229679240899e-03,6.964896618492392652e-04,1.759082641408989123e-02,8.053734142243841598e-02,8.168653092862659948e-03,1.955866167584456930e-02
3.436192803049506472e-02,6.252233088690677468e-03,7.714133261130724437e-03,2.724076221746064407e-04,4.591011154572098921e-03,5.704099862306702840e-04,1.637095695945654100e-02,9.498300872331356948e-02,1.808851354427289809e-03,1.487557554458322079e-02
4.017151755456843665e-02,1.013854714897113006e-02,7.235083534247800305e-03,6.001553261186253797e-04,3.483106224648512602e-03,1.780345299315353336e-03,1.466851246084789097e-02,8.706721509944452542e-02,2.139454954599522962e-03,5.724179607956681771e-03
5.454610616969858550e-02,1.670234214670219403e-02,8.888085548464657801e-03,1.810725457242565867e-04,2.854476588845172597e-03,3.887406360667954204e-03,1.390080672411518614e-02,3.717048191789834588e-02,4.974825986329784767e-03,3.401925661773829400e-03
6.313424702838034419e-02,1.963102004616206278e-02,9.867012354637263657e-03,1.643267540720804842e-03,2.698897493822796905e-03,4.288267096574165452e-03,1.287400408677773223e-02,2.582289741895578417e-02,6.811077985252650749e-03,5.711259908180065653e-03
3.952218067806863994e-02,1.458987257586328613e-02,1.161102412203651908e-02,1.202628504804572566e-03,2.346135380443167481e-03,2.249852155575131005e-03,7.585905655628681979e-03,4.652413302122459376e-02,4.096603463645265286e-03,3.376282461549671987e-02
9.996095341041925583e-03,5.394949470102706340e-03,1.666278859908002993e-02,2.159561040540492350e-03,1.789756649280391807e-03,2.120567506876967550e-04,3.463630071926385515e-03,1.387018284416960401e-02,3.426259298556288274e-03,6.393288359278095911e-02
4.229845615568655209e-02,1.920344963917589454e-03,2.355483240739780423e-02,5.742444508743468554e-03,1.336402511753377294e-03,1.777843864596404758e-03,1.678844762594919673e-02,1.580712318842244016e-02,1.128150160904119355e-02,7.173121167412643828e-02
3.443624506667878477e-02,1.024404019170855988e-02,2.947721050848519514e-02,7.509857740894548828e-03,9.941307567120950817e-04,3.025639595219205627e-03,2.795438801057094705e-02,1.665393296157260256e-02,1.798645040906381512e-02,5.702564868140732462e-02
9.235260292156814710e-03,2.589266228648985646e-02,3.381612614446470599e-02,8.523949933450684219e-03,6.222741355884519503e-04,3.744836719602100648e-03,3.430684825623473572e-02,1.033023287065772955e-01,2.562794274858361254e-02,3.559383705382488522e-02
7.760026766642125380e-03,3.818887110614939406e-02,3.569394698609167776e-02,8.812921407167764384e-03,2.176230460244001790e-04,2.604734224221927526e-03,3.325952124693084405e-02,1.771030619782447413e-01,3.184813890649167839e-02,1.494152401831725166e-02
1.723359862718132698e-02,3.988441494016248950e-02,3.265982161456251059e-02,5.701577196146801266e-03,1.520985028836316073e-04,2.649854385755644540e-05,2.358842926752987082e-02,1.814622445381051108e-01,3.086267984223445282e-02,4.444620974800242083e-03
2.004935272714572503e-02,3.166627242176285606e-02,2.450921693217372743e-02,1.353011608726821654e-03,4.810580103493500943e-04,2.432409241719214483e-03,9.140061987729028448e-03,1.228076961858304700e-01,2.290067484320506067e-02,1.864057835310333963e-02
1.138890193500168187e-03,1.943186345975883231e-02,1.437860506273257351e-02,8.366255690745925261e-03,7.957990492929492002e-04,4.431046662009834221e-03,3.253562288465241484e-03,5.304740760651416309e-02,1.395355519368526517e-02,2.513661331587473124e-02
4.072520723730974068e-02,9.167262391421996184e-03,4.835082136125556235e-03,1.137989285120827136e-02,1.097104923667647797e-03,6.312470669424196344e-03,8.322807389872177719e-03,9.490008278360861568e-03,6.877942457622187276e-03,2.672813037234428313e-02
7.116069410282752083e-02,3.919939938752775924e-03,3.551241007204572562e-03,1.064114777443244189e-02,1.373525535889028037e-03,6.199734731836880307e-03,2.982615605500971070e-03,1.212976965590675804e-02,1.357719576155833724e-04,2.372424768736119960e-02
5.198499315294100032e-02,3.736069834748810721e-03,1.014429468799080136e-02,8.896427351653690696e-03,1.619659810907673981e-03,2.422626006551152622e-03,1.163213775534185576e-02,3.124710087666168409e-02,8.079751165249001582e-03,1.375492367325219234e-02
1.209599044246631276e-02,6.704348170452614428e-03,1.438839802215757802e-02,7.702194485917588165e-03,1.829230515031647587e-03,2.933169766434797366e-03,2.669714911440656396e-02,5.322924080560045151e-02,1.570764574196219232e-02,1.592018440847939916e-03
7.842308529577286802e-02,9.864669703105732879e-03,1.720585997875985484e-02,6.797106370530306765e-03,2.006165814173280736e-03,6.015620937998390934e-03,3.156384213754542117e-02,6.754294962727562524e-02,2.186988586442847188e-02,2.227584876167017312e-03
1.133324428363138153e-01,1.051447000729648432e-02,1.963898781915540334e-02,5.734251849653033799e-03,2.170518380739280568e-03,5.166389510116993315e-03,2.471485599404527056e-02,6.020565962817447242e-02,2.586615416394112688e-02,6.102728790080806306e-03
1.129736330664996152e-01,7.851901591747242892e-03,2.123775356066926259e-02,4.642586321619087027e-03,2.311547153690251665e-03,1.288342118431333796e-03,1.372391786072806215e-02,2.945519436747529377e-02,2.699018370739278069e-02,2.020103444825210523e-02
8.552605199976143213e-02,3.415754759062276154e-03,2.121528857397699669e-02,3.721975278592658254e-03,2.378080450039106106e-03,3.510573575779138249e-03,6.120540972195969397e-03,6.990789224696045481e-03,2.551044230139886543e-02,3.213945747676239667e-02
4.111687330314354322e-02,5.249598396941039351e-04,1.991216796214246784e-02,2.914043082307448893e-03,2.389677549826915541e-03,6.744220469698273754e-03,4.700918728357497689e-03,2.816523630948376128e-02,2.297536177326651649e-02,3.892107731883244492e-02
9.256214461665023506e-04,2.953393679862079298e-03,1.829826804654706429e-02,2.125061715159694189e-03,2.458551210722672176e-03,7.225695239619816038e-03,8.612554575935352924e-03,3.372735882313217248e-02,2.074340198530065169e-02,4.051141251629564177e-02
1.818908543124016230e-02,3.960231315461174365e-03,1.689901927855220337e-02,1.380690001569597923e-03,2.547589966006023280e-03,6.429463198966645955e-03,1.494094922385895766e-02,4.184707958898067903e-02,1.897679657360142741e-02,3.743943227664839335e-02
7.356823480416483686e-03,3.064236229904831847e-03,1.567307326563299741e-02,7.238066689694385618e-04,2.415107219716948733e-03,6.366704560823886402e-03,2.045331681969422832e-02,6.279775350986549487e-02,1.729351664330929655e-02,3.289061379036477273e-02
8.446963049787698311e-03,6.758747271868887491e-04,1.448457313543731299e-02,1.409292059093145068e-04,2.128714006088368391e-03,6.060851953106460854e-03,2.389351652944020701e-02,8.604059087464621669e-02,1.561384767269669016e-02,3.030084482546917257e-02
3.343508895371233997e-03,6.359241165115481903e-03,1.333507671622041063e-02,3.908304164929415317e-04,2.254925933138504472e-03,2.222126255414885471e-03,2.736703799806879112e-02,9.996762795042958560e-02,1.408893093298557372e-02,2.509450503730754206e-02
2.107944743287253758e-02,1.084710655715614286e-02,1.225864112683216871e-02,8.687070402945690347e-04,2.924740074732634035e-03,6.068962237227712095e-03,3.480371399889643086e-02,1.132752091813541140e-01,1.273958354449999941e-02,8.649036441334941386e-03
3.778635665293633705e-02,1.220690232270094967e-02,1.123152045942655587e-02,1.285791723612749252e-03,3.268865599706872842e-03,1.526834136827253177e-02,4.651247869012323233e-02,1.414970081620315900e-01,1.147760850133784996e-02,1.522514964721193020e-02
2.800064667444826863e-02,1.244413388738347531e-02,1.021644126709136090e-02,1.647649880390742892e-03,2.640764243694039646e-03,2.086436167546144860e-02,5.568957522101580099e-02,1.786258948426209525e-01,1.027349586491494750e-02,3.028490633369496088e-02
2.526759864713856892e-03,1.479329352977428076e-02,9.204799196124231059e-03,1.962381976576981196e-03,1.687066218649213621e-03,2.149430347264576560e-02,5.540821717968441584e-02,2.001148487944020005e-01,9.149180877648847507e-03,2.786708769288339174e-02
1.384400278129093928e-02,1.869480142353216121e-02,8.197419687804956279e-03,2.232641567277932147e-03,1.305592974366804639e-03,1.891304135434400055e-02,4.948527168939249182e-02,1.916183220563959233e-01,8.099976441568016577e-03,1.394857827974644790e-02
1.000808299240641026e-02,1.983552355154187888e-02,7.184961024128554315e-03,2.460105939691939470e-03,1.366739294786401080e-03,1.560264353870619534e-02,4.902209477384310982e-02,1.595522309227525581e-01,7.097428891317814938e-03,2.702216618100735431e-03
2.739332140951312826e-03,1.572480455108786132e-02,6.156004818194186524e-03,2.649177586888974440e-03,1.258146332018917268e-03,1.339081871790883532e-02,5.652644493922988345e-02,1.167928638358940591e-01,6.126304210383043403e-03,1.419622452806663764e-02
5.941430888404630392e-03,9.007453275782041635e-03,5.106504901911902358e-03,2.804842635262279511e-03,9.351930511183549535e-04,1.297267340523234128e-02,6.218714851212663736e-02,7.381611064349265228e-02,5.184073170755758471e-03,1.016215855629121201e-02
2.997452440468787588e-03,3.726657019564482386e-03,4.038237725065973484e-03,2.930817380214420769e-03,7.572069932413602123e-04,1.358057671028294576e-02,5.766907913457754858e-02,4.144175190426921396e-02,4.263917104445806919e-03,1.194693156328586678e-02
7.754005262446277830e-03,5.824228206567421892e-05,2.954452739988265748e-03,3.030435772369946806e-03,7.266486461783544081e-04,1.355826225387396500e-02,4.420834292060888543e-02,2.513966583067968330e-02,3.355044140798318919e-03,3.759750725574424052e-02
1.954396253752949814e-03,4.528391368599469190e-03,1.856161489739353290e-03,3.107438993118404914e-03,4.889296948028986267e-04,1.179388000183832948e-02,2.661972185180512887e-02,1.690540385170435575e-02,2.450879124990354430e-03,4.977661381215371661e-02
1.370243594149974341e-02,9.983830142260553125e-03,7.436956357842285960e-04,3.165485868954620065e-03,9.604567245581320739e-05,8.599697337832834521e-03,9.545338493388118989e-03,7.976457393752859476e-03,1.549184835714140143e-03,4.808663590405450050e-02
1.304667682589270850e-02,1.358098243205645150e-02,3.725682602369965448e-04,3.207700812236403097e-03,1.706835825873197817e-04,5.158612312248973993e-03,7.424352862223562027e-04,4.498046783828917039e-03,6.483347757005831699e-04,4.513475335660175475e-02
8.510735753691331743e-03,1.485767673076743289e-02,1.472280874428341007e-03,3.236830145946650601e-03,8.450561271287895457e-04,2.224171694601394678e-03,9.624301041642642496e-04,1.347770391876947603e-02,2.527480590362056793e-04,4.935738926589915837e-02
1.897585960300701008e-02,1.615508582860682857e-02,2.550148397373808683e-03,3.255398688102682098e-03,1.214960931286752314e-03,2.150079088706533491e-04,2.711908692410753587e-03,2.341956477239238998e-02,1.152871274592160832e-03,5.725611374449307567e-02
4.466117865212550914e-02,1.813281387727803950e-02,3.618927965648166978e-03,3.265593047851337270e-03,6.428722680830501780e-04,1.926136905439949747e-03,1.902960360396993914e-04,1.764682744676101395e-02,2.048612590335313621e-03,5.986635823850437049e-02
6.680930748290431209e-02,1.900265376094723013e-02,4.656350041749570887e-03,3.269153949969755106e-03,1.969992428330498944e-04,2.166946108750509789e-03,1.141942773534555637e-02,5.320014990605873018e-03,2.935276812161185644e-03,5.280512560068997829e-02
7.238937783972339279e-02,1.810202315614051899e-02,5.597574102451134508e-03,3.267409734346505244e-03,4.424919485609675549e-04,1.099405559189252759e-03,2.679205603300485738e-02,3.861096487425358381e-02,3.807097991037741193e-03,3.922851889269244469e-02
6.576903763119418267e-02,1.662554000365012996e-02,6.449739719435736152e-03,3.261320749997089884e-03,2.747236260140472871e-04,2.641331674345848059e-04,3.985159405200496691e-02,7.871272889089647729e-02,4.657055048311512131e-03,2.477286281359267900e-02
5.709621241335618991e-02,1.537074744934442336e-02,7.312701280978532552e-03,3.251471157543605467e-03,2.392504099159432993e-04,6.552204689613725340e-04,4.854641449670042685e-02,1.218536094734741920e-01,5.477081628180900490e-03,1.306133523331086052e-02
5.464836298570908968e-02,1.449492103987954326e-02,8.135941359800172995e-03,3.238068036943087674e-03,2.911177363918655337e-04,1.420028805222940671e-03,5.423319201935355993e-02,1.638015187765508862e-01,6.258499414122547719e-03,7.621730629975818211e-03
6.958005230562741561e-02,1.417794669064641536e-02,8.665973352995941931e-03,3.220977624185863454e-03,2.277772592080940873e-04,1.410151616264601311e-03,5.841463546418380198e-02,2.027317936874450111e-01,6.992298495132841935e-03,1.261582943347077691e-02
1.030612792211145767e-01,1.315670002765019844e-02,8.961336853035635486e-03,3.199770071925899483e-03,2.560393943812490727e-04,9.480084183649982107e-04,5.942920094167274125e-02,2.271189409768349377e-01,7.669330736015462363e-03,2.564996861756661112e-02
1.227389128354497427e-01,8.664782963430053830e-03,9.578014390485970961e-03,3.173757232366890193e-03,4.223107432966510767e-04,1.009448501437524345e-03,5.357026491028555465e-02,2.126009242057581849e-01,8.280583371326210446e-03,3.548925185539087562e-02
8.648735471328629354e-02,4.624601592060331636e-04,1.063459273040871268e-02,3.142035245052838752e-03,1.851157675338433047e-04,1.341028627782809212e-03,4.079405751833402316e-02,1.522883588184749670e-01,8.817493948737157444e-03,3.459756613797543290e-02
1.045369606943885111e-03,7.387463026692592943e-03,1.125712731728442662e-02,3.103537710049015640e-03,6.284528958603304103e-04,5.948285162929342314e-04,2.626804953140376986e-02,7.568652297293512743e-02,9.272217863664571416e-03,2.785436718269732742e-02
7.763654416793298874e-02,1.148103477364372481e-02,1.080355673175886072e-02,3.057092217426210685e-03,1.155763386209787864e-03,1.555130893958067565e-03,1.449845156068928567e-02,1.581974386691814907e-02,9.637855914368000446e-03,2.228882823734281218e-02
1.104356201638913432e-01,1.331461115902430638e-02,9.914291377385623175e-03,3.001475538142477171e-03,7.316642115090162815e-04,3.513411503998518839e-03,5.633147475162884540e-03,2.643057660625218117e-02,9.908674368651965852e-03,1.678186859949423390e-02
1.076809980359788171e-01,1.598860433391200569e-02,9.467520927360721303e-03,2.935468832367419886e-03,1.278414277005465402e-05,3.635736764156789150e-03,1.356818376409915042e-03,6.770165225908827966e-02,1.008030604960190139e-02,8.723470211098444810e-03
9.325905742121989861e-02,1.915638739470668095e-02,9.343167707195666055e-03,2.857913094035055036e-03,1.986684981440516322e-04,2.104921349043663813e-03,6.241037489729183915e-03,1.102282670150855071e-01,1.014990962639885849e-02,1.598839061380411507e-03
7.274823596748240806e-02,1.965486304110440965e-02,8.974525485881883896e-03,2.767762226094924033e-03,5.131249933796172547e-05,2.547415988517262976e-04,9.174548604925617662e-03,1.393385366263456826e-01,1.011628588209057683e-02,1.221065143082180129e-03
4.632130744977258630e-02,1.549862526884959388e-02,8.308022771575345258e-03,2.664131708571555301e-03,1.669412250362905593e-04,1.039283184733019900e-03,1.073937179978068368e-02,1.393712096065053696e-01,9.979956573708566661e-03,2.878692295127722144e-03
2.236496756487822007e-02,7.857347438507052487e-03,7.621943927570283550e-03,2.546342265427457407e-03,7.740416189746702363e-05,1.683156249437502659e-03,9.566630411838691200e-03,1.059372161105339716e-01,9.743202872789624713e-03,7.804854676907423301e-03
4.318444837600023470e-03,1.102995120372914821e-04,6.958572941661828916e-03,2.413957844461252656e-03,2.690902981988186384e-05,1.908533899320927858e-03,3.817570529198901445e-03,5.269322146092415143e-02,9.410058544639032449e-03,1.548225656093082762e-02
