6.649790884901153609e-02,5.701184170494456426e-04,4.820992668638669353e-04,1.609052772670856255e-04,6.842959962685705641e-05,1.355112581481088437e-03,5.836970317473411107e-02,2.661447637904424193e-02,2.497703695398734679e-03,1.732027874774503748e-02
4.090730405961571364e-02,8.273037462296754276e-04,6.453068382598897181e-03,1.102108863933729161e-04,2.429016062988256363e-05,3.929887655902561611e-05,5.415302764506556982e-02,2.729722442163911092e-02,2.941047056272769883e-03,2.183755684942217945e-02
2.045653503784159583e-02,1.032019411563215921e-03,8.966748382094120312e-03,6.897550296961991523e-05,7.616860370440541560e-05,7.181350527848712629e-04,3.932740696507774913e-02,3.524194714427271446e-02,2.161602994048611535e-03,2.185808272383222770e-02
5.374712928518423846e-03,1.179940705396265036e-03,7.506751802702707130e-03,3.786136316876159268e-05,1.267303422844396168e-04,2.110296926111749141e-03,2.063481646963704133e-02,4.621319378944189343e-02,1.447586376172131477e-03,1.586114298588832405e-02
5.681581554588387151e-03,1.268307515304393108e-03,6.949401176532914171e-03,1.721418546208359566e-05,8.804864470784411212e-05,2.246249240032012137e-03,3.602490537623102146e-03,5.209859059818491844e-02,2.346915342534916862e-03,8.604925877584143623e-03
1.687672290156755350e-02,1.296004234709542072e-03,9.044485405516358018e-03,7.051468327011236042e-06,7.207940610928190335e-05,2.473734493976238822e-04,6.467363279307856636e-03,5.116066551963333736e-02,3.621713411807890234e-03,7.583318575952230703e-03
3.400717661902499106e-02,1.263598815768269884e-03,9.824348503848976538e-03,7.059086296620023187e-06,9.835192996784077946e-05,2.666383490507604186e-03,3.851351257546644855e-03,4.662887429735110972e-02,3.067467990763985981e-03,1.377506850195418277e-02
5.454817187943633572e-02,1.173339745427805008e-03,5.864088793794798929e-03,1.659633445876514189e-05,1.141948395921067873e-04,4.646962290510690298e-03,9.516585925832607776e-03,4.009659314283808840e-02,1.402527663871265236e-03,1.943382308629017924e-02
6.346073565308510411e-02,1.029110759764060440e-03,2.822466812426103859e-04,3.470936294419640781e-05,1.095646967005606563e-04,5.185306145286202109e-03,2.011778765828457077e-02,3.117460829459035160e-02,5.305293519938548150e-04,1.708311069772214946e-02
5.099849792909397217e-02,8.363441559904602821e-04,3.851421512392953425e-03,6.015273451490390583e-05,1.090430777575494424e-04,4.990398448265557542e-03,1.593002844661737735e-02,2.014695599256442760e-02,1.614218731168191585e-04,7.512079200124693358e-03
2.939992896518540261e-02,6.018945901053923469e-04,4.403026243528193259e-03,9.141863523848866701e-05,1.170376130746710107e-04,4.685210999641255605e-03,6.736780294819561931e-04,8.351814404626720090e-03,1.532616068266446415e-03,2.435775672924910071e-03
1.326025911062577584e-02,3.338762355317252944e-04,4.314424632896798201e-03,1.267730754730323926e-04,1.208569545476689312e-04,4.357066246938730465e-03,1.302852581766362518e-02,1.083632450532646518e-03,1.581216380348862086e-03,6.961706511447597612e-03
7.205201891755145908e-03,4.146709968418283874e-05,3.402881727189517765e-03,1.642982408247063188e-04,1.184364269072367637e-04,3.832155220256385462e-03,2.043300652838319145e-02,3.384937920373908352e-03,1.161353406683619241e-03,5.220068866150079194e-03
4.580152684604719276e-02,2.653148719299606344e-04,7.906085303242936383e-04,2.019399948643482300e-04,1.173186693345554092e-04,3.075316265800207179e-03,2.449149288564321514e-02,2.591931080134289404e-03,4.291031144881080929e-03,6.371178860164806480e-04
8.511204262577153068e-02,5.758585517466438715e-04,4.558704251797041996e-04,2.375594012249430064e-04,1.173547897557703309e-04,2.684323512707883271e-03,2.403885726892577429e-02,1.064281696489045859e-02,5.065128069499257382e-03,2.461935583114013837e-03
9.397670934294842515e-02,8.792232996322576393e-04,2.798106552785570647e-03,2.689870257112051289e-04,1.107086980354592392e-04,3.238623107989379094e-03,1.552960989992195270e-02,1.311877991321693145e-02,4.280827400048778895e-03,2.674477035981405980e-03
6.980367715622826097e-02,1.164413148497629984e-03,7.379342253329670281e-03,2.940787020457395480e-04,9.916450740483805017e-05,3.690691347883539100e-03,4.384534892406359574e-03,8.793083616870284169e-03,4.070602673771416685e-03,2.548360637973427073e-03
3.565121424075784473e-02,1.420654813658265040e-03,7.795677020261911928e-03,3.107713999383576557e-04,9.515411939209254355e-05,2.279110696793499626e-03,2.209937055689943034e-03,2.140075543615691488e-03,4.349890208846528966e-03,5.119121464061286708e-03
6.469931549126965199e-03,1.637672702179635790e-03,4.846813912588678400e-03,3.171378225964573637e-04,9.403925983010087437e-05,3.699826369591618837e-04,1.180597138258950018e-02,2.354322471795637986e-03,3.649989002854034902e-03,9.744572741428937299e-03
1.878231408594108198e-02,1.805954134837142559e-03,3.982058151799791612e-03,3.114383830758967234e-04,7.104346275158042608e-05,1.700784517829208439e-03,2.309420009112488417e-02,2.790252986056927960e-03,2.028453198657292379e-03,1.287544039624277138e-02
4.174800512924468215e-02,1.916998197443265349e-03,6.092828916688945891e-03,2.921692646544777499e-04,3.605706967257528954e-05,1.410355770686293935e-03,2.515296716774511124e-02,4.955122592949466609e-04,1.214529346348969035e-03,1.245621511980077138e-02
6.040068454687145399e-02,1.963542005948155575e-03,6.303094997777399303e-03,2.581053585152817079e-04,4.164512399309911188e-05,2.170552948649424278e-03,1.729308223239893125e-02,4.935675941821971585e-03,2.146103948532451702e-03,9.356160803663226763e-03
7.344544674031622256e-02,1.939758692665592612e-03,2.371230524966638949e-03,2.083369904573633617e-04,6.822252839389561225e-05,5.193996361519722348e-03,7.148933638748945774e-03,6.586007727136979593e-03,3.800270782102030832e-03,5.076222966685492097e-03
7.830287136480408583e-02,1.841422087134044448e-03,1.566577874430407193e-03,1.422994943427765668e-04,3.830618047595367748e-06,7.756214439353466793e-03,6.543583770818666660e-04,3.327079415848034974e-03,4.789061285380785682e-03,4.671238051341041961e-04
7.358572391725005934e-02,1.666033858761807899e-03,1.363974105145323874e-03,5.979486010347015293e-05,1.121328125344020152e-04,6.753329883252605359e-03,4.031538899484287709e-03,3.610838351891333675e-03,5.023505259208213211e-03,4.107646960140677421e-03
6.514443730998079052e-02,1.412909790482822598e-03,1.757668930016600180e-03,3.899512567643150310e-05,3.648692999210421636e-05,3.058046642805694985e-03,1.226777707558941721e-02,1.209535793494573817e-02,5.226166763203958336e-03,8.770751723463154209e-03
5.334184647905049204e-02,1.083222841453034642e-03,4.293985947371506059e-03,1.535046229358058567e-04,1.629077932397948172e-04,2.832718662171447035e-04,2.474603777718683770e-02,2.068789107843755498e-02,5.714556786558870095e-03,1.260339763600502698e-02
2.207172846913157266e-02,6.800017085587574135e-04,4.862739045226360454e-03,2.827885253397023125e-04,7.683176362001032018e-05,1.361860442613638071e-04,3.631035727984641831e-02,2.845063602735661834e-02,6.377485373860454325e-03,1.263632439929725931e-02
3.347997450449937545e-02,2.080846855017637060e-04,3.229485585915961403e-03,4.255362305343775168e-04,8.784674112927972007e-04,3.181631863904875132e-04,4.202564210629974872e-02,3.676726726469503603e-02,7.145523023935567916e-03,8.038348704053337179e-03
8.171703245269135163e-02,3.259702826543121987e-04,1.171336886573373778e-03,5.800941113822984238e-04,1.371865580305733695e-03,2.210172191047238624e-03,4.188915280468558100e-02,4.831342825336120556e-02,7.875371671587722000e-03,4.045188520325372107e-03
8.793961499388973369e-02,9.140173693924243505e-04,6.997824881733945117e-03,7.444961907551924394e-04,9.184125195028708041e-04,4.745359350636355229e-03,3.910375704884093417e-02,5.967553997824475570e-02,8.441809558648968870e-03,6.914595783080431171e-03
5.831704370501256812e-02,1.546493441669998664e-03,1.073399900061460487e-02,9.165023184554138688e-04,1.560871235141194626e-04,5.599143440703576932e-03,3.454688510514228317e-02,6.090244798039861490e-02,9.310854772282866482e-03,1.552196762492955885e-02
2.461094162716930683e-02,2.212623449900641415e-03,1.121885940163880671e-02,1.093642961023982970e-03,4.560939360121055364e-05,4.141719506355065819e-03,2.561009538012661013e-02,4.891585914882143338e-02,1.087834840202511755e-02,2.191987584903740127e-02
1.578759915696684168e-05,2.900655767538822243e-03,1.140966725713096763e-02,1.273269547806449558e-03,1.899706141161724374e-04,1.515226770727553553e-03,1.317395272915957045e-02,3.562224407182672248e-02,1.167937918435921554e-02,2.042972479054533386e-02
2.638203947979123054e-02,3.598121856352851609e-03,1.392550726076210652e-02,1.452609174480918751e-03,2.994106467909611298e-04,1.210150646797845649e-03,5.530058526509626718e-03,3.545654741723410636e-02,8.976209214872894401e-03,1.330578245134883889e-02
5.762550121073019976e-02,4.292114007289046622e-03,1.771942800862782649e-02,1.628822353069368052e-03,2.143279399422493286e-04,3.656936539597100463e-03,9.241929523476414415e-03,4.794914622712549007e-02,2.531245448007504902e-03,6.636770736724828014e-03
7.509473400422621292e-02,4.969574429234005150e-03,2.002955130284751056e-02,1.799062417077290817e-03,1.774046088148421114e-04,5.213792713265186576e-03,2.046024560320609809e-02,5.854132586048653442e-02,3.618979259431269468e-03,3.880068658678991530e-03
6.595044219459501866e-02,5.617588650205736223e-03,1.959579949332564131e-02,1.960535141619903967e-03,2.276960411578712428e-04,4.751286771319002990e-03,3.147117696279983640e-02,5.585034173949185443e-02,4.957159421650645867e-03,5.533735816270266353e-03
4.773321834308864864e-02,6.223676065867511133e-03,1.848178528943076812e-02,2.110557124911658158e-03,2.530584281026433571e-04,1.861887861613832802e-03,3.926273871821464589e-02,4.287515491655225636e-02,1.328625819783804587e-03,1.121882488854266183e-02
4.182284154400318921e-02,6.776070504299893868e-03,2.106514237786576496e-02,2.246611505004778367e-03,2.336186139691856305e-04,2.098555827252112076e-03,4.223085606888665744e-02,2.977993622422487469e-02,3.477358084718878452e-03,1.837281396126298066e-02
3.540946706614398615e-02,7.263983873473530382e-03,2.831333086904387272e-02,2.366399648863535751e-03,2.215621842266027406e-04,4.913773074442118888e-03,3.779567883898052316e-02,2.151014739045090454e-02,6.183382543013403627e-03,2.204945176256258368e-02
2.981289315570559081e-03,7.677846354401996788e-03,3.401347445410404097e-02,2.467887537252256777e-03,2.268769745381388951e-04,5.411660736670220045e-03,2.878822217154837493e-02,1.683685949741684645e-02,6.296354186426858859e-03,1.941624361345865163e-02
4.459900290370165388e-02,8.009517191160541241e-03,3.175529729439609955e-02,2.549345686543433385e-03,2.253560419997096610e-04,3.942236750130795157e-03,2.326577030760215714e-02,1.383597151565101914e-02,4.691612412812704545e-03,1.258498598407033035e-02
6.999728182904033091e-02,8.252460810666108551e-03,2.436640790894258057e-02,2.609381618719904330e-03,2.121880221431950825e-04,1.269678970914162215e-03,2.384578228541574252e-02,1.033332350056966747e-02,2.110055451362030654e-03,5.786903679938141740e-03
6.098430363798699322e-02,8.401883758654433293e-03,2.062389347017271751e-02,2.646964088776419290e-03,1.988613985649144086e-04,1.906983272147509722e-03,2.439748718684212753e-02,4.370765959855792485e-03,1.101739497517404461e-03,1.844953107653612891e-03
3.770772479162030899e-02,8.454828925904999543e-03,2.402175254485927614e-02,2.661438447781378294e-03,1.880266838879604140e-04,4.389882407969720839e-03,1.971814927333991746e-02,7.904052954754454269e-04,4.848169986258613236e-03,1.454556351731537637e-03
1.663148195402099766e-02,8.410224753219806837e-03,3.061800979592342944e-02,2.652532698866462944e-03,1.746312038788468992e-04,4.991773991297480430e-03,1.247646777042215639e-02,2.138054377555211397e-04,8.046555054323832265e-03,3.378999942117443672e-03
2.730307039090001595e-04,8.268888130982338103e-03,3.655474834555266089e-02,2.620354099932412258e-03,1.576945602128780924e-04,3.991737253096275251e-03,8.491669911415627298e-03,2.670138755177069168e-03,7.856959884370942962e-03,5.141461066778941699e-03
5.920283905358611140e-03,8.033480478734297825e-03,4.159181974205796578e-02,2.565376484907495522e-03,1.399105498844911385e-04,2.671417058150691876e-03,1.003169734365420146e-02,6.155032845673292195e-03,3.099152718024013493e-03,5.467831306041325348e-03
1.121713636331707689e-02,7.708417803032515878e-03,4.572695962346256388e-02,2.488418565807577493e-03,1.221187544143795441e-04,1.417337463929740395e-03,1.535085053660281348e-02,2.786695127566497787e-02,1.606600249243509641e-03,5.759263122699500442e-03
4.265776548550046648e-02,7.299737474043648672e-03,4.774853949628662247e-02,2.390613521503594848e-03,1.034152741796939617e-04,3.196635791968797940e-05,2.032918301126399735e-02,4.759703397438849737e-02,7.834913948524977953e-04,7.001259815864431697e-03
5.780761504824020319e-02,6.814925237173083579e-03,4.715184659693342356e-02,2.273370695007598166e-03,8.373191037032232792e-05,4.662138846453856358e-04,2.047571165746353561e-02,5.201760783019142298e-02,1.113770900235543440e-02,5.975364121085698262e-03
3.830224367017846104e-02,6.262705267260454574e-03,4.370026151170609136e-02,2.138330818866712637e-03,6.380139707175833466e-05,1.193224975397981242e-03,1.607751123053781719e-02,4.209326933967769829e-02,2.234807498141512180e-02,1.645363063063933580e-03
6.663465174350211712e-03,5.652797621087705775e-03,3.656178226337485765e-02,1.987315732345163160e-03,4.394126554976452180e-05,3.733019836336517149e-03,1.254135550126262745e-02,2.622567285740276880e-02,2.724891063774022640e-02,1.378752039373859484e-02
5.546702390869791104e-03,4.995651945692975576e-03,2.767775972780319588e-02,1.822272832641555962e-03,2.405660516741516387e-05,4.027726236063297084e-03,9.131144792747594024e-03,1.114364584402393818e-02,2.521116121797924159e-02,2.208982483326829560e-02
4.462710210879881900e-02,4.302165708498064192e-03,2.332908293475945138e-02,1.645215946702862156e-03,4.199698980034066717e-06,1.180899892765430821e-03,7.287378760694677993e-03,1.599655823477095931e-03,1.949795029619315334e-02,2.192968258423583228e-02
8.474639300901125327e-02,3.583387766936102677e-03,2.748621095616963703e-02,1.458166287887213957e-03,1.545159160913445881e-05,2.233719046968470675e-03,4.667891503042208290e-02,1.033328455779881309e-03,1.170132349828031937e-02,1.800098597385858118e-02
8.529669167126198437e-02,2.850210872882810460e-03,3.536052806932824671e-02,1.263094427486887014e-03,3.485625308662215478e-05,3.652443734771202658e-03,9.654302136211551089e-02,7.823194902071712795e-03,2.659952893346259964e-03,1.652490850908705511e-02
5.093695100531225178e-02,2.113073878189907114e-03,3.784289230994498932e-02,1.061860106222969414e-03,5.406149580112386011e-05,3.263966258638680874e-03,1.291897970474602253e-01,1.315836755707757225e-02,2.869115201066650082e-03,1.673412988635796309e-02
1.899685526871513694e-02,1.381689566152981448e-03,3.141969857785467668e-02,8.561525191216352165e-04,7.308964245958308288e-05,2.661511940255398799e-03,1.291493676190216822e-01,8.568766857970944520e-03,1.575195503116286200e-03,1.472632858762415280e-02
1.370571849684538122e-02,6.647773110154760363e-04,2.061467078334208378e-02,6.474425848504045686e-04,9.205562444286504971e-05,2.682775702160478289e-03,1.054410217617867407e-01,1.638649795525078806e-03,1.513796760115017001e-02,1.116398506822075323e-02
2.562912214603753000e-02,3.021134941301429570e-05,1.122170274692721112e-02,4.369463812607217380e-04,1.112033785057267604e-04,3.166000801559448134e-03,7.680793703355671964e-02,1.687035849521631567e-03,2.772857179727304319e-02,1.032378259378718965e-02
3.136471564378013471e-02,6.973085469265834484e-04,3.857109209259504748e-03,2.255793781518134139e-04,1.306419385769115561e-04,3.300426055543358508e-03,5.251323554329802301e-02,1.629590201602955021e-02,3.048666860619022451e-02,1.471314281596459994e-02
2.092835706536440299e-02,1.332140188695639512e-03,4.943647388314544380e-03,1.390654235827340984e-05,1.503493582088174054e-04,2.188519385771121525e-03,3.002860107030308826e-02,4.031252674605382419e-02,2.419420119518748621e-02,2.299057836532206536e-02
9.504697623430988142e-04,1.932051507875142066e-03,1.685835557497758833e-02,1.978646676370117170e-04,1.707302203691509195e-04,2.221615265849037364e-04,9.476347774149254666e-03,5.216056191608676312e-02,1.494218807093119702e-02,3.077751213332169736e-02
3.032061088020087877e-02,2.496336570796025937e-03,2.918273243803707132e-02,4.098552069981222954e-04,1.925617593533787079e-04,1.107496395360152300e-03,5.114105553218996521e-03,4.723423406122462948e-02,6.580538387422498088e-03,3.385059277815807843e-02
6.223239765166742321e-02,3.026302914948360810e-03,3.828430854878549922e-02,6.225476515154795745e-04,2.157811904505551606e-04,1.772413805373420975e-03,3.068304952026351673e-02,3.502357066138953035e-02,3.268379496765003774e-04,3.192493548284371097e-02
7.771106900248631044e-02,3.524966192627769241e-03,4.357563591992608815e-02,8.368682816819757566e-04,2.395704389386091857e-04,3.358613433624641278e-03,7.205536171406619339e-02,2.518773725597699825e-02,2.853814707338423601e-03,2.747921093825856503e-02
5.864135101356091756e-02,3.996938013983089219e-03,4.703241315127963673e-02,1.054106787077974594e-03,2.649281566324862189e-04,5.616385042741247821e-03,9.310550391546969229e-02,1.854719772886282564e-02,3.209455509278981346e-03,2.159902153001314745e-02
1.877463615242707176e-02,4.448957864802164687e-03,5.041664065557390634e-02,1.275696750519306200e-03,2.945229336124160244e-04,6.140134091912460498e-03,7.559559036649758645e-02,9.248433281504570003e-03,3.374110655514288293e-03,1.393507126796979592e-02
5.320068699345760835e-03,4.889879942513370055e-03,5.421426935545554937e-02,1.503309447817514173e-03,3.271718356970727023e-04,4.716302898102306407e-03,3.602599705256129964e-02,6.979997471471171069e-03,5.618435930381120852e-03,5.353096167331132353e-03
3.629033554933182998e-03,5.329126545711976477e-03,5.820795130594152988e-02,1.739224827242690516e-03,3.579904009099047000e-04,4.251066560127173335e-03,2.197525042220775573e-03,2.591408566888691103e-02,8.481339284535011069e-03,1.846945363768118286e-03
3.295131054951084409e-02,5.776130986678984156e-03,6.203660056023992120e-02,1.986014510931487145e-03,3.901651978738203993e-04,6.072462803505505879e-03,3.522920070208301196e-02,3.721993650960295219e-02,8.503531987743661105e-03,5.905468925221183177e-03
6.455897934401023941e-02,6.242959195672551261e-03,6.577891761219330224e-02,2.245591705725683094e-03,4.349158906687949759e-04,7.801999242027582437e-03,6.715627298834439540e-02,3.498195689097408773e-02,5.334986287646717104e-03,7.469132464043776350e-03
8.499424381510026216e-02,6.744794677002245199e-03,7.020740288910000404e-02,2.519694170344215570e-03,4.863310824586240247e-04,6.931033559753279824e-03,8.464727558704362997e-02,2.327471015361921164e-02,2.707441739792791797e-03,9.301273737094861369e-03
8.240600114120494313e-02,7.293491260630335926e-03,7.543251421814312074e-02,2.811740947097322516e-03,5.207745082124074854e-04,3.676050943328498365e-03,6.423620127109223865e-02,1.098754196756147536e-02,3.621521020259326710e-03,1.324502632997130898e-02
5.800920868141305753e-02,7.895440776064499219e-03,7.969718256632181419e-02,3.125653226467398592e-03,5.505951818832504003e-04,1.864632579352048180e-04,9.032635783301963886e-03,3.861903940515391993e-03,6.559854756218144040e-03,1.796706976950243964e-02
2.986937118734152297e-02,8.564313115676631949e-03,8.125001044709512232e-02,3.461655652980395997e-03,6.267888800901923229e-04,3.134417354781926946e-03,4.127886939120376658e-02,5.244763511827047267e-04,7.726120897709966642e-03,2.034533238253640602e-02
1.303035953812524753e-02,9.324948222311241902e-03,8.021218086369631683e-02,3.818480768969935435e-03,7.243453594002479973e-04,4.486739216938612912e-03,5.010964786858618236e-02,4.234365243763524474e-03,5.308646755448940581e-03,1.858749430715483583e-02
1.183067375784109185e-02,1.018525862056304798e-02,7.653223356760593954e-02,4.202192660236745043e-03,7.334328078982808342e-04,4.587310561852697872e-03,2.286349037447277244e-02,1.054359195075101757e-02,1.716763773438011447e-04,1.426972286467555022e-02
2.923706699706154696e-02,1.112622116681183382e-02,6.933009835006252730e-02,4.621517053484481934e-03,7.040111036385080867e-04,4.376817376012073768e-03,3.478374466750772803e-03,1.212132978356944384e-02,7.231757250643495658e-03,1.115445347173922748e-02
5.604919011355762731e-02,1.216071005602951949e-02,6.149881061975912000e-02,5.068696423668040893e-03,8.739509399887450099e-04,4.446188786887932641e-03,4.481722774859434044e-03,6.800551436411841726e-03,1.274089054337067782e-02,1.073147491135048592e-02
6.003017557483074362e-02,1.335556866438850597e-02,6.061097495881405395e-02,5.528802296778015553e-03,1.151266502623378863e-03,4.771900581703211568e-03,6.716208200717634774e-03,1.083631163472026111e-03,1.314027991434894675e-02,1.009320201289858401e-02
2.126517359245353248e-02,1.470579732816164678e-02,7.088807656117797340e-02,6.020724953265059638e-03,9.819819245421843902e-04,5.014945564298234695e-03,3.513740045047958858e-03,1.054040321106121522e-03,8.699841367355947569e-03,5.984034583284319336e-03
3.063723698652617844e-02,1.608350573292150962e-02,8.679557391441213021e-02,6.578241737197930601e-03,2.931577793125090549e-04,4.575411792060655493e-03,1.392180263450772636e-02,5.575470191747619424e-03,3.404632497962767693e-03,9.229417637001910164e-04
4.935740389108018988e-02,1.750479767594781064e-02,9.726506355917542701e-02,7.161903855337236648e-03,6.481849492173193561e-05,2.852255695997481157e-03,2.135355409042832137e-02,1.048885211774913326e-02,1.301259974856261393e-04,7.073939207122824542e-03
3.257875925730841643e-02,1.924543798680941956e-02,9.546873695490826206e-02,7.697113110618795592e-03,4.374446780276294248e-04,6.418933221423380213e-05,8.707376680757984017e-03,1.464999660308607954e-02,2.271247302396806056e-03,9.263310393537595167e-03
1.717477714876999156e-02,2.127319286809731605e-02,8.480721018013184787e-02,8.263159868514407050e-03,1.198730064817485428e-03,2.485249514333013384e-03,9.748448410935932687e-03,1.931698091579717516e-02,3.512982130976078071e-03,6.987289693659779616e-03
2.147044045000762180e-02,2.298448788712388613e-02,7.665090054188941626e-02,9.016716663036876411e-03,1.583939549694566478e-03,3.523782416906271267e-03,2.174119707548922975e-02,2.231543272257942301e-02,3.892790401306361978e-03,3.961902987288024557e-03
2.558457873662304746e-02,2.441927630503892138e-02,8.002198517091080321e-02,9.788407745766305318e-03,1.650914878147334650e-03,2.963450138167797801e-03,2.825683106834037811e-02,1.680713759404928523e-02,4.640526184458372908e-03,5.635616264548945660e-03
9.893633696302694958e-03,2.689925156242435958e-02,8.961394468338715336e-02,1.024146509175741064e-02,1.415791693590935348e-03,1.421374246923710416e-03,2.809303276715718195e-02,9.819793619455494983e-04,6.553812998445317749e-03,1.236033773163594876e-02
1.809624642697678365e-02,3.030259718392920229e-02,8.556802530157230080e-02,1.069594767275452475e-02,8.163592114166657579e-04,8.161439001901062357e-04,1.159413746320183368e-02,1.489209588677263725e-02,7.326339552075028343e-03,1.732626255192648915e-02
4.431387060657760585e-02,3.048590908642449457e-02,5.078591841251697825e-02,1.163397856364896399e-02,4.431187991738762136e-04,3.448464171215354004e-03,2.510041989779868143e-02,1.987861741879001776e-02,4.397520240734047528e-03,1.392167287715764985e-02
6.641503504893503385e-02,2.312341223027003165e-02,1.058448984786519720e-02,1.166834565476182473e-02,9.102053859957228831e-04,5.520964103674587745e-03,6.804260228251669818e-02,1.639822803462324258e-02,7.895521032275898388e-05,2.717966484982768400e-03
7.680414280666617022e-02,1.040983743868068544e-02,7.427506817308465736e-02,8.262510079273284805e-03,1.781210001888371055e-03,6.310159579698401341e-03,9.450771315679321050e-02,1.220798246674205736e-02,8.098232830800582973e-04,1.077070787586545224e-02
5.807557243987101353e-02,2.291431493602188660e-04,1.148567742473924763e-01,2.048283862345410059e-03,2.156489860359570628e-03,6.296970498518779900e-03,9.717164549505938331e-02,5.190232533598264017e-03,4.376473561221870708e-03,2.246805567184968419e-02
1.616513675823163382e-02,5.443331898563393001e-03,1.242527811339339261e-01,2.982449482408584731e-03,1.610922225767264350e-03,6.350031306245877520e-03,9.357482370628129875e-02,1.015725338473889329e-02,1.253999849624069275e-02,3.130354638955691604e-02
1.239445391645238766e-02,1.010165526317750341e-02,1.159292850839061528e-01,5.894355595705508787e-03,1.216635126032524378e-04,6.568468525482484832e-03,1.023620141148839091e-01,2.748720585813733963e-02,1.940048473754384106e-02,3.604750015016307263e-02
8.797488835836673321e-03,1.993938369673322469e-02,1.123630844034283760e-01,1.088589004329492717e-02,3.093683994627950597e-03,6.703274989738958710e-03,1.161684283240629195e-01,3.377128936406037507e-02,2.291748216790202505e-02,3.441697501670622911e-02
2.150574453698268773e-03,3.315752405936011477e-02,1.256389899046195247e-01,1.997120947791715395e-02,5.977343523666527221e-03,6.981528437487624118e-03,1.115127874895648075e-01,2.504008897928840238e-02,2.344226014814412146e-02,2.717518599505568469e-02
4.655560392515257703e-03,4.239752402516667323e-02,1.478286684952546670e-01,2.840185207848812052e-02,6.656290635870893736e-03,7.490005009327717518e-03,8.068020746175370850e-02,7.116860742990140792e-03,2.234990220267698072e-02,2.046109875978227924e-02
1.580213031424484993e-02,4.362341577019837602e-02,1.592065324543642524e-01,3.062902909186162800e-02,5.152378897720302602e-03,7.227617011806857124e-03,3.928903071505483735e-02,1.303315728622063407e-02,2.086497588079859467e-02,2.022267865137152704e-02
7.121408185033847697e-03,3.983591348054765779e-02,1.461841065113315963e-01,2.658609990760149935e-02,3.991634211790851330e-03,4.991373358256516804e-03,6.494752275079332914e-03,2.829670727378139419e-02,1.886090109934525708e-02,2.531014372192451345e-02
1.479716609190130129e-02,3.576945008652354652e-02,1.129761368213624273e-01,1.939690755114305970e-02,4.390580550744784677e-03,1.163206726369577513e-03,9.644171318070205584e-03,3.034332032739748067e-02,1.503343403318661842e-02,2.956368316069648075e-02
2.312193038048195384e-02,3.233250084482797854e-02,7.597389723731921840e-02,1.097664071416410564e-02,4.574700527715401879e-03,2.451698579120112527e-03,1.339135021557569596e-02,1.614382395411034093e-02,1.018135659326450601e-02,2.969937648063759525e-02
7.362813524215150625e-03,2.813592986294984402e-02,4.533078548293895810e-02,2.323982051669875020e-03,3.086489848753546598e-03,4.591404037936290712e-03,1.749216328330072123e-02,6.657581786753101125e-03,9.351255557616594549e-03,2.812543665205026466e-02
2.011283279934629464e-02,2.270566541848218628e-02,1.498835680894624635e-02,5.494851126210437316e-03,8.565158582320091902e-04,5.225064436294018892e-03,2.914212409962541050e-02,2.497837625938785153e-02,1.651538672596476742e-02,2.889102834106890144e-02
4.493912504532228402e-02,1.521302135176458639e-02,2.251646884527264136e-02,1.233139490030884036e-02,9.284354555927289317e-04,4.428490646500928517e-03,3.609805869598358558e-02,3.037577223719244851e-02,2.698703576271717364e-02,3.240432056581885045e-02
6.233352907627226491e-02,4.502724947855679845e-03,5.418559405572320742e-02,1.770313867125290763e-02,2.109301632580544861e-03,2.392669092045161469e-03,2.049178130472139800e-02,2.382766518053576824e-02,3.126278307511735216e-02,3.389903823401180238e-02
7.256959692536715800e-02,6.164608745281643931e-03,5.450416412170330793e-02,1.861923633440385958e-02,2.402263553148189547e-03,7.521795660243431282e-04,1.171447562334427400e-02,1.190968998299795321e-02,2.804315118572358809e-02,2.831567316182386287e-02
7.896940244582166535e-02,9.729458393520198922e-03,2.038665626849239104e-02,1.286996444828543071e-02,1.693668267822718600e-03,1.600798393535029281e-03,2.948514386207067364e-02,6.145735502944638454e-04,2.533821147506526775e-02,1.658969843483419637e-02
8.814543255954085388e-02,4.593345882810584598e-03,1.803573998195956082e-02,4.098048314267189497e-03,1.195586223224734271e-03,4.400642103706497131e-03,8.733020186067794177e-03,1.238780715344179467e-02,2.561966021669385279e-02,3.719447037825893750e-03
9.891332324566894096e-02,1.788021278096602485e-03,3.212073095692926511e-02,1.021005876697942067e-03,1.884325829454190073e-03,5.864547073081384163e-03,4.269925873777367237e-02,2.041171602309737459e-02,2.063144260749543574e-02,8.046990547574099303e-03
9.479241488353463974e-02,1.954141015337133858e-03,2.475748527868200724e-02,6.356455851696908100e-04,2.622884726987159947e-03,3.886676763015142321e-03,9.399819499529084299e-02,2.031309605627456064e-02,6.451628670930451871e-03,1.843613812704352969e-02
6.412161081071668378e-02,3.264869691912530413e-03,1.365762706325405855e-02,1.162016301593963869e-03,2.002882845103156825e-03,2.453361103327277330e-04,1.191139861443001741e-01,1.473723401732263995e-02,8.207030799221101333e-03,2.417287586358657023e-02
2.586038494584973202e-02,7.928892956678500192e-03,3.934353495167736484e-03,6.999112413536911570e-04,7.771630744852749215e-04,1.537923486589019796e-03,1.133145124330289522e-01,1.314127054855805318e-02,1.641920863491524996e-02,2.281367425710438546e-02
1.660413049379988112e-02,8.620533376124084671e-03,4.245206913222501592e-03,1.557479497702272042e-03,4.575631869813221592e-04,2.712914654673441949e-04,8.827285682090531271e-02,1.781372787924749915e-02,2.418321677590152402e-02,1.919654694126661856e-02
4.595891538099117213e-02,6.455168717648595775e-03,1.574210136529950038e-04,3.357426577356848688e-03,1.008962557705106672e-03,1.962342838450567388e-03,5.883073657226239872e-02,1.873626328300106308e-02,3.752918604047082024e-02,1.952149769105481977e-02
7.998661822675946775e-02,4.273148958110746173e-03,2.109580368529970912e-02,3.300546002316589751e-03,1.632617954567379187e-03,2.801268141443200889e-03,3.609038393133900957e-02,8.727552994306374615e-03,4.853451002350561011e-02,2.150672829554159393e-02
8.129134835933267411e-02,4.769640325765444472e-03,4.107220478051187840e-02,1.022460650041015582e-03,2.181555155309843931e-03,2.488635945317412782e-03,2.550828083186982773e-02,4.706667454331330686e-03,4.606683588733916090e-02,1.879963229555923349e-02
5.385462696591752224e-02,9.839742616435064732e-03,3.846156584201110978e-02,3.149378683225156558e-03,2.597325775442541063e-03,2.787163787847286162e-03,2.395983639144617233e-02,9.033194123601729145e-03,3.351065645318610647e-02,1.211891284191099830e-02
3.007128805432339111e-02,1.847544110648845911e-02,1.518223954122873733e-02,8.614400014085848295e-03,2.635157471533023949e-03,3.475306729432760776e-03,1.985208204668932608e-02,4.271286023137029625e-04,2.290614309964538603e-02,7.752062995456205849e-03
2.239908518550940211e-02,2.578544532740288317e-02,1.243398942912327977e-02,1.459570048448884279e-02,2.690753077853518058e-03,2.190061096450096265e-03,2.315151327978368090e-04,1.703859183192620724e-02,1.643300669900392766e-02,7.831544937998364056e-03
1.261611909968134854e-02,2.679778564271290825e-02,3.298234732874162634e-02,1.875446444328265905e-02,3.105904487180295281e-03,1.375466962360110540e-03,4.034316519443649496e-02,3.679713404970062079e-02,8.072929089685045370e-03,9.187541139550878255e-03
1.351926205633803904e-02,2.065532939937499146e-02,3.782619018286970114e-02,1.711622626792341090e-02,2.633298110059730055e-03,4.118221659485069887e-03,8.336652239430100697e-02,4.912876489582860412e-02,5.555247398983656146e-04,9.407860129694701687e-03
4.654995779540420375e-02,9.271497794314411192e-03,1.743301299953009184e-02,8.251049904896732082e-03,2.437618707126139339e-04,4.193521171388815000e-03,9.719810852138091595e-02,4.475083536375869947e-02,4.957047356378447601e-03,9.020858963225462587e-03
7.144177607858664958e-02,5.493315377367934127e-03,2.351891855548549071e-02,3.476097299509591648e-03,4.350047152416992337e-03,3.468291951434908371e-03,6.998185866525795384e-02,2.530996025563169230e-02,2.304078421945113947e-02,9.436974723129215245e-03
8.586479216670654668e-02,2.010133965326598576e-02,5.911246331211016114e-02,1.189351678382277906e-02,6.463754271066545452e-03,3.002274428631821531e-03,3.234446946026875436e-02,2.721505515648659987e-03,4.255751771270362832e-02,1.096051973599165320e-02
9.591855689068304325e-02,2.797405180048059478e-02,6.465576563924810283e-02,1.506234635793796302e-02,5.216695251410769299e-03,4.105792651508640475e-04,2.178361782845589928e-02,1.480544815879254392e-02,5.099481643268070907e-02,1.182711432323434869e-02
1.036733302084801578e-01,2.449517908657318152e-02,3.919284496829892467e-02,1.444930992991782896e-02,2.227581174753318766e-03,5.163080380043419057e-03,3.246832618051229136e-02,2.705712441554211298e-02,4.586014613281336888e-02,9.728290111769889031e-03
1.012810198817169910e-01,1.210274941171322893e-02,5.438785429214938131e-04,1.065340181021022688e-02,6.291426684533881972e-04,9.705038392356259494e-03,2.819753624081178245e-02,3.210694972674613817e-02,3.260738888862555612e-02,5.019824814194199895e-03
7.954661731576288808e-02,2.207184722710814426e-03,3.645766186274149168e-02,4.383776216338404474e-03,2.670152363139495326e-03,9.520927985395204879e-03,3.381807763580986764e-04,2.443304636242040959e-02,1.812103409471154877e-02,1.058527995265670955e-03
4.577576298192950754e-02,1.313499442594019857e-02,5.416145191817350879e-02,4.987209526355809025e-04,3.193026268223122816e-03,6.481859937563309512e-03,2.348119613590106403e-02,4.562705845511017336e-03,5.159098526546472205e-03,1.577330048828585757e-03
2.053526041331055207e-02,2.002096753446984054e-02,4.741508301704575740e-02,2.214882528366310713e-04,1.566294191547178052e-03,4.955036720118143403e-03,1.829461320473766556e-02,1.813562228580375968e-02,8.580537672514081809e-03,8.462087876796857422e-03
8.678672661537449942e-03,2.525588571783838471e-02,2.593847695550197813e-02,3.260424434831385790e-03,1.055774686661560503e-03,5.867372437267669161e-03,4.355442124224446869e-03,3.355090216119090141e-02,2.474746271816102849e-02,1.989175347967460025e-02
5.451724329160064463e-03,2.967443336988159416e-02,7.128398071208463804e-03,4.366894656795742430e-03,2.471958304791400680e-03,6.506395908567224814e-03,2.295093399058199118e-02,3.848371744507751019e-02,3.960752831965472232e-02,2.951347845536296532e-02
2.474820777220988061e-02,2.920906135893596919e-02,4.887852528953328009e-03,1.878541151311281278e-03,2.358057899027495453e-03,4.753615901955911965e-03,3.011059081060526998e-02,3.728093254298747716e-02,4.766434237930580048e-02,3.033098274285574852e-02
2.886102429719787296e-02,1.905730068238571662e-02,2.018989157209106003e-02,9.933400127167101717e-04,2.544402679671002067e-03,1.319504877359789843e-03,2.814567682741675458e-02,3.496276500285167010e-02,4.765751821964440971e-02,2.180106051418870608e-02
7.076754326716781437e-03,1.340714593263618581e-03,4.108859974507517165e-02,5.901807324524633094e-03,4.076674876272227271e-03,1.550354916833216650e-03,1.834415899777783882e-02,3.022765385675401512e-02,4.249903734500525693e-02,1.166447920835798208e-02
2.542942030623851143e-02,1.602416333207507329e-02,5.365257906851996633e-02,1.328346907343633601e-02,5.539814956570698196e-03,2.295816512470206898e-03,1.218533822165008542e-03,1.980943618854404120e-02,3.568597770189971957e-02,8.363045072291163881e-03
5.022048375534474141e-02,2.737260674395011750e-02,4.540769158017443630e-02,1.626700038859487871e-02,4.795195334211100995e-03,1.196433487388801845e-03,2.284257808004518456e-02,7.904061542612752025e-03,2.968082600029192664e-02,1.289128289551412856e-02
5.961987152694088465e-02,3.097502746477860669e-02,2.009996270855350653e-02,1.314302197556461299e-02,1.713952836970774512e-03,5.081111203179890798e-04,5.453752009221579655e-02,3.532191672366689732e-03,2.577608060999773965e-02,2.081269116542267678e-02
4.826833748784621625e-02,2.597188743043749026e-02,7.432045264135778324e-03,8.154077666040704386e-03,1.452804000870452830e-03,2.344647267463044818e-03,8.812813475849490263e-02,1.076553314994936096e-02,2.447175628133941780e-02,2.903543918926434000e-02
1.525760618286129376e-02,1.506237964217778044e-02,2.228301817003378732e-02,4.529473628935376008e-03,2.690944263788987850e-03,4.260687666395627030e-03,1.068311913956273007e-01,2.723425339464378286e-02,2.623366585983154947e-02,3.558363446243063138e-02
2.522960935827362264e-02,7.281439455527687413e-03,1.813098362680084022e-02,1.288883421634908627e-03,2.433260883828251928e-03,5.198687119757819559e-03,9.906700619085111181e-02,4.564778734015838280e-02,3.022055328606430835e-02,3.696910913010162392e-02
5.199783338778926622e-02,1.041380214121976483e-02,4.441446056969249566e-03,2.853557374926674831e-03,2.224701506550023217e-03,4.141721673863817295e-03,7.416162259327176154e-02,5.388443148440818370e-02,3.297735464164521652e-02,3.208669216633374538e-02
5.334978402263788888e-02,2.162805127368954555e-02,1.339260006602146179e-04,6.308049837505829913e-03,2.216137532657830572e-03,1.759434241001817936e-03,4.669737343613793862e-02,4.639755820060061098e-02,3.190249341000812866e-02,2.441001713120762723e-02
3.082067214614628986e-02,3.079439868583152065e-02,1.163676645308312288e-02,6.460944039555698709e-03,1.542364841919346150e-03,1.007234484489802958e-03,1.389017408212831102e-02,3.521752691633514565e-02,2.789362638303248890e-02,1.557895082365707423e-02
1.185992538012384939e-03,3.250232240593037975e-02,2.432336630306347613e-02,2.662496829015294220e-03,2.894756106379105460e-04,4.436377203971677251e-03,3.060697036841111135e-02,3.005030517490082931e-02,2.080183533487056646e-02,2.543086245541680696e-03
1.878446423131870796e-02,3.080561867743414686e-02,2.362061022894313897e-02,3.428225062537088811e-03,6.352325395418660517e-04,8.201573211701077004e-03,6.824254462192157200e-02,1.193740636519224387e-02,7.744321586387138689e-03,1.502234266712411219e-02
1.107262354550369622e-02,3.140567818311475190e-02,1.566895955393501905e-02,9.201503353493860685e-03,9.102420749391381370e-04,1.019114688793525299e-02,6.834398464484693625e-02,4.374192228667184851e-02,8.918026015185192418e-03,3.049153223029469478e-02
3.248171807123190549e-03,3.276373715689864796e-02,1.602052215508436087e-02,1.223087230990399857e-02,6.931098259849800868e-04,9.102692808043658795e-03,2.972764835802439720e-02,1.204277168032810014e-01,1.910544345393591636e-02,3.691905481072883105e-02
5.397547202363000424e-03,2.846036484101047842e-02,2.450348606466801887e-02,1.155818735271632591e-02,5.450594633504694028e-05,6.499242713196375781e-03,1.315013670476974580e-02,1.697778479546258046e-01,1.627499159187840300e-02,3.358442166509591209e-02
1.211159726986432358e-02,1.666775663800185853e-02,2.583101864313718313e-02,8.863530638169048528e-03,1.089331238502155765e-03,5.110043373927779242e-03,2.517894394238738912e-02,1.681162129970180941e-01,4.394768826264576142e-03,2.479257188025972905e-02
4.858055349688899377e-02,2.527541728712704230e-03,1.345390206828448766e-02,6.986436171021378864e-03,1.737904783393793813e-03,6.278420160326174913e-03,3.591734452044850409e-03,1.345122516132310209e-01,9.380164820634242714e-03,1.636012991875720676e-02
9.879213538429326702e-02,8.562430984389685432e-03,2.209102904906198699e-03,6.551014430644583331e-03,1.835232582514158012e-03,9.001823014698845382e-03,5.485143402748491465e-02,9.668029132407310322e-02,1.973439806878990802e-02,1.314615453747283551e-02
1.215010463030998938e-01,1.510428476602567772e-02,1.056538742366179562e-02,5.721518535132035996e-03,1.744458955622115240e-03,1.066615764638661860e-02,8.867355887210891241e-02,6.674476930589920420e-02,1.907638392539092939e-02,1.563272037444952273e-02
1.051358938123099079e-01,1.704250192466657057e-02,1.282686477570363359e-02,3.655883112410195264e-03,1.441220390280010134e-03,9.895096119079346136e-03,7.199827894045787713e-02,4.677405882229883349e-02,1.218893587222255603e-03,1.922209701826140676e-02
7.162434711300465218e-02,1.465828424364911883e-02,1.536915099809085458e-02,1.824622118066583773e-03,7.878183228420639799e-04,8.694150215587280114e-03,1.688345162826255380e-02,3.454649428809811185e-02,2.679182579030708194e-02,2.016847639911158174e-02
3.663472857889159967e-02,1.106613704305598953e-02,1.958236748869079252e-02,1.049172387063037563e-03,3.005733317278872353e-04,9.229097459285856217e-03,2.530716691502615454e-02,2.325829101840324806e-02,4.771736352526215197e-02,2.013601040757292959e-02
8.792980485610841189e-04,1.116994390101628577e-02,1.946902586661653639e-02,2.668536999261455264e-04,5.103705261027100155e-04,9.276502122507721687e-03,1.645619074055823181e-02,6.882389353350820867e-03,5.189714014885622034e-02,2.136505708176063278e-02
3.739566304827114662e-02,1.620833795022590118e-02,7.861378199629748958e-03,3.335135318930356439e-03,1.190196995675709985e-03,5.152246922900959730e-03,3.167810573374117006e-02,1.466166532465223299e-02,4.353260303821904209e-02,2.104739562872047845e-02
6.332471300934487679e-02,2.259365413217886975e-02,1.365944530560018674e-02,6.515309005229151691e-03,1.776875050751901405e-03,1.622373416316419794e-03,7.079178184083932679e-02,3.677170623996522947e-02,2.999959073437690610e-02,1.599341262580260270e-02
7.904546307007816186e-02,2.719114660696057145e-02,3.428869437379374746e-02,7.545149372815068874e-03,1.621106818614208300e-03,5.872921090241838005e-03,6.037367832470046797e-02,5.289210405062308440e-02,1.425932199187643530e-02,9.366251311859790513e-03
8.730340399408315077e-02,2.939669235235704142e-02,4.496507717533275439e-02,6.530389630213054644e-03,3.054735993766135888e-05,6.513841074678436427e-03,6.438403432626726638e-03,5.908945573665354972e-02,8.183740347339001856e-04,5.782438749674087552e-03
7.601267363953975731e-02,2.701416802766725203e-02,4.429106650693054315e-02,5.195737779969261672e-03,2.604282665314101419e-03,7.251964981781649534e-03,4.568848500839672866e-02,5.853322247991936400e-02,8.172773785805607580e-03,3.012737171329593015e-03
3.501728166716400886e-02,1.682314336710839450e-02,3.558205851816344939e-02,4.724299754488879739e-03,4.324869661133444280e-03,9.667944721944730924e-03,6.195362976060090482e-02,5.537278422731397448e-02,2.082339450111027768e-03,3.175401333177698977e-03
1.634224294173258762e-02,1.871659785869365152e-03,2.598434577652256050e-02,5.215076327201797687e-03,3.618610571184070063e-03,1.081815665937438907e-02,4.741338358634458738e-02,4.665773770153730515e-02,1.428052013894476335e-02,9.458853362750646934e-03
4.317978028086746911e-02,8.933621992562978953e-03,2.283075309890901863e-02,5.919085533815759970e-03,1.319850025629769373e-03,8.540737362334639357e-03,2.140414431690145294e-02,3.283322210748764597e-02,3.191916898389937640e-02,9.654650263028936169e-03
3.188934062865505376e-02,1.123002664257335623e-02,2.259237874273273272e-02,5.844598222367596886e-03,5.586311131017354138e-04,5.099233878952998816e-03,6.063330040820269495e-03,2.986529609818273229e-02,4.501359110384228757e-02,5.601848737587195731e-03
2.420372709567307316e-03,8.494023456055613264e-03,1.293754548358964571e-02,5.126216310741135360e-03,1.209066041661958782e-03,3.817960086415678016e-03,2.619565709209601204e-02,4.910741026690681327e-02,5.202018819941925387e-02,4.191090532979853574e-03
3.588226548435048679e-02,4.443020043023368504e-03,7.514869279149608353e-03,5.181444712746230419e-03,1.160013221694838371e-03,4.658753502961749358e-03,2.813102241530969841e-02,6.952121964437815715e-02,5.220469991818907363e-02,6.664916389750349945e-03
5.274217368321543198e-02,2.239136522617459803e-04,2.472265213231743253e-02,6.645318831725849536e-03,7.572764586830126651e-04,5.381449721234263239e-03,1.454628471878645878e-02,5.772013934194729357e-02,4.756639605306304391e-02,8.516025329308533551e-03
5.335801678342832338e-02,1.213166178794465458e-03,2.946204077892239717e-02,8.232955836239683536e-03,2.782150648135249408e-05,5.329879540727192229e-03,4.517824222975063905e-03,1.552766028706079396e-02,4.295373783174948057e-02,7.040893710988303279e-03
5.192024297586725345e-02,2.894563823300912858e-03,2.700823195199284626e-02,8.542421296191879745e-03,4.347811850694775619e-04,5.344380692426120918e-03,1.177570835043175931e-02,2.043064914867992118e-02,3.950957457491847263e-02,3.236771908765835853e-03
5.629795989231476533e-02,8.409786144360411470e-03,2.334005864625504634e-02,7.828520957589072543e-03,5.616119649834092742e-05,5.196013050645664939e-03,2.449093314821225442e-02,2.664591722847331479e-02,3.435186260149916682e-02,1.451997581508426274e-03
5.162278085640419761e-02,7.806693590552346573e-03,1.680023984441080670e-02,7.147051223340371122e-03,6.479311972004103259e-04,3.879379260284227405e-03,1.593070826779941981e-02,1.341765887827733698e-02,2.762107585443328642e-02,6.376823269783625341e-03
2.007377359606479783e-02,9.625419109181244850e-04,6.385252625815867993e-03,6.805997723252200579e-03,8.385737349098317840e-04,1.607587106509061501e-03,2.032540926861949732e-02,1.208685368417018388e-04,2.191179190095985524e-02,1.063702565259395938e-02
2.678433404702549453e-02,4.663663808332751612e-03,4.198466185707884490e-03,6.460377777837383699e-03,5.823925160966729291e-04,6.006268620805614968e-04,5.734087351036582653e-02,5.321531462181680952e-03,1.656654448884793684e-02,1.246927715249110044e-02
5.722448123898578320e-02,5.063041878142436267e-03,1.317795667994731655e-02,5.969188359032144564e-03,4.277882557791962354e-04,2.388368380635359257e-03,6.582802804419435327e-02,7.355934255879148335e-04,9.900310752003940729e-03,9.708696094674056087e-03
5.780045758493811831e-02,3.834230715602902559e-03,2.212652945400252896e-02,5.484291256944179987e-03,4.695132025981237859e-04,3.469952654275447294e-03,4.463614224709806788e-02,1.677398307185676285e-02,3.583686652524796339e-03,1.397509919365683530e-03
4.047565275406987684e-02,4.170093305445856692e-03,2.930285127173746021e-02,5.071614902141472966e-03,4.723828199672425740e-04,2.815781082136619394e-03,1.197053210290004339e-02,3.060088638307205400e-02,4.710764397456803677e-04,1.016190417494104714e-02
1.680239697149957592e-02,4.008532656086716620e-03,2.959533332444565235e-02,4.659654630547751218e-03,3.853700404105495862e-04,1.297226939743308842e-04,1.883666032301398868e-02,2.576869297126761771e-02,3.716329965805788629e-03,1.956607536601710426e-02
1.158671158707096950e-02,2.092781935905307835e-03,2.321166059491283629e-02,4.215023582426061406e-03,3.171688975889997049e-04,2.956562912662615873e-03,4.750936041972843304e-02,2.136727121168355888e-03,8.263448420166602526e-03,2.229872259593666806e-02
4.031050580952001000e-02,2.417113267850984262e-03,1.804103739027108563e-02,3.770896920846551065e-03,2.933467942337580729e-04,4.461381060242526619e-03,8.027188718114899868e-02,1.825169877223487003e-02,1.366867871015001006e-02,1.911838483891837095e-02
6.050023666456384036e-02,8.102364453297265096e-03,2.068138856780644269e-02,3.345318887245782823e-03,2.638904186439386033e-04,3.803240126974481543e-03,1.144911825466531502e-01,1.510475817409108294e-02,1.847222729132875010e-02,1.499694801312373080e-02
6.713404008367392095e-02,1.489539368874679033e-02,2.825065604483855894e-02,2.922582571860721928e-03,2.169981101695523393e-04,1.625801636003736290e-03,1.267025212444362059e-01,6.328579540112699332e-03,2.246540360894665189e-02,1.312113681911450912e-02
5.513401373532242356e-02,1.521146027603770615e-02,3.043788459391094312e-02,2.490980865245369987e-03,1.760442243698519997e-04,7.127915409025046981e-04,9.056765969293063823e-02,2.667577231056266623e-02,2.488845404781507217e-02,1.187554662551580827e-02
1.778654282405360554e-02,7.054413553356110762e-03,1.994090031962399492e-02,2.061172358441613634e-03,1.462445752014215590e-04,1.635539396514048898e-03,1.231790951186421262e-02,3.853655918666543806e-02,2.272483441856557734e-02,8.370191429564959040e-03
3.431717701329877607e-02,3.895487284604590757e-03,1.188158123645479194e-03,1.649514463842490820e-03,1.174360749675643474e-04,7.589993686519701721e-04,6.936862462382964445e-02,4.561551675118061949e-02,1.468252824217223564e-02,2.380526567633814948e-03
6.779082165038756436e-02,1.046614259997696167e-02,1.420680464686349329e-02,1.249590238837257556e-03,8.915115207097647177e-05,5.216070355031335228e-04,1.213434131669348798e-01,4.620550963593599014e-02,4.905400601581374857e-03,4.151861859742840902e-03
6.045050102756063110e-02,1.047386170501592162e-02,2.063516580116253260e-02,8.373636594321427198e-04,6.530622352500208417e-05,7.552864004176281778e-04,1.370937344132385216e-01,3.540392894301804677e-02,9.647186704356081142e-04,8.960237632426575755e-03
2.789359493757952169e-02,6.825370597631304562e-03,2.160231429154944177e-02,4.263777613747405174e-04,4.212412076274929312e-05,3.500531166508596574e-05,1.242272909998908687e-01,1.687404296520809630e-02,1.245646976321497382e-03,1.027494098356785193e-02
7.910730965609968218e-04,2.564667257152601805e-03,2.075009652669896829e-02,7.184929759396381770e-05,1.967364273692929171e-05,8.233716593688621783e-04,9.170586209481290663e-02,6.945188655923039767e-04,2.218479607520616043e-03,8.752497678134111073e-03
1.905881651463796692e-02,2.089461992048919498e-03,1.715594155552819383e-02,2.444603640555332788e-04,8.479874793140833891e-06,1.661933656013190371e-03,5.231917791384650684e-02,1.416123596488136002e-02,6.701530674981390906e-03,8.142107047912697237e-03
3.920723783616965330e-02,7.331608042734625609e-03,9.444296724201009519e-03,6.327154061244988879e-04,4.573840936786370559e-06,2.374246299412061112e-03,2.473467837319155357e-02,2.718429221990781644e-02,9.959214048039935832e-03,1.009750392193871360e-02
6.818277604165680350e-02,1.116518867832763141e-02,4.254155869610946970e-04,1.051188151843590428e-03,1.615453222062048855e-05,1.869007746319043895e-03,2.431802751468332968e-02,4.559768605165122335e-02,1.212691167666214882e-02,1.012864324220381744e-02
1.014912638060495725e-01,1.157216740124517029e-02,7.578295374699769126e-03,1.254728091739873387e-03,4.447401254382269179e-05,6.413563848414856544e-04,5.088564048071392287e-02,6.959040565953981961e-02,1.599873902927561112e-02,4.133993877499970993e-03
1.271649088184131360e-01,9.518370338782099552e-03,7.737316538457410763e-03,1.309711115233282413e-03,2.860411571476391816e-05,3.815676750719408563e-03,8.646895329317413892e-02,8.391341179685342377e-02,2.256027678832941627e-02,3.919446585370846454e-03
1.262339733553795862e-01,7.477123906837148358e-03,1.925524853913389940e-03,1.777671529776468553e-03,1.160403431970289152e-05,5.169171845598129027e-03,1.066007383897403793e-01,6.609004367381021705e-02,2.758851338266026312e-02,7.142715712861863291e-03
8.419600099308524599e-02,6.297605983752279681e-03,3.636064763882038402e-03,2.780157648680582454e-03,3.609929308987090988e-05,3.619145384717128641e-03,9.759491116463905880e-02,1.554690755182411288e-02,2.631123274525542372e-02,5.053983986109426493e-03
9.674092236070639186e-03,5.272262774076670599e-03,4.812087870761358466e-03,3.446175798348814680e-03,1.329254464315520097e-04,2.832302509918911541e-04,6.562404073023420104e-02,3.838604224603214127e-02,2.010899443855458657e-02,1.913719618272204624e-03
6.619595712944960353e-02,4.033418328590080912e-03,4.653741677802914790e-03,3.136653767082837017e-03,3.634883166863381369e-05,2.826358987044998855e-03,2.802460131681117073e-02,6.620353622431385254e-02,1.448881984322851132e-02,2.955296560214399661e-04
1.089347429835621217e-01,2.898677036208483371e-03,8.096064570998913121e-03,2.489447208454002858e-03,1.852261535284278231e-04,4.477118637833650897e-03,2.785961691053539038e-03,6.071942718214401458e-02,1.192643005416038626e-02,2.509701204558779670e-03
1.003233506684254733e-01,2.047514914038390827e-03,1.395161382470245549e-02,2.374269855668211231e-03,3.163306571183770481e-05,4.794857393773685125e-03,2.343562751385102824e-02,3.076502971946397033e-02,1.106836339423027289e-02,5.842647729973485596e-03
5.289808132103432370e-02,1.336666100614999648e-03,1.661458568599565033e-02,2.668360920603627014e-03,8.102981082238958684e-04,4.491521044520813306e-03,3.209523672167773067e-02,4.650941540445032059e-03,1.109706141603972879e-02,1.068669456196222334e-02
5.911729896172771524e-03,6.798613607953914216e-04,1.393497697328999023e-02,2.809274880135471941e-03,1.281211592610734555e-03,4.038682607824270986e-03,2.583877511133841551e-02,2.032786952842727604e-02,1.249596155348565996e-02,1.529779774637599413e-02
1.097569103445111480e-02,1.393143110994832256e-04,8.299262157402152035e-03,2.729947077612467164e-03,8.062599412249411195e-04,3.801897461228124532e-03,7.881291250957997777e-03,9.085187879082410808e-03,1.511022788143606514e-02,1.566116857000271478e-02
1.107029138067445150e-02,2.506903686154283019e-04,1.554058090546377342e-03,2.674700452101292508e-03,2.391795720666037859e-05,4.025060271162022099e-03,7.931560682810225721e-03,2.647235806378761894e-03,1.848721195812567594e-02,1.040586076905091265e-02
2.685480944613952495e-02,5.286261838311771995e-04,5.647178499689893723e-03,2.684533595165813566e-03,1.958206709679530244e-04,4.006251514881278841e-03,6.855408820063636256e-03,1.133648762643104518e-02,2.243947656717466821e-02,3.680308710256396422e-03
5.317183734079838214e-02,7.234382737175217059e-04,1.119614438178999360e-02,2.649513836778125998e-03,2.403643637514078649e-05,2.587636973110725176e-03,1.091845001690048764e-02,3.303810502893060608e-02,2.585310258941284078e-02,1.445128967886421677e-04
4.511040316287218133e-02,8.322463391573583667e-04,1.340165672401651999e-02,2.552201219332126281e-03,1.202626753459179096e-04,3.838103275370586187e-04,2.964968190721913380e-02,1.929574704430586998e-02,2.698538462086082571e-02,1.082369638325616015e-03
1.970582894385199471e-02,8.582469901293593700e-04,1.323692237687343343e-02,2.447389135758989455e-03,2.477598749712410335e-05,2.839721389476313525e-04,3.700998450127824385e-02,3.561354508148517617e-02,2.542987177160928314e-02,4.286857791723573240e-04
1.087857684193838936e-01,8.212163337736246710e-04,1.076748581751480957e-02,2.347799071608165818e-03,1.933855324739844529e-05,1.246772128877396977e-03,3.818990144568504275e-02,8.903556273476265215e-02,2.201487314546868648e-02,2.263904589205298443e-03
1.754188716553385097e-01,7.394537020350003872e-04,3.563686442976665703e-03,2.232030517140863850e-03,2.690874407756551316e-05,2.853308132380914103e-03,4.397873370200194171e-02,1.076553794249207469e-01,1.739224022783796009e-02,6.593944506612747433e-03
2.024001220851723293e-01,6.241809934149634672e-04,7.309193704541036909e-03,2.098095802273218687e-03,5.084315193872067303e-05,2.846320323800908235e-03,5.026585937179295360e-02,1.029071041900723321e-01,1.265604050869939372e-02,9.492070404636419878e-03
1.952668602012632704e-01,4.874527809840486256e-04,1.478776508454732706e-02,1.960269663202560304e-03,3.281089602067744672e-05,2.063560202673869314e-03,4.383697520055909042e-02,9.789807947520763609e-02,9.950823504908761635e-03,8.472564006039727882e-03
1.590019083806730738e-01,3.443967781782362732e-04,1.350042917674152722e-02,1.823898109642315638e-03,2.599510429782199059e-05,1.920180058099014596e-03,2.723885620892137552e-02,9.058258435710281331e-02,1.004193147505990334e-02,4.953260509617607790e-03
9.964411081417662297e-02,2.090678552624125499e-04,6.114987559248821411e-03,1.686481515337937779e-03,3.957829939036856847e-05,2.245005517786824705e-03,1.856829250240706747e-02,6.788586340437212374e-02,1.068885241871572050e-02,2.479374440225722530e-03
3.754524256544260891e-02,9.289937219061770090e-05,6.356734050213915443e-04,1.549402531055200753e-03,4.663779179393972744e-05,1.962758175348043588e-03,2.380600171281768707e-02,3.469036112060751298e-02,9.551100885347409836e-03,2.224133306255321983e-03
2.040549043936402268e-03,6.208067939524888283e-06,3.189458346674697679e-03,1.417486391065620344e-03,4.326745037980212838e-05,9.830048232357397730e-04,2.925978942058899898e-02,7.298511438974515306e-03,7.094566572753226857e-03,2.130210599798026353e-03
1.735615824021791848e-02,4.143850052598776817e-05,2.714121477247994057e-03,1.293435039219712011e-03,4.588283077648427368e-05,4.136212858768329782e-04,2.509086304674735049e-02,1.230593647200868557e-02,4.996510127645598098e-03,6.276830062089270093e-04
3.216985230083691666e-02,4.224781118922031880e-05,1.725814125635283421e-03,1.177904549080238759e-03,5.431230526804914496e-05,8.859471157029214124e-04,1.789130809628006885e-02,3.479976632874724751e-02,3.522001567961900899e-03,6.385816519335555785e-04
5.545503069037897859e-02,9.345519056247432108e-06,1.250579886282063291e-03,1.072061687571110094e-03,5.180292085351690285e-05,1.654687131105652765e-03,1.620182400601089673e-02,5.643697470796210647e-02,2.016964971782526407e-03,1.517937398310027558e-03
5.620115101756038845e-02,1.169515095221964739e-04,9.764923636264356312e-04,9.775393381215209416e-04,4.194080589863303263e-05,1.844238188511490269e-03,1.871713501325312709e-02,5.445593397067137464e-02,5.471224520891856784e-04,7.762061718684525741e-03
2.785759356115660029e-03,2.823059499189883598e-04,5.687260324149009255e-04,8.952111920359585645e-04,5.135722357856954066e-05,1.619656256187815453e-03,2.165979691091296511e-02,1.967688376259776536e-02,4.761493549850393404e-04,1.402152938762179189e-02
8.337324625391831501e-02,5.050824229945008762e-04,6.235386235297095056e-05,8.251824785348734446e-04,7.061736055030783576e-05,1.563815390245562511e-03,2.816333676183283702e-02,2.259866534457222881e-02,1.477562295359236824e-03,1.491117360524332053e-02
1.415629549109551633e-01,7.828637046918834755e-04,3.741371290877618279e-04,7.673612039978534817e-04,4.633403971415543351e-05,1.741717243931616057e-03,4.436433628880090407e-02,3.847952574873043929e-02,2.901924476732778424e-03,1.034842279861332079e-02
1.362262739354445640e-01,1.111313947758731362e-03,5.758131176079308786e-04,7.214798355126264464e-04,1.987479668490087724e-06,1.863595962550022985e-03,6.853283639371114677e-02,2.057657887897173035e-02,3.696293556961660620e-03,6.151216198956017608e-03
8.522562001805354670e-02,1.484349161361824551e-03,6.812733387154357254e-04,6.868508792910979661e-04,3.824105995816975842e-05,1.851006523163356262e-03,8.799310217205194573e-02,1.309369135440291605e-02,3.066814269461071683e-03,6.652722238262112099e-03
2.739698278653223545e-02,1.894280049828395889e-03,1.226078554741974382e-03,6.623883423048867753e-04,1.280113362078582435e-04,1.910809859227251273e-03,8.963255507788803200e-02,4.219314379258952419e-02,3.778238478911759377e-03,9.830635374006033503e-03
1.640278289367129785e-02,2.332016017004876797e-03,2.306674105181800646e-03,6.467679469538280919e-04,2.428970296840557663e-05,2.165323987162056339e-03,7.362154766177572696e-02,5.735503835472392786e-02,9.875343193901976041e-03,1.092303367637011829e-02
4.861187232368690408e-02,2.787336402613509873e-03,3.071078141691816789e-03,6.384742797434069190e-04,2.047223188789261492e-04,2.365187444230893755e-03,5.327695595915007964e-02,6.145433815975255565e-02,1.999620551611636446e-02,7.762515784922097151e-03
7.734539771824490428e-02,3.249178983876114830e-03,2.897391467509012435e-03,6.357899319428672721e-04,4.388897876771552092e-06,2.220148594184772478e-03,3.998766851470265254e-02,6.452461521127851596e-02,2.730837936030202501e-02,1.952369074450960177e-03
1.021481631892911246e-01,3.705932750028965040e-03,2.417934921271421185e-03,6.368436297442585858e-04,7.748880792059159670e-04,1.918645920193383803e-03,3.194100561243555514e-02,7.323287636380577947e-02,2.757705046455730460e-02,3.007895080025212598e-03
1.159352156462185868e-01,4.145747798887481315e-03,2.495424586606898466e-03,6.396912581090763873e-04,1.237101914503189104e-03,1.701808739146469691e-03,1.944079260828459471e-02,8.455449959221944534e-02,2.296626558688021416e-02,5.290083449673126971e-03
1.156797490330659650e-01,4.556857616186473468e-03,3.008698473788667775e-03,6.423728178639786851e-04,7.529198949372556014e-04,1.261617528346585483e-03,1.387917108990565501e-03,9.149416469268031871e-02,1.711201544390874088e-02,7.136475224512889813e-03
1.086077429645376374e-01,4.927896362659752241e-03,3.395754510572961907e-03,6.429549135014823004e-04,3.914149163756885507e-05,6.935722534183099298e-04,2.210286837186237890e-02,9.387652658391028304e-02,1.135247088838986160e-02,1.117408300194327325e-02
1.123358096999625549e-01,5.248201832185223591e-03,3.584103884562697771e-03,6.395836134755971368e-04,2.690665168357680732e-04,1.181457357233339387e-03,2.966942510555325985e-02,1.018391628030409640e-01,6.612022330758488692e-03,1.471560946036687585e-02
1.423451302666273177e-01,5.508100994349476170e-03,3.811445197972414614e-03,6.305415715642209533e-04,5.973002767586297029e-05,2.882738185192229748e-03,2.042267652147248397e-02,1.229104325989045371e-01,4.340688663147488843e-03,1.305116024688399330e-02
1.797561471188639237e-01,5.699171854162419018e-03,4.113413200214743881e-03,6.142958539916706191e-04,2.590183585939002530e-05,3.325912914687573826e-03,3.471949590438713762e-03,1.404949361544622355e-01,4.365248878390376452e-03,8.501466003435376173e-03
1.646585606015611436e-01,5.814473161987149079e-03,4.374047797986150947e-03,5.895374367054165158e-04,8.013983543316101821e-05,2.468046951207096269e-04,9.824245689697135020e-03,1.189875611292847413e-01,4.811856415143948504e-03,8.688744863253553691e-03
6.207282572211732241e-02,5.848735974452347677e-03,4.568302883237882785e-03,5.552171586022189168e-04,1.348150208633633264e-04,5.066347861871900796e-03,1.397516607932012232e-02,4.813545730676382223e-02,4.625530618214164849e-03,1.469832426539327032e-02
7.642387330722000272e-02,5.798513346911507264e-03,4.742960748729168133e-03,5.105763603557580358e-04,9.877528547378168727e-05,9.320806413882342517e-03,7.056704499824383719e-03,3.312117150724314812e-02,4.271156492448309472e-03,1.899804672386155163e-02
1.639255007562278321e-01,5.662284714124326580e-03,4.903070793144960991e-03,4.551687976781088312e-04,8.393829331160648386e-05,1.098643884947755889e-02,1.005561422182150479e-02,8.079025245742257888e-02,4.226199580822419602e-03,1.616358826567976942e-02
