4.023482187398673936e-03,1.207034260356635268e-02,5.844357415509328357e-02,6.745627420318416056e-03,1.698008225949083861e-03,8.957619531511326920e-04,1.935968610250505748e-02,3.942490710473676302e-02,3.050598369093930964e-02,4.378221369209979452e-02
1.145415442557354366e-04,1.601186483923623324e-02,1.781026132053478012e-02,9.251649961298980332e-03,1.942517178225671359e-03,7.662921063406381329e-04,2.059901555299868681e-02,2.581731425455383727e-02,2.414987481920928894e-02,2.769139644069695469e-02
1.747222747055212494e-02,1.992133825061771085e-02,2.094581566915844004e-02,1.202276565554839458e-02,1.603995921555325527e-03,1.845419301521642776e-03,2.345103967545946605e-02,1.443768039492761973e-02,9.498926258168893799e-03,1.491887077569996334e-02
4.215666439452574882e-02,2.228093725245492568e-02,3.040928780134085144e-02,1.120884449951778730e-02,1.295688976867474199e-03,9.357789375284464349e-04,1.804230870946716206e-02,1.373883362784110093e-02,5.822430023759207242e-03,1.245383618785624209e-02
5.611909191985751250e-02,2.040070146373770821e-02,1.596968707899489026e-02,4.091938725067696681e-03,1.405604776077509950e-03,5.433191095096986251e-04,1.651519752687307871e-02,1.893151262309485799e-02,9.956937579528866641e-03,1.877417764420021007e-02
5.009495257478616126e-02,9.764850562487681698e-03,1.581108918950327458e-02,6.561355764974656155e-03,1.474050417428405613e-03,4.827158503560412674e-04,4.375410846250225860e-02,2.317627079356599298e-02,1.517630982525370806e-03,2.329367217401321494e-02
4.046675516270641093e-02,1.220830333423784941e-02,5.663325706995701869e-02,1.514061085336681697e-02,9.978404377285858551e-04,9.591731924733061868e-04,9.494841368620110522e-02,2.686364031209730399e-02,4.183667601949409010e-03,1.561123984319588709e-02
5.084625535741558316e-02,3.923171842496087081e-02,1.204711700170090632e-01,1.806666148704614422e-02,2.438301784620219631e-04,2.045453805510760552e-03,1.295308409968999319e-01,2.684098556036042943e-02,8.845900917206672015e-03,4.727827629251875850e-03
8.155994507455073539e-02,5.762010803855239366e-02,1.646395507900857424e-01,1.490233886280249026e-02,2.020243337601372873e-04,2.076931752618769132e-03,1.203340837302313837e-01,1.544589694360873691e-02,3.746742034392514659e-02,2.904339044379186316e-02
1.088279941222029534e-01,5.882598515581944493e-02,1.650076747328900473e-01,8.164215231466891501e-03,2.396548167592162288e-04,1.766358799983058303e-03,8.547993594622296798e-02,2.861853956270544661e-03,6.245449493878729719e-02,5.093324723668407605e-02
1.100775187319343318e-01,4.673479998992931261e-02,1.305431718607395764e-01,2.250727315053375859e-03,1.472269621707366423e-04,1.764507735623441079e-03,5.808211398608136011e-02,1.316187035163852471e-02,6.884352519486734712e-02,7.205815414089009052e-02
8.236432310387774292e-02,3.005174524611963632e-02,8.422000337126876734e-02,1.212969185785775592e-03,1.427730322282606519e-04,2.064282374989136280e-03,4.432757976784565401e-02,1.240357055349537892e-02,5.752513343536332091e-02,9.358155100105720881e-02
4.004463955146447818e-02,1.249797414452939390e-02,4.075296120399543587e-02,5.902120482131072328e-03,8.477686514481105624e-04,2.307899859833553290e-03,2.608993336288737211e-02,1.390989492885866090e-02,3.887065727803814402e-02,1.096694147174275547e-01
7.407952496378757308e-04,7.257391062965001458e-03,3.304780786607805151e-04,1.524827523614443077e-02,1.354332837904804326e-03,2.067544859373514777e-03,1.042105299926995854e-02,2.694747580534710696e-02,2.027538121193931883e-02,1.169989893693461208e-01
2.879168161012143901e-02,3.041763145961567938e-02,4.164960637429700185e-02,2.660061250070485522e-02,7.154072061201690452e-04,1.397223155769370881e-03,6.232592873555961588e-02,4.271492826414942379e-02,1.596135187777583241e-03,1.240899573542214307e-01
5.689103335153820884e-02,5.505433567097826886e-02,7.899348940357005244e-02,3.450178960739121864e-02,6.892047491676983736e-04,1.054542020213286883e-03,1.145360333754566473e-01,4.465863067210786713e-02,1.812049458092650223e-02,1.403312708951314769e-01
9.320108418479189361e-02,7.669548104125950561e-02,9.340059906718528593e-02,3.763420682624504104e-02,1.453744796928999224e-03,1.510677519059996357e-03,1.475358601267067193e-01,2.799591506974219782e-02,3.309648209821367676e-02,1.590041890608671071e-01
1.275226125693297019e-01,9.149745889717526837e-02,7.586155968360261403e-02,3.894363994464121459e-02,1.221870549775290731e-03,2.292774049216545363e-03,1.527242890128147346e-01,2.887569431711292135e-03,3.564303641572418718e-02,1.636739392054880338e-01
1.331827675852312876e-01,9.926168828473592998e-02,4.401352913362922836e-02,4.055236609969924827e-02,9.812322757093254466e-04,2.807805268957073649e-03,1.445871817418739047e-01,2.000693925385260002e-02,2.802288034667124034e-02,1.514746345729308663e-01
1.012255266189256847e-01,1.032529983934990792e-01,2.805170641721134450e-02,4.200467255798238236e-02,1.137848051201801594e-03,2.838833685681902991e-03,1.457955563570986768e-01,3.654803387712987628e-02,2.208231113399106854e-02,1.368571673973651703e-01
5.806965425813681581e-02,1.071039597530997894e-01,4.163907794800329742e-02,4.239238891669636078e-02,8.365026373440397761e-04,2.110566361909907776e-03,1.621828449086764323e-01,4.184962690327961865e-02,2.620257968345942462e-02,1.300381590187842662e-01
3.519782282556029041e-02,1.111342212883612984e-01,7.103602526177958676e-02,4.114360480527137071e-02,2.277161780283373923e-04,7.547133619960857314e-04,1.846797141023995004e-01,3.178014411346469920e-02,3.932232895500060998e-02,1.252985080603509771e-01
3.657730063090202516e-02,1.111618899104159924e-01,8.816410399833994604e-02,3.708276796641784417e-02,8.647176002793346842e-04,7.053316775055077910e-05,2.054256121493651110e-01,1.585107594599314759e-02,5.541325751332533411e-02,1.138757215926555766e-01
5.076690913684470119e-02,1.027704310776617475e-01,7.295591841850923576e-02,2.878684275683759952e-02,3.843851704938849065e-04,1.167379856473045987e-03,2.153153729607167055e-01,1.361331145680774214e-02,6.472757693481100139e-02,9.556362903367073003e-02
7.336787310718440036e-02,8.754180250729640123e-02,2.748138799200941160e-02,1.667955712642237368e-02,9.932368524173727873e-06,2.937767857016765263e-03,2.001046905112011665e-01,3.128841505828003355e-02,5.477757857645314948e-02,7.516674522388124002e-02
9.575144278313062196e-02,7.271641508389908859e-02,2.966724596697484229e-02,4.717505025177741278e-03,8.079866355802790660e-04,3.119542900733504598e-03,1.599420550352615988e-01,5.140617095990607927e-02,2.175250651698044588e-02,5.960933136010179711e-02
9.332891810487119189e-02,6.436813461070095554e-02,7.825060201042760566e-02,1.282385784760513552e-03,1.784359213945849003e-03,1.566139126270929289e-03,1.214818713678688655e-01,5.169840354937735305e-02,2.041411325049801231e-02,5.978755722942341588e-02
5.351623996676551503e-02,6.300487245465773156e-02,1.027216410241433703e-01,1.238166214185321135e-03,1.644398023938114552e-03,7.092754737930849398e-04,1.131336986720880428e-01,2.914104357026442438e-02,5.057628656010754870e-02,8.443362092801340313e-02
2.228000605136258323e-03,6.496987505279946951e-02,9.464899828925382730e-02,8.857977645173154002e-03,9.160081440358773574e-04,2.050834882083199962e-03,1.372783572153503107e-01,1.053619464962830387e-04,5.876932655741525652e-02,1.303485507409435640e-01
2.168532970156092712e-02,6.656534590051428613e-02,5.861546695751535668e-02,1.606142107411654557e-02,8.552872545053251657e-04,3.833308852626855518e-03,1.752063077926602208e-01,1.857602529922598028e-02,4.930790996622101685e-02,1.841622773544498992e-01
9.531690606883618661e-03,6.764531311785516865e-02,1.044332849600004311e-02,2.005713720681936291e-02,1.467691258181548974e-03,3.700939295569316296e-03,2.060583926137744826e-01,2.022186390036561504e-02,2.944271392829770490e-02,2.332288125659867650e-01
1.682125447973563739e-02,6.996063405691671511e-02,3.504458689474740374e-02,2.044320425879589051e-02,1.773362647861114697e-03,2.399859908347071451e-03,2.168855838344984910e-01,4.893318413704167077e-03,3.329918526483896263e-03,2.726813738954059763e-01
3.876798565451181067e-02,7.200439551083448464e-02,7.312521895539811356e-02,1.833540200376084991e-02,1.453200612516502340e-03,2.497085737129170219e-03,2.081828543345072835e-01,2.060742889525754920e-02,2.325147549143000841e-02,3.018923563201406091e-01
5.854110022501114730e-02,7.224267997382062545e-02,1.090986572414990724e-01,1.848804000811440224e-02,1.457795381191575061e-03,4.150121289681299452e-03,1.903915931018909935e-01,4.108687161138444011e-02,4.307877216113231017e-02,3.137704395962440662e-01
8.353417147524153097e-02,7.733085947041593022e-02,1.482028176368384853e-01,2.553875276553150414e-02,2.633560057894550766e-03,5.073025484663633115e-03,1.674238545683385537e-01,4.542568826208510241e-02,5.698584430010163182e-02,2.948263389802230350e-01
1.067879467631316220e-01,9.402347263453696147e-02,1.781173732284598021e-01,3.301358494511835717e-02,4.042138373248788455e-03,4.501675689016612116e-03,1.332531578515572246e-01,4.029833967766539848e-02,7.245643813671576172e-02,2.459199280156299794e-01
1.148520530787179444e-01,1.111253914240134671e-01,1.696651354771385733e-01,2.496650947979736287e-02,3.899932095967671795e-03,4.029166482751412454e-03,9.165459015056667824e-02,4.229690437135270181e-02,8.623947817438382124e-02,1.934409383470286070e-01
1.089740671618367185e-01,1.067521716435295975e-01,1.126611711757749823e-01,3.190626697825884976e-03,2.364662678287444020e-03,4.396575759092943674e-03,6.380870414606872043e-02,5.969318185630630158e-02,8.223746388598358881e-02,1.627577486892265446e-01
9.924428930881341870e-02,7.911818512508024537e-02,4.105396911058878384e-02,3.479687215551682811e-02,1.534209772574662801e-03,4.623324973036775989e-03,6.516668618762996856e-02,8.612813071244986018e-02,5.690699958936167036e-02,1.486750663920946569e-01
8.063975045991399193e-02,5.342204444343300052e-02,2.567351122776645889e-03,5.172143636879918127e-02,2.193238302998125420e-03,4.468085763381359106e-03,8.140486703207250319e-02,1.055989210297436642e-01,3.064416819500416153e-02,1.276803073148293777e-01
4.077460492022939170e-02,5.022524080963381571e-02,1.652109031744291093e-02,5.395006776450839148e-02,2.748906898511159318e-03,4.783867684751063817e-03,7.404200883519054810e-02,1.039400197279882754e-01,2.129373669197306279e-02,8.828981120186529807e-02
1.023978167576327335e-02,6.096420349458712279e-02,2.653883430017216563e-02,5.156328382681522882e-02,2.066939206593287892e-03,5.462523229691143220e-03,1.757555860819540183e-02,8.471955810302461698e-02,2.359850752129376977e-02,3.762978037081216032e-02
4.633430527563565937e-02,6.294690763658437882e-02,3.809560056656992322e-02,4.930611947445943943e-02,1.038974900689639859e-03,5.373967563993599546e-03,6.339420825290410788e-02,6.942305931528118534e-02,2.613808943215329902e-02,6.917970214870379150e-03
6.136700061448407961e-02,4.539898378347571178e-02,3.541667648557947357e-02,4.829590313327630086e-02,5.596031675153001223e-04,3.789829512030477680e-03,1.132518578847634960e-01,6.956426751043719159e-02,2.741625809291237115e-02,2.835547683269790467e-02
7.357844418389741792e-02,1.094642856427113613e-02,1.645141325856054604e-02,5.217505043164614303e-02,2.626524742515156004e-04,3.542899107412552338e-04,1.146782264780928096e-01,6.689715278346584915e-02,2.370431039105475035e-02,3.032165227684107886e-02
9.303973594244505096e-02,3.461452799732541580e-02,4.200935338458347545e-03,6.140221836890687873e-02,3.374678656497745585e-05,4.974848212720277621e-03,1.051831383601891101e-01,4.001067608799833281e-02,5.068966873213045544e-03,3.556313141132688704e-02
1.040644713617675798e-01,8.089253713763835951e-02,2.133093008363674131e-02,6.788754073754034446e-02,5.244422862983033878e-04,1.076059086554038632e-02,1.099739100086965515e-01,5.763895303435871481e-04,2.398077342915067370e-02,4.542575541507032355e-02
9.054354412760928783e-02,1.168994749853087683e-01,3.659417840152805190e-02,6.312921585798784985e-02,1.422104523491309969e-03,1.444416046480115692e-02,1.114161775481603001e-01,2.607982895338638307e-02,4.430116098844542188e-02,4.230104456817705000e-02
7.041695104450179654e-02,1.505310734082294655e-01,3.120336117588123556e-02,4.829510107494792981e-02,1.262697903596177824e-03,1.489475754296098499e-02,1.044460876371496316e-01,4.854177111987400400e-02,5.310641367915942129e-02,5.758072561904773595e-02
8.272716374823238517e-02,2.023242056610676798e-01,2.320519767901864372e-02,3.161991764514344300e-02,3.577576628042628058e-04,1.358111450782449429e-02,1.213507021544580622e-01,9.600718961856478939e-02,6.902309849872437231e-02,1.560577088213228325e-01
1.337718932756850332e-01,2.654362102438626581e-01,1.161984165472044334e-01,1.874123524873796964e-02,1.987483717373457470e-03,1.264989689475897600e-02,1.777391053214057715e-01,1.598213024262059301e-01,9.743382806612491120e-02,3.088207105465805569e-01
1.820641411480960203e-01,3.011295601909836916e-01,1.929129168595372368e-01,9.538598345552429247e-03,2.202110841067830577e-03,1.243884354761545970e-02,2.408524121572224175e-01,1.968155321554528048e-01,1.182268863974584583e-01,3.872172951232046856e-01
1.895420377791305067e-01,2.888200541273340249e-01,2.108859171711261471e-01,2.409454417235960301e-03,1.262606856978425391e-03,1.143243471713851177e-02,2.669933380462699013e-01,1.919749929226477747e-01,1.162236248347701395e-01,3.395707273114542124e-01
1.596414377638675497e-01,2.495059327974847307e-01,1.779074629293785070e-01,2.910097138304909570e-03,5.374730864051808707e-04,8.549280986509720515e-03,2.445343386211272230e-01,1.697987566744546539e-01,9.875912646352755231e-02,2.621059299811700494e-01
1.123889672093852515e-01,2.088428733582016195e-01,1.272274886863032084e-01,6.720592829535865405e-03,7.339179477394074070e-04,4.651230684980794429e-03,2.003162237448686545e-01,1.461896748850947114e-01,7.791487036932073784e-02,2.429936220122679569e-01
5.617768383277672167e-02,1.689972740630444337e-01,8.127190871877104650e-02,9.972869161290295881e-03,1.358868079330445913e-03,1.438838267549454172e-03,1.769707648971519109e-01,1.151838188407249969e-01,5.774671899311369094e-02,2.548959356888940708e-01
3.179657689978306057e-03,1.280555284090297286e-01,4.489753602924122927e-02,1.327875503040008148e-02,1.977881079894345823e-03,2.769967122248064234e-04,1.969162784775828623e-01,7.710066429778891783e-02,4.106174247668407246e-02,2.557326871183066563e-01
2.021851379806137092e-02,9.866709363937967159e-02,1.416733400410718352e-02,1.735935350165131869e-02,2.785658044796341000e-03,8.041343442621844834e-04,2.416398161530991240e-01,3.933603947816151358e-02,2.920904441675677837e-02,2.780101300138935749e-01
4.249273620439912580e-03,9.029609763444200465e-02,1.324658906231563835e-02,2.275187024848137132e-02,3.482953066175054589e-03,8.146893788754687102e-04,2.682150986383552427e-01,4.162299043799656123e-04,1.599189792258749396e-02,3.478062410865444543e-01
2.637261510373235460e-02,9.007543641605465778e-02,3.122213455563590048e-02,2.685751595937124064e-02,3.118708772607857449e-03,5.064932897088879598e-04,2.502448517525828753e-01,3.771835568864496252e-02,2.018193090639244097e-03,4.095269412190721825e-01
4.574552285438544114e-02,7.855870255060787288e-02,3.254610059619236773e-02,2.462696704382646984e-02,1.695192192458352736e-03,7.340752658365293790e-04,2.100000610167267467e-01,4.637794185371504896e-02,1.396269593031743833e-02,4.072999007461319265e-01
5.495600678483580914e-02,5.468253332783294673e-02,2.090808261814888075e-02,1.596366244344079449e-02,6.389818096486991591e-04,3.287990965214479706e-03,2.007894871106671031e-01,1.573842270396623444e-02,8.956215486860343716e-03,3.688523778511487161e-01
6.131487657296472854e-02,3.113986706151827821e-02,7.698476650004863406e-03,9.329922503147833335e-03,1.017073596788532503e-03,6.039465043854417431e-03,2.393984011916505394e-01,1.685675735125355748e-02,4.123045912934196651e-03,3.379824742417626982e-01
5.573788509761344601e-02,1.505157316624374658e-02,2.037489301774099600e-03,1.301541973043536526e-02,2.057124154875196453e-03,7.218167617539012273e-03,2.757548823649926262e-01,9.836304327290931043e-03,6.036097069566244942e-03,2.933621028282212828e-01
3.016270165907184234e-02,6.935548236341175510e-03,9.196581704046254135e-03,2.466550117432157047e-02,2.243575298728402515e-03,6.347004244253862636e-03,2.577136229009168722e-01,2.197730673826915268e-02,7.731380318831471143e-03,2.086726161123691192e-01
6.869331553876877744e-04,1.027962519452317591e-02,2.853078831389884232e-02,3.378890613723228159e-02,1.602276264025086433e-03,4.604734441815167868e-03,2.032799321904736611e-01,2.910065807815985853e-02,2.367253401859173087e-02,1.291565728016604853e-01
1.249734251494711429e-02,2.980366392366208539e-02,4.648508695141578134e-02,3.272098325984858919e-02,1.602292025816463720e-03,3.525737332367865143e-03,1.780382378677130284e-01,7.065966050584689129e-04,2.924412751247352713e-02,1.123299742339939761e-01
2.406446763033122382e-03,6.299933113691595643e-02,4.177256980327452573e-02,2.166690668021000951e-02,2.649575242092297965e-03,3.476737008666178595e-03,2.139553058447005440e-01,2.138105962884056729e-02,2.379621063525613756e-02,1.400915662549104268e-01
3.236612994127030518e-02,9.833443053460332040e-02,6.035808452084634630e-03,5.892403191824555422e-03,3.489219044680290718e-03,3.300195194365928425e-03,2.713639797698512157e-01,5.041904088504714672e-03,1.109048726969392995e-02,1.497479030923802301e-01
6.094308399029026851e-02,1.206325157796874908e-01,4.444740123854376557e-02,7.719238173672152842e-03,3.469481528079628591e-03,1.993633206051173817e-03,2.798301950691266526e-01,2.667665021464419098e-02,7.366017349724160099e-03,1.135596259706627698e-01
7.464707377155717360e-02,1.187762189391741441e-01,8.190624543712352046e-02,1.280424285663040937e-02,3.336654447119794410e-03,3.256482209799230502e-04,2.089461958648658191e-01,2.824692477640021460e-02,2.741594394797778472e-02,4.448498709580835792e-02
6.729154038726074816e-02,9.189699869210615768e-02,8.876251100298931940e-02,6.477358741839587056e-03,3.351026746382637558e-03,4.566246808281334375e-04,9.457078198625955279e-02,5.062553245389540303e-03,3.919137756615985457e-02,3.893549490176641259e-02
4.859860871525976261e-02,4.953060798057096897e-02,6.440258159070240407e-02,8.085131067716537848e-03,2.686512333480835235e-03,5.943702426460257659e-04,3.218804502157730785e-03,2.776818258261195410e-02,3.491684039351473923e-02,1.151671643166872899e-01
3.812027141946141423e-02,4.174256776421212366e-03,1.927680521678062919e-02,2.315492591595846167e-02,1.279625143493120761e-03,9.026615822358423531e-04,5.612122553869940134e-02,4.705151759732786529e-03,1.723052184459978112e-02,1.556580632635808370e-01
4.134571769508101763e-02,3.638153582168350553e-02,2.755306987418436673e-02,3.264064914794389399e-02,4.898726508832844731e-04,1.240122407459879825e-03,7.377193376599007479e-02,3.678267644749169674e-02,2.092213603188735824e-03,1.475939246112386583e-01
4.354965997193206706e-02,6.714537975685380689e-02,5.208521576244395934e-02,3.672283531207444496e-02,1.224090276861830497e-03,1.282405441699822467e-03,7.005457035140050248e-02,4.224311131915745726e-02,1.127694320204382025e-02,1.055060143032902908e-01
3.134941001524489679e-02,7.987741336741509268e-02,4.230957250592712326e-02,3.782563683213593236e-02,2.743622086584083901e-03,1.213049720875872131e-03,4.883981474501010445e-02,7.803840011505943156e-03,8.088799464409265200e-03,5.241038194522321808e-02
5.155848771891981958e-03,6.900510638450438328e-02,9.770176638493690419e-03,3.314111517078666830e-02,3.833972569786567915e-03,1.041641037893524307e-03,2.150823945221415692e-02,1.679566795700978415e-02,6.571749107760281160e-04,7.654675899604838213e-03
2.956492139139942424e-02,4.430864493571144702e-02,2.564950391456930628e-02,1.709945204166750388e-02,3.976764431105430687e-03,8.918031874834223818e-04,1.080115632562401659e-02,1.961438799778819804e-03,2.971537305559976416e-03,1.032923601051477687e-02
6.524386164046502845e-02,2.614671361148407022e-02,5.497088819874612620e-02,8.210001377933831557e-03,3.154896875839704063e-03,1.347148334386211264e-03,2.686048836475596335e-02,4.925386219975311231e-02,3.656485690298875036e-03,4.324427723097589230e-03
8.830451453515156257e-02,2.546312432918708749e-02,7.570904965926239516e-02,3.195342983909997547e-02,1.832018335013897627e-03,2.082657208327664492e-03,5.695481099367036282e-02,9.205961179706895203e-02,5.856856786058470613e-03,3.086198875005979891e-02
9.107350472686123743e-02,3.750378213700857749e-02,8.213447437740629964e-02,4.533333466224964692e-02,1.255676840245582371e-03,2.012914177921652434e-03,8.628170878928603793e-02,1.047407850773512533e-01,8.333121941360094667e-03,4.484004511880238658e-02
8.695837993234441232e-02,5.428785799189966843e-02,7.332061974170062113e-02,4.784021014650331055e-02,2.345903661758775259e-03,1.638534207360756688e-03,1.143817247271784049e-01,7.790541190737310107e-02,7.141906601289368071e-03,5.494423742504871144e-02
9.720118375852822290e-02,7.325298888359986493e-02,6.054559914417600996e-02,4.310325105034816529e-02,4.139981328258290384e-03,2.351008213083571104e-03,1.417971417982068494e-01,2.982431691953509045e-02,3.714085284670856982e-03,8.604886298623566632e-02
1.213026832959870766e-01,9.249232752119761203e-02,5.297679055978955776e-02,3.462186317318286660e-02,4.800943935038726358e-03,3.175542725493979077e-03,1.500347437785447824e-01,1.010260238063479844e-02,2.440172774765897272e-03,1.216298028567729256e-01
1.359251833485771166e-01,1.041395273418520978e-01,4.312253544160041252e-02,2.556115721684852279e-02,4.227737218859438026e-03,1.801238781766575882e-03,1.148005276819051151e-01,4.213027763310442375e-02,3.211381618364278750e-03,1.055764144001239552e-01
1.278925473891165676e-01,9.837481386494442703e-02,2.244015411923089634e-02,1.860882272586536143e-02,3.935114343896127694e-03,1.048904485339523370e-03,4.696719272685374175e-02,8.856044315428125702e-02,2.950802436853285950e-03,2.281356364268815121e-02
1.131306647308285701e-01,7.593705734518023387e-02,7.780517567198318510e-03,1.639559718746919081e-02,4.369512461941452847e-03,1.968451377098067584e-03,2.795156000860284963e-03,1.433413290071724466e-01,4.315305223284483099e-03,6.078339674368513773e-02
1.127500515055986086e-01,5.139850910391946526e-02,2.977813600269325900e-02,2.258813761203665518e-02,4.559170725656556955e-03,1.458906710603434433e-04,4.096945803047161161e-04,1.740310923964033807e-01,1.729810641814225752e-02,7.227284023243396582e-02
1.233568892381992771e-01,3.944556498304708364e-02,8.850095429969064009e-02,3.890457399761974161e-02,4.383677713479142840e-03,2.727451622429181207e-03,3.982800922165133373e-02,1.732253965930028172e-01,4.660937793460273593e-02,1.860760701127765759e-02
1.260257453670670102e-01,4.300901238041996560e-02,1.424075997622042677e-01,6.036042232779082611e-02,4.699383111232216699e-03,3.513848583496644203e-03,8.565315345261104163e-02,1.613983058444349583e-01,7.977240769718381419e-02,3.416579400479495543e-02
1.161231160051171829e-01,5.614821284878514923e-02,1.530380263421245723e-01,7.752014578918957344e-02,5.368260755701200967e-03,3.111740557489446526e-03,1.347666182092025211e-01,1.446507156887586742e-01,9.657996576575532399e-02,4.841807253721289173e-02
1.058062785829996660e-01,6.887114694182980279e-02,1.232175306530159248e-01,8.437632710347076070e-02,5.503454119927606546e-03,3.064734997296190890e-03,1.890035206864193740e-01,1.137301099003427546e-01,9.020559043959486267e-02,4.573407138825039131e-02
9.964323175825828827e-02,6.973827100841242799e-02,8.193707972236885517e-02,8.152054096232069780e-02,5.242249983805721825e-03,3.513456192310256132e-03,2.324625412140364222e-01,7.472060481971350143e-02,7.083380409246105291e-02,6.178999729342685154e-02
8.720917382865960021e-02,5.693667587861028778e-02,4.874451247475741072e-02,7.211750143847855954e-02,5.227257361416158196e-03,3.679192352832193116e-03,2.549280597084918054e-01,4.312603381299746214e-02,4.996226493977656141e-02,1.053848222350226016e-01
6.315213900604277342e-02,4.543060311631874626e-02,2.300835247744955833e-02,5.768122677988140462e-02,4.967568728548362594e-03,3.513378613139636879e-03,2.616777677972172422e-01,1.953954975704796232e-02,2.960179081923874217e-02,1.607638325275865254e-01
3.833149101794694480e-02,5.060706733134463786e-02,3.541562229090812995e-03,3.864385958582854108e-02,3.719411382875928603e-03,3.624538714091341679e-03,2.427664279432233396e-01,1.818102259789763746e-03,6.964833439026294620e-03,2.044077504687637770e-01
2.337935186561666129e-02,6.877322284721587575e-02,3.297807924597113277e-02,1.768210487524485980e-02,2.522747529617674032e-03,3.568209873874276464e-03,1.755176039734164528e-01,1.444580045094895696e-02,1.671033772881223151e-02,2.193902565844587649e-01
1.131584934248031256e-02,8.522118901092214094e-02,5.749967506572666726e-02,1.572964876775566692e-04,3.262856443329802732e-03,1.639521944839484767e-03,7.742653252377143525e-02,8.340668306294780204e-03,3.531031640882847933e-02,2.107678168081286163e-01
1.262262145142004771e-02,9.433702768973808994e-02,6.813461141177448721e-02,9.987634119335536687e-03,5.686467229890449296e-03,2.705025261618057304e-03,9.912154367690474699e-03,1.290598512269274661e-02,4.493062035610647514e-02,2.026076636961237354e-01
4.638780287367519350e-02,9.810655861914215070e-02,6.662723471772033501e-02,1.326810332246707719e-02,7.284673537862661717e-03,7.434066130898214601e-03,2.766631341848114350e-03,3.238765069682386644e-02,4.885123242448304731e-02,2.078243339565983283e-01
6.717113990429540715e-02,9.227075070831693149e-02,6.440151668430811605e-02,1.273797119178506076e-02,6.485753442379648022e-03,9.724859198506064645e-03,2.039135341412537383e-02,3.133822580023321036e-02,5.318255404948053072e-02,2.124973997738173470e-01
5.529326226050672310e-02,7.167868048373023104e-02,6.985482091193209730e-02,1.109859828474214251e-02,4.259839473700803049e-03,8.119883630891890428e-03,2.940660705724288879e-02,2.792349515464262813e-03,5.981647856471296321e-02,2.022235291704223281e-01
1.745403520765948999e-02,4.584068208522708299e-02,8.228290711894296894e-02,1.037076087451090783e-02,2.075126722796967731e-03,3.234061642872492100e-03,4.624491762276564111e-02,3.932238935878131642e-02,6.662359484621772909e-02,1.877318967297620100e-01
1.607382259529074528e-02,3.213068613908746235e-02,9.764931309525086423e-02,1.216988642809270320e-02,2.659310418427835907e-06,2.226925494259707206e-03,8.648074453374399173e-02,7.087811297533713750e-02,7.178113356668457123e-02,1.865187242210366581e-01
2.032463310056835046e-02,3.495312993594641704e-02,1.136680752033082525e-01,1.745140981899896693e-02,2.217122342704156909e-03,5.113576132727511159e-03,1.238350842304578037e-01,8.433873735443860042e-02,7.437327794086665000e-02,1.914764479648006223e-01
2.107041870912542206e-03,4.350429325007804104e-02,1.279027789111553681e-01,2.674317137949659001e-02,3.795751702399193916e-03,5.057122366139495291e-03,1.317156885105173481e-01,9.642435537025514924e-02,7.325115195616266339e-02,1.784720773377090619e-01
1.362668711496780455e-02,4.616918851986905048e-02,1.363223787295002598e-01,3.936442402502891152e-02,4.051634017116051770e-03,4.695896229567324102e-03,1.127486401062268023e-01,1.192067603230122785e-01,6.861269517041744537e-02,1.403187547686313985e-01
2.247804124871245063e-02,4.010344920826063031e-02,1.375645266009767054e-01,5.121842783801252436e-02,3.991838137671576553e-03,5.432785233892378426e-03,6.716148066765162405e-02,1.361829428995099678e-01,6.354314818981238178e-02,9.549205076351174881e-02
3.987089585244683876e-02,3.236064281783748720e-02,1.354866121483296881e-01,5.624360474825368383e-02,5.157721654141234763e-03,5.322552146024421213e-03,1.327918324367059061e-02,1.279390174841357752e-01,6.161326452176299484e-02,6.261177468785346367e-02
6.312287526212206901e-02,3.272038522308774733e-02,1.334374188278157070e-01,5.248578031572396357e-02,7.258601139500320959e-03,2.775891956826446148e-03,1.069396552524794208e-01,1.090518545244827386e-01,6.185694116585337826e-02,3.676516923637499629e-02
7.285616599343268385e-02,3.938784454110724753e-02,1.291380322123492075e-01,4.383007468765341003e-02,8.594991737667926485e-03,6.347433964299730542e-04,1.674795202986504306e-01,1.071960740341257601e-01,5.751589294950470305e-02,6.162501087306884728e-03
7.194200100381985263e-02,3.644716854572806891e-02,1.177329547934442694e-01,3.425012948825471859e-02,8.937818064216427466e-03,2.899700230834047036e-03,1.758136278121150975e-01,1.148900710942490633e-01,4.344372074834702835e-02,7.872042138245954890e-02
8.167825251295321443e-02,1.148676727957367687e-02,9.439752781268177795e-02,2.486399213623385895e-02,1.000357362952722026e-02,3.909436483753326100e-03,1.516870896219937870e-01,1.001448677464173986e-01,2.355811775708549494e-02,1.530646626098717544e-01
1.028552235319326602e-01,2.992193647153506761e-02,5.524181913279962997e-02,1.780132988872609734e-02,1.237632965115358086e-02,3.402848715999417725e-03,1.144022300138121534e-01,5.889897964959796284e-02,5.803613021060534394e-03,1.790462605540929786e-01
1.171771362403227906e-01,6.904427930758312570e-02,6.928766293678745650e-03,1.710094171254553791e-02,1.423955505220746848e-02,5.650402138639978519e-05,6.403702187769243215e-02,1.880574200217733499e-02,6.892568058045388767e-03,1.432505564640137730e-01
1.173365412609828212e-01,8.773190431216693064e-02,2.776079306143121664e-02,2.357263406315760271e-02,1.442301014119363144e-02,5.977696296591439133e-03,2.767727951465029368e-03,3.472901998695094097e-03,1.451630596379725052e-02,8.862166602873179644e-02
1.054556446373664802e-01,8.113581757626478486e-02,2.893258744931753723e-02,3.283817739478708114e-02,1.447893824409955156e-02,1.065713117469930041e-02,5.878904681110114910e-02,1.210101318254573968e-02,1.475798361324546018e-02,5.864296829902385100e-02
7.471392314207178642e-02,6.266385658236386935e-02,1.068405467863612138e-03,3.996076766260681090e-02,1.609186328929253923e-02,1.159393299742822112e-02,1.266125039563096577e-01,6.134073010993874517e-03,6.183467459075802329e-03,4.723488286219267029e-02
1.978383968799322934e-02,5.106869612113808243e-02,3.566268674416029488e-02,4.395547313626488317e-02,1.819698803852818486e-02,1.117110349433765581e-02,2.189340482334852789e-01,1.804149318991648404e-02,8.924045469077268589e-03,2.731447546889659989e-02
3.879727432261573239e-02,5.039084034058270711e-02,6.744260316192997318e-02,4.742524793570081915e-02,1.855182970635744708e-02,1.311734233655214264e-02,3.225242031353502403e-01,4.235533359274150367e-02,2.772125611655945621e-02,4.512414977550094006e-03
6.177489414431795028e-02,4.908509062645274867e-02,9.146353090545203401e-02,5.275166199541397177e-02,1.734196032702345000e-02,1.690517287289638668e-02,3.941287294255678697e-01,4.245561418993585440e-02,4.772028929135676417e-02,7.146916857341479613e-03
3.194211429888409171e-02,3.579211783223455734e-02,1.100919209041278657e-01,5.926975075146598965e-02,1.732710152621499272e-02,1.875199445024459260e-02,4.182280611322044539e-01,2.500470082950643005e-02,6.558218727269196635e-02,3.392686441806012226e-02
2.104514682128832970e-02,7.940745319321032211e-03,1.289179183144212315e-01,6.502190925088068008e-02,1.983227418806630254e-02,1.703033740296336362e-02,4.174582481286758795e-01,1.342607636839279056e-02,8.010364775209212473e-02,4.942492913473764404e-02
4.887563773061048833e-02,2.801067923641307328e-02,1.534231413017796142e-01,6.981962323115116498e-02,2.217320357248175888e-02,1.370262978342477039e-02,4.003528144358260432e-01,2.369922602515996297e-03,9.400866006895790272e-02,3.278174898649993674e-02
3.402208926526122806e-02,5.682919259530516687e-02,1.827938933735644977e-01,7.302453235255051966e-02,2.118248905082991199e-02,1.104702709716947652e-02,3.508146717681864257e-01,3.092522352291594834e-02,1.091789659642999066e-01,2.463295041310480972e-04
9.713185151667314172e-04,6.474963384863159643e-02,2.076229125041127721e-01,7.013716661558300203e-02,1.820931943949299220e-02,9.162910200562349519e-03,2.709550213005017527e-01,7.431169881069291105e-02,1.231837603978639117e-01,2.664551324520513312e-02
1.707039596181931726e-02,5.533810409525364432e-02,2.131655637705708595e-01,5.775574439338979071e-02,1.731927032844559483e-02,6.550695989075943151e-03,1.874164415593302935e-01,8.651341144593233112e-02,1.323759646306504056e-01,3.971383287233422321e-02
1.305515872865586902e-02,4.539985240073893952e-02,1.903736321063719261e-01,4.074457344426060668e-02,1.935397742519125511e-02,2.559207677555606214e-03,1.230929515404804026e-01,5.447007921596397351e-02,1.351628790355306198e-01,3.885798384944570694e-02
9.247157062746255013e-03,4.483400968375086948e-02,1.502741096836914814e-01,2.787871882811399776e-02,2.166692105492739467e-02,8.438204701083551387e-04,9.989066554315190194e-02,3.687048823595856506e-03,1.320062197817918337e-01,2.053219436596392944e-02
2.893445839303783809e-02,5.010522357222017137e-02,1.196712347457375980e-01,2.204553512110200147e-02,2.298448223300968499e-02,9.671628779506627254e-04,1.421809578397495721e-01,4.414359204569730244e-02,1.256555811933335598e-01,1.099697809557252312e-02
6.558553206941333813e-02,5.270994163049991937e-02,1.122202502077187802e-01,2.093318833930821882e-02,2.458139401473233288e-02,2.046846427486415359e-03,2.305164353739045380e-01,8.707806096002981833e-02,1.199100105670141969e-01,3.919942572700250982e-02
8.568847651565729417e-02,4.541774476691168294e-02,1.104141088188736186e-01,2.334089135255890124e-02,2.678485545219522201e-02,5.577299266786434929e-03,2.820285943237273441e-01,1.229349642288356803e-01,1.132658488315564649e-01,5.089419292146758755e-02
6.636404008243461383e-02,2.632266693967546395e-02,8.727214507260376564e-02,2.652725314979223134e-02,2.721303119782419663e-02,7.705548374382688477e-03,2.369670688755525223e-01,1.448829006728028501e-01,9.664392892098844223e-02,4.948728707896557499e-02
2.436909002600885082e-02,1.266889899742741458e-03,3.973786439022594652e-02,2.182093639083194925e-02,2.309378868224460854e-02,7.880734813415883611e-03,1.438512162126739102e-01,1.534766978846230923e-01,6.468555425319288954e-02,4.856785439505253293e-02
3.205804077612527114e-05,2.268261552221286989e-02,1.299353519476561213e-02,3.770879853632517088e-03,1.435641353769241679e-02,5.943098983322560487e-03,9.539313986112299415e-02,1.515773274355269873e-01,2.527997215399370445e-02,5.572105821173238549e-02
1.194857310431252789e-02,4.369139135892544795e-02,5.832947335980451925e-02,1.819012597668024853e-02,4.307109239309494034e-03,2.915556717602976744e-03,1.037866264651958331e-01,1.333348607425069998e-01,1.059899372506435504e-02,6.330274628391024949e-02
3.724746864848989952e-02,5.928660406302188601e-02,9.618241203465693889e-02,2.770108381197705291e-02,2.352743221991495520e-03,1.607679608594874028e-03,1.150459774355901132e-01,9.760648121611567585e-02,4.093112002463318577e-02,5.568976918557317496e-02
4.157700802248028016e-02,6.098735553357010480e-02,1.186570536247298219e-01,2.175001780161137099e-02,2.868946003362733092e-03,4.093004366587313370e-03,1.201914415649140977e-01,6.441890188648449755e-02,6.393191998550067090e-02,2.970494489385025472e-02
1.990819232931666585e-02,4.414577257212515260e-02,1.125193483833780012e-01,1.472691743701813952e-02,5.267160390793506394e-04,8.426936486158935480e-03,1.542565371776633276e-01,5.386238003657520257e-02,6.840141184010033182e-02,5.358329510094747908e-03
7.032575734786979636e-03,1.878465409827499016e-02,8.537963061378650576e-02,2.020252780545847907e-02,1.196535104003362436e-03,9.495784722499062483e-03,1.944654736232135361e-01,5.342180024208070116e-02,4.873673233749695882e-02,7.724340880578143068e-03
2.587899031963298430e-02,1.384922299352457122e-03,6.266222681196287336e-02,3.499461856782724867e-02,5.510893161589470318e-03,4.442996013473531590e-03,1.632653795242431094e-01,3.441612804504976669e-02,2.411285950627579250e-02,3.927318058786558735e-02
4.009702814008617167e-02,1.780674362324491042e-03,5.626124725867226450e-02,4.462882149459579395e-02,1.594733185971491246e-02,3.539532657222041728e-03,4.644441643748094262e-02,3.940663332576950853e-04,2.822224371444261026e-02,7.771754165502185729e-02
5.192183375009322421e-02,5.569916832141668349e-03,5.908270054441003977e-02,4.034928939898459882e-02,2.150533061377245259e-02,8.704037494490661497e-03,7.830696518902030556e-02,1.785649631600963461e-02,7.746889673912564500e-02,9.805507909154598245e-02
5.456459193917370665e-02,2.170678119330805844e-02,6.704822966986966060e-02,2.663405875548715412e-02,1.922111191291343141e-02,9.690809468837940574e-03,1.496807640777693127e-01,7.887995597090406708e-03,1.534433819709469793e-01,9.122786382836121921e-02
4.278760964378306580e-02,4.442617889802180642e-02,8.120271126739590783e-02,1.360489173612466907e-02,1.514295386059222662e-02,1.047736726394055129e-02,1.805199688788383938e-01,2.858896895388962286e-03,2.158271511145550547e-01,6.806977218543569519e-02
2.083831255643868105e-02,6.061939102677951774e-02,9.155844979029573172e-02,6.064286890483661097e-03,1.543595970503061111e-02,1.400139594320192610e-02,1.857370737672152383e-01,3.178653420191408091e-02,2.323562309022174366e-01,4.936752335261566926e-02
9.032095023607847849e-04,5.670920279543574527e-02,8.690982662892075827e-02,2.054621374205848131e-03,1.890880324956905126e-02,1.809319558283239981e-02,1.503985386245480504e-01,8.360783437837543408e-02,2.041544954879685181e-01,4.500635443026056171e-02
7.321007314777919044e-03,3.986834955184785645e-02,8.100287592653854229e-02,1.221349404901207660e-03,2.171456879820808997e-02,1.971720836879565023e-02,1.176940183460193218e-01,1.291983367904846469e-01,1.654872514921528759e-01,4.361023730857069292e-02
1.212150530392486214e-02,3.388820764278551584e-02,1.009818505256805110e-01,9.616299184925253957e-03,2.433114455199941392e-02,1.988976484333540920e-02,1.945565553523187219e-01,1.548271765291917568e-01,1.507753716267357658e-01,3.019630657100685206e-02
3.212841799848961677e-02,5.245793606301941969e-02,1.459816408301022328e-01,3.064292918199811727e-02,2.878135105123310819e-02,2.084025080688248557e-02,3.972364442330958978e-01,1.622142717816758284e-01,1.611829694336714691e-01,7.455745916764081049e-03
6.096659791996213162e-02,8.603597106204148581e-02,1.862457629982274265e-01,5.440249002542130174e-02,3.398051246347461724e-02,2.147143374895789034e-02,6.136589057121848434e-01,1.603093373691965862e-01,1.725962383652353549e-01,1.028184985152921435e-02
6.413967630998060332e-02,1.148326945228085733e-01,2.168489628129753044e-01,6.556223655448552290e-02,3.957997223032105882e-02,2.029074238480271797e-02,7.866576841425289013e-01,1.682650119640771158e-01,1.703475994578321773e-01,1.684595325926820444e-02
2.955275976738156937e-02,1.268997938455168339e-01,2.822529104107779352e-01,6.086859283613745009e-02,4.848489979845235776e-02,1.965143532707023730e-02,9.815104463457990924e-01,2.025501393376964443e-01,1.620537947933220757e-01,1.860833340099450617e-02
8.671806353829612096e-03,1.223432836276990565e-01,4.124311165419455860e-01,4.906717759511860372e-02,5.959103713301770744e-02,2.195668447581432953e-02,1.200222838423796068e+00,2.496615825948623191e-01,1.614407376992799403e-01,2.373793765561314772e-02
1.588219732484754190e-02,1.058655488747949347e-01,5.531585012509028232e-01,3.685464601070424090e-02,6.531196654353590980e-02,2.515886292798760054e-02,1.307129782667711293e+00,2.714228184052340787e-01,1.708688858302991331e-01,3.158371587368698219e-02
4.644031619951550019e-03,8.197393242178906136e-02,6.082574146441888097e-01,2.774124674395021112e-02,6.215268555235595876e-02,2.673549753976517049e-02,1.231604092581181531e+00,2.459415951611646223e-01,1.774503151713980320e-01,3.086864103897019040e-02
3.410311125462091308e-02,6.068142156299222850e-02,5.459788230800447506e-01,2.993434419721435757e-02,5.575630940358110299e-02,2.780264941395691608e-02,1.080862635797129379e+00,1.881845296927956990e-01,1.646361095159003529e-01,1.216183259645530618e-02
6.266393472079953564e-02,5.981846684928215918e-02,4.192944334434878795e-01,4.847859414999088762e-02,5.098025654757938618e-02,2.939239215665824870e-02,9.611811988246117266e-01,1.277219511337909785e-01,1.316369252982411697e-01,1.485442452727715572e-02
7.090323791967642619e-02,8.730604938789050806e-02,2.887643817745339514e-01,7.185611300442280858e-02,4.576284003155999675e-02,2.995015902475346714e-02,8.348240762801031334e-01,8.262283046231980177e-02,9.514950860561377510e-02,2.618216048360468354e-02
2.485488765244533993e-02,1.241138409729376224e-01,1.729903190915388078e-01,8.209907034310137686e-02,3.840233703084030420e-02,2.953259784438894142e-02,6.398101876781219222e-01,5.703671963780568982e-02,6.529384851252387212e-02,1.083963264874262741e-02
7.552458731168393280e-02,1.411731515240907953e-01,7.511869600593051866e-02,7.687593405668956270e-02,3.221169851373557186e-02,3.028990295701614391e-02,4.231816713274543784e-01,4.714446010517596430e-02,3.478500817936588246e-02,1.776486348601745771e-02
1.691727028693512658e-01,1.300184005814004062e-01,1.074013553264365622e-02,6.903440974724646406e-02,2.950991328099745320e-02,3.060833192481715245e-02,2.721000289294060459e-01,4.381910166342836699e-02,4.222643656042045224e-03,4.144239736937710417e-02
1.918275876815918601e-01,1.016582126088637905e-01,1.263880423556799221e-02,6.656887551513376855e-02,2.784511979313650937e-02,2.590695096721868512e-02,2.049629786572187973e-01,4.055084621880226947e-02,5.144290960988992523e-03,5.428920169438897214e-02
1.454318306024629526e-01,6.449401750361295760e-02,1.748487172882603330e-02,6.397032469766895935e-02,2.448902922769850138e-02,1.703675561972846711e-02,1.891703332785148184e-01,4.062439368540012030e-02,1.507398841747900620e-02,5.725560978429896503e-02
8.354709774879900963e-02,2.231640848147596612e-02,3.155572437845551720e-02,5.234532135844929823e-02,1.939506873814600407e-02,1.048139911614138185e-02,1.976046699250110228e-01,4.731700905208728603e-02,3.873752162447675895e-02,5.099513812032228227e-02
4.533473435622802084e-02,1.584736623857290611e-02,5.543172565327120910e-02,3.013701848613803760e-02,1.288269683233561093e-02,8.816630710315721819e-03,2.090576613989506005e-01,5.048765238786179221e-02,3.920465132446410150e-02,3.852226523067507624e-02
2.938084091433020364e-02,4.418716446782094964e-02,7.780108838336723120e-02,3.747558305426475569e-03,5.070069757297721025e-03,7.803616785780920564e-03,1.985538359266814656e-01,3.627410562554199414e-02,2.022310129486760977e-02,2.444886445069685554e-02
2.026111834341860415e-02,7.003599448364142277e-02,1.078984196422894393e-01,1.841432969855501256e-02,2.226461810896992674e-03,3.740678216849019095e-03,1.546393904863554991e-01,7.365524318078913932e-03,4.324601533957000976e-03,1.068821241541822835e-02
1.184344283346749731e-02,9.815036834568233171e-02,1.623575611910646477e-01,3.185494868105918920e-02,6.937144239366801676e-03,2.149634599549240209e-03,8.787072532310637174e-02,2.173454744037344594e-02,3.381162724001362391e-02,1.344257118114072086e-04
1.364970167225892060e-04,1.158154578238427684e-01,2.260289559104417256e-01,3.434975467598930243e-02,9.920421261757458170e-03,7.227599920354467466e-03,7.229400144134957851e-03,4.675551068421886225e-02,6.723038640696996082e-02,4.261435301762496117e-05
2.153583194255398806e-02,1.112101371859021692e-01,2.553873565691497927e-01,1.901295023879625429e-02,1.372703211328525977e-02,1.098204118701000091e-02,9.747820083575906014e-02,7.397977978910906527e-02,8.942869319684237928e-02,1.187308616487371855e-02
4.504660932528438411e-02,9.446714995585299424e-02,2.261370240235358042e-01,1.964595527975006306e-02,1.870948727736433323e-02,1.437245034841656659e-02,2.253336948565617948e-01,1.038478551076238710e-01,8.757440287688558755e-02,2.463139452708811364e-02
4.898696955643566664e-02,8.148771332154108871e-02,1.616183017947401546e-01,6.734610401238079469e-02,2.294931002686274174e-02,1.802516474756354209e-02,3.344104821602087996e-01,1.320034432989765916e-01,6.987003466181418432e-02,2.660169851827874632e-02
3.523627247103316984e-02,7.025843459937815283e-02,1.100348400096446827e-01,9.311041870389913377e-02,2.567342530068905671e-02,2.149461581290042916e-02,3.865822859427475722e-01,1.569637992554752670e-01,5.816794036827972747e-02,1.854766918748008975e-02
3.262767109427135853e-02,5.328688289539993544e-02,9.918523010784625893e-02,8.111664933164480784e-02,2.831778179620950131e-02,2.340938380070193767e-02,4.068821530484462157e-01,1.713754777197532830e-01,6.570481367669034345e-02,3.044438221600070764e-03
4.441353757800326624e-02,3.946270840770146199e-02,1.133883171184713323e-01,4.769164620856816694e-02,3.194978573556281343e-02,2.277928028956544698e-02,4.452874126561059409e-01,1.637164827006619416e-01,8.517173768203956108e-02,2.461821148858265793e-02
3.272766708333686714e-02,4.407834332091516150e-02,1.159958833831522956e-01,1.968259875508786283e-02,3.545912329061044060e-02,2.062813611257142618e-02,4.939434537268881931e-01,1.423650487211249871e-01,9.897903764984117281e-02,5.921465804397522265e-02
2.133143759146172852e-02,6.646783645231053861e-02,9.432610482961396869e-02,6.865933968543793189e-03,3.690050142025046165e-02,1.925936868181648762e-02,5.027300411787521961e-01,1.328686297468573418e-01,1.003385674870632127e-01,7.735777635436454081e-02
8.333790855965175770e-02,8.904476232162156224e-02,7.079226934099952517e-02,6.182717632924653560e-04,3.575753139401725844e-02,1.956373646427524843e-02,4.724309376236410785e-01,1.396453250912038091e-01,9.853954934249377351e-02,6.541145577920054466e-02
1.118750949639490538e-01,9.537030245325241185e-02,6.871650375066871985e-02,9.826851825824912956e-03,3.369949406940901671e-02,2.050713437015281790e-02,4.669960963688059019e-01,1.389826140162171431e-01,1.029350724645191617e-01,3.879962757993130756e-02
1.036131495491604826e-01,8.733574773711509642e-02,8.834821807929638116e-02,2.621601637323854941e-02,3.331225798881925354e-02,2.130408335175931409e-02,5.195134389898428129e-01,1.184969447701700179e-01,1.125971998567308896e-01,1.784543733479595704e-02
7.804326730064684026e-02,8.038338290986857260e-02,1.227070385405605313e-01,4.194851970441346167e-02,3.556706297625334551e-02,2.227294132208514771e-02,5.865528996077296053e-01,9.293212048239112011e-02,1.252197243901499168e-01,1.493087419830315191e-03
4.593615183218384412e-02,7.859165699789387449e-02,1.704310583590831207e-01,4.902874429137182161e-02,3.853562052240916413e-02,2.358021069462163180e-02,6.205406305514961085e-01,7.338006666139484935e-02,1.442446735744034314e-01,1.996532436052852674e-02
7.209235417895698550e-03,6.860960697806500752e-02,2.167032389663526570e-01,4.557417629276842158e-02,3.933006568825955090e-02,2.486371991703446860e-02,6.346266688709132353e-01,5.170136148519632185e-02,1.692334057149323945e-01,4.148198583898313196e-02
3.284597578399443135e-02,4.396841909946755389e-02,2.269774638863607252e-01,3.827331411149875046e-02,3.707219610655954761e-02,2.610265262181758056e-02,6.624791065750348373e-01,2.456218095559803763e-02,1.861671478927643675e-01,4.979448439022132744e-02
5.820793713949822673e-02,1.511885903987044560e-02,1.880153953636723163e-01,3.563721473386884803e-02,3.347766926257324943e-02,2.755961229307312896e-02,6.897598717696302728e-01,4.258974761936028600e-03,1.795501974750878804e-01,4.268040860238536682e-02
5.763680058160047803e-02,8.449409481232773855e-03,1.385148563167948321e-01,3.928133206317597353e-02,3.130889765584522755e-02,2.892123913671054702e-02,6.693085001307789161e-01,3.472824422307308270e-03,1.561889832308049064e-01,2.606982312939970514e-02
4.170873379967127842e-02,2.451698893116732725e-02,1.253487404048699849e-01,4.570725853662232357e-02,3.259338243408402974e-02,2.949987475173846893e-02,6.032044521190520481e-01,5.065646654711234917e-03,1.425539281903588917e-01,2.766697510570790327e-03
3.510148586413318339e-02,2.759041864849643907e-02,1.381160648204882713e-01,5.436849413903611233e-02,3.678082430791899948e-02,2.895220129779760634e-02,5.672064775246556945e-01,3.032519748745408569e-03,1.488407887025778309e-01,2.057992949090322807e-02
5.084193012190232897e-02,1.210264584249201233e-02,1.217118898886598993e-01,6.680901548410521362e-02,3.977448320148842947e-02,2.675512100355236997e-02,6.209886644253265198e-01,3.016753823904190501e-02,1.512442438010458690e-01,2.665104619602402108e-02
7.958083623431112807e-02,1.574270723483620765e-02,5.134748832503610583e-02,7.911885591320637345e-02,3.706938233294914536e-02,2.193262445910507813e-02,7.242850648293335247e-01,5.961287612377634548e-02,1.243197821975673689e-01,5.135510900955059937e-03
1.046662592900913236e-01,4.108424782071733172e-02,3.638342472416779272e-02,8.371297679335233666e-02,2.956900708192286564e-02,1.499566230312656887e-02,7.864497883580716664e-01,5.689371145265889607e-02,7.583415597642977068e-02,2.749987743827355530e-02
1.190632149131078815e-01,5.130260583022264176e-02,8.824739232996145488e-02,7.968341157186749346e-02,2.334363245187269856e-02,9.028493012127651596e-03,7.733956764442326826e-01,1.880413641211184372e-02,3.385411330840784605e-02,4.012063048824965339e-02
1.236245512547312214e-01,4.118805568521881344e-02,8.431616974816887045e-02,7.427098020272790424e-02,2.160050951592164259e-02,6.957526492199384016e-03,7.220354242618680640e-01,1.775479613586825045e-02,1.219315147361077836e-02,2.059898229325147004e-02
1.174051984141364080e-01,1.707357377446548988e-02,4.014346282337578897e-02,7.220991653217906370e-02,2.115244900109105458e-02,8.711619708562202274e-03,6.741428420565795943e-01,2.158730111666599255e-02,4.078873176263826672e-03,1.153251525566247222e-02
1.000425395259864209e-01,3.908953025558381533e-03,1.796267616113157717e-02,7.043033445824042893e-02,1.905534467733293463e-02,1.210573234294040103e-02,6.272721816925214133e-01,4.451649318205418843e-03,2.100903133859223504e-03,2.986662828349596899e-02
8.057226053117100273e-02,1.009583278645242652e-02,6.563804842878735724e-02,6.658740072753356609e-02,1.687759794383003609e-02,1.497088091928703950e-02,5.312750987850869411e-01,3.885612750139587346e-02,8.295761192756736374e-03,2.910479798632199799e-02
7.328137666742133571e-02,7.454632711342002761e-03,8.147684838135441088e-02,6.583255227436464463e-02,1.561984414324370934e-02,1.586316987215434862e-02,3.417687724378336012e-01,6.131800454997635846e-02,2.155829173780680896e-02,1.946563987205891105e-02
8.337838641940496787e-02,3.707870083426218454e-03,5.985555986476392976e-02,7.277077836920589626e-02,1.314525473963179883e-02,1.454944228886372558e-02,1.071390482918828935e-01,6.195894133042670338e-02,2.836634087882003094e-02,4.396960367116731216e-03
1.017695726588828814e-01,8.780131282321095368e-03,2.443176710682939262e-02,8.162688436248309587e-02,9.584348258878275933e-03,1.218148847713810580e-02,5.235682643666146607e-02,4.913412114676676823e-02,1.964606726132887143e-02,1.687507081649039162e-02
1.148801098087875311e-01,3.614760973821281448e-02,8.759479817860764059e-03,8.211757766281962967e-02,8.103330087659461889e-03,9.652555551959027258e-03,1.032270868922994522e-01,4.459418275022915962e-02,9.579140742616534115e-03,3.113653102776040363e-02
1.176515558737930983e-01,6.055722096893148554e-02,2.094902245631090343e-02,7.218720605053738359e-02,7.827077539372806828e-03,6.368546245942147827e-03,1.460066246172042059e-01,6.079394429145393991e-02,1.804363972259736756e-02,2.158746520658349349e-02
1.127537062250420496e-01,5.782372218810614278e-02,4.250331263982023294e-02,5.714135338850930695e-02,3.644376365094625925e-03,1.930924746426493409e-03,2.354113418089542054e-01,8.356402834745176034e-02,3.525890283062668024e-02,3.182857818248793248e-03
9.345532215613014393e-02,3.180084223755059308e-02,5.938734396818586003e-02,3.885934470053982459e-02,5.295352487557889593e-03,2.423037150166606861e-03,2.780468092996813967e-01,8.086114652185043272e-02,2.797551953318275567e-02,1.509410882565069556e-02
3.999222794897476507e-02,9.538954312281220510e-03,7.715166176166161904e-02,1.615702103268669421e-02,1.478585027025236184e-02,5.694807482270119320e-03,2.102005871699694495e-01,3.347444297963945992e-02,1.013966796039516595e-02,3.317782095994066885e-03
4.739415634896457230e-02,6.722767578373350233e-03,1.004392625643083792e-01,4.431028309866706996e-03,2.330683336344755233e-02,8.834282659958803477e-03,1.343184703401694158e-01,4.061327140603906982e-02,4.071285327132851545e-02,1.470413187836642696e-02
1.259194593569782361e-01,1.772008003111673335e-02,1.108385588826747425e-01,1.099012764860436524e-02,3.206497420315648078e-02,1.302336106636766550e-02,1.384878324301345720e-01,9.904700868938001723e-02,3.411203312883728800e-02,1.917046794719608899e-02
1.540140730816192127e-01,3.250899816972215028e-02,8.383198516186222971e-02,3.863798382662900384e-03,3.854669162326508636e-02,1.776483831910597930e-02,1.260037284729952911e-01,1.149714670534526528e-01,1.520170445017228825e-02,9.663906713305596766e-03
1.454631146432718847e-01,4.337958606645198056e-02,2.752959686756872512e-02,8.492453169946199976e-04,3.881694443328043836e-02,2.168596631756767451e-02,3.031074025732157645e-03,9.870969577871231693e-02,2.501705118810476289e-02,8.999529092725279639e-05
1.422540562835205025e-01,4.196645656686075199e-02,1.507399497112816254e-02,7.311413211700442880e-03,3.482180430641652197e-02,2.380279696735191491e-02,9.678745649114502136e-02,8.359436239557588300e-02,5.609891056117425473e-02,1.076678875092649569e-04
1.482435632651524504e-01,2.680848493059172569e-02,9.343388161812109932e-03,1.851527966741575715e-02,3.199229422839783288e-02,2.386972075471980453e-02,1.480302092798845524e-02,9.699440906678347130e-02,6.048915998313715570e-02,2.505791036079273084e-03
1.312315771561024524e-01,8.650272528560962876e-03,3.109643254267921778e-02,1.871040457287868539e-02,3.119442700098789406e-02,2.286583609188821281e-02,2.796423001778826078e-01,1.373470309001744161e-01,1.864238574774916904e-02,5.717323939025163899e-03
7.937133917426920926e-02,4.430533379302697278e-03,4.780233214960032118e-02,1.320473864048783003e-02,2.859411844766510807e-02,2.217860272779459407e-02,4.739512299702566267e-01,1.739080803024012356e-01,2.276141185722858201e-02,2.329875410944927047e-02
1.744626029689468408e-02,2.098739497663119902e-02,8.964909517528350108e-03,2.210005852351869249e-02,2.214232430376580213e-02,2.132705576630756356e-02,5.234433405359137925e-01,1.773750053041694974e-01,4.844245490313262709e-03,2.878429138909352827e-02
2.788247507444100229e-02,5.154844310776762750e-02,1.211912597730076674e-01,5.172875403447714515e-02,1.462976960115765918e-02,1.902843561389633287e-02,5.450526430719168092e-01,1.503258718199420307e-01,1.102393816375611679e-01,8.773623418439414554e-03
5.157724932618459879e-02,8.628896683543639534e-02,2.164652947915409742e-01,8.221617274296297295e-02,1.061025684075224580e-02,1.687482809840933073e-02,6.153164282637078042e-01,1.168279560112775728e-01,2.248026445683704022e-01,1.718948447502136045e-02
6.005926755402397899e-02,1.035725230760894677e-01,2.444330912734282713e-01,9.090788175741386368e-02,1.130607803052665825e-02,1.753380323442073688e-02,6.747824157568019787e-01,8.884693629198195386e-02,2.786640459340301579e-01,1.733768511655294289e-02
5.658827360975240278e-02,9.615328805794427780e-02,2.124398786216500634e-01,7.904838120786755740e-02,1.326675838812881904e-02,1.941891520437983784e-02,6.701192245753568866e-01,6.067726083975805845e-02,2.672530393000490112e-01,1.114665911262269563e-02
4.368753761167609717e-02,7.638235091161550694e-02,1.540541390990956272e-01,6.483973125673467286e-02,1.321354796793464126e-02,1.880591674785033612e-02,6.493233681574530625e-01,3.148297764611349137e-02,2.254417100588604894e-01,4.164642093276542389e-02
3.158529560682525605e-02,6.151366620783288441e-02,1.018023186091354254e-01,5.787090079366509487e-02,1.236460979062446383e-02,1.658533095870737967e-02,6.660110135382529828e-01,1.153297207691684340e-02,1.749060886630064704e-01,5.607050659977685231e-02
3.018164207862059079e-02,6.121258848352100629e-02,8.113960516262849754e-02,5.276289454492963382e-02,1.328936199302156208e-02,1.685481332853884864e-02,6.898742864974445332e-01,4.591817880020086090e-03,1.259372488761389131e-01,6.139650730301537268e-02
2.902285569026169174e-02,7.271048229606101587e-02,9.406039350084979822e-02,4.361402251405571695e-02,1.515514826825252979e-02,1.973791932409402899e-02,6.772396402812148608e-01,1.584230669528091662e-03,9.672418769621685120e-02,6.782214244799314451e-02
1.649317445154926780e-03,8.500667293732651342e-02,1.151005030486403069e-01,3.289491354642993387e-02,1.549998792112640758e-02,2.111637307470597483e-02,6.510687362567693093e-01,6.607654394623003677e-03,9.695044169352387553e-02,7.146375608077359942e-02
5.757571388760528847e-02,9.103332739385996963e-02,1.223063123230385824e-01,2.650065752698927551e-02,1.413064146595240968e-02,1.870038954751442051e-02,6.404188399164219003e-01,2.278797231381595595e-02,1.098901472119300227e-01,6.353723542434537574e-02
1.169614830816066292e-01,9.090602599190297783e-02,1.156435349159726927e-01,2.817765924845457015e-02,1.233395564237276497e-02,1.415751957992987878e-02,6.049257569874605389e-01,4.687081873641467389e-02,1.106758432845596218e-01,4.246896217343892194e-02
1.421605052122640878e-01,8.105143354743161999e-02,9.554964409714940266e-02,3.878157240722591992e-02,1.058462305750602905e-02,9.875340735985454685e-03,4.895292260516234117e-01,7.455665703191867444e-02,8.980327193439301137e-02,1.438304086921979308e-02
1.303896497257239773e-01,5.476914716979803394e-02,5.158582097407465178e-02,5.445455867913905762e-02,9.304634826327640856e-03,6.641697634937040670e-03,3.119192523981665910e-01,9.789390425168288667e-02,5.161587937348058319e-02,8.981123278190953491e-03
1.006455312156566834e-01,2.064813356581917184e-02,1.041860965767856841e-02,6.513217728516251803e-02,9.636266364082175101e-03,4.060130329154836536e-03,1.416581595120890158e-01,1.134925042965150149e-01,5.477798556529739696e-03,1.625684956840824091e-02
7.193675018938716637e-02,1.736697339325078172e-03,5.226066721040820151e-02,6.111575796162770774e-02,1.144141388752780049e-02,1.283585396380962623e-03,2.558556231170641682e-02,1.197647613867735827e-01,3.450368034152682950e-02,9.573283744640009515e-03
5.725077171645818336e-02,6.153537445926046678e-03,3.882270421525193388e-02,4.400861268982759339e-02,1.294219866145160901e-02,1.833621331376621578e-03,1.657480468780173077e-02,1.035185526990527460e-01,5.297701023567269463e-02,3.320579370149373110e-03
5.624031861271863025e-02,1.528388072496178647e-02,1.600286830710818259e-02,2.650138058541666453e-02,1.417598931658305139e-02,3.200886111855953328e-03,4.584796430629328734e-02,5.002044565338172044e-02,4.610846306629654001e-02,7.252596370620064629e-04
5.221866707142364811e-02,7.799516822516102364e-03,6.024069936733604524e-02,1.700198335362833671e-02,1.730505327073646182e-02,2.669907839027993793e-04,2.170867371168401783e-01,2.465784049874527456e-02,2.825703092342146325e-02,1.293048434543453938e-02
3.502337500395202863e-02,1.840255973704919140e-02,6.469211526982170113e-02,9.629668193839310136e-03,2.129082697500186971e-02,5.554822163945899449e-03,3.986287597539151517e-01,7.609569324630439946e-02,1.924673462510630845e-02,4.129116299972543369e-02
1.879615640816013206e-02,4.923326258195741267e-02,5.361136421921641748e-02,3.296231103904639394e-03,2.094190661326815125e-02,9.314299059748166326e-03,4.466663404315642794e-01,8.328913982230308488e-02,2.339935523295664718e-02,5.999879579191685908e-02
1.840475437383805660e-02,6.913749838359392608e-02,6.343721992909620577e-02,1.475412367067081669e-02,1.430706929678373339e-02,8.499974494191245636e-03,3.377972741141974655e-01,7.437143223109179968e-02,2.603329691593374295e-02,4.518065812840005302e-02
2.342836476603011447e-02,7.426957445014889525e-02,8.838359492208516799e-02,1.081994867621443451e-02,6.475383445786879119e-03,5.332125509711882136e-03,1.895185476099075228e-01,8.124551759992446054e-02,1.437404086645768450e-02,4.448588003336735250e-03
1.655114943903504901e-02,7.466439486371972967e-02,8.897569556385079292e-02,8.030629934004331408e-03,3.055552829814014385e-03,2.493789853721913637e-03,9.376437602908230251e-02,9.440487165445042572e-02,2.754415715644582298e-03,3.413945726733600555e-02
1.380560658364746694e-03,8.003471741274131857e-02,4.933679637417061337e-02,2.617391495668573709e-02,3.727718002847159665e-03,1.403415676188718170e-04,2.935649781739036596e-02,8.633928816605632162e-02,4.436846189086575756e-03,5.280367602161559204e-02
7.881641993528967424e-03,8.612136211823856469e-02,5.120025197269109304e-04,3.309208836193190673e-02,4.536325337459034580e-03,2.065342614107021704e-03,4.305280550608022588e-02,5.696962212602112163e-02,1.413172840101285278e-02,5.171207628355403707e-02
8.313543787662702050e-03,8.264012234282144820e-02,2.378771583470454948e-02,3.248442369728805207e-02,3.459460300963103103e-03,3.060825523752000194e-03,1.055657569099096305e-01,3.146597982858193032e-02,3.499646583190926113e-02,3.434870184023200435e-02
2.753314941660839343e-03,7.022430059642748024e-02,3.270635459145181806e-02,2.975124514581271515e-02,1.657200516771114998e-03,1.768725426609229785e-03,1.351195231779971362e-01,2.683556183750756413e-02,4.362050941493612194e-02,1.540407502876308017e-03
1.162016104285853307e-02,5.557712243203341562e-02,5.253023451997849980e-02,2.240172737311318940e-02,5.085494345999747815e-04,1.082005231262470361e-03,1.542863202862476690e-01,3.970781970699198415e-02,4.773359330030887276e-02,3.765824826697024980e-02
3.249121401289001981e-02,3.189794814392273026e-02,6.907553466325953850e-02,8.270452119149410142e-03,9.634338348508660402e-04,3.088450108548052020e-03,1.965092071456800704e-01,5.964296841115575981e-02,5.840110393464199162e-02,6.255972301489758081e-02
4.308011060545691162e-02,1.365668320562488450e-02,3.990019486261836557e-02,6.784974347636463926e-03,4.558872846204308285e-03,2.066948636380209689e-03,2.615099945422180161e-01,7.828754708618654301e-02,6.590110985698674484e-02,5.716554191298303667e-02
3.057108193971319610e-02,6.840901662369054670e-02,3.272099312725586934e-02,1.757682168707640560e-02,9.410980953367502344e-03,1.693905253036811880e-03,3.265426329148790607e-01,8.741126894210014819e-02,5.464542487663198722e-02,2.493263171738596684e-02
5.511474076183858414e-03,9.780805259884441105e-02,8.951768342647954679e-02,2.735817356101676381e-02,1.276755622677326618e-02,5.679076798646279234e-03,3.759500355930463500e-01,8.134820032445869153e-02,3.366164794654444292e-02,1.615748379147504549e-02
1.329300904755050666e-02,9.192056028366396569e-02,8.834663255266693438e-02,3.743279022140301449e-02,1.417679568351877875e-02,8.355461380721717832e-03,4.011783600667842564e-01,6.128871968057873071e-02,2.803417454517795337e-02,4.851681205987116996e-02
2.598510957177164668e-02,7.911374625204879718e-02,4.598326016361580643e-02,3.956770910258051305e-02,1.556371642104380920e-02,1.070985887630139521e-02,3.933750194754411789e-01,2.984861380882532916e-02,4.392542409807034115e-02,6.428994315016513250e-02
4.503283203789720107e-02,7.985843076719638389e-02,5.134215578419879834e-03,3.112553955124555682e-02,1.742251434693830106e-02,1.387353780654903765e-02,3.576803220716400777e-01,1.027197812653474901e-02,6.552403340333991244e-02,6.609824571544184457e-02
6.683621938724493283e-02,7.945430730359251403e-02,5.393227877360733807e-02,2.478563440986437244e-02,1.838299680847048020e-02,1.699409176494315332e-02,3.152387744935262193e-01,4.547855316597061714e-02,8.194174447476866574e-02,6.289781423656391757e-02
7.119755162131106985e-02,6.394139302514578738e-02,8.921046569993208719e-02,2.813438383493471057e-02,1.800261192880239780e-02,1.814375583111415419e-02,2.743306605690044586e-01,5.653620584717544695e-02,9.179314715959763227e-02,6.399831650184087395e-02
4.787437245448981915e-02,4.861369330130056732e-02,8.724978723120480062e-02,2.850367785126361672e-02,1.685068375136881957e-02,1.625087605465148216e-02,2.267880367774793016e-01,4.650864178760931444e-02,8.555352428293511169e-02,7.279345017942943918e-02
7.087036779022183250e-03,4.811654391615911158e-02,4.601778287029954784e-02,1.476797223999178933e-02,1.472298092311090725e-02,1.204604216664118335e-02,1.840106567686030092e-01,4.567983140374937134e-02,5.196002795596437601e-02,8.415778934201226247e-02
3.376949980691707626e-02,4.909105464150519821e-02,2.980751627093234345e-03,1.052966332150288191e-03,1.163841541988532360e-02,7.588261653177091198e-03,1.780027366646250164e-01,7.448448621255579494e-02,3.228593487464017156e-03,9.049159140469358042e-02
6.120056158585737011e-02,3.633869892936058416e-02,2.208350496881289135e-03,6.064956188246205335e-04,9.441579432463738722e-03,4.727213915583345326e-03,2.136606477257768089e-01,1.164257937114729358e-01,3.010271496592007920e-02,9.101088478782896896e-02
6.738505690274398940e-02,1.966707590745503734e-02,3.094705817675138040e-02,1.511454513575049077e-02,9.674331288495477063e-03,4.029255025549006303e-03,2.543590935155907173e-01,1.432767962528790628e-01,3.180784884092120735e-02,9.159364690525673147e-02
5.227494894732667707e-02,1.339834940782882663e-02,6.885131826133750188e-02,3.036246980560068642e-02,1.100532310433338830e-02,5.129525795174109948e-03,2.616313044800493981e-01,1.539654503701366750e-01,1.178392288674401205e-02,9.517656201432017626e-02
2.433469082794706070e-02,1.287732697944071920e-02,8.220284973118639760e-02,3.507471225646290741e-02,1.111100961977258030e-02,7.316840047848729989e-03,2.248021947832323786e-01,1.660764242734305007e-01,1.075992872542592786e-02,9.673185061969950815e-02
6.548445805554482455e-03,8.856596100171374233e-03,7.316027526318341634e-02,3.116022244519722414e-02,9.912076776171924175e-03,9.339867100943021264e-03,1.585222068952215069e-01,1.767015150411026803e-01,2.338553841973711050e-02,9.098461036344980546e-02
3.579308927432209991e-02,3.485335572554744930e-03,6.083870759930850441e-02,2.526522195054729802e-02,8.999790395773173482e-03,9.673975738877314823e-03,9.220335967713522152e-02,1.628561416015152363e-01,2.435182661407535309e-02,8.343790327601792456e-02
5.879612297321070574e-02,1.518689699861011742e-03,4.639868055336454633e-02,2.175745101496748962e-02,8.991151493754068191e-03,8.101922617183647188e-03,5.292237875536845437e-02,1.243855137247116688e-01,1.745851012364335250e-02,8.758186990927822879e-02
6.554090243186956599e-02,1.354264604218771879e-02,1.525263782430682363e-02,2.035599783297577584e-02,9.162549808027846757e-03,6.421375919111493510e-03,4.922351789937891298e-02,9.446019529382364277e-02,3.789837273150784003e-03,1.068503049916322833e-01
5.266991291985256146e-02,3.632565564534682295e-02,2.503421028290530453e-02,1.906863600293241118e-02,8.885464550620406077e-03,6.436650581226731165e-03,7.939600077669746458e-02,9.457743738591534166e-02,1.583270600680473580e-02,1.240432778048177476e-01
3.506424449967306123e-02,6.329309037191710452e-02,4.188356942858367793e-02,1.943110713767726150e-02,8.056881078130819634e-03,7.644732284680721274e-03,1.452414218787864419e-01,1.079473757064605133e-01,3.183653674491083302e-02,1.178999014298499765e-01
3.213714547435925911e-02,8.790898336220273612e-02,2.137773151943563391e-02,2.492009954022517820e-02,6.769488983457886029e-03,7.902918872896092309e-03,2.370082259852308026e-01,1.122391944631358773e-01,3.253360059762348822e-02,8.898427784701859466e-02
4.808811519417231783e-02,1.070580757652188075e-01,1.459286488668437749e-02,3.302104215782965951e-02,5.571226112661532316e-03,6.044847773132204852e-03,3.135490383843702600e-01,1.048246496407983785e-01,1.949286786422914364e-02,5.551958545095324327e-02
7.299194707276228378e-02,1.125139673247377847e-01,4.214385918862986052e-02,3.559802976957201354e-02,5.269398923632706566e-03,2.874362375939803690e-03,3.198190555700414772e-01,7.791561189883708383e-02,4.636070577172645563e-03,2.245429658395316566e-02
9.268387428221429303e-02,9.528211154586732623e-02,6.186010294137298665e-02,3.078044502113176303e-02,5.697631322042243443e-03,9.404729058805718668e-05,2.308919276828110545e-01,1.226709781588864248e-02,5.853220457709425173e-03,2.407838336488786479e-02
9.455120558949983711e-02,6.365031626598863235e-02,8.543235781123570405e-02,2.770109107829955841e-02,5.686769341636575305e-03,1.779121788431255874e-03,8.238850897028285325e-02,8.049317949351078583e-02,1.569547357464982570e-02,8.475441390754831494e-02
7.856908481391933208e-02,4.127276759013912694e-02,1.132233729479516643e-01,3.349736475229681681e-02,4.873697762816837226e-03,1.759556651819796499e-03,4.428984031238488578e-02,1.534371962714483340e-01,2.877916986932854693e-02,1.332532042252398130e-01
6.403882435939686757e-02,3.930240448314041568e-02,1.325924042561444083e-01,4.039879365226389796e-02,4.258904665756778687e-03,4.828087140558697064e-04,8.589370067789839358e-02,1.810881141231054370e-01,4.166363571185731363e-02,1.458095779524990199e-01
7.024821430611687123e-02,4.387585247073038514e-02,1.345047200470097237e-01,3.351011583095479807e-02,4.411929950791831749e-03,1.059750591345268471e-03,4.897844270965325680e-02,1.794617762130493732e-01,4.740541614242949064e-02,1.274799246450096235e-01
8.935179047374595951e-02,3.927913178949936357e-02,1.283736512508385497e-01,1.074365575814238173e-02,4.511993026733155353e-03,2.337047263868378185e-03,1.928201546369293085e-02,1.657386744276724555e-01,4.573518825012834466e-02,1.013608634313756529e-01
9.186583749803386989e-02,3.085296659811099032e-02,1.326167084183274003e-01,1.263935757819573298e-02,3.771886272810798593e-03,3.213601666263122755e-03,9.117373501046799333e-02,1.393777450379496130e-01,4.552340988326362275e-02,8.343664594001566626e-02
6.215546525990368887e-02,3.388119477879733554e-02,1.463457904294160894e-01,2.185768812576712253e-02,2.683194373570428788e-03,3.209064385830249881e-03,1.531343490154629672e-01,9.747755356580786734e-02,5.322636286929742500e-02,7.334900483203658783e-02
1.779656379503260707e-02,4.655827484043786879e-02,1.455554241212538846e-01,1.771458739523791570e-02,2.208453398559327447e-03,2.216094841287449910e-03,1.706261515718663913e-01,3.729335283827321657e-02,6.274701194927916059e-02,6.453385534660735501e-02
1.155935942166213051e-02,4.740912030508465103e-02,1.171528973793587031e-01,9.512715478774452088e-03,2.405658472624432834e-03,1.308372273208692135e-03,1.161084289403072345e-01,3.812385921833907204e-02,6.400865892911315747e-02,5.721031890590866364e-02
1.486348684699238636e-02,2.372832013838404100e-02,7.445802168553687650e-02,8.662681552780090999e-05,2.436257892130973962e-03,1.388603125809376778e-03,1.986185052969794210e-02,1.002877721920971826e-01,5.747214148450941612e-02,5.615287321906559104e-02
1.306209907012913576e-03,7.868372515400831602e-03,2.554168805699264660e-02,1.470737271014408917e-02,1.667006663289875238e-03,1.899244040975694645e-03,5.303867566817435653e-02,1.187632148768921481e-01,4.832186694842364322e-02,5.722477239643185970e-02
1.759520710975447447e-02,2.076737714154192754e-02,4.213893445009314620e-02,3.408879128109061629e-02,3.892010848217725876e-04,1.925387272597037800e-03,6.893487199331779780e-02,1.100356277146935929e-01,3.020582665325347027e-02,4.734330459811619818e-02
3.275904411896727458e-02,1.046800914660240417e-02,1.257152956907006958e-01,4.749926821698317175e-02,5.934458093211554021e-04,1.417231171094414594e-03,4.153056208128688004e-02,1.077401862401731886e-01,7.266097378550718557e-03,2.468035166418787452e-02
3.242373729166014157e-02,6.193836714961742027e-03,1.887839351996922765e-01,4.637866265349813860e-02,1.033320075332458919e-03,5.434442189887251804e-04,1.462959457283797421e-03,8.866523496567764451e-02,5.511185013200815136e-02,9.964739463733135461e-03
1.259844825827254045e-02,1.436247518762443984e-02,2.015128533291714874e-01,3.657203823543817012e-02,1.528928614389299563e-03,9.464119315214837309e-04,3.939566608485012278e-02,3.672025215566560898e-03,8.791329787794507911e-02,2.551268135413036278e-02
9.918747894282120905e-03,8.962541354326889961e-03,1.744088963441124684e-01,2.945575254509782276e-02,2.553742086193398677e-03,2.912513080298319897e-03,5.295252163104081228e-02,1.211235303429637894e-01,9.246229377839187968e-02,6.725607796537973193e-02
1.643151254860849425e-02,9.461055010196907020e-03,1.386028357273861866e-01,2.288235259227857157e-02,3.947058027394119775e-03,4.307531593705267101e-03,2.288800392888949015e-02,1.956152557945690651e-01,7.850681973326401053e-02,1.094134261795444846e-01
1.580242435718737237e-02,3.200251358768318316e-02,1.104193562451717264e-01,3.697934116048959014e-03,5.536358398267368641e-03,4.380956100279690020e-03,5.025200307121043680e-02,1.793967785695872452e-01,5.993543509478845011e-02,1.318721887269031501e-01
2.989742878083423427e-02,4.351994888851608984e-02,8.431997306525150504e-02,3.117484299407817516e-02,6.973387044552480790e-03,3.707063016307679190e-03,1.305454282135270205e-01,1.148122477668386127e-01,3.935080167472781304e-02,1.309522875813799170e-01
5.300846218475580712e-02,3.720545828622680989e-02,5.476797084890029643e-02,6.793467930841311231e-02,7.015000861217273245e-03,3.079520887087669901e-03,1.672904414265303785e-01,5.180920507917873008e-02,1.606689789272525148e-02,1.105650447488615018e-01
5.627540338809280951e-02,2.080326517312515097e-02,3.754994195319357603e-02,8.953032494523456564e-02,4.891425477788186212e-03,2.381231717511062430e-03,1.374945763566693124e-01,4.507335100601026108e-03,8.693813720605775676e-04,7.666505878331165980e-02
3.266750621485767919e-02,6.191596092308418453e-03,5.575772585405615323e-02,8.830070276081669611e-02,2.261495462269681820e-03,1.626416775792368600e-03,6.621697389953817847e-02,1.882864995094168936e-02,1.753344815628266745e-03,3.771445743396516920e-02
6.929662227720756809e-03,3.126150253506711349e-04,1.020320277925837460e-01,6.914155680511620272e-02,1.685077625314204599e-03,1.720905739937594056e-03,8.643213085441973226e-03,1.932381147245069812e-03,2.374271968414151321e-02,4.494874350714907901e-03
2.943004778361136761e-03,1.765199832302862112e-03,1.374082536081593087e-01,4.672397591571553210e-02,3.267812482069363308e-03,3.024199283080144813e-03,9.467556807424955256e-03,4.748181731647144188e-02,4.837562091816217241e-02,1.040778971895180843e-02
4.126481304657001435e-03,9.097873695195204599e-03,1.362410951963678452e-01,3.487858047908633935e-02,4.762661652329862501e-03,4.441648035529614270e-03,6.810946399456838107e-02,8.651031087322878788e-02,5.924021890922723937e-02,6.479235354155121751e-05
3.901630475405277326e-04,1.603141951483118624e-02,1.094601234664841910e-01,3.444596768269243825e-02,4.880680898221370634e-03,4.697656664429115600e-03,1.430208376983907459e-01,7.470129479716480780e-02,5.370853098286162280e-02,2.410480647149473160e-02
2.374962662598013863e-02,1.714325581201869148e-02,7.793971027255197637e-02,3.616034858992520085e-02,4.521288196289363279e-03,3.675717145690836352e-03,1.924168635890665391e-01,1.209765961654439385e-02,3.857320865011576450e-02,3.831190938018802505e-02
7.185613101479218501e-02,9.102355672263879455e-03,4.781211428427158822e-02,3.531726037442757538e-02,4.608051593843213480e-03,2.377890770007683608e-03,2.025694673787817035e-01,6.187990325241508882e-02,2.059744763193881861e-02,3.170220751970735662e-02
1.139751641503169016e-01,7.510828676832509085e-03,1.799341903519219299e-02,3.555476054509422446e-02,4.814516649947989113e-03,1.946090191458416541e-03,1.815172319493457420e-01,1.020750480963884266e-01,4.916271716357887775e-03,1.413913210794752809e-02
1.188325084783657393e-01,2.461530467073573883e-02,8.948443461040121380e-03,3.862720623123136465e-02,4.742434184271080398e-03,2.570344582565324554e-03,1.456019506038716549e-01,9.551672469989233583e-02,4.092003229766160398e-03,3.086177520446854727e-03
9.053287971945613022e-02,2.913846075483159104e-02,2.990420789068118021e-02,3.988361909609259431e-02,4.539870716456191786e-03,3.428962462762322194e-03,1.104628956492509362e-01,6.883552340712977002e-02,5.988682857725933194e-03,1.898050933836999826e-02
5.475675605299297477e-02,1.598684370235277374e-02,4.362567533719384494e-02,3.514848606763756877e-02,4.352174045507819188e-03,3.733012798476293727e-03,7.922038783152142438e-02,5.430800180148961931e-02,5.498814908814268938e-03,3.350134769716283517e-02
2.329798269797220267e-02,5.692316395449308064e-03,4.917599327570568168e-02,2.509516796746113360e-02,4.233859691516061834e-03,3.358086661030295749e-03,4.682718064947218040e-02,5.607200415281480416e-02,7.053732615365577996e-03,4.136114177219127330e-02
8.357435159367831295e-03,2.494092841651913278e-02,4.891356603652131929e-02,1.246158823778308750e-02,4.095947946321231402e-03,2.605059316044881085e-03,2.479063720725625461e-02,5.804297731951197498e-02,1.043668846770071795e-02,3.954227231313540286e-02
3.683574740179376694e-02,4.008714653072471129e-02,4.960159483326922331e-02,6.730639585403571171e-04,3.664730252616585793e-03,1.939346987260607245e-03,3.881826210283528811e-02,5.052483526220691301e-02,1.399713592929921480e-02,3.296406772813126329e-02
4.612958575755692070e-02,5.151625296832330891e-02,5.522910980714113016e-02,5.590088450241685082e-03,3.155968192375889839e-03,1.735516947897376792e-03,8.741961058509770122e-02,3.498032013670852869e-02,1.885310547882062746e-02,2.941790099344975679e-02
3.040687180349882154e-02,5.308047828804158402e-02,6.285198439951082683e-02,4.224862853238422859e-03,3.170711289802769558e-03,1.846411543285587150e-03,1.294875206348220509e-01,1.883620584259796532e-02,2.685464539189102995e-02,3.157016105193567734e-02
5.083757003759986626e-03,3.947903436615038397e-02,6.817058196206263188e-02,2.723436100203939850e-04,3.520722067592027462e-03,1.711590832986392783e-03,1.307686435581387474e-01,1.723680007709603793e-02,3.599091638952511829e-02,3.593265293354089979e-02
1.264102164729157853e-02,1.850360349313031824e-02,7.021417173842035842e-02,1.260570922248026998e-03,3.407443226695114954e-03,1.226871140043532364e-03,1.006442541770848076e-01,3.562956602411363610e-02,3.992588946991959542e-02,3.901632826697681161e-02
2.245924858512662187e-02,8.970017723607330573e-03,6.912477192163811457e-02,1.526853713509690024e-03,2.803682025341112070e-03,1.121688779719297400e-03,7.093771981559561512e-02,4.340169616622688298e-02,3.283724398395209548e-02,4.136724431386754747e-02
3.254723971652730141e-02,2.205448990289531064e-02,6.451828436081004370e-02,1.520294795582912209e-03,2.414711616191207375e-03,1.880201830756165864e-03,5.850017659832366934e-02,2.946428025401996546e-03,1.556786061775659522e-02,4.485930703904476846e-02
4.123238744113794096e-02,4.633849838231897389e-02,5.870184757669170278e-02,5.685690420328892540e-03,2.339024503618674852e-03,2.737394053650111462e-03,5.874363016164954598e-02,6.834119259314061501e-02,3.545037004483739349e-03,4.963670783282046750e-02
3.646404174955079208e-02,5.957765104582791321e-02,5.849828506775615888e-02,1.569885388718958788e-02,1.866709760213778246e-03,2.707361420941909944e-03,6.166615388703028389e-02,1.115811391799215735e-01,1.478247228099630051e-02,5.445586160758991712e-02
1.426730423317788127e-02,5.503616893040862157e-02,6.819691602728324142e-02,1.983472226478499162e-02,7.941166188343373820e-04,2.017027030156830388e-03,6.204864989002233100e-02,1.053796855273995553e-01,1.348861288065532002e-02,5.674412612403514911e-02
8.753993074373443012e-03,4.468851664656187800e-02,7.853372516723419738e-02,1.430595904949080212e-02,1.759381369269676434e-05,1.385284938091134368e-03,5.686929148216938318e-02,8.017073668706618805e-02,2.836375660467098467e-03,5.261309273400600894e-02
1.075467117410495305e-02,3.705157344595363250e-02,7.080777664537196703e-02,2.597993789641389866e-03,1.221336995237216807e-04,7.498140192787716273e-04,4.341493113783560787e-02,5.514455808373950468e-02,6.850352374733618792e-03,4.124368701830248563e-02
8.202054104396935830e-03,2.717146950573082545e-02,3.975768707080082343e-02,9.498892947049532645e-03,7.645272114085861466e-04,1.062641694880099011e-04,2.429699013818632097e-02,1.932952185216025437e-02,5.560482975919367292e-03,2.978783938913187254e-02
2.579516014377174898e-02,1.115905142573538934e-02,4.080213593998222206e-03,1.876523949652451895e-02,1.018562131636744240e-03,5.634251242117039584e-04,7.917734927132769052e-03,2.066032456487623334e-02,5.820341254108006915e-03,2.787458120445105228e-02
2.562813160238124402e-02,3.638912383313763765e-03,1.424453552142305318e-02,2.531388528446480018e-02,4.965319912075502086e-04,8.915267288630342873e-05,1.156082312324217820e-04,3.292105049568470193e-02,1.651407252399094902e-02,3.474537379198392589e-02
1.501343276480957348e-02,9.915192424988620440e-03,1.153448777494340584e-02,3.021336268719101298e-02,4.863863138332116982e-04,1.407549231808825300e-03,1.624614079543059558e-03,1.327894895429702730e-02,1.846660409744278059e-02,3.940735014717142159e-02
1.198821085431868612e-02,1.316338691679742184e-02,1.284584256147811368e-03,3.327344695695494403e-02,1.072190619982856495e-03,2.118519920625501745e-03,5.528153625856211534e-03,4.164850946712315635e-03,1.260768230270391775e-02,3.695240803282320852e-02
2.160095414086649068e-02,2.351653009408771061e-02,1.018529946411627155e-02,3.350601801118183870e-02,5.836133346575495809e-04,1.671380886065182685e-03,1.825596061610462728e-02,2.827860601116533468e-03,4.333343377263772223e-03,3.416742068252144604e-02
2.980609452293321235e-02,3.703332979768594879e-02,3.543722020774162356e-03,3.042209344001171531e-02,4.734028992107323962e-04,8.485087243532271270e-04,3.852521695990250572e-02,2.965786705688941947e-03,6.319909456818609706e-04,3.401116080078497861e-02
2.184773600528852611e-02,3.648011265486042487e-02,1.865888704399401229e-02,2.397624342876964257e-02,6.970870909358729698e-04,4.425514108581484049e-04,5.877904540590032922e-02,1.258322137329351970e-02,1.481611156093534665e-03,2.785313619957488496e-02
3.058331378282668281e-03,1.497484407247521264e-02,3.982681189332638177e-02,1.524812904900468662e-02,4.507451720778143001e-04,5.485155494429035713e-05,7.344495974263939853e-02,8.608855346374245585e-03,8.312395100267938250e-03,1.115886767731956788e-02
6.527912575943897039e-03,1.176686391216470035e-02,4.258409229828317988e-02,7.894565867107981860e-03,1.692193817928773578e-03,7.745695679435968999e-04,8.093306093884548857e-02,1.560194111219326968e-02,1.187031530406007333e-02,5.944088455218085598e-03
1.413261393734045659e-03,2.412750160363786797e-02,2.783573919130397784e-02,5.879293902324703516e-03,1.487163500449847475e-03,1.184144830220658536e-03,7.931406331539980759e-02,3.221341610699235414e-02,7.100068819908675853e-03,1.286306275097242290e-02
1.352170988828122790e-02,2.006101263402441243e-02,9.299445594136559329e-03,8.639210309000028287e-03,1.139157596381542691e-04,4.780379481141118015e-04,6.899558751618714569e-02,2.711423795327442057e-02,2.420417493742166738e-03,1.203829261222610914e-02
1.549892763701892634e-02,1.019324572245674035e-02,6.353900410138356436e-03,1.133437304110549403e-02,9.255685003161140444e-04,1.092865294346877648e-04,5.744286958814248667e-02,1.924287823397985084e-02,9.719555736127663548e-03,1.058598605639222805e-02
9.960574509896491166e-03,4.655820675018312481e-04,2.268361474848866466e-02,1.089910229592022141e-02,1.100875888088939268e-03,6.277702659047907415e-04,5.092366981194554332e-02,1.469730054377037243e-02,1.326634294238925559e-02,9.515582300204751542e-03
4.312158416528084556e-03,1.119219878342252693e-02,3.691777347167146672e-02,9.448032373325514904e-03,1.023983423865771052e-03,1.414915986072615367e-03,4.501010213430384904e-02,8.935838085285890964e-03,1.728282420105205219e-02,8.235626277073294227e-03
6.489220711233318305e-03,2.540994408975406557e-02,3.379080496571837400e-02,1.059192859768706869e-02,9.726539904327649632e-04,5.612687876124123221e-04,3.371339267264793216e-02,5.340947947540111707e-02,2.278808231299904105e-02,9.909920846308897108e-03
2.975837942339085163e-02,3.678717925964782726e-02,6.500928887381769196e-03,1.463621553735949821e-02,6.929695093156687264e-04,8.745675976540093211e-04,2.274819641595881084e-02,8.470444010793373724e-02,2.336562744990865886e-02,1.579542954333443966e-02
5.390100918202739289e-02,3.986422092113793558e-02,2.540882496014820052e-02,1.973978225084372859e-02,1.991862712900790110e-04,7.975145421099060460e-04,2.196568865757739936e-02,8.786348595343426715e-02,1.474276592202238521e-02,2.141759397285072919e-02
5.327927712941125937e-02,3.543636135811530086e-02,3.612889002560083773e-02,2.562417758820224184e-02,2.293641813495624776e-04,3.290847696847668175e-04,2.959016387374286891e-02,8.983699357729427182e-02,3.625283627120176079e-03,2.256026173756112488e-02
1.687271011417425942e-02,2.860729783727095077e-02,2.789594393816381690e-02,3.156248660402419942e-02,4.362128339943011947e-04,5.727762879086390879e-04,3.617700168352138562e-02,1.075741185279242007e-01,7.991450519200221213e-04,1.882248015196754873e-02
3.601744718809471446e-02,2.420916413086643404e-02,2.647258609632069035e-02,3.248255913061094680e-02,4.067257107770049407e-04,8.644152760483686223e-07,3.935053822068600160e-02,1.176347655918945495e-01,3.686598197542101732e-04,1.014701753236207753e-02
7.203374460475252261e-02,2.628777987772301650e-02,4.264185784319175776e-02,2.386517045948897964e-02,1.954488291871610208e-04,1.207965581116176174e-04,4.116256805351953957e-02,9.949351743649723079e-02,4.296429577343024130e-03,1.538143958818765766e-03
7.243047876356210890e-02,3.532047362598288859e-02,5.862275504372613244e-02,9.945276028435520721e-03,1.875728399981869195e-04,9.668810335184081567e-04,3.581217705644054727e-02,7.202666194571633040e-02,1.443993013775589883e-02,6.871251732155689469e-03
4.473858664944824898e-02,4.205252441455727130e-02,5.689137400846528553e-02,2.203383172214177978e-04,7.210106758868776175e-04,1.325033418563859771e-03,1.633835756253065180e-02,6.199863153841865537e-02,2.309157660253944797e-02,3.763838746889236475e-03
1.046350731888963902e-02,3.373594631328188931e-02,4.217361195656694345e-02,1.587250458246504663e-03,1.096006268846069385e-03,9.925568394232786237e-04,8.817542896857911983e-03,6.352260776643990636e-02,2.465458623892120837e-02,2.560943474463144021e-02
1.471835586307062085e-02,1.216325138387708109e-02,2.609848842082284834e-02,7.292081544604160984e-04,1.038328341212020915e-03,8.727856106835096741e-04,2.171705116875698519e-02,5.481867730623843360e-02,2.077087619273947777e-02,4.155903190367329914e-02
2.937154579701352006e-02,5.415622260472853500e-03,8.598087382232177250e-03,2.807416456516846539e-03,8.475189362116327535e-04,1.258393736089097239e-03,1.709420163052656136e-02,3.538397898612800213e-02,1.341918124667408445e-02,4.068256989256409384e-02
3.995988342214902567e-02,8.519340585924744733e-03,1.122128721871379874e-02,2.486490989543007919e-03,8.182701131898421128e-04,1.320020018694061364e-03,6.311176567536773592e-03,2.042841264023619735e-02,2.274165240937853737e-03,2.751155211037504406e-02
5.160982038929382704e-02,4.272832397925214326e-03,1.992847314284913740e-02,1.098423607123932139e-03,5.001444711120520397e-04,4.613086570875071356e-04,4.184245598608856559e-04,1.132954712872848158e-02,8.166526511426734636e-03,1.214384028547590977e-02
6.492591549512165272e-02,1.943235253705218046e-03,4.602068784726645601e-03,5.370504245557097128e-03,4.613178486207128058e-04,6.176536240330946382e-04,5.183468210425895561e-03,5.465091252253851534e-03,7.999305338559846781e-03,1.997285981747530179e-03
7.496296221624509926e-02,1.270925573261818230e-04,2.429279248626260365e-02,5.023964525354723820e-03,1.287135931004425261e-03,8.226653169846610521e-04,1.406455832944628059e-02,3.547985965931755442e-02,5.544717580022853753e-03,1.719090773829838950e-02
7.241158413036680175e-02,5.656674766943751986e-03,4.262007364721889791e-02,1.645556718709193997e-04,1.037518874337614106e-03,9.900381424498221712e-05,2.693447913180962994e-02,6.726853819860402484e-02,2.172754988704626161e-02,3.142424337901910530e-02
5.471528394593975358e-02,1.399467599491210565e-02,4.072570434752098567e-02,1.152882704596796095e-03,2.005173904653645412e-04,6.913589851419100953e-04,4.096808321591707130e-02,8.693959656079285059e-02,2.836738179867856133e-02,3.552290455903294591e-02
3.472989344366215342e-02,2.130745661200292643e-02,2.811135623026188302e-02,5.628575514993692033e-03,2.103607423287811662e-04,9.046128769302787774e-04,5.523336622394214163e-02,9.531547842535156856e-02,2.474773805551128830e-02,2.426545678741551942e-02
2.617753030925136157e-02,2.639007259484877493e-02,1.558872325882391940e-02,1.321916808474835232e-02,1.519706391864689577e-03,7.540558220762488741e-04,6.217281663522711971e-02,1.058332391600246697e-01,1.798728472270067630e-02,6.235166869776436957e-03
2.567910872852581863e-02,2.758320161362319209e-02,3.996819495976584001e-03,1.314801172821765916e-02,2.977183747024656976e-03,8.718993616932670066e-04,4.644659229882185797e-02,1.241222023597804008e-01,1.187534899400949535e-02,3.772558225213318555e-03
2.388890763850609958e-02,2.184686804208097952e-02,1.172428976932312836e-02,9.566997284637017776e-03,3.290218657935495283e-03,1.208390137380540262e-03,8.635749356544281802e-03,1.382056623179761246e-01,4.200806980933254400e-03,3.493502097639536105e-04
2.364712830053943698e-02,8.907309919458537492e-03,3.053509302717482068e-02,1.275177735616913298e-02,2.578430809237400659e-03,1.065021494659991333e-03,2.371836586057308321e-02,1.371962732979161992e-01,6.624350411920607203e-03,1.182362703655041695e-02
2.922535989815318314e-02,8.400486832779335486e-03,3.778663503625710740e-02,2.271067754386368875e-02,2.121401044896589674e-03,4.723562612093537907e-04,3.020423728529053262e-02,1.273686720572186071e-01,1.580873155318154519e-02,1.648023697083153202e-02
3.146825431371912812e-02,2.720515773269920751e-02,1.835609737803143085e-02,3.050161794646617103e-02,2.751917957768736274e-03,1.746775162890478990e-04,2.715749448098057212e-02,1.140104177162721971e-01,1.567928266753366301e-02,2.252206288547269064e-03
2.398920036377285431e-02,4.352258767312337101e-02,1.949201036851627364e-02,3.303949708717707212e-02,3.716980531860014300e-03,3.597838269715574432e-04,3.940281550681105915e-02,8.431080240530657022e-02,5.282836439467706105e-03,2.839325342883826722e-02
2.063524892490670518e-02,5.084760864556693571e-02,4.695606639169597890e-02,3.432358950570629091e-02,3.466204533478490189e-03,9.505519049124323133e-04,5.905285308075317735e-02,3.508914181663693593e-02,6.886130042696337640e-03,5.484057266735707648e-02
3.417258532382023983e-02,4.490657254445733215e-02,4.668191157487995568e-02,3.405271262813264893e-02,1.902409518508225376e-03,2.042327743426044281e-03,5.750329652895463245e-02,2.130865725974637193e-04,1.145513515765840366e-02,5.478055116178991851e-02
4.715374516465878352e-02,2.963544402969516683e-02,2.858150463874300010e-02,2.759504330773152742e-02,9.683668540320226371e-04,2.619531192595608762e-03,2.688666620382221262e-02,1.144174494072595048e-02,6.671219953819682025e-03,2.722341744707823183e-02
2.880631254119571383e-02,1.655923067689174868e-02,1.055368895748033144e-02,1.663302277585185923e-02,1.921178681119910421e-03,1.057052384618689493e-03,9.597431212196815692e-03,4.157374978511745034e-02,2.136058592552717104e-03,3.731555792598888113e-03
2.101823244331415402e-02,1.594361835736090097e-02,2.235215168855716767e-03,8.986149411925405811e-03,3.216341159726459654e-03,1.757441070623872413e-03,2.289062058127738081e-02,3.095252477024675042e-02,8.572072581642669817e-03,1.136893419332898371e-02
6.595401194810686374e-02,2.637378019641248988e-02,1.410738661993231162e-02,7.232777113325677097e-03,2.841660980475026448e-03,2.606585810518312427e-03,4.616126774480503077e-03,2.991598093890500409e-02,1.045700114713022169e-02,6.937032618638624797e-03
7.212787854606404758e-02,3.540132704546028464e-02,2.681202775265655036e-02,5.545543465467503083e-03,1.468082055334608968e-03,5.000959385714944926e-04,2.691461317026376185e-02,8.588265515866490285e-02,1.064850942369189452e-02,2.829236011719826055e-02
3.853500121917873694e-02,3.287540286121113514e-02,3.866032954806959687e-02,1.073923141118587367e-03,1.014950071486478986e-03,1.798472824545329545e-03,4.313694319072750027e-02,8.697702453268416067e-02,1.283215998387429897e-02,2.882919289230891080e-02
7.456792077151332479e-03,2.035998034983254115e-02,4.945265543153509746e-02,1.018429467915798851e-02,1.349421569427842072e-03,1.882318240071059181e-03,3.008795401356832017e-02,3.629016763396267220e-02,1.775135697777791011e-02,4.506762951980984588e-03
3.226342524581409660e-02,5.970489065977841077e-03,5.670099660786971640e-02,1.615702604167969930e-02,9.577820381577058489e-04,6.501085762578380414e-04,6.046758147973674280e-04,2.943812223567053576e-02,2.354842972822892080e-02,2.981819434278889028e-02
2.080109278027991379e-02,5.050888825460337142e-03,4.989392427760681176e-02,1.721885487683177951e-02,2.023308376123535775e-04,1.218198671211357254e-04,2.400240005963056797e-02,7.304847988995402663e-02,2.620193498486993525e-02,5.332464184343160135e-02
1.006824131066743830e-02,1.202569915385157465e-02,2.147720230516800277e-02,1.604077374322708180e-02,8.686471700499460817e-04,5.845565673437524545e-04,2.503894228158834792e-02,7.407566455931606508e-02,2.033388655423466057e-02,5.358301304132933457e-02
2.797541160216900080e-02,1.536109150326563436e-02,1.600825256272503383e-02,1.547932835048810088e-02,6.805422016117582303e-04,1.026289324769573321e-03,1.096997540804560065e-02,4.106055062514636644e-02,5.145525573058181389e-03,3.663060546379267451e-02
1.863632297558349277e-02,1.540121272223721541e-02,3.809828900910366273e-02,1.616457123840857324e-02,3.846681833917184887e-04,9.102194870756369653e-04,1.237150820659200547e-03,7.795781544362192367e-03,1.146750090195931999e-02,2.231085997332318480e-02
3.594848585068304014e-03,1.382789477361276442e-02,3.561421731346457731e-02,1.721043124229638954e-02,2.493051815119200904e-04,4.021523393082271532e-04,7.204657856046559755e-03,4.328501874164836227e-03,1.997192473845098640e-02,2.675305346558520120e-02
1.791359877821854102e-02,1.309745723300381748e-02,2.088547148229940448e-02,1.717188749323641725e-02,1.531470033577357636e-04,3.414670983436623444e-04,2.552528413287880743e-02,3.275901563293950186e-02,1.850650149362999264e-02,4.943759763224381959e-02
1.879079740307604968e-02,1.322382919085979269e-02,7.231924747775536622e-03,1.499473133131046937e-02,4.738740920000053753e-04,1.006736644757304016e-03,4.607236056804286939e-02,7.072530191465122018e-02,1.168714107616044412e-02,7.251659289550467513e-02
1.334669217892606868e-02,1.100060368815275469e-02,4.298452442788555303e-03,1.161319871356009462e-02,2.617906707759896836e-04,8.735840532192929624e-04,5.700732495378939280e-02,8.972777921488049591e-02,3.954361731870930166e-03,7.187960983205228527e-02
9.142750967025891490e-03,4.753656054547543766e-03,1.683976290133626028e-02,9.843290701778055138e-03,1.458678314857807723e-03,1.294493541436498305e-04,4.811124675907700599e-02,7.492638444361389427e-02,2.427947552142161597e-03,4.021906993961346655e-02
1.068295483509173159e-02,1.594234990141551577e-03,2.816415783241552062e-02,1.125716831940908047e-02,1.346956997380883460e-03,8.969012960593889970e-04,2.076162993419421871e-02,4.084658786119044205e-02,6.473604519794869464e-03,1.539002760770316353e-03
1.823434193357493724e-02,2.628890717872539237e-03,3.378264662769725479e-02,1.387695644300489424e-02,2.524247001400553689e-04,7.253504360819211559e-04,1.170914630715761372e-02,2.313608373918681071e-02,9.076388699155311240e-03,1.125825073072679768e-02
2.613959416837058694e-02,1.416410256244842727e-03,3.357511570746738588e-02,1.457893298043076886e-02,3.336743843875389468e-04,3.946478924160778078e-04,4.038044075769553487e-02,3.869815175963826903e-02,1.240869916403884894e-02,4.103728486680145032e-03
3.068897703261663085e-02,5.435222996268144341e-03,3.097679774872179326e-02,1.317526094463006975e-02,1.561823137730119788e-03,6.379207687071648076e-04,6.556714350461598229e-02,5.925902173684084034e-02,1.679888580202613252e-02,1.708373118846534533e-02
3.541530628328900393e-02,6.400352284729791605e-03,2.840530725850485758e-02,1.196151898742942206e-02,1.657325074737135391e-03,6.563417707682122314e-04,8.362318720972955477e-02,4.422647491997881014e-02,2.001735724225041022e-02,4.948899267599869006e-03
3.757686511914651306e-02,5.662209202448368478e-03,2.661346352100645712e-02,1.155642686383002819e-02,3.562455084091421397e-04,4.546167699746867918e-04,8.746635935970278886e-02,8.296715900720622733e-03,2.056456053954152166e-02,2.079410667301190632e-02
2.236185961874816164e-02,5.017936992918316762e-03,2.599266150555412658e-02,9.919318544537363003e-03,9.569203790779618303e-05,1.701290214997197613e-03,8.075708501135402118e-02,6.779189005077633501e-02,1.975770090152934727e-02,3.698033769800868759e-02
1.258139201905021133e-02,4.353153743752381094e-03,2.552036273214010678e-02,5.537897875371157463e-03,1.056820600947143158e-03,1.517455394603607188e-03,7.310468780296616731e-02,1.155604639514598853e-01,1.956557610700674146e-02,4.236209865131717461e-02
4.264317399646704726e-02,3.572389998744845106e-03,2.338495928204882557e-02,1.227260598291299298e-03,2.076321751133266592e-03,4.363613617498621807e-04,6.296171871552955213e-02,1.523161593252768953e-01,1.956499937437609568e-02,5.171037960659947974e-02
4.599594326232898933e-02,3.581105806622031547e-03,2.152749961981118704e-02,9.658516974216458176e-03,1.886340954849973417e-03,1.616716961092680514e-04,4.128846196786257333e-02,1.733875754039054529e-01,1.766593715873583312e-02,6.538020104910412245e-02
3.246148937060182316e-02,3.829402066759579181e-03,2.406974591115079026e-02,1.840112805790411130e-02,1.359080141138473662e-03,6.517758781046577255e-04,9.701158987104906151e-03,1.660538479064119499e-01,1.391877408268032273e-02,6.703769973556288064e-02
2.379681086961360145e-02,1.711325859320011935e-03,2.623985740706250014e-02,2.440153425440135318e-02,1.287801224522117788e-03,5.251013457560475307e-04,1.711408844981288785e-02,1.299034355048540590e-01,1.075147559223816988e-02,5.090095106779273654e-02
2.330851994736709079e-02,3.067869198878998751e-03,1.353902592636655432e-02,2.529918890915733645e-02,1.206150647782964656e-03,3.905329211448327949e-04,2.646765678313791476e-02,8.544682662232591652e-02,7.802749878830978793e-03,3.047132628145530348e-02
2.768023714815458225e-02,6.292360102886115740e-03,1.834475262325369754e-02,2.201159040988935611e-02,5.153671116970313720e-04,9.809181381339369087e-04,1.980919933685725345e-02,6.015872575885366363e-02,8.384914221174876846e-04,1.890574530757776345e-02
4.862048868753267999e-02,4.679361473382085204e-03,5.133380408356708752e-02,1.679551109787207758e-02,5.097854121911195736e-04,6.548421838925658775e-04,1.005215017385378828e-02,6.578723003968925398e-02,1.096659087610186989e-02,1.893342990225276024e-02
9.157753800205205297e-02,6.567963682672228872e-04,6.385475792241250559e-02,1.039275562058094605e-02,1.067014890730621016e-03,8.560238155816998588e-05,7.978118006886691926e-03,8.824115359933559777e-02,2.139344418472303305e-02,3.065399505570566563e-02
1.290568435902975097e-01,1.610492316470426080e-03,5.426046057534225642e-02,2.889315636464674306e-03,6.874897723811607695e-04,4.966949807641243180e-04,1.354777852921155469e-02,1.005054747387397474e-01,2.426035096692463408e-02,5.096667637851040600e-02
1.290361190894044885e-01,1.731205769084255032e-03,3.649968524684574916e-02,4.092023309976628755e-03,9.272134070080142879e-05,4.428662409898844994e-04,2.202495982963603022e-02,8.574020240300467277e-02,2.011257993107486153e-02,6.834210395105924651e-02
9.935739414750249798e-02,1.664331868253701805e-03,2.084515996013923400e-02,7.945614367253899316e-03,1.493587726634330881e-04,3.528357114019110862e-04,3.092388165097724462e-02,5.185133172138182978e-02,1.397869703088952358e-02,7.450286884088047623e-02
7.424456884629451747e-02,2.058971968158614628e-03,7.045042648747092129e-03,8.170046565717330872e-03,5.617230388865121493e-04,3.886392992180525471e-04,3.540244993060263218e-02,2.656048354152946642e-02,9.710822351298163332e-03,7.586020983389715755e-02
6.501495402961780801e-02,2.439622882434665935e-03,8.331323080728356145e-03,7.912128281910390040e-03,8.221671108943463899e-04,1.606525197949592784e-04,2.814656803606420746e-02,2.888206998860615160e-02,6.828217164304376668e-03,7.980069106981739491e-02
5.194634590667684959e-02,2.577385442075387327e-03,2.251755078794212897e-02,1.013424976501291902e-02,4.571942852653187051e-04,4.582693495619616516e-04,1.185829333063763077e-02,4.147197140346163546e-02,1.562925023537555316e-03,7.846717435631070381e-02
2.467982790009720651e-02,2.333580186018484499e-03,2.466530841466166996e-02,1.182545037117889268e-02,7.369174469568969682e-04,1.017522794682103630e-03,7.165335827674094082e-04,2.938766125769143311e-02,6.675979402449488086e-03,6.038243398133787826e-02
5.698458027590914791e-03,1.776565001969958400e-03,6.580622930003578001e-03,5.892813457695338444e-03,1.612790034889960509e-03,1.303450675073812874e-03,5.839628070815176125e-03,6.376319266263327443e-03,1.012233245811638462e-02,3.122144958110893362e-02
2.022657417354167819e-02,1.574489983141651303e-03,2.394520321985937200e-02,8.988660819144570630e-03,1.504407040602799691e-03,1.449494311078282664e-03,1.347447356643976558e-02,2.117297261562586103e-02,1.637261066858754091e-04,9.729496647147645172e-03
5.758590233241639433e-02,1.996191164381170158e-03,4.748861080491895148e-02,2.450286345845093666e-02,4.665760010514017632e-04,1.169675357531790210e-03,2.794211425385947911e-02,1.180297099928074959e-02,1.922961095629516920e-02,5.255239682848135765e-03
