1.244821225956364852e-03,1.591203954007685065e-02,3.982924276493165702e-03,1.465294351916150532e-03,4.910722695338618472e-06,1.587606216101935478e-03,1.197399538437164124e-01,5.499166778877990353e-02,2.517740830561758882e-04,2.758395115067627593e-02
4.489111972051405830e-02,1.833693514918894110e-02,3.935748702296687149e-03,9.853614304623594701e-04,4.499272992551584178e-06,1.657300165077647304e-03,1.263733143503147915e-01,5.898531170942279689e-03,3.492358627732162460e-04,2.727846370514434848e-02
6.780196631658333417e-02,2.092883183315150109e-02,3.566289273919109881e-03,1.920363633129233954e-04,4.832748035712873290e-06,1.740657894597942654e-03,1.290719270200341995e-01,3.480121397667869376e-02,4.351376923240245437e-04,2.473312418673617036e-02
4.195424743901965403e-02,2.372648561306760912e-02,2.935660704780559092e-03,4.457344650039970439e-05,5.907233956248050099e-06,1.825003747914191688e-03,1.298125249824236271e-01,4.392405061365499408e-02,5.076178452988667393e-04,2.361005365548033558e-02
6.263474249102641070e-03,2.663933740875621542e-02,2.608413501294186681e-03,1.529005321790895635e-04,7.715808211530788245e-06,1.875920125442671546e-03,1.325984063749024722e-01,3.146672295857375762e-02,5.651613340187035435e-04,2.604200279213621239e-02
3.985631583970621755e-02,2.954006360000490522e-02,2.737194718438838020e-03,2.218552154013486363e-04,1.019061236913971276e-05,1.922107248509539274e-03,1.403658871901371508e-01,1.224229913305904631e-02,6.066395245504043778e-04,3.100172708282373374e-02
4.922085900693712324e-02,3.257054735088520808e-02,2.473754495702974645e-03,9.479461352599972610e-05,1.320878807457102409e-05,2.040576641870941489e-03,1.520200993939783696e-01,1.150241460998463472e-02,6.313379297488874069e-04,3.629263936302007387e-02
4.790569950474701799e-02,3.595325293136093781e-02,1.149634866927154485e-03,1.534314882883980118e-05,1.671830038437783450e-05,2.174822357734288239e-03,1.643751112526177505e-01,3.790903434047222104e-02,6.389704988222778522e-04,4.062914305281823540e-02
4.302530872263214679e-02,3.933402216430257475e-02,6.033405711665975864e-04,2.353224445665105926e-05,2.073242379542092364e-05,2.161341142180382268e-03,1.742841236576764263e-01,5.776792133446120164e-02,6.296881254856069240e-04,4.407806333376083213e-02
2.592714664389811352e-02,4.216904356439345192e-02,1.803827590003311216e-03,8.203525832353607457e-06,2.506649485603864718e-05,2.121178999390572941e-03,1.773575218382921204e-01,6.779093127504892680e-02,6.040833991645662513e-04,4.727474816205581160e-02
1.878045866018836999e-03,4.513997113047947540e-02,2.505125408367530303e-03,4.954483054122663902e-05,2.934956747832266719e-05,2.422747921260294448e-03,1.686161354199164353e-01,7.744802106312277667e-02,5.631741852462942687e-04,4.982853672025525094e-02
1.805512057712773191e-02,4.936536653926474477e-02,3.449290733592440088e-03,9.659249064024685470e-05,3.359470108804365535e-05,2.799172429743080909e-03,1.435778966143677615e-01,8.980594473071228101e-02,5.083611003660886297e-04,4.985640647233482298e-02
1.223831054483846478e-02,5.335521007380154140e-02,4.797372610003017117e-03,1.220757538962119774e-04,3.819781115284033145e-05,2.143529290266867754e-03,9.616658106302325426e-02,8.715219899230394751e-02,4.413966134327466971e-04,4.605055094287365675e-02
3.973115432813367764e-03,5.462049638242649774e-02,5.863344825274969391e-03,1.494059894725508473e-04,4.272942161924748707e-05,1.072888902902100774e-04,2.559399594420366103e-02,5.336457984510749319e-02,3.643787757785029065e-04,3.918292142031525038e-02
9.092126961167188229e-03,5.631442853081932570e-02,6.337493692480095434e-03,1.826983800081225082e-04,4.591580348014829004e-05,1.814447253587568977e-03,4.960668504431678394e-02,1.548811422913183404e-03,2.796916009634466387e-04,3.112097922392591601e-02
1.501572369513608576e-02,6.400758251543134381e-02,7.241227958777871586e-03,2.098839907003163081e-04,4.822932337348313743e-05,2.109718623558623149e-03,1.005749085200513676e-01,3.932721800995148814e-02,1.898652743229891282e-04,2.478791370093707050e-02
8.102529693102723460e-03,6.941858069924287944e-02,9.139986356431881523e-03,2.278616275117742516e-04,5.200684223233837923e-05,1.348294521247950717e-03,1.170054273212194351e-01,5.677690242215435029e-02,9.752566708567630190e-05,2.388358098809557212e-02
2.885109096516111360e-03,4.981204066341705233e-02,9.330446605214405553e-03,2.413745120077449412e-04,5.593109508256710832e-05,8.115570143095683642e-04,1.132402220040109181e-01,5.697864125052934381e-02,5.499061366931450197e-06,2.734173415126471551e-02
1.246259215780540740e-02,2.340483565660236506e-03,3.782435781064745657e-03,2.512419896297548010e-04,5.464363866805215842e-05,1.773133045283150418e-04,1.101955579591599454e-01,4.609253113928739320e-02,8.328345671699204740e-05,2.687165136108671248e-02
3.872517560277885518e-02,6.006231812858017077e-02,6.607272607038724814e-03,2.547600424497750661e-04,5.052951449332384991e-05,1.226370275034345623e-03,1.244284559238596349e-01,2.790233495720672446e-02,1.662269395204763953e-04,1.787113432351642578e-02
8.833338149331870781e-02,8.847829807355275800e-02,1.478182189559763306e-02,2.512301015398560777e-04,5.485942447808704316e-05,2.271774712477919386e-03,1.592416284922965608e-01,1.098755606295740914e-02,2.410980777533537785e-04,7.298106182299007004e-03
1.258911531783652726e-01,8.165435855108105212e-02,1.457104337010971598e-02,2.418473025879480014e-04,6.265871301181774188e-05,1.696550971471562060e-03,1.938493374011627246e-01,2.851656792047993754e-04,3.053003752605316272e-04,2.968030176291810984e-04
1.141125901512317076e-01,5.872123736828854801e-02,6.642337383158882121e-03,2.271130666698977982e-04,4.961759231871741256e-05,4.039774014103898162e-04,2.013658564024969344e-01,1.215211144300496274e-02,3.560096705321200215e-04,1.176961447355641746e-02
6.533422493362306405e-02,3.359458815607201804e-02,3.309874170315577156e-03,2.068530583555749361e-04,2.568557698404844915e-05,8.938841346442691317e-05,1.836977385754757497e-01,3.024339873258652389e-02,3.919220494223624217e-04,3.545168034487557879e-02
1.779381319854864835e-02,6.176753136637805341e-03,9.815669972273838653e-03,1.814206976365052403e-04,4.307651867238571335e-05,1.118290340225208061e-04,1.669472199459521022e-01,3.398850856303243378e-02,4.131890985230827085e-04,5.773103444190366695e-02
1.851851596798719315e-02,1.930798374547897100e-02,1.126818176617724702e-02,1.516898699552094235e-04,8.201298251545297545e-05,1.703209430887035351e-05,1.632778347710535372e-01,3.180033180816142953e-04,4.178405687205066668e-04,6.187446458131692917e-02
5.651268364001828942e-02,2.515083310736939901e-02,1.047628750459262889e-02,1.184726940143025699e-04,3.051413316610147034e-05,9.135068528380449948e-04,1.589095180824175169e-01,5.749270561718400341e-02,4.019607683073132581e-04,5.231501238602828674e-02
9.244970914054556621e-02,9.081231315535938028e-04,1.076130378520698087e-02,8.249264010664036353e-05,7.213708050979469009e-05,2.137301141008517667e-03,1.354332222863972590e-01,9.703150651259934145e-02,3.674353730358646168e-04,4.641955774075235547e-02
1.050167372907060553e-01,4.527531957669107127e-02,1.092500531371841041e-02,4.462962460711927706e-05,1.702814848481087965e-05,2.685444176025881310e-03,8.501086130396759422e-02,9.450803885200059762e-02,3.218474662948525534e-04,4.821313881669806595e-02
8.297918282018415526e-02,7.831641415820012053e-02,7.159566032761504467e-03,5.905020241775217523e-06,2.299675092035680666e-04,1.800840107109451900e-03,1.363207264949542821e-02,6.229108185882990117e-02,2.619675308795978174e-04,4.739020023139591670e-02
3.380632086794636143e-02,8.278537528432042270e-02,2.151411374343997090e-04,3.266648464605888925e-05,3.654483245254658348e-06,4.208228380406405216e-05,5.234528510450835170e-02,2.246497644979990327e-02,1.735470086083312487e-04,4.029918821018396019e-02
2.664675736370196793e-02,6.599589466227423484e-02,4.858534146481869459e-03,7.010667733698574384e-05,7.848325112034734968e-04,7.318450304815402084e-04,7.471512599909135854e-02,1.170717767860799188e-02,6.653963317630486572e-05,3.497420844314360483e-02
7.939800661594502429e-02,4.771489520834264891e-02,7.420258193129514873e-03,1.054407623605249216e-04,1.265535832793798689e-03,1.140708286627537069e-03,4.055039137468532257e-02,3.139814890920203383e-02,2.360536338934604456e-05,3.524550401404022426e-02
1.026422536544241981e-01,4.141793058166561708e-02,1.273257118760066572e-02,1.377190047160554954e-04,8.000035067145554917e-04,5.407659126796031564e-03,1.580135921165252283e-02,3.433456965311081077e-02,1.112288807276509651e-04,3.417657345410746866e-02
7.939731730174826030e-02,4.434475376084154319e-02,2.224570206947810644e-02,1.660676263656793699e-04,2.635737215752302501e-05,9.740259854863647995e-03,4.453211647832561182e-02,2.945374866596304694e-02,2.653181422285566873e-04,2.619228698422387119e-02
9.632971821943052404e-03,4.314410413888395551e-02,2.959153064876622261e-02,1.897127216613054776e-04,1.857672348406145776e-04,1.173080764380299290e-02,2.949254467240755573e-02,2.018526170895547367e-02,4.490013645322405269e-04,1.505073052855151160e-02
8.336114720176848736e-02,2.903980529312160178e-02,2.930854620445916617e-02,2.079875788154186085e-04,4.040118758243265470e-05,1.093677028657500175e-02,3.647888015807504783e-03,7.196691386741897040e-03,5.051585234854171413e-04,6.204347970745106508e-03
1.609760035235635878e-01,5.264294695946323231e-03,2.296653097145761116e-02,2.203490836898760747e-04,1.415518266540052449e-04,8.483882295088049363e-03,2.196067665712160555e-02,5.767613231099188303e-02,4.991696802545106436e-04,5.061296608814729384e-04
1.957515209528379596e-01,1.814045718097385268e-02,1.429779770606948684e-02,2.263979532201236100e-04,4.938748358559391183e-05,5.306078512898553153e-03,1.898644061192147903e-02,1.049037847273215501e-01,7.592231079697683849e-04,6.243559920544153145e-03
1.910733070463190297e-01,3.047687197306000323e-02,4.787771480027886058e-03,2.258901062013284327e-04,6.657368049527001479e-06,1.662273717623862163e-03,1.324152257469126022e-02,1.168774060319715119e-01,1.142991129557528436e-03,7.008966803054823315e-03
1.641716618099598179e-01,2.349621813945143231e-02,3.755915687656428623e-03,2.187409836135343819e-04,5.246487121356117059e-05,2.019460477336314837e-03,1.824279278824104955e-02,9.134736762224474060e-02,9.201535970880784674e-04,2.557331983448960649e-03
1.215146900048446749e-01,2.385609090527103515e-03,8.170956366823203809e-03,2.050284172292726184e-04,7.469372993452498490e-05,4.689952718421158337e-03,2.565549431359995594e-02,5.086923914800396684e-02,3.770122517894190415e-04,2.037560693944300352e-02
6.562994780358864799e-02,3.314708973450547491e-02,8.027868509083621248e-03,1.849930353785318867e-04,5.347871743524663306e-05,5.531446550900665990e-03,2.570859932221024324e-02,1.526451568568388747e-02,1.434530246956610593e-03,3.601652739702056183e-02
5.522689610431165581e-03,5.001028099234917923e-02,6.902858111854399438e-03,1.590334828957663902e-04,4.099509773579757368e-05,5.088565195062150215e-03,2.600101828920763428e-02,1.121215023967191658e-02,4.688673565934695781e-03,4.161836850014016820e-02
5.331881631107661390e-02,4.605640117914271831e-02,7.777141885317308614e-03,1.276969512884151793e-04,4.720219336596668451e-05,4.582440915260941813e-03,2.527506590375651341e-02,3.328231900782057523e-02,7.166457113988372769e-03,4.190328207579305242e-02
1.053944477046906691e-01,2.776720822270314221e-02,9.734574154999056303e-03,9.166650023560199130e-05,4.784794761607595820e-05,3.958333980142836328e-03,1.118054441832477125e-02,5.237933639108671713e-02,5.911036058446996096e-03,4.712281175471729616e-02
1.269969097063705921e-01,1.689131898889829290e-03,9.994015970876249377e-03,5.174529613402408841e-05,3.806415688150278383e-05,1.927181454817953514e-03,1.058786519143865429e-01,6.166779009311120635e-02,2.428511897373187428e-03,5.652118185326005656e-02
9.136516493997175192e-02,2.698363251013876848e-02,6.597317706169301965e-03,8.837547732789109042e-06,2.927302057401689854e-05,1.841395605772911878e-03,2.114649625292022439e-01,5.096858998983350847e-02,4.200506777137932250e-04,5.869140206307638108e-02
6.814527470786570229e-03,4.282858823724067926e-02,1.157621290438874077e-03,3.607332958307308467e-05,2.404595449875723194e-05,5.733865815548196132e-03,2.508326395970260636e-01,1.396047699770483139e-02,6.650776156993885293e-04,4.991735446981022256e-02
8.184781701117778419e-02,2.647038617402937624e-02,1.176168704118666329e-02,8.194851148345423252e-05,1.724153323942974385e-05,7.578631334648592427e-03,2.121828087460879697e-01,4.414549811471647767e-02,1.189586787051018398e-03,4.035580459466536762e-02
1.304453689980238362e-01,2.122025483354298553e-02,2.069545276968434364e-02,1.277189737482612223e-04,7.796795133727839810e-06,6.707114208905143315e-03,1.575361126284246238e-01,1.006953943576885252e-01,9.271937302154239190e-04,3.853042439480253156e-02
1.255201243915531339e-01,7.444854276612372646e-02,2.353446413580370655e-02,1.723116245567416350e-04,1.668324472060462504e-06,4.711984179183621724e-03,1.362156700091997907e-01,1.271485424017781141e-01,4.993552784939645894e-04,4.045042770448559200e-02
8.655949802017395833e-02,1.052509071329123941e-01,1.967505460631036041e-02,2.146757015206021072e-04,1.040405977418759411e-05,3.589455025807863735e-03,1.317222282590714555e-01,1.141970431155792665e-01,3.974048841948412238e-04,3.777770750006571171e-02
4.401498361961443673e-02,1.024316837765703869e-01,1.100770278028979053e-02,2.538087166688435801e-04,1.941697050599652900e-05,3.207160226566590274e-03,1.041268456388853292e-01,7.694011998765283578e-02,3.585302996535547071e-04,2.867275190695934423e-02
1.048175155791989700e-02,7.157003924496013747e-02,9.647193466468691452e-04,2.887813085050217662e-04,2.882923007203571416e-05,2.103151904743430934e-03,5.350439690404383553e-02,3.483326224377224917e-02,1.366397255912108442e-04,1.801878340078607449e-02
2.456264763089666472e-02,2.753999121691281388e-02,1.391558488361931828e-02,3.187604075675045030e-04,3.791018273765862440e-05,3.061985863658654608e-04,1.857379775438639663e-02,2.514483012766835415e-03,1.724289952847845708e-04,1.188906270013545714e-02
7.118713521522322674e-02,1.384568855332802238e-02,2.334845536346495318e-02,3.430301277633333065e-04,4.641626566832618238e-05,8.629404505498413334e-04,2.203508534366527272e-02,3.343836527630068139e-02,3.822416505811511954e-04,1.253701791381612619e-02
1.182494405952695810e-01,4.584148961415071555e-02,2.643947765209162318e-02,3.610098390944658110e-04,5.459170941974383537e-05,1.085669294653840433e-03,3.974719047309333703e-02,5.848420251505560830e-02,2.021586513803782094e-04,1.623761153799224352e-02
1.405198849340754674e-01,7.398233242959513511e-02,2.596039617786301962e-02,3.722689641216880645e-04,6.233910903617463466e-05,9.248986077357992464e-04,3.287074329123236549e-02,7.496625542795422315e-02,8.158555379830915479e-04,1.669508261016429407e-02
1.246598355775006411e-01,1.026610399733218909e-01,2.680088150472932640e-02,3.765381234860546529e-04,6.922233057664436886e-05,3.757322240009373059e-04,1.671910170212305598e-03,7.651795450791810949e-02,2.535791666516489917e-03,1.216215251775018026e-02
8.088686962120303359e-02,1.181646859279494588e-01,2.854468173437949702e-02,3.737163281800132868e-04,7.530169754586083799e-05,5.718515460575384441e-04,2.963240841802647352e-02,6.032760026219775862e-02,3.510025172937291608e-03,8.011422026506349880e-03
2.501781751362377668e-02,9.737687498592979829e-02,2.463272755846128773e-02,3.638740145893499980e-04,8.113876404818783105e-05,8.623516207682246091e-04,2.787500749845185297e-02,2.997470023670317091e-02,2.286072167763620374e-03,9.818328698418612305e-03
3.438404433301949642e-02,4.043547814708860211e-02,1.078023627691575108e-02,3.472518456745719547e-04,8.646136519706831673e-05,6.140706320361194936e-04,1.661430479300162258e-02,7.571547547410819451e-03,3.744481252204717855e-04,1.436645233020005137e-02
8.045709689014697574e-02,1.845457259872060676e-02,7.726780000481166255e-03,3.242553001669970709e-04,9.013664486071564029e-05,3.331725624109082348e-03,3.163522646257153903e-02,4.007292392851776602e-02,2.203476467947334747e-03,1.201805514330642720e-02
8.751583118360983793e-02,4.523544054941351644e-02,1.997324323514276107e-02,2.954451288424096429e-04,9.281596899921848226e-05,5.386862844287296399e-03,7.508538750621114588e-02,5.245290496247985434e-02,2.412951903348689239e-03,8.951477489742758285e-04
5.516425536747235348e-02,3.968961822289600316e-02,1.980970044220325965e-02,2.615238753788997890e-04,9.705188958924269968e-05,5.563215015955118130e-03,1.126501986050867654e-01,4.080614850742767669e-02,2.156256985329524627e-03,1.818240854677269022e-02
1.557344795899342355e-02,2.264775679185224155e-02,1.000072353020112388e-02,2.233188586028550927e-04,1.017467416577936623e-04,4.454799433872131537e-03,1.194358253293540117e-01,1.651820515779411913e-02,2.280236683637343938e-03,3.369357142107777536e-02
8.606841272365058082e-03,3.573208571204875526e-03,2.753150750564221233e-03,1.817620724528899051e-04,1.017584928718625692e-04,2.940753379864431520e-03,1.081959193204423408e-01,7.822600245951879389e-03,2.549472654189965763e-03,4.711762240078185004e-02
2.578279539499353859e-02,2.209284484509770052e-02,1.399932319347512409e-02,1.378673252413645614e-04,9.969381933672277220e-05,6.051035538524403203e-04,1.033895122651143916e-01,2.847126885263979307e-02,2.780779984082464538e-03,5.844069316917361451e-02
4.726972483398728109e-02,5.256947553711748683e-02,2.234291711382020706e-02,9.270507047271743853e-05,1.070454433662026815e-04,2.556388642106267178e-03,1.077287741081169176e-01,4.734568175108477134e-02,3.024981774768507967e-03,6.526730208026279567e-02
6.871616929429189002e-02,7.410098717587028372e-02,2.608019129221776644e-02,4.737589892432364936e-05,1.190465379084375172e-04,3.834119635567360875e-03,1.095509273194228278e-01,6.603605191784020501e-02,2.925520671477398887e-03,6.686817645884828021e-02
8.320690931751027752e-02,7.434242562284877620e-02,2.231007348312592439e-02,2.983582791456710476e-06,1.115748678630918968e-04,4.299911341992160947e-04,1.051293138670769539e-01,8.091875496092720832e-02,2.295721632860829847e-03,6.449488373500184002e-02
8.561763132308977675e-02,5.199854823275776305e-02,1.158786640699706327e-02,3.939240197586186962e-05,9.475090407014979694e-05,5.543349103471305675e-03,9.694839114963951787e-02,8.480951007163448074e-02,1.895464007109045473e-03,5.984749182028172021e-02
7.091999882957580881e-02,1.613000062253034175e-02,7.283251524851246149e-04,7.872471180459157409e-05,1.209384100681419589e-04,8.458361016685988706e-03,8.355377258853995126e-02,8.029573675896430063e-02,2.420139588640231581e-03,5.815996414642500556e-02
4.922220051630959298e-02,1.626241920766206134e-02,3.445815567098366606e-03,1.140640577806937607e-04,1.704700744628720791e-04,6.426173350779830831e-03,6.298450588965130714e-02,8.185789651465817662e-02,3.318825917051249682e-03,6.666084051702775293e-02
4.026040495283098042e-02,2.624542583363732862e-02,1.861195112391296523e-03,1.445614030270058663e-04,1.314311360091135539e-04,3.401662764539297931e-03,3.719633320630342382e-02,9.013470921096476685e-02,3.644881751525655932e-03,8.476498228621087705e-02
3.885789369717565500e-02,7.480167460562178912e-03,7.000766588999144443e-04,1.694892021207146859e-04,4.315256722085681457e-05,3.118641621356831994e-03,1.160140355489939698e-02,8.063186868234752114e-02,3.413178340582075782e-03,1.027880153645913952e-01
2.156634797856880198e-02,2.324224230084952908e-02,2.768629190011835575e-03,1.882636969544437388e-04,1.486332269283336662e-04,4.742733423531877816e-03,1.616617681179976021e-03,4.042898185363177910e-02,3.342688710330886034e-03,1.131038972103769469e-01
5.827021611763068959e-03,3.748237364070343414e-02,5.254459142357046676e-03,2.004606485913124547e-04,3.797815108969314108e-04,5.581382729688269193e-03,9.861143975351243512e-03,3.293304993357248391e-03,3.722424404659264649e-03,1.138543750464595383e-01
1.035239437982739610e-02,2.256749485749816320e-02,4.607614717787623070e-03,2.058184468234879592e-04,1.734365569994146474e-04,4.703902028220153034e-03,3.501187453244831993e-02,1.652798125974946214e-02,3.967258568560249644e-03,1.023862368763788916e-01
1.792298742577158599e-02,6.298476636281307058e-03,9.287835381210970270e-04,2.042434026006242822e-04,5.934133002525540396e-04,2.804999694950882725e-03,4.039597081373964838e-02,3.216440363429176608e-04,3.294664334286325283e-03,7.799537926403821153e-02
5.882126453647132380e-02,2.444798947772936631e-02,1.475273755008793802e-03,1.958295168734493533e-04,1.050838902938815416e-03,9.521278862532893839e-04,1.570477222986672167e-02,2.315424845526987269e-02,1.906822196216200914e-03,5.135191375880131942e-02
9.954487323134807164e-02,2.073389422435560625e-02,1.712180342184273967e-03,1.808607045936258485e-04,5.606258181830367634e-04,3.286581670529440248e-04,2.912902038425263171e-03,4.602263690038678468e-02,1.182079484437369285e-03,3.871430345353828878e-02
1.396607882957913715e-01,1.548772613634554970e-04,8.413372030361980849e-03,1.597679870520153482e-04,2.386211758504452668e-04,1.552342503736538768e-03,1.709204238556991107e-02,7.439007967254751552e-02,2.147145798793865731e-03,4.511160577240042741e-02
1.631014132996891630e-01,2.402397652045071968e-02,1.114882360142431528e-02,1.331092623936212512e-04,4.771258380110150830e-04,3.454481071745035825e-03,5.561519673247716788e-02,1.055239033128310411e-01,4.004830074532499985e-03,5.930129106709981779e-02
1.413667133320435920e-01,3.911298314695309947e-02,6.699540421539248308e-03,1.016324033614993989e-04,2.784236699685852488e-04,3.667910614299386453e-03,7.402245708617025133e-02,1.218443417849113530e-01,4.922157567672453236e-03,6.458841500265120883e-02
6.995596971270384712e-02,4.492463530968236057e-02,6.640356757647218437e-05,6.627949773612487876e-05,2.053438396480876328e-04,1.214210817540824824e-03,7.056737196006236668e-02,1.051516353871674719e-01,4.249888399911975340e-03,5.374398589437644896e-02
1.977794776148157629e-02,5.195555861534255360e-02,3.559161968782254427e-03,2.799972646064770792e-05,3.246719051010318381e-04,2.470849561289696801e-03,6.507694976712015411e-02,5.332566988449725931e-02,3.124672571132528203e-03,3.504090019091304214e-02
8.984794193487147251e-02,5.954744792944893783e-02,5.675125922709496964e-03,1.232768163437500755e-05,3.937699927500548820e-04,5.689939189312276553e-03,5.852857879063065594e-02,1.352314158858117232e-02,2.658332538862125290e-03,2.091070386691851885e-02
1.226916046331965049e-01,5.094946145455044734e-02,1.018265633994601752e-02,5.356805664596597311e-05,3.758731471061858322e-04,8.167037418491670392e-03,4.603740924019340819e-02,6.387819610569120399e-02,2.496602600085399016e-03,1.143939076693933216e-02
1.172240694128046379e-01,2.079990184985723578e-02,1.576736978329028663e-02,9.423783782475268962e-05,3.820331851132167944e-04,9.789882625079111486e-03,4.277296650172239534e-02,7.714091423817345805e-02,1.741626817150618680e-03,2.840470733355020261e-03
7.878803779023607623e-02,1.067661402024590485e-02,1.653888666120881257e-02,1.332820529740680869e-04,4.262309628640946523e-04,9.577638232282038519e-03,6.391563767389844830e-02,5.795205134030086830e-02,4.667321531879324212e-04,2.223785344944888276e-02
2.693826682509672249e-02,2.487242650678391648e-02,9.609058393956610572e-03,1.703825084899132441e-04,4.575930664535294819e-04,7.049194850838529786e-03,1.004515575693740587e-01,2.714641545490241101e-02,4.752188418385623093e-04,3.340113736543431910e-02
7.015166239804218780e-03,3.078785217785054082e-02,9.648880083996773382e-04,2.043948999055179372e-04,4.780064454457462648e-04,3.026562776994809641e-03,1.353159804477147010e-01,3.454047766742818562e-04,6.971362384862405228e-04,2.764703576170051899e-02
1.191723743003384600e-02,4.651693361109453251e-02,8.404560032801025940e-03,2.327382469188260636e-04,5.085780094250285559e-04,1.497131343441935551e-03,1.615531766801973634e-01,2.206146318191504543e-02,5.240113154275697054e-04,1.510357582938458808e-02
7.243960042039272913e-03,6.518524691405484794e-02,9.800518750293035417e-03,2.548018184831170319e-04,5.282163431886658257e-04,5.623082810015599467e-03,1.737767407705022860e-01,3.262893170962168077e-02,8.864805646039417616e-05,1.337256133844409028e-02
3.410524248304457138e-03,6.234535835554292499e-02,7.773046053577679221e-03,2.734176564509842029e-04,5.310698143530311966e-04,7.947219195462441529e-03,1.677986901211570292e-01,1.708952145802395545e-02,9.326490598122162906e-04,2.643606756572209823e-02
1.668468596861864828e-02,3.612872517417985846e-02,5.914853814074734137e-03,2.876952748388248511e-04,5.698091339211698407e-04,7.925686686916559587e-03,1.557520905026024693e-01,2.851462189785997775e-02,2.481919355780410740e-03,4.321082467464153198e-02
5.457691068189518546e-02,1.455230403341551196e-02,3.959357746414680218e-03,2.897526175146065064e-04,6.389032037540241966e-04,7.382262237344435450e-03,1.530276200833359801e-01,8.008761615304582637e-02,4.007577509748174241e-03,5.540124832973853525e-02
7.636136415701472169e-02,1.459947912246655800e-02,4.933667565029021705e-04,2.799855549558522786e-04,6.209392921284956953e-04,8.499970289847540855e-03,1.452899762980008613e-01,1.052961135906609752e-01,5.477984280003655657e-03,6.591468062836426667e-02
6.271310195043583446e-02,1.876637385219782558e-02,6.418591417288315414e-03,2.744933603148633433e-04,5.327659219785713281e-04,1.094135567971140678e-02,1.008189956365848905e-01,9.737533506640472236e-02,7.305877070522522401e-03,7.726696409786003306e-02
3.727278564961825080e-02,8.282984891960255835e-03,9.273963616673722155e-03,2.726881206244699822e-04,6.298236099550780405e-04,1.258101293920907068e-02,2.512133863259752298e-02,7.591467336382623499e-02,8.932495067650283310e-03,8.311936400529616742e-02
2.198706718965445783e-02,4.132851213167428907e-03,6.943370704159690550e-03,2.404750055264890740e-04,8.876806762662541083e-04,1.227932406464699207e-02,2.953591762055038372e-02,5.704575610689358728e-02,9.031959587360541275e-03,7.774630078971227209e-02
5.143209789103927315e-03,1.012435663336501510e-03,2.605672111330111212e-03,1.788394328381842939e-04,7.163183556613256621e-04,1.078937775238532695e-02,2.719369064138033379e-02,3.817513529693549595e-02,7.759454551496926950e-03,6.602170998915009303e-02
2.620601561092154516e-02,1.299159798957552799e-02,5.640995904062808116e-04,1.641685647810438905e-04,9.966229103164779188e-05,9.248325818530224451e-03,6.874308853293181754e-03,1.365484840491154768e-02,7.103388100104333219e-03,5.700010273596715221e-02
5.909071791570408988e-02,8.688759627744492564e-03,1.089136260361975132e-03,2.093122880720721011e-04,6.351649319736644940e-04,7.437624718503947630e-03,2.654206849266883828e-02,1.092761620229898249e-02,7.852348995478762236e-03,5.149914789102220253e-02
7.590687858503407381e-02,8.132507168437032308e-03,6.313198406271629086e-04,1.246647707602063077e-04,5.154491258974340431e-05,4.497824819507622446e-03,2.460599552977388998e-02,2.884626631416933179e-02,7.513962340612861598e-03,4.240414915563784498e-02
7.141395797109206800e-02,1.664432900333247256e-02,3.451450451466705170e-03,3.933504848960603633e-04,9.089272147578576766e-04,1.337120437075357479e-03,2.413207396929729909e-02,4.007205840740146741e-02,2.789462562069136391e-03,2.713437104244708839e-02
4.111358491111270080e-02,1.653789568110449956e-02,9.665407558566757942e-03,1.591450168775851047e-03,9.059424232208282499e-04,1.428566644907565430e-04,3.013226657486484800e-02,3.532297175368696862e-02,6.150067986881828375e-03,1.391635803504891189e-02
1.523159590185180039e-02,2.621082014795549087e-02,1.434041276171682706e-02,3.373545696213538572e-03,2.992314282122159660e-05,1.168305614035349601e-03,2.013350679147126246e-02,4.578115371341208439e-03,1.508476896795794310e-02,1.165256155149454152e-02
7.560091717526987165e-02,5.036405087852573875e-02,1.526405054059055619e-02,4.837840632873684384e-03,5.107695808791420976e-04,2.405870221274969759e-03,2.739482602686233240e-02,7.212539893686581438e-02,2.007236886928662895e-02,1.779326978959437644e-02
1.103475305436907028e-01,7.452773233987255996e-02,1.205509272030325964e-02,4.658260056227685707e-03,4.827455935113461084e-04,2.015815699918285450e-03,1.131549499766245775e-01,1.242521919303988115e-01,2.152573072541905108e-02,2.194231769555295489e-02
1.132464905341531436e-01,8.794255322909309835e-02,5.663878789253018638e-03,2.710635365722659489e-03,9.445221111723548987e-04,1.016684031055206921e-03,2.136970391062459063e-01,1.333952362942197323e-01,2.239717227276470657e-02,1.823529399989487834e-02
9.842827346989097004e-02,8.983788036945093702e-02,4.600483073585229211e-04,6.252022750484859896e-04,2.335122952949382404e-03,6.909894430513801450e-03,2.915428466209585290e-01,1.166737071331796077e-01,2.303085146470152528e-02,1.000098051128974277e-02
7.811982118054137947e-02,7.429630368503530036e-02,3.223441365813598230e-03,1.291195822883108523e-04,3.677645389842531740e-03,1.401017557452410855e-02,3.238488106897316476e-01,9.846261936631420242e-02,2.106894126147450599e-02,6.205021927169166764e-03
5.861585288874815447e-02,3.149335029475805459e-02,1.541214731300292323e-02,1.456657188669327051e-04,4.176152103188964133e-03,1.980293110328910575e-02,3.219620766670212575e-01,7.967751373205878007e-02,1.660086472191141596e-02,1.403197545262047791e-02
4.280559146195538761e-02,3.001893031155641878e-02,2.921178699043999738e-02,3.710741201848380931e-04,4.270116613574867145e-03,2.344741953748026922e-02,3.112916818705496191e-01,5.487871586206034824e-02,1.322848427903532999e-02,2.929570593556145991e-02
2.597427359716980577e-02,7.944816232386965604e-02,3.524372653125819321e-02,2.535178881420303842e-04,4.331967406620063944e-03,2.504996641484353789e-02,2.963447326315717389e-01,2.700202518748327091e-02,1.305043422860711899e-02,3.689883340504852144e-02
5.193734466219359323e-03,9.144931486244843588e-02,3.202435679727632517e-02,1.432468130317423303e-04,3.625804245566631966e-03,2.383141429462903860e-02,2.565436457554488014e-01,1.023731428836152299e-03,1.441884608400675893e-02,2.815465936800212038e-02
1.988398687006353444e-03,6.966286205657118424e-02,2.530607823079560059e-02,1.704194135939384445e-04,1.695437315652232810e-03,2.001172373112654335e-02,1.801343903695079296e-01,1.249021459413518671e-02,1.526133221140658046e-02,1.402758620791768468e-02
2.969675428038416609e-02,3.911555247303237504e-02,2.023453942734172728e-02,1.816978084550170214e-04,3.446710350493570872e-04,1.630232443116715751e-02,9.821036346038319875e-02,4.490102354928977857e-03,1.508288060694103379e-02,1.353064897420839033e-02
9.258977115394867452e-02,2.255607935682426429e-02,1.723274435121394457e-02,1.181400086311708010e-04,1.164675307616738721e-03,1.439355378567772764e-02,6.494958788280977280e-02,5.261413441314000822e-02,1.360743676542189480e-02,3.068000238154869677e-02
1.401503182862234853e-01,2.649469319922277688e-02,1.558495207405105089e-02,4.417988473412436665e-05,9.525257679891064103e-04,1.237026972898896786e-02,9.062291446216191870e-02,1.000809674986659070e-01,1.046430366091313617e-02,5.001168508422853404e-02
1.346214531099164669e-01,4.354815429976514884e-02,1.723373067112079007e-02,1.812761496434860695e-05,7.456353940209323357e-04,8.231046891302204460e-03,1.230451716102447385e-01,1.117281022243108712e-01,6.075634957398684532e-03,5.725550086214586248e-02
8.508346797138485740e-02,6.341946015806237957e-02,2.348909040212773455e-02,8.377983162534441994e-05,8.776721378684314290e-04,3.418140703667366630e-03,1.183557957428191532e-01,8.337249650890210528e-02,1.196870178472477517e-03,5.743559878181064837e-02
3.067192770898731491e-02,8.062842459295438413e-02,3.046416373060595664e-02,1.472151721453093928e-04,9.865260525479622317e-04,6.136112576413592194e-04,9.359785131287153004e-02,3.739609711108454748e-02,3.591818013696402613e-03,6.379267320306412914e-02
5.798349196808301811e-04,9.203807060794483297e-02,3.285483300156977898e-02,2.296442079405917327e-04,9.359713125277313020e-04,7.208618324166127939e-05,8.157860894278946839e-02,3.580213260259868836e-03,7.365371875487221678e-03,7.453314361807347743e-02
4.258334856404682317e-03,9.324761663596863037e-02,3.123062329511656562e-02,3.651423732525385180e-04,9.480017151704154751e-04,2.861353486236261397e-04,7.496617546986390768e-02,3.087628049113601281e-02,9.251919648551015785e-03,7.554289018115668830e-02
1.619365240554773364e-03,8.338081530676197395e-02,3.043152795687570356e-02,4.799334541500361955e-04,1.057623379660668946e-03,2.389138474159973723e-03,5.153736929196871264e-02,4.696391144881768842e-02,9.620285553170735901e-03,6.421131841570475174e-02
8.973408024351635717e-03,6.660082014342227907e-02,3.098892087511927185e-02,4.833604156867079898e-04,1.030572526173041117e-03,6.317369735743931687e-03,2.206349000836615309e-02,5.725739391173772369e-02,9.649333535374464768e-03,5.363190674645350320e-02
3.530481718549390024e-02,4.354233082543126909e-02,2.752760247497336790e-02,5.407023832511561809e-04,9.103939782622210222e-04,1.050106485407550569e-02,1.197624317926554785e-02,6.625566981217211049e-02,9.722815840239207308e-03,5.158878647863523320e-02
8.199709966321397370e-02,1.336960351414730186e-02,1.722175937174884319e-02,8.628287463879552935e-04,1.100610014457471808e-03,1.333140752739468693e-02,1.637767015321151334e-02,7.896478427296846347e-02,9.240612047484660779e-03,5.077373234736450719e-02
1.312195365434582761e-01,1.063066384097165716e-02,5.821578041830482650e-03,1.061451173282093249e-03,1.438548586832909303e-03,1.413689328206226697e-02,1.343904698164785638e-02,9.640573240621544415e-02,7.762012131703438511e-03,4.400253068101694920e-02
1.389803078990980989e-01,6.802847667252286297e-03,2.080112315702567667e-03,3.816576984521795920e-04,7.908207668923443543e-04,1.249648727788712013e-02,6.771201923498787120e-03,1.056712488101379660e-01,5.314598215554907495e-03,3.641657824404603838e-02
7.725938197822498910e-02,2.597484460763799935e-02,7.343655034962752459e-03,9.948868740791774745e-04,1.399647489338700810e-03,8.015676980102756990e-03,1.653725568997931397e-02,8.876462740650087335e-02,1.995145517362992109e-03,3.544238505275109502e-02
1.653117259501662994e-02,6.483191539140709114e-02,1.405905904637756200e-02,1.684593435443762499e-03,3.585471129877869974e-03,1.536580334898721232e-03,4.109862022107529239e-02,4.818787503439796172e-02,1.606377544209358762e-03,3.702596919953906468e-02
7.569398535020949170e-02,9.143845555146454251e-02,1.515087483078408903e-02,8.182282018369523707e-04,3.557259232682075112e-03,4.476345586772611032e-03,5.667525543258916665e-02,7.380552871403158258e-03,4.112157511416474238e-03,2.966131121399411333e-02
8.627512786315197357e-02,1.037899121403611374e-01,1.117220538169142428e-02,7.338734419350891221e-04,1.323188993543165156e-03,7.340190032570084559e-03,4.419777196469970582e-02,1.717155012624039384e-02,4.591010376450268930e-03,7.914438966472932269e-03
8.595433999935164771e-02,1.025027377213185570e-01,6.918502735093853828e-03,1.586027662912471280e-03,8.959629380635807366e-04,6.022595982939288502e-03,3.578467590598822558e-03,2.608088889978189134e-02,3.577785067767015083e-03,2.234189964633728070e-02
9.197938323929724658e-02,8.618392341282189728e-02,4.930484450950223946e-03,1.554281993343443330e-03,1.572735629173481562e-03,2.309135551694188083e-03,4.442647729732621814e-02,2.291963098470293017e-02,2.110580764019407557e-03,4.869418001655034106e-02
8.267118901876920056e-02,5.836580902567963663e-02,4.035771848288036666e-03,1.393013543783470747e-03,1.303537783724463377e-03,2.607364381927837808e-04,6.913796970260607799e-02,9.661551023737594349e-03,5.527243326971385991e-04,6.169276393710752121e-02
4.530056304531950018e-02,2.687396296276521601e-02,1.672390621424782453e-03,1.490837085682349518e-03,1.185533159751555416e-03,1.050435459990159686e-04,5.842347113513451928e-02,7.242119354433825158e-03,8.740496974973192400e-04,6.373591963449551367e-02
2.509120999302534051e-03,1.285942962692334691e-03,3.385720577153238445e-03,1.634147608828742269e-03,1.287947096488058652e-03,1.711807706925134835e-03,3.402548867572351143e-02,1.992369796754244263e-02,1.449889082343950230e-03,6.659047012676250210e-02
4.242722784127226504e-02,2.265594248085680065e-02,1.016850699253679657e-02,1.653455575940858012e-03,1.277848275089130126e-03,2.404725930981250342e-03,2.592038355050113249e-02,2.694849365084643622e-02,1.131545636830471897e-03,7.621313221056227882e-02
7.890070675656492283e-02,3.981428868648154151e-02,1.773541566301604921e-02,1.642156181616277440e-03,1.318180852669220129e-03,2.643624235181101824e-03,3.637760052741834810e-02,3.481445741284120571e-02,1.571213660622729604e-03,8.507470072183981324e-02
1.244200561143841699e-01,5.864680972557983346e-02,2.667344445842256134e-02,1.680748505020525103e-03,1.507874586671094710e-03,3.505405207967575952e-03,4.570603914562799963e-02,5.348765741834269477e-02,4.322472780241694117e-03,8.518069128879372787e-02
1.706263693130769254e-01,8.062107990551557746e-02,3.648118886796601623e-02,1.727882741412472894e-03,1.322776989713544309e-03,3.600722262495745403e-03,5.101160950899080032e-02,8.624087276143035941e-02,8.388593491313260653e-03,8.156382156261691996e-02
1.862056163910315865e-01,1.031585328882399372e-01,4.395598053709972447e-02,1.746900820492133669e-03,5.627446337179839095e-04,8.981255207848007523e-04,7.389422635544402873e-02,1.187366757036488057e-01,1.117833378198330833e-02,8.351617222324000944e-02
1.518087036836996973e-01,1.251454674415966861e-01,4.687749621493369351e-02,1.758291770660213096e-03,7.849237370961738985e-05,3.530548006912572184e-03,1.214301900518798827e-01,1.244572976157646005e-01,1.169215907203486997e-02,8.928369622138664086e-02
8.826194638389217584e-02,1.426869909882731713e-01,4.708736784618757637e-02,1.780951495331491337e-03,5.441557564170965448e-04,6.132321234083906378e-03,1.652051417452992665e-01,9.057307375107991054e-02,1.121287303433366259e-02,9.178589764237402027e-02
3.583210520117777187e-02,1.459803827400545095e-01,4.771802137236874630e-02,1.807148373647289932e-03,1.331765647709191782e-03,5.012376498340199646e-03,1.760272583607585262e-01,3.572907198219441721e-02,1.105592941124315665e-02,9.350141284872379166e-02
1.356772155445368916e-02,1.331016146063858097e-01,4.933970170968651758e-02,1.829995944961141079e-03,1.556105565008923013e-03,2.243941256636165608e-03,1.619217731419212158e-01,6.536265322205906357e-03,1.119554070896003339e-02,1.007751009747410859e-01
1.301745007722507168e-02,1.175898579996951521e-01,5.064027750204510431e-02,1.854847747096823388e-03,1.334532135887429383e-03,1.833386236524169174e-03,1.530887886486393124e-01,1.949444735943734255e-02,1.114703617085288818e-02,1.075828661577801493e-01
2.119452862611023725e-02,1.092145057270260955e-01,5.147196920870106968e-02,1.885814858341885829e-03,1.236026606883529853e-03,5.310261681098916997e-03,1.580534783554982670e-01,1.101979718174207236e-02,1.094097054728468583e-02,1.011788162264908031e-01
3.278843412075124059e-02,1.002643237016241362e-01,5.317276113418096389e-02,1.921512531570435675e-03,1.334290933234564191e-03,9.576378404100457931e-03,1.554865893833966006e-01,4.529888082672319655e-03,1.086528072948182363e-02,8.230824972576498977e-02
4.480726133701182917e-02,8.363175905037860403e-02,5.572423446763197230e-02,1.962827984007746267e-03,1.388027971255737522e-03,9.992952784956802073e-03,1.342965536014496808e-01,2.050407175948384605e-02,1.087881916562838738e-02,6.526888162751663669e-02
5.471807402834431150e-02,6.845904443438904918e-02,5.657897426753107778e-02,2.012247364156328783e-03,1.350847604888018435e-03,5.776098623344131863e-03,1.200783645549224621e-01,3.553095679421668096e-02,1.071526366243965092e-02,5.893285563331984722e-02
6.834182616755159201e-02,6.498688722771803206e-02,5.401433261715512385e-02,2.066796703716153576e-03,1.325950955705069339e-03,1.172980451238432803e-03,1.378381648673859261e-01,4.934188699348093787e-02,1.046769834940544826e-02,5.974338318854778562e-02
9.848171380181876267e-02,6.800618949603474961e-02,4.983773035838932886e-02,2.123966361204529096e-03,1.347040716418618960e-03,4.385535902048444163e-04,1.637425334509175490e-01,6.536301020114312910e-02,1.057280236255759946e-02,6.092275944095244117e-02
1.407699637500007817e-01,6.519151923017439676e-02,4.645921782611885098e-02,2.192436790991311377e-03,1.384431705683924693e-03,2.918671068624167399e-03,1.490734141389158107e-01,8.570130829068739464e-02,1.083391325119782006e-02,5.745809841549119612e-02
1.564059739787414804e-01,5.048337722176252790e-02,4.359131223207341616e-02,2.277393331382712889e-03,1.400313183339174389e-03,4.846820284346674626e-03,8.347548137567400994e-02,9.511104466429685933e-02,1.009080413021352582e-02,4.475176715698461066e-02
1.052461022345443642e-01,2.400568698209793253e-02,4.036755893418193797e-02,2.359269446792411871e-03,1.369009836668158391e-03,4.950003041952221773e-03,7.345879353018135161e-04,6.584779960247331976e-02,7.814615533082495263e-03,2.284839894710533753e-02
2.084751157745958795e-03,9.082885955649334583e-03,3.837343244921072316e-02,2.425637915777401413e-03,1.353172923238523751e-03,5.632099549321649586e-03,6.550145923546500659e-02,4.369415175537063808e-03,5.347760624731106270e-03,1.362822757016062328e-03
8.595332432702089409e-02,3.507768867023529358e-02,4.035550080344170454e-02,2.516507355668792887e-03,1.450075742191194892e-03,8.665402864723257409e-03,9.765490485600566983e-02,7.405309018496915308e-02,4.185606504885696320e-03,7.640925443180401032e-03
1.093362922892207600e-01,3.928604604136744227e-02,4.660388145711730212e-02,2.656907044591737006e-03,1.536519367359031078e-03,1.237245216375758815e-02,8.208377600930436002e-02,9.815904247781709335e-02,3.930890469881207980e-03,1.727998076411496609e-03
8.358395579609045889e-02,2.209572550705005134e-02,5.323215676308362676e-02,2.758744696017251252e-03,1.381179000390724519e-03,1.409102846939595637e-02,1.760010667550831326e-02,7.574767071209748126e-02,3.627984195968633578e-03,1.247200314633389873e-02
5.633624414330128116e-02,2.146086175437995902e-03,5.583748982401195993e-02,2.762271674355896382e-03,1.237542675476265095e-03,1.358908589295368223e-02,6.844032478191226787e-02,4.055148233796281726e-02,3.788361716846868829e-03,2.916826484915782669e-02
4.528340924412335017e-02,2.331744727482476520e-02,5.584235751725439428e-02,2.851740879817019330e-03,1.629871356027333884e-03,1.239883555349458738e-02,1.313495438822125105e-01,1.511096978840842549e-02,5.046035292750760196e-03,4.388471357428706809e-02
3.221294458921384468e-02,4.082588381505531522e-02,5.850168212269565848e-02,3.167668562845755466e-03,2.019462350101310002e-03,1.063534754884770672e-02,1.369505490544719317e-01,4.322840167228376648e-03,6.216185355099891272e-03,4.632330119877288432e-02
1.436326926689650285e-02,5.030873865181340054e-02,6.330477831899088137e-02,3.295492364441996672e-03,9.104885732652859233e-04,6.711330832079994042e-03,8.639044310484644829e-02,1.948560433207011111e-02,5.750573801288051679e-03,2.588557967982827585e-02
2.359004695663171475e-02,4.000679424626696346e-02,6.477041529182474278e-02,2.619996055135485023e-03,1.717869237963422745e-03,5.937531281437686322e-04,2.304964034760304675e-02,1.437028332245357531e-02,3.867944122323983304e-03,1.273313672358049667e-02
7.414099938975296511e-02,6.765144513030126906e-03,6.291168742337828468e-02,1.120935842348338204e-03,3.873980362970673007e-03,5.063598617300068584e-03,3.098652188486945153e-03,1.680812973901555513e-02,1.366092718014241120e-03,5.011071557041570090e-02
1.281776604434253231e-01,3.568927343697278487e-02,5.849668397217952509e-02,1.097232307334130219e-03,4.738269127246028632e-03,8.323775117370679419e-03,1.016580976380028131e-02,5.031755998603205937e-02,2.337222999843272322e-03,7.180533381196413378e-02
1.440011587826388606e-01,7.170318365905754832e-02,3.756022487136172205e-02,4.795039233885881221e-03,5.893524701066748736e-03,1.022109350495335398e-02,2.133591676092182199e-02,6.493773528921165106e-02,7.479190286758203264e-03,7.985602057882114357e-02
1.261654106169602663e-01,9.569914267451749834e-02,1.774382531111275141e-02,1.056206962468931622e-02,7.844964147630228632e-03,1.221752952501617764e-02,1.016209995919837780e-02,7.003743524092355399e-02,1.142000610851243679e-02,8.412826259322740696e-02
1.013295322628038342e-01,1.027572420461930064e-01,9.649110547620393108e-02,1.675439343577187629e-02,8.272355588285474487e-03,1.380754786146954315e-02,2.941543442327461573e-03,7.796358110509596373e-02,1.141713575659982806e-02,9.023564067926506671e-02
7.850485629678731481e-02,8.532676536525582445e-02,1.577012856038715882e-01,2.011864923354320100e-02,5.571650185146958568e-03,1.384527590346713681e-02,2.068727411404370012e-02,7.550439826610062799e-02,9.280785355902484296e-03,9.638653595149773712e-02
5.536750022069003574e-02,5.217606071095574199e-02,1.708590487853174911e-01,1.884678335074770408e-02,1.480210799256433856e-03,1.193992530480370885e-02,4.556880213510019345e-02,4.957371851878903529e-02,9.144991138599177158e-03,9.644462108366445852e-02
3.206094135216083774e-02,3.083764384221749852e-02,1.436084911271907349e-01,1.397171207886626666e-02,1.413298247449282317e-03,8.173388498010669342e-03,5.907073119917173598e-02,1.781218359302788601e-02,1.125120226660970141e-02,8.647446902690117398e-02
3.140297721365997545e-03,3.424509373201613943e-02,1.050463573385119753e-01,8.047281760614605900e-03,2.338606861807766227e-03,3.878777230694012857e-03,6.670321166308243455e-02,7.434136650385463410e-03,1.231867605821803865e-02,7.020452146388052317e-02
3.453764114654520739e-02,4.344673740449885024e-02,7.559413040291246277e-02,3.660002563597836676e-03,1.305184700443718900e-03,2.137789020449690734e-03,6.218785857353160279e-02,1.913624760587809628e-02,1.151472622416032689e-02,5.539365991529924399e-02
5.690588995880740270e-02,3.916812861147645625e-02,5.776913521795276618e-02,2.369281726737492225e-03,1.766410969467300000e-03,4.556618201586475070e-03,1.943014578704712822e-02,3.338185133347870009e-02,1.167445650364394918e-02,4.464397992078056321e-02
2.927947529179978151e-02,2.981164196356235821e-02,4.485750902468495227e-02,3.368899687963139433e-03,5.265613092383662069e-03,8.249868676748664531e-03,5.493917807998516256e-02,4.106682949624460705e-02,1.418519968606709453e-02,3.348952155447224022e-02
3.956022602580216291e-02,2.984075974971914930e-02,3.095848120207892948e-02,3.852876866936025876e-03,6.021385260306330936e-03,8.828241446784358334e-03,1.114787365023975352e-01,4.716417853860022102e-02,1.631123513748403489e-02,1.848347911206137117e-02
9.212542798088396712e-02,2.973711241831248839e-02,1.690974811871131037e-02,2.039515530428933840e-03,3.137222725889694981e-03,5.498966259793959879e-03,1.188529389248988988e-01,4.996159819492321241e-02,1.527631307833906410e-02,4.277862323950011245e-03
8.757654793790287107e-02,1.255573788562221182e-02,1.170769158844301924e-02,9.347397407029568381e-04,4.847431883014396981e-04,9.024104827878970912e-04,9.077766717859069023e-02,3.742728799526078010e-02,1.235229522692695391e-02,1.889994818349376854e-03
4.545321703919805861e-02,8.935754727583703969e-03,2.538787411595836915e-02,2.884383106927170155e-03,1.919743841996604181e-03,2.768630357149229684e-03,5.017388617624102959e-02,6.345867211091237199e-03,1.058452513270974858e-02,2.589097956013830873e-03
8.780118574583958488e-03,1.188134890420939650e-03,5.616840413800124748e-02,3.207699855500146038e-03,1.475070523694868053e-03,5.321794292216384253e-03,1.160599030646890933e-02,2.994581688674029588e-02,1.099835745296917806e-02,7.011876762235842372e-03
1.156652745664157357e-02,4.001372903461477420e-02,8.812966206088325427e-02,2.867336829407309169e-03,1.029918934960887249e-03,7.278997013505971239e-03,5.979019669526978477e-03,5.748006243249344921e-02,1.348597922280794781e-02,1.189143242556967017e-02
3.637572848518417362e-02,7.601369433653540342e-02,1.049592320506341075e-01,2.696988905434003370e-03,1.173571071611760131e-03,8.678230227573842034e-03,8.707140532804247268e-03,7.419844286013890788e-02,1.803125250061961282e-02,2.036667263217897816e-03
7.709388795429818197e-02,7.303688326872123660e-02,1.013085607825576495e-01,2.690832782805684196e-03,1.312427441995260178e-03,9.044921334192155757e-03,4.037119015532292243e-02,8.330380333784281888e-02,2.246015535079765729e-02,2.216542229415754267e-02
1.150626460526013584e-01,4.066596500172017098e-02,8.112278322687772880e-02,2.603142052839420035e-03,1.187147623185401662e-03,8.179896026441464338e-03,7.267302113691891108e-02,8.552730602762072254e-02,2.276471978920978009e-02,3.894247221705045975e-02
1.217676574583307220e-01,1.193251913247539604e-02,5.364100398694328364e-02,2.444484775110577959e-03,1.061685381904792875e-03,6.550998221454286050e-03,1.199863150396564965e-01,8.048473090346054681e-02,1.780407371052841400e-02,3.815530368591882326e-02
8.924918828096865819e-02,3.747519019746504282e-03,2.993234864961755171e-02,2.326090599607629015e-03,1.059536185875610721e-03,4.240344666717901431e-03,1.988463825423132936e-01,6.468213942539716155e-02,1.047392132623106362e-02,3.709275268254204339e-02
3.551079520837121389e-02,7.040114640526972702e-03,1.413529589201630715e-02,2.245516670549313910e-03,1.059572896785693826e-03,4.507785017563519479e-04,2.814970410075266494e-01,2.964367024375132165e-02,3.607479620560793097e-03,4.994741202348838838e-02
1.210718547111755070e-02,4.147796536842857096e-03,6.103392581429702146e-04,2.152556961636110933e-03,1.003075105882570697e-03,4.366384692912872109e-03,3.194002114847663831e-01,2.412514393691225084e-02,2.140788531367229970e-03,6.269246600804752323e-02
3.027509110008728271e-02,1.345854084059981345e-02,2.127586374309852618e-02,2.049213046338545230e-03,9.464402133230384855e-04,7.230506170400715499e-03,3.020718544808843609e-01,7.379106254483069893e-02,6.518413134390384049e-03,5.278471662142262405e-02
7.831423482668891517e-03,4.114086315758479911e-02,4.413592069599306389e-02,1.960176339180283358e-03,9.182214769506895444e-04,5.887176652488060151e-03,2.512190946145880788e-01,9.113408062735428583e-02,8.895599401526765523e-03,2.022195120281684161e-02
4.127434439391229615e-02,6.708404673752559055e-02,6.099149453201969245e-02,1.885693751350421467e-03,8.927069854622176346e-04,2.203852792790251484e-03,1.747775064454702154e-01,7.370350174214337913e-02,9.523863959393370771e-03,1.213506012422291627e-02
8.112742995912530786e-02,7.880524911100598995e-02,7.036986339439195437e-02,1.814752195173778820e-03,8.564360394987520584e-04,2.086550892472049772e-04,7.734044684284087368e-02,4.469783689690205036e-02,9.561669834461395887e-03,2.306822316706391707e-02
9.042631508872445156e-02,6.790934145816923673e-02,7.415198539911549425e-02,1.747305834092659519e-03,8.213430462316544502e-04,6.515588577460411845e-04,1.519513345914226196e-03,2.147555025817285412e-02,9.548422343746717708e-03,1.111610801652995577e-02
8.686627825959206128e-02,3.648892184884315604e-02,6.866398185464335502e-02,1.688473077754275471e-03,7.939653116976508633e-04,9.490843647722640389e-04,1.238175955300242770e-03,2.055859464829903893e-03,9.031943207442967927e-03,9.825078810124092052e-03
9.376771150470469829e-02,3.497761960770586626e-04,5.024854337100817525e-02,1.638061173449353305e-03,7.689968015664861269e-04,1.426119287681555658e-03,6.775214299927745376e-02,1.574532759295664205e-02,7.926085059269519228e-03,2.576319812531175160e-02
9.892505561610576148e-02,2.038000583936075416e-02,2.652958272417880320e-02,1.592965439168996964e-03,7.432172983226088131e-04,3.739143403602751049e-04,1.241082337624441062e-01,2.550956659672019497e-02,7.163831055262351831e-03,2.930904303344705406e-02
7.439593090808342690e-02,1.718468611431943349e-02,1.195446193646083725e-02,1.552136526612475816e-03,7.184950797718087177e-04,2.617935708615149685e-03,1.073752792166910858e-01,2.676910986479334037e-02,7.388732616405129482e-03,1.787349892264378931e-02
2.086415635677609653e-02,1.321439250960504538e-03,1.299677337751017903e-02,1.515990929114789708e-03,6.961838766286571013e-04,5.364450416792327855e-03,3.132464575024083986e-02,2.469960906652382202e-02,7.943938373348894549e-03,5.507550762247695464e-03
3.386223786924880130e-02,1.800623868225072893e-02,2.112351340490853033e-02,1.484106668500125275e-03,6.760847135831003513e-04,5.512698642080733971e-03,4.357260554633263228e-02,1.566899034595970949e-02,7.944390475721379782e-03,3.195936229532791995e-02
6.539771430587161538e-02,2.147171043514869981e-02,1.800649394861550401e-02,1.454565683270411499e-03,6.572044171317098071e-04,2.866224461009289019e-03,8.096562725224998314e-02,3.118243210318891352e-03,7.493473162249162517e-03,5.467876032870606223e-02
6.226742307029498047e-02,1.780300505637681663e-02,7.591459292982234881e-03,1.425059170129947895e-03,6.372961857940442985e-04,7.439054411065696738e-04,9.266690959071814671e-02,1.631212613558551475e-02,7.188025324251388556e-03,7.422109434113134674e-02
2.134926203978982501e-02,2.673275033827453989e-02,4.237927229737942225e-02,1.395275172486237824e-03,6.164588821070744089e-04,3.148322978018642474e-03,1.052296730505268979e-01,5.591325680565746407e-03,7.169080488218725414e-03,9.008924477244445450e-02
4.488295292160190963e-02,5.490323269634950903e-02,5.789662320380162264e-02,1.366530746112639035e-03,5.995704227507854490e-04,3.865636994961482980e-03,1.246514527939066586e-01,2.679393930266527057e-02,7.131234631873684636e-03,9.361508340996181621e-02
1.009636502372156519e-01,7.541057551085827981e-02,4.471186940911148211e-02,1.336385236996652601e-03,5.862655893756657695e-04,4.611314079324432477e-03,1.363192081988625903e-01,6.338155107509908792e-02,6.832186362587065916e-03,7.827792522796345187e-02
1.035401968057340222e-01,5.377599304285323595e-02,2.513052297173613836e-02,1.298524490500222589e-03,5.648475731117733652e-04,6.271878421232594640e-03,1.256560112433000587e-01,8.472998376955383215e-02,6.244877983590795857e-03,5.031712314483412218e-02
3.359535217037729754e-02,3.772776124038956444e-03,2.371957374554949441e-02,1.254527053842027264e-03,5.346839579078593602e-04,5.887424471371397253e-03,9.016862252742148531e-02,7.001595599396438774e-02,5.152842247550515169e-03,1.946375919286228925e-02
8.177076280929368446e-02,5.261279261905645738e-02,3.770256845832267723e-02,1.214916342828523512e-03,5.201380336290617338e-04,1.638989792079992400e-04,3.786132444993911550e-02,8.730057133896513069e-03,2.933186094176379755e-03,1.222610275844500556e-02
1.824985149298996578e-01,6.568682309368684136e-02,4.723038558483539512e-02,1.174070797081776816e-03,5.226017119805593950e-04,8.371512265675604136e-03,1.309285172125589439e-02,7.610165647291555757e-02,5.007427597027352744e-04,4.259995526927851106e-02
2.202291442266719190e-01,5.952359351908474705e-02,4.390267344468498645e-02,1.107205500802173380e-03,4.893556221747882721e-04,1.334263404821489987e-02,3.396189110555723062e-02,1.365133310148963497e-01,3.566483069256874174e-03,6.142763916779899608e-02
1.940246176244911913e-01,5.674966785072241282e-02,3.421990254997818448e-02,1.023971256611581632e-03,4.154590602058711260e-04,1.226757176746354205e-02,3.006796747506340628e-03,1.432315463232455288e-01,3.915122783291565337e-03,6.084869604489880762e-02
1.396598855548712992e-01,5.245273079050011278e-02,2.201332032235005579e-02,9.764440402679111074e-04,4.130155052527257004e-04,7.945596123393610516e-03,6.757122200467026440e-02,1.083987345580830902e-01,9.727510912469999708e-04,4.502755576737901833e-02
8.975621210775527881e-02,3.158118917720838942e-02,4.216348400900090006e-03,9.448794510237661093e-04,4.952719163791681131e-04,3.387394196835634766e-03,1.340149896288473363e-01,6.304500760698925066e-02,3.100088898561359843e-03,2.281879792174193802e-02
5.383857583554740867e-02,2.600634222573066420e-03,1.837095788142302857e-02,8.175127172251077032e-04,4.227622662928121576e-04,4.078451350366494471e-04,1.594291041924416341e-01,2.853498458136348101e-02,5.568196357943453606e-03,2.229069874671520297e-04
3.171756448600891731e-02,3.198527656069428265e-02,3.949748506768330225e-02,6.340174938591320404e-04,1.602810997651151067e-04,2.828931047131305609e-03,1.450797051691898598e-01,1.128114200525017624e-02,5.835514087829884837e-03,1.605958096267646670e-02
2.935552955810126485e-02,4.322217554485101310e-02,5.568100678035373119e-02,6.379144276718036292e-04,2.230977434548779646e-04,3.082586923895714714e-03,1.192318986622431937e-01,6.881163186397989961e-03,5.316136665338221101e-03,1.932012424155697336e-02
5.201703486404212623e-02,3.335985141646656549e-02,6.613643474585334525e-02,7.618681417017995634e-04,7.205842489325227319e-04,8.794820770918095054e-04,9.881365223834409628e-02,4.739396570402709327e-03,4.824406453194125290e-03,1.246502873148046427e-02
8.910068429994320860e-02,3.450071312585888030e-03,6.549337418237190234e-02,4.436992829606557559e-04,4.809389274806910803e-04,3.220635034268761344e-03,7.249948142909307114e-02,1.984548663952204889e-03,3.165773815993135672e-03,6.448793281852271964e-03
1.195546325726414005e-01,4.190865996842382118e-02,4.645885819617378426e-02,4.385592654668037452e-04,1.300009941390619728e-03,7.413688815494254465e-03,2.832224444339693364e-02,1.187719906788345034e-02,8.746084511864450021e-04,4.365021676700050340e-03
1.305587710647224398e-01,8.912593829755484365e-02,1.190824780569419046e-02,1.013910447701877118e-03,3.040273523627077482e-03,9.279074227695648797e-03,1.664405809610917247e-02,4.351482638191411095e-02,5.592146032212345734e-03,2.222905688129217083e-03
1.196882166152180849e-01,1.195544913098632450e-01,2.317211493120528362e-02,6.427758411521025585e-04,2.618716253666088668e-03,8.177274768852337700e-03,3.362516146733512956e-02,7.878545727845386037e-02,7.122043028770142295e-03,1.670619787254120844e-02
8.519184669910030705e-02,1.228742567894526849e-01,4.451482958444803045e-02,3.790682434862379909e-05,6.477692116617923389e-04,5.842094027153049707e-03,1.915840406641650812e-02,8.732208426310665572e-02,3.987091280502075459e-03,2.905933241163791841e-02
2.754499375566685573e-02,1.030434273944112467e-01,4.871702374598784607e-02,1.596578487751817640e-04,5.298232222099778614e-04,3.485388992464156718e-03,4.259347070132691454e-03,5.917204571537185154e-02,7.765549987513581387e-04,3.035362732419609119e-02
4.365921352860364230e-02,7.129723932317702517e-02,4.124309777971151003e-02,1.531907472340833542e-04,2.858461800145827491e-04,4.252218197827911704e-04,1.572258353161926081e-02,9.970503648053855722e-03,3.332518575248238826e-03,2.496236276066554627e-02
1.120743499793313558e-01,3.724537491141380330e-02,2.978503885229380130e-02,3.361804297587275164e-04,1.524572044893048777e-04,3.229246380551845964e-03,1.150410215065898745e-02,3.883720538250630405e-02,3.206018735841644277e-03,2.071100884163965331e-02
1.611564070495005996e-01,6.151411090250229023e-03,1.910370301090785761e-02,3.198561942880688504e-04,8.795304895084141671e-05,5.390475844612727455e-03,3.688809962635354600e-03,7.572254923164567497e-02,2.394578806037673310e-03,1.635449283039478244e-02
1.769811041760676329e-01,1.928548812602540879e-02,8.964579322024917446e-03,3.460901533541664576e-04,7.186401800541877230e-05,5.141847331275921362e-03,6.858701468296239494e-03,9.757990904477281680e-02,2.091028359923982529e-03,8.330387844249907692e-03
1.486372037979759864e-01,3.688546798654313008e-02,2.587077364689771130e-03,4.534036028303249470e-04,7.634325889737367704e-06,4.261894075355923336e-03,1.392699109054001613e-02,9.733018460231664115e-02,1.964978448124014496e-03,2.002793332314086946e-03
7.465346416215873360e-02,4.597962650680115226e-02,1.461171005024250978e-02,5.288459054325173828e-04,9.993070664214922811e-05,4.131775556072064988e-03,2.402057671175194392e-03,6.658566706343918562e-02,1.611959034029602535e-03,4.331330092885039493e-03
2.119025078676609053e-02,5.127357039694847851e-02,2.483717396261213989e-02,5.514856525889002322e-04,9.967765585978644418e-05,4.020783183626296456e-03,4.327010033888752799e-02,2.109032250956788951e-02,1.189390157697058992e-03,1.062756632304422827e-02
9.132911050491120120e-02,6.135691965424842215e-02,3.374493095372467499e-02,5.734248689998521159e-04,7.387137915725555768e-05,3.507168525797143849e-03,6.415586018828849102e-02,6.014254356102312045e-04,8.877151145415555691e-04,1.060435622990347874e-02
1.055695437127719682e-01,7.610471831666791587e-02,4.233289694759475447e-02,6.055751468092656058e-04,9.404795921704641186e-05,3.527938870605051586e-03,3.425301529370895770e-02,1.237653739186792001e-02,6.403874262107427714e-04,3.589364516914017936e-03
8.326296959037511602e-02,7.875262234591041965e-02,4.805951889506770991e-02,6.230797268850961834e-04,1.224521267296327549e-04,4.149368858801349112e-03,1.021001618172086116e-02,2.182112101048639535e-02,3.613134335187399371e-04,2.772377788505561106e-03
6.074597757310349483e-02,5.265730702309134870e-02,4.833887642463098600e-02,6.187912602618567083e-04,1.250876476049878007e-04,4.041420222867828788e-03,7.286626398348709961e-03,3.738724598741624116e-03,8.485291259296810643e-05,4.118672595554265931e-03
4.201216040088946724e-02,5.833284523998321508e-03,4.544349938200959588e-02,6.056966980830005539e-04,1.192531556779304855e-04,2.865312198429725409e-03,5.499241884619004983e-02,4.293877420510849863e-02,1.414770620391019246e-04,8.314548301649210982e-04
7.775726156680624369e-03,3.421406841235912627e-02,4.267650790572473374e-02,5.921638052893080442e-04,1.211901041389626681e-04,1.999511648828665531e-03,1.324266673623885893e-01,5.619187816918691514e-02,3.290877699955311914e-04,5.988672858669723438e-03
4.423789067281207882e-02,5.053036094171169113e-02,3.902098528896575519e-02,5.712838290854722716e-04,1.231822776764495970e-04,2.308983006598601569e-03,1.775100388488572989e-01,3.599905287120179487e-02,5.036330268569902315e-04,1.262285876272225063e-02
9.646093430941295177e-02,4.846599064167306931e-02,3.290715700084383133e-02,5.314941950733407042e-04,1.177853517723479566e-04,2.940531230653030664e-03,1.737004658646632560e-01,9.736864314477894702e-04,6.598218721845281560e-04,1.266844139588176391e-02
1.415343232617132796e-01,3.832038292956854025e-02,2.757129784807210715e-02,4.812982363984619075e-04,1.088401810902587093e-04,2.912308345648225924e-03,1.297395027126651557e-01,3.714555388279672937e-02,7.717463499380518635e-04,3.886068443740856027e-03
1.896966501036134178e-01,2.214045047459180585e-02,2.702129984905549120e-02,4.468082701645234383e-04,1.002546210839145560e-04,2.449079088429259414e-03,6.438679790411090675e-02,7.984331166065142260e-02,8.373189202869206526e-04,9.395699077963547488e-03
2.357077764708762624e-01,1.167633879749299403e-03,2.972521816467777606e-02,4.182383286674595975e-04,9.070095168713585823e-05,2.169937975252845316e-03,4.805627210955780437e-03,1.210877851600407618e-01,8.961324196178995687e-04,2.223460802568080069e-02
2.383086830785300647e-01,1.678545754957299838e-02,3.138555724963935228e-02,3.444558520189719983e-04,7.879438386624352489e-05,2.092159700237643163e-03,6.921957918019339129e-02,1.371333944723421849e-01,9.600407779613344622e-04,3.331867407758906663e-02
1.630197467213929108e-01,2.476121461503235158e-02,3.107068317844625949e-02,2.471832758721023921e-04,6.562867934778142810e-05,1.944646753528154548e-03,1.227879714250266902e-01,1.112471907963040046e-01,9.553336238682730644e-04,4.328935533963109566e-02
3.677418158953893457e-02,2.547074333094342946e-02,2.983459876392302243e-02,2.399660289210127600e-04,5.237096246181901881e-05,1.722869104569739939e-03,1.483859012286682932e-01,5.991614936749306564e-02,8.574664579899564853e-04,5.180247742427132596e-02
7.514343890618827015e-02,2.712260286345350574e-02,2.626401662062763723e-02,2.846684790129283007e-04,3.903363962085044930e-05,1.557926280894301151e-03,1.291015174574738911e-01,1.252118565944649806e-02,8.262874700418264100e-04,5.656575670837810793e-02
1.376016788808460123e-01,3.314998403356696210e-02,1.877820985203962692e-02,1.395874341376359329e-04,2.557457495656471528e-05,1.431381419652328528e-03,8.001275679811879760e-02,2.402208619318647528e-02,9.275042533750350393e-04,5.513942172821837545e-02
1.559560933375477021e-01,3.988620983653709540e-02,1.068610157671139385e-02,1.258720436444184460e-04,1.247417481135399385e-05,1.270394681253451214e-03,4.718432088523177859e-02,5.471658039954683389e-02,8.297573604844203947e-04,4.761237301328563598e-02
1.370459845202581239e-01,4.275698981788735031e-02,7.555682701793263456e-03,5.248307823081657859e-05,2.154926091700728541e-07,1.130180280789891715e-03,5.884671024059571348e-02,6.963681150250630725e-02,3.818351440405355407e-04,3.620618214492733744e-02
8.471677173362653079e-02,4.129485799478380126e-02,8.806060275890561367e-03,7.985123081328392592e-04,1.100214809698136142e-05,1.070426823769597647e-03,8.972134964791436684e-02,5.809939947657905696e-02,3.309850221345139515e-04,2.325994873097938717e-02
2.086659210038761814e-02,3.806346374032508473e-02,6.115685706947792885e-03,1.243070222359376337e-03,2.103010379644018634e-05,9.641184994716645766e-04,9.055248910273068497e-02,3.160118389937446176e-02,1.327869728849499168e-03,1.191216313715612665e-02
3.185000471233052910e-02,3.506516174240189437e-02,6.856140678678407027e-03,7.483790226516668634e-04,2.964173677330077185e-05,7.239186575974422555e-04,4.888844764784625735e-02,6.398123954223020396e-03,2.386406671973942406e-03,6.581760377332438600e-03
8.074146842989984862e-02,3.242066473965916906e-02,2.553360801822714479e-02,4.697435018173652817e-05,3.665102948558169942e-05,6.244084930224057944e-04,2.460979726821287909e-03,2.003643930347698277e-02,2.070155429446752637e-03,9.381758423975844474e-03
1.395089104927207113e-01,2.962000353986372903e-02,3.885033267553276298e-02,2.731097406229923003e-04,4.197840827007747133e-05,8.478983214171573538e-04,1.030745182773707726e-02,5.366915866470656910e-02,9.455520753161204221e-04,1.738636996804881693e-02
1.843612798860204405e-01,2.663847102159241920e-02,4.103562544394338818e-02,5.320713287634371100e-05,4.558941819932429816e-05,7.743656969162852639e-04,8.244992382863573777e-03,8.156370465278027504e-02,6.466600503443341351e-04,2.533629018002986691e-02
1.776150792418947078e-01,2.371355234542600610e-02,3.509651263786091324e-02,4.927831390433390726e-05,4.746615401367489681e-05,2.909428557456119387e-04,3.068858264967955565e-02,8.708724465486138155e-02,1.052927364744725902e-03,2.949878482823143147e-02
1.251036602597926928e-01,2.087724973876211448e-02,2.602384267565522810e-02,3.429403998046505876e-05,4.765654503924800678e-05,1.626814235413021840e-03,3.835465748913197831e-02,7.438290645341565088e-02,8.419474377203801322e-04,2.843645826476392732e-02
6.054693350573703975e-02,1.804173934455851822e-02,1.550868975302840611e-02,6.170714923354241803e-05,4.628389507449480499e-05,1.714741721003282780e-03,2.716254177558167018e-02,5.777230813340108323e-02,2.232696904344569550e-05,2.258215952288545811e-02
9.265693638784003316e-03,1.521550290042894202e-02,4.202016307483119086e-03,5.443433522610247955e-06,4.347520866641291074e-05,5.031147871439989967e-04,2.052798645574205414e-03,4.071933028337618860e-02,3.603081683756392166e-04,1.374877832760483184e-02
8.958948615727500842e-02,1.246567012447955675e-02,4.585541186676961485e-03,5.419591272483419424e-05,3.935491411947213022e-05,4.788512028167770176e-04,4.411158982020674246e-02,2.098666335756422044e-02,1.463697586109138677e-04,3.332410156148136581e-03
1.571491739886748396e-01,9.815919411045478243e-03,6.547645823157689955e-03,6.371280883294551487e-05,3.416824083914765192e-05,3.716633315353448544e-04,8.456112833545033347e-02,7.629356173929370804e-04,2.820140733183389495e-05,8.146352477784068319e-03
1.860943482672853255e-01,7.262216594936878565e-03,1.464085949321316388e-03,8.509645001484091584e-05,2.827129292560172746e-05,9.953580066205929152e-05,1.035021235397631523e-01,2.682720661641498083e-02,3.707816644407571204e-05,1.795055371360571375e-02
1.823465665439505112e-01,4.820156681585687983e-03,5.842906323793906759e-03,1.271635748151671871e-04,2.185797213384632336e-05,6.100749763837916078e-05,9.288923335752745369e-02,5.782531690624286708e-02,6.793301472647692973e-05,2.077667174321861168e-02
1.595323868046411575e-01,2.517528882489065110e-03,1.052282905844389646e-02,1.644797722069201340e-04,1.495999926921044673e-05,2.439466158577995297e-04,6.897860551966467080e-02,8.133375670184890549e-02,3.554336992061420922e-05,1.538640458305897199e-02
1.161148548800366720e-01,3.714369671658163466e-04,1.145546465042692266e-02,1.909821749002093552e-04,8.005055043290164153e-06,3.003521728333465523e-05,5.509281110455357955e-02,8.257901538698503296e-02,1.451067421107192740e-04,8.259138977922020342e-03
