7.710048184039731099e-03,4.530226446948883764e-05,5.784680809169120974e-03,7.501721890106663980e-04,6.500154376024969800e-04,1.068991391394140010e-03,1.212698659676977658e-03,4.348792029303751028e-03,5.304709499727747191e-02,9.409143275410985705e-04
1.310992023752175634e-02,4.844820873883877053e-04,6.458678425234468980e-03,2.439657765618193379e-04,1.804488870317256773e-04,5.993858755936506662e-04,1.389075365214816320e-03,2.177413818716397373e-02,6.445134086833677334e-02,2.876870611714944011e-03
1.644499199615138615e-02,1.649682150979058870e-03,7.964493094775766668e-03,5.155483474969310828e-04,6.033286804068194089e-04,5.446307855960737026e-04,3.291446252835328150e-04,3.230388271349943219e-02,7.332626204721551244e-02,6.033477744669573165e-03
1.645700075157578018e-02,1.409623301433400849e-03,1.012287884656925228e-02,8.182517751486580258e-04,8.282528429281877779e-04,1.127138611184323605e-03,3.515626095098612139e-03,4.722446128582244440e-02,7.981063852191985775e-02,7.564654495122257946e-03
1.302801307259496624e-02,3.328092977716914317e-03,1.152793560989512356e-02,5.932000387588019395e-04,6.134291878372051792e-04,6.799618559959863095e-04,7.791491679726352676e-03,7.380708182578574195e-02,8.555437791424221061e-02,7.862711106472406938e-03
9.935811024388226803e-03,1.003984947828226969e-02,1.171262337276507935e-02,6.779131013547108511e-06,5.386397092550820106e-04,3.014999535159790863e-05,1.006274345184586874e-02,1.045044777396411662e-01,9.512814184692372499e-02,8.477115302358272445e-03
1.064805439259038089e-02,1.170370299085421451e-02,1.198974728807242207e-02,3.975008474232983756e-04,6.575836091956111613e-04,3.900095882266558871e-04,9.451362643439086345e-03,1.209485554120106054e-01,1.112002063533564095e-01,9.947506622784246105e-03
1.345812187022720104e-02,6.422357078148293458e-03,1.339879249445587693e-02,2.350927570868440136e-04,6.859904764685006507e-04,9.396591004407475398e-04,7.563403169228322988e-03,1.125967763862066873e-01,1.323941045340634726e-01,1.058582682987286444e-02
1.395288528180300101e-02,6.200447358206153097e-05,1.494552740650745455e-02,1.566823817976718651e-03,6.244568164500958031e-04,1.359483801902312654e-03,6.881325023026550053e-03,8.175698873408707157e-02,1.542163030160119686e-01,8.690977416777703399e-03
1.095132759094036463e-02,2.175015472926396590e-03,1.507122874987380096e-02,1.820241929667140799e-03,6.788360559870373163e-04,9.898875098663887512e-04,7.335192300751248486e-03,3.621778141177241228e-02,1.678192306758517771e-01,4.996610733991171949e-03
7.546998658791837997e-03,1.483471118482565434e-03,1.434276844542601778e-02,4.482717076457894915e-04,7.896680830694609125e-04,2.345101273064694055e-04,6.049419763383127001e-03,8.891306986521374869e-03,1.617205591245790552e-01,1.479218291994104052e-03
7.325625867071014485e-03,1.520394424155584135e-03,1.480859264369701472e-02,5.417170060837476998e-04,6.600708143031053200e-04,4.948063893906462111e-05,1.442712024834145448e-03,3.300157750796876149e-02,1.317376842592552499e-01,1.228043239112575286e-03
1.127787118569304088e-02,3.274683178434810351e-03,1.656257850700318390e-02,5.235780805603035661e-04,2.023434182631694172e-04,3.633392153471985274e-04,4.196988744876823871e-03,3.062843799102063849e-02,8.895212542919142540e-02,3.613842171105295219e-03
1.727884356746980932e-02,4.918475025116719745e-03,1.729675921040276301e-02,2.291870113146372151e-03,4.023538424982057906e-04,3.520896005983625843e-04,6.822151058194361045e-03,2.188705442714873259e-02,5.263307215781919818e-02,5.506264566301067968e-03
2.112977256107116675e-02,3.469662739625023647e-03,1.598129170925523951e-02,2.319986891459365538e-03,9.223232633807864310e-04,2.033888829362121107e-04,4.188489794340255132e-03,3.128962038047949229e-02,3.236921211115743185e-02,6.473856619485346756e-03
1.921824352027276181e-02,3.182031889516250250e-03,1.501880909903559672e-02,6.944158442687822569e-04,1.068211629864516130e-03,8.611299323906848168e-04,1.787899954429363796e-03,6.232667206622485162e-02,1.988053223275907527e-02,7.249584070660643892e-03
1.150287243491207242e-02,1.294752657164298555e-02,1.774450254938315583e-02,2.123960901853328385e-04,8.194273214785083781e-04,1.258795347154289743e-03,5.481737661084287554e-03,9.693664048842899617e-02,4.440569981432747684e-03,8.759553796618330113e-03
1.262071396931197572e-03,1.941135823542648742e-02,2.446700021646579931e-02,7.196106961082301707e-04,7.712278204060297668e-04,1.070967212078835756e-03,2.689294275179590112e-03,1.118283196578385569e-01,7.096288123464135691e-03,1.030316745484977092e-02
8.227736641263383791e-03,1.771805583513962404e-02,3.145645826309867443e-02,2.060190664794883577e-03,1.156638672669784654e-03,3.682678266183576151e-05,4.145483214265419797e-03,9.312073983566540591e-02,7.835366551856848272e-04,1.028595886543803677e-02
1.544351985842660514e-02,9.503066607304079538e-03,3.404133994932617008e-02,2.288072974832096058e-03,1.070286720538128882e-03,1.172171534790612032e-03,8.484741537894078742e-03,4.499843969951497491e-02,1.483059052099959876e-02,8.404611084271722612e-03
1.957073927794299520e-02,7.376344002813478139e-04,3.085569404662921039e-02,1.602335170289944342e-03,1.201439736889868787e-05,1.222487650442112030e-03,7.137518251939306904e-03,9.269800052297542947e-03,1.411789444380137995e-02,6.424358634566714084e-03
2.008265723579612944e-02,4.018810760068264668e-03,2.488200603150492185e-02,8.374693642350859680e-04,1.019188226726680047e-03,2.967780865538597386e-05,2.438996327688652821e-03,4.162792296434337375e-02,5.923859669587633672e-03,6.639948415883242458e-03
1.786643226208044916e-02,4.892182758442482557e-03,2.022510080931743184e-02,3.872026692525245032e-04,9.237930635090180415e-04,1.157077910552563099e-03,2.167931232077532216e-03,4.261123888738711785e-02,1.855590475228235253e-02,8.895077798947537834e-03
1.535915320485490253e-02,5.242372879130876087e-03,1.830778045798953091e-02,5.374208755695881199e-04,2.352667448074166764e-04,1.062875092946600304e-03,5.987197611297692679e-03,2.633890286516314683e-02,5.644371557271182782e-03,9.996758522370174579e-03
1.489061873467015587e-02,7.031658138732050679e-03,1.786618292521146428e-02,1.374118874729314934e-03,2.890142448934160738e-04,1.472306689923656665e-04,1.008112296477406931e-02,1.053399532043338901e-02,2.387429330532177610e-02,8.090238831254776414e-03
1.692587548030702327e-02,8.018824935259341244e-03,1.786299401558099492e-02,2.290876995937659883e-03,8.263515466402961964e-04,5.866431371794682791e-04,1.375564326879958471e-02,3.542638330454800540e-03,5.632037079612252362e-02,5.880526070532220324e-03
1.987433094781022869e-02,4.811240731306501081e-03,1.838034975983425176e-02,2.468761094681002927e-03,1.273780437654529335e-03,6.575036485545817126e-04,1.390935697052039441e-02,8.791352700071287940e-03,8.486976536974001617e-02,6.471275806002285171e-03
2.196046975346221952e-02,2.049062739681593252e-03,1.895759574621130525e-02,1.772049047141497670e-03,7.937833640381703219e-04,2.461422082738680167e-04,9.025254472760388044e-03,1.912129230451971307e-02,9.595978707436755850e-02,8.376640127423694293e-03
2.330360290354898181e-02,8.252323282203852944e-03,1.856017790414754912e-02,9.474234029482418024e-04,2.355863334958135154e-04,1.743793444503531468e-04,2.206784660426834143e-03,8.162578358863473854e-03,7.355617088399192538e-02,8.194743316628621752e-03
2.504955612150848096e-02,1.002411008909922380e-02,1.742584051637900699e-02,7.746678795905882330e-04,1.588639880912819178e-04,2.492943711421094521e-04,1.777423098668966858e-03,4.463355448811727466e-02,2.576163627843431128e-02,5.901998138600227095e-03
2.623781152441610753e-02,6.185388425942671756e-03,1.702792645344727851e-02,9.446073570686412332e-04,1.008985635490675927e-03,6.675712275439902373e-05,9.803536900609382924e-04,1.188761797363613593e-01,1.339125008637454851e-02,4.228773967714593261e-03
2.377673001459210123e-02,1.609293903955916769e-03,1.790135437314652189e-02,6.696718227026385913e-04,1.273793710011949685e-03,6.440096293870461357e-04,3.761515200468143385e-03,1.682797442432414359e-01,1.857231890910928870e-02,4.240094583042239296e-03
1.714222552732938554e-02,8.335500628997355096e-03,1.879080354049326301e-02,3.637521926974781553e-04,3.358946600672543602e-05,1.150476365048829159e-03,1.002768377503564928e-02,1.722439387450513393e-01,8.575990024553021424e-04,3.806362098936517599e-03
1.036687711346422243e-02,8.934790942832063904e-03,1.840490919944360801e-02,8.848369238411070859e-04,1.052894652819138556e-03,9.973980395653612215e-04,1.269520687845280930e-02,1.484620333026587802e-01,1.630613440852235821e-02,4.548709728724198995e-04
6.225231128690859525e-03,4.589063683533020979e-03,1.708921549417861258e-02,1.435581259613855597e-03,1.003011227625139707e-03,3.336097797355805838e-05,6.784808826028261228e-03,1.149965185427789943e-01,1.460699452448701793e-02,4.880788419215426749e-03
2.114082633389504674e-03,1.843644898501557629e-03,1.601485042463092132e-02,6.909530295324559177e-04,7.145415129011320086e-04,1.209816438289900743e-03,5.039541587504203085e-03,7.423560223083504328e-02,7.236418251593799283e-03,7.867200968618948478e-03
3.406052133657484510e-03,3.972638730083778713e-03,1.538417263464906745e-02,6.023409659953668505e-04,8.757483962889905330e-04,1.395609593312840176e-03,1.345887006831452369e-02,3.953169188797116956e-02,7.355464805546921628e-03,5.409063196547061157e-03
5.414134070450103350e-03,7.826443780492929603e-03,1.438994980281621018e-02,7.889076509402260249e-04,8.545193462270346541e-04,2.224908294563061493e-04,1.451958813601873094e-02,3.274590216255889030e-02,1.320340548304244771e-02,2.768312673831463920e-04
1.214871428410529888e-03,1.072543444804400364e-02,1.270779355768092943e-02,2.001427371603930528e-04,2.047408929755774559e-04,1.282446413165212783e-03,1.457713275337470422e-02,4.187750036657424124e-02,1.911827408929838920e-02,3.494323379095702880e-03
2.464383006528889954e-03,1.468169253263135882e-02,1.109454826956888553e-02,3.972716399537331113e-04,4.104730651147280203e-04,1.629690907108545224e-03,1.952938436317232240e-02,2.924290298649573350e-02,2.722151893333720624e-02,1.192235162363796492e-03
3.396190198396036898e-04,2.028824478861094779e-02,9.928100887356017257e-03,1.419673443720081496e-03,4.860658173468923593e-04,8.266406495068812348e-04,2.535921334135295482e-02,3.011617315540935681e-03,3.836033732928966627e-02,3.889215149809705559e-03
4.233354351666193498e-03,2.202230767863412597e-02,7.892212379788264218e-03,1.855681945949318092e-03,4.709443713894672441e-04,4.062341836821938587e-04,2.437668515223006052e-02,4.282655489013387738e-03,4.222109820511957268e-02,6.869930207394555309e-03
9.020895597749154556e-04,1.571487342124559816e-02,3.937424408580893209e-03,9.815731510269924687e-04,5.772771018650545410e-04,8.976992008268108681e-04,1.600144501539966721e-02,5.231320839643079090e-02,2.650229079772352739e-02,5.878191830939724638e-03
7.999452357628462212e-03,6.871781822221470146e-03,1.271729025904792397e-04,4.940888950771618604e-04,2.399019067666415016e-04,9.835688998438407021e-04,6.180191265476120931e-03,1.323559496172482808e-01,8.022967719807459069e-03,2.398677483582389077e-03
1.422709874709606609e-02,4.391123678046113428e-03,7.365602709167496818e-04,1.346649031390773771e-03,4.167988285932780457e-04,5.066889941409219119e-05,1.127267764008659120e-04,1.871262254820619531e-01,4.657948634254169273e-02,1.148484250333414117e-03
1.482985090821897084e-02,8.865701536843564531e-03,2.270891203171745520e-04,9.457812506958386848e-04,2.199637193792276769e-04,1.083914475093727871e-03,1.373468808884696505e-03,2.025870240146705747e-01,7.179917012313025149e-02,2.618743178433579743e-03
1.451522887530454740e-02,1.465815202902995620e-02,2.674266513094263487e-03,1.165661482799789208e-04,9.900719803262441471e-04,1.150739831732427304e-03,1.657839061520022510e-03,1.928519850593647944e-01,7.406371642416771650e-02,1.438955619065903149e-03
1.825988974496055295e-02,1.990313927034919120e-02,8.613143434786070182e-03,5.599178079715818376e-04,1.733745028250374990e-03,7.775011207648578528e-04,5.653594349431415728e-03,1.746717845402524505e-01,5.535403330957629209e-02,6.793394053151058549e-05
2.575616486167788682e-02,2.555499476077374710e-02,1.472330715194289548e-02,8.348469660514566671e-05,1.221933548216454354e-03,7.422204322175869487e-04,6.327951551010378012e-03,1.579133517629129346e-01,2.824508512533034643e-02,9.032506650083582493e-04
3.279862559531123573e-02,2.858989341961220426e-02,1.962568730662897151e-02,2.461025090467079533e-05,4.159975374967001243e-04,9.284415333975395805e-04,3.212862225133090045e-03,1.413774345370341912e-01,1.015043219726751225e-02,3.474128345357905406e-03
3.544108210706177486e-02,2.576520857378599219e-02,2.476931484147316953e-02,1.313083731690658845e-03,1.090427706556798191e-04,8.771899065439393156e-04,3.319275024679596911e-04,1.111071292769690300e-01,1.198050153188718638e-02,4.255712015707760650e-03
3.225406931821894752e-02,2.070841531066576133e-02,3.036511957689800104e-02,3.100879797448665657e-03,1.562511615880851894e-04,6.678345255843107361e-04,2.688988894773408807e-03,5.538515051431015801e-02,2.814904266068514113e-02,2.888809447320402936e-03
2.448068768072892212e-02,1.967410178633473630e-02,3.483785342219242187e-02,3.180359608987386785e-03,7.796410833032161843e-04,7.535120112507585899e-04,5.117991811482530164e-03,1.368382970507821261e-02,4.414271456952847950e-02,2.929757242424826588e-03
1.543789354699908432e-02,2.376983226236226154e-02,3.785385174206928188e-02,1.215767337175070609e-03,1.241276235458436093e-03,1.043309564577408121e-03,7.357715992966432951e-03,6.040850227942369532e-02,6.003743215008175427e-02,6.431519970608295250e-03
9.153994185737828262e-03,2.960681591463092122e-02,4.066512782281054422e-02,2.236531079676306124e-04,9.461096508973866528e-04,7.735920232097750603e-04,7.482299526181354979e-03,5.510497832762824982e-02,9.366197007673640607e-02,1.071664261405440646e-02
8.680995168111929269e-03,3.323416792245266482e-02,4.391537019767787625e-02,1.021881874031606947e-03,1.361250765049662503e-04,1.573126388869925459e-04,6.532019330760697497e-03,6.417548280532387600e-03,1.481709422190690406e-01,1.144802241137423023e-02
1.498161262071453538e-02,3.186499234623862281e-02,4.775704418758836001e-02,3.327481521042476714e-03,3.915718547592140467e-04,5.635035575719746226e-04,8.378045995500073631e-03,4.160441808053839952e-02,1.934785970938438515e-01,6.804414818036811849e-03
2.492198449438350408e-02,2.601014256696383697e-02,5.340154042812740587e-02,3.776507996447096404e-03,3.652654116289928070e-04,1.754726787350475254e-04,1.384292140424133247e-02,4.906577400328959726e-02,1.974543783996093593e-01,1.632638555031843026e-03
2.940187049107014644e-02,1.924925229828674395e-02,6.155707166382108630e-02,2.805562514513997973e-03,3.528001954046845225e-04,7.585119683665085240e-04,1.877338763631593646e-02,1.195232804754320886e-02,1.607292491598510398e-01,1.033897465202686210e-02
1.900854920461819003e-02,1.341018051189719722e-02,7.025325127102834133e-02,2.982586329265279716e-03,6.065342196763077879e-04,7.944479532897614658e-05,1.991177286588053166e-02,4.473402596289714761e-02,1.077870456741099464e-01,1.563346512629447752e-02
4.536388801123748642e-03,7.749461954250261297e-03,7.751718708451416084e-02,4.506029996526010085e-03,4.134209227905220646e-04,6.817630427244239857e-04,1.971875272360747514e-02,9.478691793380959740e-02,6.055428115803866695e-02,1.528902836462474671e-02
2.872685067532232406e-02,3.719631523306528038e-03,8.435668849818604709e-02,5.530295744161914558e-03,4.787882927590468335e-04,6.344005207079055292e-05,2.225368687068953952e-02,1.287924854950834586e-01,2.950627135492507602e-02,1.005124356413741871e-02
4.553808761370380098e-02,3.809166827250716827e-03,9.116686896902038983e-02,5.576147475592220168e-03,8.852772765143794966e-04,9.528046353105477885e-04,2.602156300196118918e-02,1.508202761817682425e-01,1.311552030203743703e-02,3.621152736408996160e-03
5.778680015893372657e-02,4.908624394573481847e-03,9.441012401345205696e-02,5.433634758821991040e-03,9.752305491979789765e-05,3.998107860518086676e-04,2.460674547999472384e-02,1.609620381883778706e-01,1.355804111053213884e-04,8.373840731364941932e-05
6.786631549215979553e-02,1.124110146591373802e-04,9.185378129292036398e-02,5.288453520118593411e-03,5.226923728042301431e-04,1.414414115290792010e-03,1.425341735523224379e-02,1.445921927468451218e-01,1.456469241053117390e-02,5.430600951476618251e-04
7.162323738245197913e-02,1.304961913492990767e-02,8.697384132779482913e-02,5.554575045612653375e-03,2.185294049204574557e-04,2.212393621590487414e-03,1.862050857763509386e-03,8.742310207726103344e-02,1.926370834394515105e-02,5.141368341486679538e-03
6.659014294914505916e-02,2.715538425369597511e-02,8.327907173599448376e-02,7.521410181623341441e-03,9.922681172573816818e-04,1.105922555423454910e-03,1.677756280280500931e-02,3.604946435419459534e-03,3.189872776486383718e-03,1.215524583529086454e-02
5.643178185268920427e-02,3.385855587487197199e-02,8.075648086007879145e-02,1.030414587607465793e-02,1.550637798807590550e-04,2.310123329927875086e-04,2.474032490625767758e-02,6.327587276399183891e-02,2.313462639394356021e-02,1.849234442979154347e-02
4.558290684483674166e-02,3.123460543841855355e-02,8.248138862100271029e-02,9.105718536910502661e-03,1.224041822146729099e-03,2.436754840961896488e-04,2.353876839833983492e-02,7.934920908281527241e-02,3.897922254929982178e-02,2.047841239832782004e-02
3.616808073805845292e-02,2.660316738856076738e-02,9.286037027355519002e-02,4.700164851588840625e-04,1.172743514498164304e-03,3.616221353703041332e-04,1.525210465199736479e-02,5.578685752060046077e-02,3.748805714763486091e-02,1.636319842834788041e-02
2.871550583191404341e-02,2.987005168866799579e-02,1.017056482065146761e-01,1.159935351520123385e-02,1.395736652899401767e-04,1.765285550773211987e-04,5.388549669048406376e-03,3.122114258156661118e-02,2.697203391335155701e-02,7.631924897183112524e-03
2.094534675685680997e-02,4.222031557389605699e-02,8.642588942056864121e-02,1.901360959230905673e-02,2.091562291869970185e-04,7.349112236769943371e-04,1.288729183006898224e-03,2.194351203483410964e-02,1.328455534730210372e-02,2.108219286650635672e-03
9.177780802469776358e-03,5.401817962635766662e-02,4.256569763532871281e-02,1.873251073812862502e-02,1.032877405467909652e-04,1.312727794361986857e-03,4.686443911525723163e-03,1.223840876248906591e-02,6.495633725775550558e-03,9.805636927720639412e-03
5.057048468935772777e-03,5.693482141558439680e-02,3.516670222836574666e-03,1.473202150866894170e-02,1.918348031198403186e-04,9.731159728374398198e-04,7.886711474611536946e-03,5.282743962900996251e-03,3.085108394129488368e-02,1.511388699244370012e-02
1.379029803195361281e-02,5.337887414417658710e-02,2.421582123290736202e-02,1.163463370499020696e-02,1.938286382038236118e-04,9.092992350123502068e-06,1.235808412200786743e-02,1.671370634565341740e-02,4.731866190948503387e-02,1.928579828863646178e-02
1.176411057430721240e-02,4.917887972180093326e-02,1.893278012800385379e-02,9.835830221431153195e-03,3.314142042259947667e-04,8.758875326597395563e-04,1.548712584890271811e-02,2.120055393707183378e-02,4.966649596080992962e-02,2.168345127547464599e-02
3.533994785062686238e-03,4.392550538387442888e-02,5.271404095832000689e-03,6.681794762345167477e-03,7.078175418300508136e-05,1.093367633954391623e-03,1.273681245621224173e-02,3.142469123492785954e-02,4.922348176126196961e-02,1.983279513132970434e-02
1.528523050502838404e-03,3.603406117513333062e-02,6.940974999214804576e-03,7.536565367737836337e-04,5.881854081623982692e-04,7.430913762418644639e-04,3.374273761072803419e-03,3.400742447571025728e-02,5.271644833272961378e-02,1.444169388430851901e-02
1.602679401002128287e-03,2.969928274674359103e-02,2.603041661965497036e-02,5.253233867450760909e-03,8.397833521903841488e-04,6.372178056347305121e-05,6.364812571015322773e-03,5.313573284285654300e-03,4.320811124235020284e-02,1.089109755597215609e-02
1.162595507653218022e-02,2.790923106288557137e-02,5.793255381450365671e-02,6.950117425291175120e-03,5.701850848151618009e-04,6.467806963680172976e-04,8.902051088658257186e-03,3.268926982509436086e-02,5.506543639156820380e-03,1.291803123034208911e-02
2.434210318853413657e-02,2.562695082051508894e-02,7.306836904308869340e-02,3.801048229228470420e-03,5.451568555187908836e-04,7.551970190737586179e-04,3.381979780190762924e-03,3.269093958406446565e-02,4.353713721810425347e-02,1.800574568868132039e-02
3.463485639918865988e-02,1.788875363653230632e-02,1.925405826369999338e-02,5.663558646959851103e-04,8.728239291797341331e-04,2.165785024875040653e-04,4.674039484869207776e-03,8.673429016000652053e-03,7.273021618101679908e-02,2.152289157110140808e-02
3.788116557889967956e-02,8.400917276276967383e-03,1.076397653432110413e-01,3.739046658440957349e-03,6.603755065388891132e-04,1.795471528442156171e-05,9.199836031946750231e-03,5.969022111433706923e-02,7.125803684533937865e-02,2.203728887142338694e-02
3.274181595177715065e-02,3.615860408324225814e-03,2.331855115656445987e-01,6.050514836736952187e-03,2.676544053810989512e-04,3.443189763353478338e-04,7.047310629709509569e-03,1.133738863904932004e-01,4.904834753994620489e-02,2.047607774983400963e-02
2.078399496477824002e-02,2.634732568274287742e-03,2.783794212043594340e-01,6.873053077387654072e-03,6.570210102018597936e-04,6.945068485367489027e-05,3.104358404460042051e-04,1.808498391472922462e-01,1.767332030535406773e-02,1.731216686341200892e-02
3.517412172165979532e-03,2.260566458340938431e-03,2.406797559079323356e-01,4.154586768366996807e-03,9.260271338789594889e-05,8.022402103065243281e-04,7.343326889952113586e-03,2.451380266267777774e-01,1.451919279007538033e-02,1.252178073604705288e-02
1.528979208245951488e-02,1.600251054802212525e-02,1.732956385391715981e-01,1.971610434301095029e-03,6.232600019062303201e-04,8.399032558001553886e-04,1.016043624286558367e-02,2.720435272872586685e-01,3.916559864351814441e-02,6.632048813054855843e-03
2.627814861735814495e-02,3.265853249980085748e-02,1.124663135960111138e-01,8.349117546757933717e-03,4.607503095244897299e-05,7.734781346012864663e-06,1.046124979091596005e-02,2.547561225154470477e-01,5.236038317534286168e-02,1.021281489979906009e-03
2.224959612353633390e-02,3.833238935700539196e-02,5.787001323864759267e-02,1.172320593872315173e-02,6.529002793076007973e-04,3.548344212892034989e-04,1.075427669936687702e-02,2.169984700846320502e-01,5.982652286566660788e-02,2.662392362134129511e-03
8.967671807642720039e-03,2.593790973778902290e-02,7.426508508430836562e-03,1.118135465846882386e-02,4.401319354358890456e-05,7.278440619662449940e-05,9.238905730623515195e-03,1.822414811791247535e-01,6.971715893558139143e-02,3.923214545068552314e-03
4.723655024933804368e-04,5.432239010645906196e-03,2.071562814209245568e-02,8.381504298052103522e-03,6.211763574773573708e-04,8.177447587574834613e-05,3.999719190103570576e-03,1.546011087915949156e-01,7.868300182359402872e-02,3.836187889055564428e-03
2.273944554522754936e-03,7.212645625968249624e-03,6.754995696149811157e-03,6.291611895366464903e-03,8.191199069111805824e-05,2.128749732969809289e-04,1.273180620945424911e-03,1.217242811710309014e-01,7.348200293358068957e-02,3.488155370545139439e-03
4.371631750902726238e-03,8.385919775373135848e-03,4.154447922555727646e-02,7.047288752617186097e-03,6.675365434902770208e-04,1.824498789231369629e-04,1.648383490554755464e-03,7.578247670212960585e-02,5.303795062051696457e-02,3.236077287647218942e-03
1.118708558656286885e-02,5.689217338813775532e-03,8.738204117967476869e-02,1.001037738303970151e-02,2.682587827842496434e-04,5.994429539272108209e-04,1.610717013936112038e-03,4.021334995194342926e-02,3.878408803607986260e-02,3.919346237738935076e-03
1.555154181970104695e-02,3.045693061001382256e-03,9.389147919335620596e-02,1.233339732149152726e-02,6.501931916397853941e-04,3.012760942912754238e-04,4.269820838208955929e-03,5.738063737196975878e-02,4.991303052559661196e-02,6.930237793635206714e-03
1.021091637739311893e-02,1.600469302512377975e-03,5.432903525291882946e-02,1.265876273890235819e-02,8.276244401469458030e-04,2.230822932527515799e-04,6.559837437499676897e-03,1.268859599813725314e-01,7.585123705299706698e-02,1.255246359130289362e-02
1.110712091945825980e-03,6.235047070344429572e-03,2.074835204824522494e-03,1.340700888883976198e-02,5.037360491140491616e-04,1.775184277022850640e-04,1.048428433077908985e-02,1.841249562723598077e-01,8.942936224439912429e-02,1.994478473822961298e-02
1.061591249933561444e-02,3.622187039658775632e-03,3.518626683072973577e-02,1.685447419016043724e-02,5.953294904758030031e-04,1.443872388428308197e-04,1.432217298342496059e-02,1.779917954739043684e-01,8.352884213009371950e-02,2.865615883854520651e-02
1.724376604220171846e-02,8.322649361324095316e-03,3.287286644911650846e-02,1.962779357328791469e-02,8.172959385258533882e-04,7.005034980249181783e-05,1.663774852996532244e-02,1.398646572030605162e-01,7.737139352525694569e-02,3.799190943519263619e-02
2.324103086135562504e-02,2.163077084353488139e-02,2.044456720821076143e-02,1.541647581944938575e-02,1.027917751801670171e-04,2.216606644672711515e-04,1.948338946392657450e-02,1.285234180942304849e-01,8.602203998037241672e-02,4.520429823877174930e-02
2.680319685652193112e-02,2.624069621539111899e-02,2.262242387558248760e-02,3.889666129771764905e-03,1.439249601867324509e-03,7.092569570069768257e-05,2.203982408954445124e-02,1.375106507374209419e-01,1.008421215697412471e-01,4.672391916412269031e-02
2.676265513617919617e-02,1.938800526302063287e-02,3.176400539483192897e-02,7.848899219941644217e-03,2.270189569245724924e-03,6.736114375744083060e-04,1.876949332323476008e-02,1.146890837173402400e-01,1.050907974114180937e-01,4.103886584798580039e-02
2.825460393123867958e-02,4.716572305151787992e-03,2.974133784911852513e-02,1.408455394349719843e-02,1.444261611440360435e-03,1.333975560919686614e-03,8.226072307805636086e-03,5.254295571569574108e-02,9.318823023758229795e-02,2.915605037373084074e-02
3.448772335656222904e-02,1.366127217143508869e-02,1.824429255650038620e-02,1.586777313134839565e-02,7.890676723544973940e-05,9.806185017908618413e-04,3.442642065633188652e-03,2.321183846982206693e-03,6.654216810047182407e-02,1.399497160939763493e-02
3.849673375651471718e-02,3.072477334596624907e-02,4.145530706390974929e-03,1.617964074378201722e-02,7.939817551779429928e-04,2.785628872825765068e-04,1.040244933561907011e-02,2.461824627949402849e-02,2.661900911484873025e-02,4.537186902052615239e-04
3.153719823685162404e-02,3.850106930608658551e-02,1.972499845145381236e-02,1.519716874790503873e-02,5.962793781064900343e-04,1.063955944231458756e-03,1.280523458346375341e-02,4.065973893862164651e-02,1.486361610100215246e-02,6.929176133717651967e-03
1.523342232726632162e-02,3.355466677550539983e-02,5.326170925312033455e-02,1.299077663456269481e-02,4.800903375815427634e-04,5.247012080230180038e-04,1.336435068149135347e-02,7.434444615988426708e-02,3.481735753262290428e-02,7.996497493173437832e-03
6.580773908027214231e-04,2.459430114092259201e-02,7.368575136701559225e-02,1.239573663542017229e-02,7.324625308784821470e-04,4.686701963165799869e-04,1.297833172428481362e-02,1.061104263466178810e-01,2.446123938146446339e-02,6.169453385368873187e-03
8.800002043089548767e-03,2.382834710350667171e-02,6.445825913470425161e-02,1.530468524255037925e-02,5.931917921348524693e-04,6.568629576658394521e-04,1.090421630126365941e-02,1.046930736567091846e-01,1.782271713038467015e-03,3.275944223964752811e-03
8.644141407885570089e-03,3.180870784966333825e-02,3.592687171471049823e-02,1.839880257199336469e-02,1.827039933866609234e-04,5.595384068997378299e-05,6.103813284567876675e-03,7.080841584434705016e-02,1.635768338015815282e-02,1.795735313969003483e-03
3.712852527248346971e-03,3.811354154096804892e-02,3.862498089811951512e-03,1.641544466492302415e-02,6.724147654819984023e-04,3.800747935083008898e-04,2.144885964482761472e-03,3.092268971924957283e-02,3.555913635953865393e-02,8.996660494030847555e-03
1.565909848627402385e-03,3.526250724470631620e-02,2.260033653617842322e-02,8.789689292730570522e-03,2.502917553115455466e-04,2.577993317948834681e-04,1.234920015451644940e-02,9.321754177531366148e-03,5.961331446929608868e-02,1.429949793773964764e-02
3.785551300617139969e-03,2.476803511763859059e-02,2.420337894192024081e-02,4.920980422982748582e-04,4.882214844161476028e-04,9.662601730137348847e-05,1.945594574962047907e-02,1.760969310925877482e-02,6.756538773330240943e-02,1.239542490683854734e-02
2.487842725003706901e-03,1.175791038473037071e-02,1.667280399330413332e-02,8.877028942854862242e-03,8.326231102713156250e-04,2.049597508638658760e-04,1.835766831530018586e-02,4.938199988940070867e-02,4.197676496856579675e-02,2.522826042069604459e-03
1.437173697428144564e-04,1.711225374882345031e-03,7.634333513152384565e-02,1.637320920208644448e-02,7.566308755558378988e-04,2.766420114908960289e-04,9.468655857491256253e-03,7.970102167823520101e-02,4.193973887074559787e-03,9.391186209422169862e-03
1.054778633548165024e-03,1.000391870004148365e-04,1.014409686311249364e-01,2.059393757943010078e-02,3.755678678435295063e-04,2.424278078192846925e-04,1.234852839296952942e-03,9.023143906257030666e-02,9.060920608415998223e-03,1.679215296735936044e-02
1.500290759957139362e-03,5.465371808945363938e-03,6.932600635463659344e-02,1.686173047443666889e-02,1.538690883622756400e-04,3.137266622951584514e-04,8.221056998543092853e-03,9.204783280828357506e-02,1.167720395938235886e-03,1.945867487553583353e-02
2.727017955995633767e-03,9.374694577458110231e-03,7.295620812788530980e-03,5.549987721864350562e-03,4.075246303513264034e-04,3.591332932719881613e-04,1.069506974666085096e-02,1.056584654464469003e-01,4.653941672962094885e-03,2.038677938858901237e-02
5.494924269520520474e-03,6.432131634318069210e-03,4.309147364034194433e-02,5.999700190722771082e-03,3.014482918658525088e-04,2.096921745492807748e-04,1.057677372006932820e-02,1.286384522066975344e-01,4.691331282247352547e-02,1.820092796647553371e-02
9.902810167923353779e-03,3.921778972845223546e-03,5.632504580482450285e-02,1.127967748924004442e-02,2.075014997548842491e-04,8.710829816542382223e-05,9.212144182059412920e-03,1.420424843865496223e-01,9.559872309853481576e-02,9.413913011438132875e-03
1.547666045403797534e-02,8.633770146168796497e-03,3.445376390596592564e-02,1.046418227985496455e-02,1.853132003761908113e-04,6.889048848182706842e-04,8.349714387441524444e-03,1.400210746817943941e-01,1.140920542605659976e-01,3.310646263747592331e-03
2.028323119973222260e-02,1.138280873010377031e-02,7.637569393458811841e-03,7.758279407322966892e-03,1.568435064957535846e-04,1.536926620186170522e-03,1.091847119486883365e-02,1.347006458800067974e-01,1.110808709801356375e-01,1.232873092677170233e-02
2.160084934663329334e-02,2.336159987287309177e-03,3.290319176215740233e-03,5.973857629030370278e-03,3.114964878502981096e-04,1.682949199153383228e-03,1.637908741668809773e-02,1.352396446026435939e-01,1.209502571604132576e-01,1.393249127485133784e-02
1.906901897151448352e-02,2.917853703083513744e-02,9.222981479443913277e-03,4.095904995958810253e-03,4.121331733973715135e-04,4.877984052573641868e-04,1.821308604425580721e-02,1.376505607812387177e-01,1.490843213718354709e-01,1.063984554503546662e-02
1.593695508852572065e-02,4.931481292249998566e-02,6.592750276930981271e-03,5.044165539653699579e-05,3.848775357908907615e-05,8.166023722522761357e-04,1.127896793408546781e-02,1.367495898115615449e-01,1.709497296948427336e-01,5.775868295330572472e-03
1.525384175895170939e-02,5.068075234760430203e-02,4.699084331424430161e-02,4.374805665510131218e-03,5.659724771087907159e-04,5.431633434755994607e-04,1.025506131278623419e-03,1.359823421102127894e-01,1.766338288006314428e-01,6.998499762641220614e-04
1.675744944094588462e-02,3.998223485595092663e-02,8.896875573562804118e-02,2.816896809568222079e-03,2.793564859532383969e-04,7.186567506052007415e-04,1.163827661458944132e-02,1.399897214194724959e-01,1.794971827164661693e-01,3.615786832405350985e-03
1.895058103692386781e-02,2.993458519344606439e-02,1.222346463848444920e-01,6.412101256262004584e-03,5.499105288391213913e-04,9.007651767896863917e-04,1.819760366436725535e-02,1.451858976563123182e-01,1.820658249487492886e-01,6.627251869415384973e-03
1.988299053728866464e-02,2.594554483898259961e-02,1.495521936905831184e-01,1.640417848766348441e-02,9.156803870747264257e-04,2.961771831000757985e-04,2.222852255580956907e-02,1.438658197974019559e-01,1.683520328540927258e-01,9.106138322079907615e-03
1.538332666891166836e-02,2.535874333843236850e-02,1.608606666709319899e-01,1.892933057519870579e-02,5.453556011765540393e-04,1.310272807734162021e-03,2.413944578544822625e-02,1.320645956961199186e-01,1.336382738696094696e-01,1.072871719907438591e-02
3.814222845400262307e-03,2.205649786451423580e-02,1.368828414179340258e-01,1.383342681586303968e-02,8.779436022740883558e-05,1.424649956493908220e-03,2.325649460796241907e-02,1.088265463825393992e-01,9.325486556233326951e-02,8.838491198396967660e-03
7.943991093880227450e-03,1.173860184304428497e-02,7.599194460711328203e-02,7.878150237668735817e-03,6.546256800125712511e-04,1.208409299884566097e-03,2.045551080896894358e-02,7.531944159371484204e-02,5.815203936769101217e-02,3.250667843457362600e-03
1.190537149739456270e-02,3.352634080180705561e-03,4.699783544101121709e-03,6.199505510124395970e-03,1.048628944833681796e-03,8.996208792832701730e-04,1.799048414976389676e-02,3.939197098057062307e-02,2.374166213183255547e-02,7.324715155031491206e-04
9.733730016918695077e-03,1.657818659970089828e-02,4.074191742006250117e-02,8.566119660389306251e-03,8.914946480040761246e-04,4.126356788233166316e-04,1.673418338599372973e-02,1.294890571010321595e-02,1.399393732475200970e-02,1.302152764711350446e-03
6.968393498730127318e-03,2.470539566241002072e-02,4.675071182421664667e-02,1.269986038173731048e-02,8.196867549347956381e-05,1.207043214406672982e-04,1.416283382201618396e-02,1.035446861729925894e-03,4.661830958340656278e-02,6.165961074341844497e-03
1.269777136238849774e-03,2.944886127547624230e-02,3.620194855619573299e-02,1.670047092804376881e-02,1.147550674535987832e-03,1.901295879123116972e-04,6.586109836462773759e-03,4.942178523404984480e-04,6.273166988084637186e-02,7.346638278785573573e-03
1.358622499188695890e-02,3.196557074180909896e-02,4.165252263685141620e-02,1.807498926040837506e-02,1.254805418352311023e-03,2.456397249814783581e-04,5.293896411288410639e-03,3.219521671627968012e-03,6.388219851474062627e-02,3.969777489593206109e-03
3.555907666530998962e-02,3.166718849314508616e-02,6.943239681930320206e-02,1.447551037240392760e-02,5.998311610118509845e-04,2.527223606805902500e-04,1.484011624170326719e-02,1.026389420427098464e-02,6.451080735997741233e-02,9.469295277059231212e-04
5.462983498835122936e-02,2.918322053797985788e-02,1.048691540649446946e-01,6.697388303783034617e-03,2.776382644417158397e-04,3.554008046945551498e-04,1.608217165527971865e-02,1.890448766449988327e-02,7.222717083632852753e-02,1.012670313201441364e-03
6.377526720003399985e-02,2.510818001159459065e-02,1.436155795418722347e-01,1.155930990240463521e-03,5.236253916875610766e-04,2.207490519335504337e-04,1.100420477967796982e-02,2.633088348356064923e-02,7.485639059770105019e-02,1.254153991586559212e-03
6.413666629177913747e-02,1.848344134136794409e-02,1.886736649538685862e-01,5.424045678388789322e-03,5.627221750422856626e-04,8.833583857736049228e-05,7.431650383259408299e-03,3.222595452443004216e-02,5.865237521907758905e-02,1.405870938367853075e-03
6.046968581063661557e-02,1.026533773986940991e-02,2.192337434518170092e-01,6.061666305690724746e-03,1.856959723828149910e-05,2.645593913112023938e-04,9.749346241095049187e-03,4.003402389262986083e-02,3.430811413784430608e-02,5.369166051212926130e-03
5.631271922916826489e-02,3.019350689105575192e-03,2.024718722065975973e-01,5.533676144618324654e-03,7.986039753219446782e-04,1.251917309054891448e-03,1.464602651963863196e-02,5.133179035316381283e-02,2.887864810462904136e-02,7.238001519800962673e-03
5.228448675725925338e-02,4.886853831709436595e-03,1.459897154609225978e-01,4.888688471833581295e-03,1.171104540806707861e-03,1.461317298575625766e-03,1.646904814552139704e-02,6.061977871581009092e-02,5.378310982305199717e-02,6.233181866275663147e-03
4.465855551082409391e-02,1.646465011233390688e-02,9.837931437449305705e-02,2.638944222972592485e-03,8.028088337249806705e-04,2.677148098666621819e-04,1.383934865601736501e-02,5.929305368542176630e-02,9.476542770411754135e-02,3.178879952698440009e-03
2.878902997323305041e-02,2.643513058178886127e-02,8.404249403433788901e-02,1.189931706224603945e-03,8.336914913572688755e-05,8.942867263064879302e-04,9.907093375991495379e-03,4.478896615163441980e-02,1.304454156902876694e-01,2.034642888440165321e-03
7.555865783336703813e-03,2.435328210125367945e-02,7.988211861138182213e-02,2.465957633105703671e-03,5.592299259976974204e-04,7.041840175783239475e-04,7.994683485989450764e-03,2.395317455249833943e-02,1.475603355081163137e-01,8.925425149335806593e-03
9.617743992598012243e-03,8.362572349220883522e-03,7.060448466780255838e-02,2.013496408571964491e-03,5.063633415615393366e-05,1.221908539670112483e-04,8.212655446355153488e-03,6.370712522573230077e-03,1.406039481101399313e-01,1.436921894651928613e-02
1.805686732110302339e-02,1.239873962601839748e-02,7.360860985415176860e-02,8.717544843120135153e-03,9.904523374295033482e-04,6.316483950703133312e-04,8.080040936161818343e-03,5.756700079401219985e-03,1.111507563595953291e-01,1.529053547041995566e-02
1.976075346042181421e-02,2.844049335409712734e-02,8.496827541962048702e-02,1.113251782132761158e-02,9.432956596712896262e-04,1.490501649296254762e-03,6.056035320119871994e-03,1.838614376021789967e-02,7.233785670820126745e-02,1.268996090828375563e-02
1.484878060044784662e-02,3.657799766298856087e-02,6.139219676716063667e-02,8.485196370073163491e-03,8.861080639047802651e-06,9.421349103594960821e-04,3.925058715251485142e-03,3.410398298774722919e-02,4.494937616943370240e-02,1.028294896217241822e-02
2.760305810820383714e-03,3.862124969947729192e-02,7.272252214236392398e-03,6.497393259822191285e-03,4.676800085554760921e-04,7.167266186464705266e-04,4.749719196761706223e-03,4.550509811346068606e-02,4.190758196956434478e-02,9.190962628077462004e-03
8.055750961830844548e-03,3.928216791913669015e-02,6.606555390682132545e-02,9.582592947364116862e-03,2.778490694926563827e-05,1.523682472681559853e-03,8.099991951704171161e-03,4.540130700661262897e-02,5.939932062652196476e-02,7.090425351881066846e-03
4.272783827194867774e-03,4.151970492247817474e-02,7.337949894558229436e-02,1.585474399092838896e-02,3.145517187688248858e-04,8.111065716733269725e-04,8.838745793194839953e-03,3.712332439069374046e-02,8.450754028648668759e-02,3.574722750166879799e-03
1.521138849110695822e-02,3.937609321332834200e-02,5.423946032730915523e-02,2.073149669177959398e-02,2.004102545664318590e-04,1.436587004449501009e-04,2.782455822088654614e-03,2.923121110394261146e-02,1.054903321470818806e-01,2.483459084664049570e-03
3.508637422860833716e-02,2.308916431568894603e-02,4.256042083668748477e-02,2.278293766649822430e-02,9.190757130534544898e-04,2.360927503251089045e-04,6.909163654960057827e-03,2.635574446697153128e-02,1.144592055232307864e-01,6.612241145615506237e-03
3.978978178754360301e-02,3.313981410230769625e-03,2.850536078227791648e-02,2.366183338869579794e-02,6.886329846937452740e-04,1.979554090388608450e-04,1.199338563232127571e-02,2.808841311972587809e-02,1.108703449883412379e-01,1.340093577474754313e-02
2.865936477595457804e-02,2.072258999667523499e-02,3.879792332712118236e-03,2.387413776024606415e-02,4.874357200141610702e-04,2.383216752030165150e-04,8.792729483039369784e-03,3.156050807770849342e-02,1.052693067329667637e-01,1.775563679751815047e-02
1.478951432372119582e-02,1.923261993827995314e-02,3.587815086937277270e-02,2.252056797548566622e-02,1.089157940656369089e-03,4.751592044080056132e-04,2.371027425502332097e-03,3.494507776598026333e-02,1.056061955977901229e-01,1.677989963548659480e-02
1.391013491267637826e-02,1.274115486395799995e-02,4.308854135134194963e-02,2.078595895639525140e-02,3.247680819182499254e-05,1.431893514542985531e-03,1.110120088372802596e-03,3.989237664791946830e-02,9.637095357459139755e-02,1.128513623495192367e-02
3.220511218183651214e-02,1.941304034073940143e-02,3.421192012863677467e-02,2.109868652382919027e-02,1.369162003018790019e-03,1.596467366406453424e-03,2.481468056288735086e-03,4.724999186552266556e-02,5.164951403138865610e-02,4.338830847605653317e-03
5.873339260582128435e-02,3.614216345504657479e-02,3.785627024105718552e-02,2.264111904186411409e-02,1.100900326616865207e-03,4.459954857127335710e-04,6.186665532024657882e-03,5.242806726555833408e-02,2.433517038289297052e-02,1.437265713970229362e-03
7.294156452668709711e-02,4.383487757336388541e-02,6.766272641005420529e-02,2.220195124223662761e-02,2.301685140786544244e-04,9.854551643224854045e-04,1.192039191383054315e-02,5.088547971265910963e-02,9.160688551045359507e-02,5.038599556175384769e-03
6.574587663804878912e-02,3.300524568739612169e-02,1.127096337032757606e-01,1.943239960440427266e-02,2.899654626824625398e-04,9.317844467101615456e-04,1.453127076761659420e-02,4.545156064023960635e-02,1.172592544811333071e-01,5.982925163309961089e-03
4.820864683919562355e-02,1.220558115067216752e-02,1.532425315832233736e-01,1.655947776154943069e-02,1.022124064555677767e-03,6.766741698311177491e-04,1.146692332907249014e-02,4.227664420623017394e-02,1.068968028383525948e-01,4.010760816030589822e-03
3.423808920928057137e-02,6.599795922406492647e-03,1.798688130050541123e-01,1.315330448793086866e-02,1.444184610647007618e-03,1.717812593327961183e-03,6.500931905027569971e-03,4.206987656451183222e-02,8.912302597452005648e-02,2.081271388610934220e-05
2.408318269453429278e-02,1.926364828050408998e-02,1.939049733984814505e-01,6.432294105672703086e-03,1.164864347499158456e-04,7.103141107510234538e-04,5.227823715503292397e-03,4.094323321721512338e-02,8.149007383879923461e-02,4.326073160782767900e-03
1.294984187149209737e-02,2.596762947796816406e-02,1.849352058814203170e-01,2.758240364163686963e-03,1.253235803205075263e-03,9.498092491406354490e-04,9.170283473777494226e-03,3.747948509299894870e-02,7.916103614439672087e-02,8.069929076676791643e-03
4.685252183215296226e-03,2.650395218480536969e-02,1.289112225235335696e-01,9.019113994271348023e-03,1.101997165155029369e-03,8.942014645698177951e-04,1.511198197056353928e-02,3.283369370980997182e-02,7.471478521965307928e-02,1.150099477139409146e-02
4.344595001136155980e-03,2.174925161807592794e-02,3.511170824791603334e-02,8.451442696346386785e-03,7.478153861121468481e-05,7.985645251712246298e-04,1.794769631249389097e-02,2.670725380045027575e-02,7.396816635648899296e-02,1.503619081431375668e-02
5.409198920242946559e-03,1.491241755813936705e-02,3.035067202461348007e-02,2.500453498756655037e-03,7.093402760094743176e-04,1.758475601198239424e-03,1.424443925854614046e-02,2.041649769049250912e-02,7.902707418880229595e-02,1.731075261309964614e-02
1.913006721760383312e-03,9.277173083826441985e-03,1.577848012855229479e-02,4.162666870598465477e-03,4.682212081519858431e-05,7.947217053884721031e-04,6.502694751594765427e-03,2.009013234233780060e-02,7.316585096773382813e-02,1.575944836100937746e-02
1.396510402021555394e-02,5.169434317808314916e-03,3.601549021215501301e-02,6.975868351416476300e-03,1.089671923707396769e-03,5.982694199865146558e-04,3.097567213591951706e-03,2.851474522604159623e-02,4.291836311851153496e-02,1.028905830340482580e-02
1.774291771803531911e-02,1.599397578530713585e-03,3.410324659206993847e-02,3.713620512257991609e-03,1.186164566269488517e-03,7.176090496034575380e-04,8.908461146819092805e-03,3.840665397133211090e-02,2.525919043855417295e-03,3.964678929596289828e-03
9.982370194461298585e-03,1.692535379577733354e-02,3.973725974576758357e-02,3.758674299574476380e-03,1.296520552044489339e-04,8.063095888572856945e-05,1.670926416794403166e-02,4.248382935800744387e-02,1.212603074634962044e-02,1.380689852377864086e-03
1.325983282977668404e-04,4.075306890615932459e-02,1.191563462505355331e-01,1.038867709225227767e-02,1.364625713408056541e-03,5.089380200341264964e-04,1.397150355727092876e-02,4.538313701697806180e-02,3.471465537169762111e-02,6.955959655129355552e-03
5.169773781860486847e-03,6.324083897194425485e-02,1.630507157282467812e-01,1.240945924268730544e-02,1.066800961660235077e-03,3.025659327281780332e-04,1.531441224424394138e-03,5.646057359663418651e-02,1.456833570155429136e-01,1.355155541033888425e-02
7.617856432548462432e-03,7.305903711492128805e-02,1.975946423645084105e-01,1.057861665329621823e-02,1.776587188156812658e-05,7.199926384453756692e-05,1.883653181625798492e-02,7.374888758087386198e-02,2.634067975420971708e-01,1.991895681239039609e-02
7.499469265938325975e-03,6.967210008897231632e-02,2.333296032568819844e-01,8.384934451734417371e-03,2.133784424179944810e-04,2.022743300597291223e-04,2.715566100607433656e-02,8.323637530776634152e-02,3.082932497211564593e-01,2.453745022034344372e-02
2.304507023433249174e-03,6.300053706656499886e-02,2.346536956882963598e-01,8.561893162718442127e-03,3.437976831120595554e-04,5.072317478889255089e-04,2.602958194245173773e-02,7.371828586399434280e-02,2.629826017395106574e-01,2.592518539092597898e-02
5.065253468963355592e-03,6.028814404697072776e-02,2.048707153940548531e-01,1.254217308426994366e-02,2.409139517572963900e-04,4.350780811127100112e-04,2.059379154144371296e-02,4.798027180679244330e-02,1.875430002280549513e-01,2.258366703638462272e-02
8.652488897502752518e-03,5.794231217712344367e-02,2.066580775554500149e-01,2.097204963428578317e-02,6.657861356846005163e-04,3.394888415714923300e-04,1.344698426203223829e-02,2.149077371577595708e-02,1.403382488719765453e-01,1.509837727932222123e-02
7.897595578544016823e-03,4.801540250727549114e-02,2.572973930993712188e-01,3.175958033886602805e-02,1.162072431985866888e-03,1.186499275794259322e-03,5.809908608359297746e-03,1.246720557272427456e-02,1.211489396796824325e-01,6.970395296146155231e-03
4.066441443530410815e-03,2.905193593725475046e-02,2.885192617273372728e-01,3.919841331246418786e-02,6.388156699285430212e-04,1.033489995278401210e-03,2.326840844522357586e-03,2.703693439330446396e-02,1.015954202024828001e-01,2.253558685356879445e-03
6.253581569838010355e-03,7.915286241472987983e-03,2.467129703321588596e-01,3.812232304162587598e-02,1.720160613210247429e-04,3.322688615789791248e-05,8.323837004380931978e-03,5.134847285485204943e-02,7.078272778226046835e-02,2.592831983736083781e-03
2.305786854014087867e-02,8.475027127194119381e-03,1.601050682134392833e-01,2.801183188496325985e-02,3.889308695206784459e-04,3.673842268404818416e-04,2.211556878546880323e-02,6.452739606234966785e-02,3.055220097989271369e-02,5.838614342532293111e-03
3.379392087676803130e-02,2.095806576697922113e-02,7.867952745996688313e-02,1.224107663620941158e-02,1.620207681835959140e-04,3.269769460413992257e-04,3.395999096414666074e-02,5.793914314156502904e-02,2.448216365299664410e-02,8.079535259000330399e-03
2.577418537009594154e-02,3.408244033325253525e-02,1.470585689315365846e-02,3.767556640944324121e-03,1.109016795415616532e-04,8.328266271178655020e-04,3.476058478072706348e-02,3.579633678253080903e-02,9.272627053822896093e-02,8.156895496877106244e-03
5.745820765084939420e-03,4.506007713338273241e-02,2.650305889335701631e-02,1.354548529133058239e-02,2.013576788766912077e-04,3.669511386896513608e-04,2.474792289901215150e-02,5.967254895498527723e-03,1.429220988335487830e-01,8.325139016491994032e-03
5.858944488770616472e-03,4.533967073739694070e-02,1.733707838097223175e-02,1.340294233279677033e-02,1.786024779567393266e-04,1.461991342301441311e-04,1.235680789041586521e-02,2.023846277935288304e-02,1.376127195412712445e-01,9.815734947940614463e-03
1.578443319927205074e-05,3.529840652225849085e-02,4.705747567005154341e-02,6.397410387139982474e-03,2.469179279456046685e-04,3.421906391827441292e-05,5.747158183959287514e-03,2.993138989707902139e-02,8.420750490942596755e-02,1.106833176379197828e-02
1.287712499234364323e-02,2.603057397003026574e-02,1.153410703027963058e-01,1.205358809004342373e-03,3.801482309330949869e-04,1.300572212822874885e-04,6.707477134135988658e-03,2.098727343884404517e-02,3.277642151355500411e-02,1.054210067752943403e-02
1.839134479410192008e-02,2.312301731656350376e-02,1.340768497677969351e-01,7.242203571805597671e-03,1.454636606518005181e-04,6.009669815482318047e-05,1.107760795935615848e-02,5.291272008531999402e-03,1.279183933581579460e-02,7.888780531279376146e-03
1.173497984608888774e-02,2.090158670167367033e-02,1.084545289683086638e-01,1.327614252809747666e-02,3.921492692507991761e-04,1.235953859869458815e-04,1.297088280797899749e-02,5.819464658867595785e-03,5.451358869489527151e-03,3.289526417317810165e-03
3.614890479450795849e-03,1.471302235774967632e-02,7.546538263596869189e-02,1.880694438677739042e-02,7.753053299291328467e-04,1.860513375812909492e-04,9.363808670912758883e-03,1.192515379726822450e-02,7.891557727854575655e-03,1.804530174451425897e-03
2.091712983102542514e-02,6.186718816602354218e-03,4.257163885428152938e-02,2.165548443769581971e-02,8.324850713969492210e-04,1.274423485827233592e-04,1.943350608005904243e-03,1.636229100247525714e-02,8.099948147496248765e-03,5.575133225603755641e-03
3.284267691823277574e-02,3.287535553500350871e-03,8.812986217201815645e-03,2.218827917735950034e-02,4.741590676443313101e-04,5.008051027516367349e-04,5.396796045875357911e-03,1.621717798161977087e-02,2.810270894981227799e-02,8.484952602204852423e-03
3.467150465373575186e-02,1.239801517734673980e-02,7.377329469910945403e-02,2.197805100678366930e-02,2.539415922408119882e-04,4.563576742413358940e-04,1.031874853165319975e-02,4.961741746041714932e-03,8.516925084737091145e-02,1.125004462753752960e-02
2.706337110776146568e-02,1.632664739668340109e-02,1.178118167696720064e-01,2.081335645980032442e-02,6.749549952156855400e-04,2.179390421529296944e-04,1.308995645668404630e-02,1.614133857369898575e-02,1.253322445365149251e-01,1.109483270696522833e-02
1.518394271538124618e-02,1.299167926460129997e-02,1.221511010796038632e-01,1.833682219840857691e-02,2.294130504547276970e-04,3.195595672142636980e-04,1.517570983755971679e-02,3.389249028008072678e-02,1.357766608605297798e-01,5.691744553119466345e-03
5.321639605615962297e-03,6.750161230157254548e-03,1.049378951610484001e-01,1.497319341874676912e-02,5.185192331086304349e-04,6.456929170925349536e-04,1.729546817909684286e-02,3.522311575647311954e-02,1.371290920343053998e-01,8.305594630417375765e-04
1.344771764942300938e-03,8.465860196831271733e-04,8.860990157737318185e-02,9.987709439777081935e-03,7.219426494213473672e-04,4.447319447433675430e-04,1.838066341323957645e-02,2.286042808621420105e-02,1.447772633722156921e-01,2.182456943958188244e-03
2.202868173481957285e-03,1.351112331615973022e-02,7.102727508802768319e-02,3.380609749206899342e-03,4.990974528551594003e-04,4.155114604166613122e-04,1.702884677105264213e-02,1.327240611227215039e-02,1.412245596333691344e-01,1.475493233836255511e-03
3.139924215772368389e-03,2.721523686199446221e-02,4.460256358219242406e-02,7.428644310958226488e-04,4.350810179238146988e-04,8.718096848445981055e-04,1.423168223040163424e-02,1.749211440972294265e-02,1.019776383619245413e-01,4.792512277932947998e-03
1.055060169118462532e-03,2.821957834981247276e-02,2.194140873871371772e-02,1.629533974494204148e-03,5.380524527671988596e-04,2.085909931980749784e-04,1.307954967907428052e-02,2.879897028533136630e-02,3.935442206020191985e-02,5.045734237461841493e-03
2.162404065209500709e-03,1.223765396388897149e-02,1.832209693004840934e-02,7.920382295764222258e-03,4.820498222064708411e-04,5.837697441944784352e-04,1.468655821038594884e-02,3.195679710098604104e-02,1.741332457170782951e-03,3.711953998580897699e-03
2.351344597988060982e-03,6.237826166658783263e-03,2.497196193733031838e-02,1.195231472625563583e-02,3.884584378348214582e-04,1.939554487443814117e-04,1.578628540367013958e-02,2.157707686419581619e-02,6.561016812513698060e-03,2.084899328831684839e-03
2.823672334725390361e-03,1.108788642985162817e-02,2.293565643732230902e-02,1.157899581674747859e-02,5.786032626603468312e-04,9.439559277424159961e-04,1.250398417118539322e-02,8.126309893164752191e-03,4.697390471507808390e-02,9.580313557518084673e-05
1.199128402777929411e-02,1.740894297264716090e-03,8.344342576226661257e-03,8.818040792128192112e-03,6.884742156208307692e-04,1.167007192250453258e-03,5.862987645705670416e-03,5.955264647916689094e-03,8.114254979021651160e-02,2.710540241127663407e-03
1.963281311815401331e-02,1.136253757399631643e-02,1.148208122762089597e-02,4.998033136981272495e-03,8.666917545522198596e-05,1.076839321624819477e-04,4.736216133418239146e-04,1.783531364219000104e-02,8.925020121194410239e-02,5.510633689032950512e-03
1.989657305373223120e-02,1.957744400168779861e-02,2.654844929584692856e-02,1.103515092774617424e-04,1.576322314322389957e-03,1.498456817940601975e-03,2.076361700216070982e-03,3.318124285864009620e-02,8.251746924056446719e-02,9.055053309644981938e-03
1.393572281417869430e-02,2.041160569935154823e-02,1.753400173752393126e-02,6.499963249787314191e-03,2.371635305155001504e-03,1.417705888345670035e-03,4.536791476697102886e-03,4.062785405399906707e-02,8.335197158872766077e-02,1.267356590869588365e-02
9.680462683244940580e-03,1.689808545678912408e-02,3.538273558960085274e-02,1.423477947502540218e-02,1.594594234356661640e-03,1.341748972012943579e-04,8.262150893869753612e-03,4.067855930037466566e-02,1.008973868202031748e-01,1.382228484402789163e-02
1.154882219277672192e-02,1.556245739941566203e-02,1.212251881937242426e-01,2.353295163824016892e-02,1.271469636833012546e-04,7.989363714638354763e-04,1.048938586592263085e-02,4.521858687069030963e-02,1.275037486753343441e-01,1.202559278289065149e-02
1.444282841374165856e-02,1.875519658662960776e-02,1.906135499218657159e-01,3.224300648547360343e-02,6.376737682016307305e-04,7.448568305473474887e-04,8.798061413291324157e-03,6.248236529417507124e-02,1.472356039659631632e-01,1.040555753220815879e-02
9.859191885925098695e-03,2.060688334524479401e-02,1.964111177445912459e-01,3.549511058067725960e-02,5.240867177455108081e-04,4.145674532291676465e-04,4.541362743316006145e-03,8.265651186868601397e-02,1.424766692862987072e-01,1.096466697009715156e-02
4.712200405893144338e-03,1.790227062623152288e-02,1.396622594439548004e-01,3.084512640190358382e-02,2.990606271700125651e-04,4.203838089683043758e-04,2.094754882093570383e-04,8.552107133034160535e-02,1.064034201993769302e-01,1.141203471739384023e-02
2.224963057659011881e-02,1.740455583028199457e-02,6.642143814684800529e-02,2.250144426795734273e-02,3.432865872039837264e-04,5.737387876031243899e-04,5.570150750153562806e-03,6.543510746235371711e-02,5.147608693096033389e-02,8.597271102108982807e-03
3.069276085412670635e-02,2.179154849914079900e-02,2.442615653558784933e-02,1.776911764047330033e-02,4.184141516833422467e-04,5.341090965817589260e-04,1.120222493315109306e-02,3.894059160356592997e-02,4.109854675218782387e-03,2.848333636458867581e-03
2.332859417056979898e-02,1.966743485794224949e-02,3.372847008317705897e-02,1.991623234213623847e-02,3.667745772526541468e-04,3.838479131377250876e-04,1.473564590228161782e-02,2.263804904241662613e-02,4.804138004462252254e-02,2.716521654914999355e-03
5.493060976834491897e-03,3.044393356433499741e-03,8.629896430720873646e-02,2.620180964742587285e-02,3.327393878103915206e-04,4.293752097003777912e-04,1.558390253080854486e-02,1.567743253818051213e-02,6.791789664083676403e-02,6.671276343036292369e-03
1.157116768003755777e-02,1.612632743484044770e-02,1.466260938288524440e-01,3.182372169595013012e-02,3.731112096837819743e-04,6.415212809128169194e-04,1.609653223011128786e-02,1.055583774386115170e-02,5.662277076627526828e-02,1.164542508235256318e-02
2.213464446123666191e-02,1.986326203112771457e-02,1.635765260593572135e-01,3.423589617375318722e-02,3.353441936967949382e-04,5.237496832835352237e-04,1.701583726893834969e-02,7.592487063088885872e-03,2.509807757781408466e-02,2.005090844839768627e-02
2.776523764004263511e-02,6.525353200894266729e-03,1.208432782307437975e-01,3.434497306939655881e-02,2.268002335013049990e-04,1.776480247603394534e-04,1.657223599871588890e-02,9.966992276690051986e-03,7.968716399935162065e-03,2.766752571374647002e-02
3.050511625803160876e-02,1.009302068353147390e-02,6.667896149282231955e-02,3.425409279584774175e-02,3.058970548411303505e-04,8.730690360407501087e-04,1.447736000678468728e-02,1.417493302889957091e-02,2.654097909695810054e-02,2.570690258236577735e-02
2.972010313732416364e-02,1.769291439901331253e-02,5.066001157410322808e-02,3.354277587176264508e-02,5.100763022842196145e-04,8.694254773642151645e-04,1.127686220115710174e-02,1.273170962512711751e-02,1.120028633231367685e-02,1.151014557272548276e-02
2.513400515736497962e-02,1.445992910115829859e-02,4.677612390335941089e-02,2.879307374801261601e-02,2.753244068504937469e-04,5.249401231253047638e-04,4.498730681496989313e-03,3.315933121737247094e-03,4.243644289111331985e-02,6.628187691788594085e-03
1.894994829979455842e-02,5.585341998775439701e-03,7.507656891057208626e-03,1.806190268509069372e-02,5.034548744170056758e-04,7.754952829795019875e-04,8.801189861183347785e-03,6.902829476424047865e-03,9.570303854042014335e-02,1.876792177288169258e-02
1.432391531679067138e-02,3.242456254533245506e-03,1.092533918831618406e-01,4.672716186171911590e-03,9.687167124979372771e-04,1.500806174017079104e-03,2.652896294987915071e-02,8.166859264821260678e-03,1.009946515001071826e-01,2.411053880166019389e-02
1.268345581263190594e-02,9.974168330851485367e-03,1.862046924386383251e-01,4.820924206875317093e-03,5.350348844644013365e-04,1.459732496631441527e-03,4.258878603466439289e-02,1.632619694741170926e-03,6.484720387614870130e-02,2.819383520900929641e-02
1.133365304722268666e-02,1.574254908288687249e-02,1.921214077623890348e-01,6.301044032271839283e-03,1.906368964954302417e-04,2.112448697448609017e-04,5.170160511805835940e-02,2.850498647516746739e-04,3.690929739709548213e-02,3.256200371001601729e-02
4.435038726320636102e-03,2.015429343697963324e-02,1.520787054192880017e-01,2.059307476396744340e-03,4.613902231594723996e-04,9.843683795439715604e-04,5.139039357317989193e-02,1.113044501416199719e-02,4.236781498545596353e-02,3.317806609375367755e-02
9.295389215610017075e-03,2.020610119883435585e-02,1.090480540070385002e-01,8.288686000889307695e-04,3.425123522525647937e-04,8.254898962037482543e-04,4.280995070184256263e-02,2.367966111294121656e-02,6.327684152922202765e-02,2.793941473077932863e-02
2.080900272989925220e-02,1.519860608558891782e-02,7.414747279851789663e-02,2.379038117631103628e-03,8.984632327101222022e-05,2.469090753419919942e-04,3.095104355387402403e-02,2.395700139497084630e-02,7.944022375521178625e-02,2.027306925026440762e-02
1.986755788664379754e-02,6.998184885957132485e-03,3.872169073668928208e-02,8.958103327599935273e-03,3.564207909563284617e-04,7.055313888047872123e-04,2.041802091308959552e-02,1.443298157476992014e-02,8.928725400069739693e-02,1.469634498125539125e-02
9.395905220737896246e-03,4.375801898782638935e-03,5.511329765295395339e-03,1.285135993093647344e-02,9.570893821230502677e-04,4.558481088517049563e-05,1.131625428900680762e-02,1.073194665000262726e-02,8.966391238203787195e-02,1.217631692388482581e-02
2.121840895578585087e-03,1.714753973704872397e-02,6.528111146806014897e-02,1.240310927477734394e-02,1.372646924921279042e-03,7.226748056580590109e-04,2.569252961285539184e-03,2.056374774362544622e-02,7.265720924507454437e-02,1.003243599498371101e-02
3.721383865511069915e-03,2.311801950364601732e-02,1.284334715013801254e-01,1.061168649214833636e-02,1.211606996443300973e-03,8.107968520820169446e-04,3.721483479969860120e-03,3.557818004227372016e-02,5.369069782301198746e-02,4.518929163989237642e-03
7.816827439159576910e-03,1.803440382873586906e-02,1.494602249579838338e-01,9.476681206875949351e-03,3.900856807843372997e-04,6.851005099010297212e-04,5.317549172747003741e-03,4.540915742257975452e-02,6.746492390666354588e-02,5.283989167649444027e-03
6.093523609526472692e-03,1.177104629523534861e-02,9.536729581346675699e-02,8.163932033334646288e-03,4.393774079510107187e-04,8.258314045667280610e-04,3.706313739394936912e-03,4.997693765518215758e-02,1.175007064733307321e-01,1.498791401855706709e-02
3.735776547050327894e-03,1.507868601829150459e-02,4.563468383590289085e-03,5.910684116243462155e-03,2.837434227670426572e-04,7.343705845710577157e-04,1.677404191889941398e-03,5.317255244556591542e-02,1.602217562864895473e-01,1.908084460971532642e-02
1.692015225711202692e-02,2.093479750563579864e-02,4.699399353197420554e-02,3.725736675788220847e-03,7.316895633879463151e-04,4.440179701538820081e-05,4.979984873277193413e-04,5.218777056110875112e-02,1.559896349268173332e-01,1.831179234630892980e-02
2.293138954258219786e-02,1.301466692837784100e-02,3.486005574311007438e-02,3.467297302637792691e-03,1.166516817366734446e-03,5.054988086854304190e-04,1.232051407658139299e-03,3.986588531644216782e-02,1.094335573200033579e-01,1.848749173393166023e-02
1.231365701937642970e-02,9.653193091474202361e-03,4.877775956204542622e-03,6.214323029961874890e-03,4.192901349997777468e-04,1.533987920964491249e-04,4.997434990907365093e-03,1.594669241038606730e-02,5.130152294861446693e-02,2.124354600813987970e-02
1.236835782944994792e-02,3.017701920836579274e-02,3.729613868061032456e-02,1.071477859316131639e-02,1.702382686189880747e-04,7.284437171079004639e-04,1.006441588892174714e-02,7.260243061015816957e-03,8.669268384580782957e-03,2.199101793679637817e-02
3.617175921118318677e-02,3.675496877359345216e-02,4.686873659325058866e-02,1.375979125858127830e-02,4.342795169136207741e-04,1.203475034845950201e-03,1.215342554627309168e-02,1.426804120981364429e-02,2.366577672979429045e-03,1.850099715385616905e-02
4.594064577717792835e-02,3.560832432682928261e-02,1.995081686421819669e-02,1.371850314891339545e-02,1.168880863190062142e-03,7.944630292533419631e-04,1.008414462447845827e-02,4.031437163853729758e-03,1.732675869769700894e-02,1.489804295679315535e-02
4.163210767911552923e-02,3.737751383679292078e-02,3.537902693132968096e-02,1.268735921920687362e-02,7.616076570281585245e-04,1.464493031798130352e-04,8.200589508318518669e-03,8.651992124151956787e-03,4.279930947507021299e-02,1.455876017853805285e-02
3.200884503039397311e-02,4.115855433623487325e-02,6.943002275402775092e-02,1.286557597966926821e-02,1.692584968467394078e-04,6.103885224362749166e-04,1.034419238337714458e-02,1.446769621716378386e-02,4.227012617661218136e-02,1.518659285932880826e-02
2.385762976134662289e-02,3.846435002419188592e-02,3.744062575927895736e-02,1.272664456781290136e-02,3.719313179075973150e-04,3.057604566193124700e-05,1.461638132360377172e-02,2.118673757367620786e-02,7.224317373282483114e-03,1.411545745168093537e-02
1.828129950967280828e-02,2.722955237638495160e-02,3.565351079431730574e-02,1.024213005020821812e-02,1.812715398896915669e-05,9.671771918789446448e-04,1.741591571272460559e-02,3.560841554394477554e-02,4.481301501969177370e-02,1.338351106951285278e-02
1.292417579494170403e-02,1.494158144375551736e-02,6.988004184812610098e-02,7.563678134256521593e-03,3.125616487872479564e-05,8.812796718885153140e-04,1.857013528087723270e-02,4.698865337988435142e-02,9.443251208204460345e-02,1.608360700756063591e-02
3.799444463843213750e-03,8.277014445574323170e-03,2.419201203414707291e-02,7.822593177551837029e-03,3.494195623373637502e-04,6.981517844118321104e-05,1.850791762251095818e-02,4.212408230872639880e-02,1.345993460505077177e-01,2.124721910188386020e-02
1.129660790256299327e-02,4.789190471543145269e-03,4.748222975253357098e-02,9.004524877203665470e-03,1.588650946720920833e-04,4.890907745667631267e-04,1.533742070475319942e-02,2.870760295443457871e-02,1.632244427224470995e-01,2.553367616958214167e-02
2.779289692797952058e-02,1.586863927634845663e-03,6.582130946488616574e-02,6.118302479204681954e-03,7.818420094188532161e-04,1.139864271387253526e-05,8.992221215882983260e-03,2.742880595752295730e-02,1.732737680404437541e-01,2.777191584890425710e-02
3.678057099901192728e-02,9.402461641633216155e-03,3.353135983356409638e-02,1.024632962286592570e-03,1.239925555010540142e-03,2.151466072706532950e-04,3.325701916973048192e-03,4.195789532224189489e-02,1.547792717459608725e-01,2.904571602989011736e-02
3.506545153727484709e-02,1.071030635134622919e-02,2.025785314788745850e-02,6.850336406545323720e-03,5.264696039891274878e-04,3.857375040749788436e-04,1.391886945381849792e-03,5.255825582576489907e-02,1.083702094318509945e-01,2.959473506191803716e-02
2.827871692941917592e-02,4.265842713080674961e-03,5.068924954989013215e-02,7.123351278952100990e-03,1.697933597069515134e-04,8.556675475577019303e-04,3.102016093583538029e-03,4.380052622925680039e-02,5.462726866029538053e-02,2.809541793966365344e-02
2.201311561614645307e-02,7.101560192001405911e-05,7.987694824408274330e-02,2.620636312704060968e-03,1.236707369217333386e-04,4.118470103647211417e-04,7.003060277859108305e-03,2.479753824911817145e-02,1.673533946325344440e-02,2.361913103688936463e-02
1.601162052645680595e-02,5.675945711893335896e-03,8.036189097871186682e-02,4.542503522429758127e-03,1.418836151509227778e-04,2.232042257064137229e-04,1.024479159946798182e-02,1.375764508887670004e-02,8.155482831942251556e-03,1.707748115881174353e-02
1.027317268743314221e-02,1.702353041480521648e-02,7.318283246001128228e-02,1.287322261098642479e-02,1.446521855773845759e-03,7.802917027550317801e-05,1.021502237668866185e-02,1.276354223651626936e-02,3.917836105519149903e-02,1.122484551437213929e-02
8.914345450972131768e-03,2.427127941104005246e-02,6.323764025079950390e-02,1.887948002939433823e-02,3.230891158741577233e-03,4.120739450541393255e-04,9.054004412095147114e-03,9.900437908327204897e-03,7.193123189998279488e-02,9.155563446336211289e-03
1.193465137000018078e-02,2.408576027772191264e-02,2.012584956878261597e-02,1.820773000049035958e-02,2.924883906021407288e-03,1.275229572686923502e-04,1.093260504353732454e-02,2.047571839398153182e-03,8.046819099258342711e-02,1.148493953992651972e-02
1.150053304060729559e-02,1.848220891634532598e-02,5.893262996003648807e-02,1.131729053745124565e-02,8.734461604690785079e-04,8.750905702155571978e-04,1.441673413123471803e-02,4.617924851888222104e-04,6.379761810151658719e-02,1.565365065762735347e-02
3.611904024430953770e-03,8.034964440797251473e-03,1.205825964898816077e-01,4.325482762708046311e-03,6.073286239948422031e-04,1.304975867947342138e-03,1.526799408857608571e-02,1.064423569847454398e-02,5.295891521595388896e-02,1.898312723219879039e-02
5.584528883705939216e-03,6.847990603194579334e-03,1.094053234720820944e-01,3.365922113473648804e-03,3.209185876861743079e-04,3.132710910955252776e-04,1.520486437247805904e-02,2.104224447446514240e-02,6.491874636780740893e-02,1.991267260947823456e-02
1.118009556975401234e-02,2.151572977189124269e-02,2.775945526982698600e-02,9.972597969210846708e-03,1.003448238812609762e-03,1.334992915471510354e-03,1.848402024200354599e-02,1.908476532954874599e-02,8.534608749557881513e-02,1.559873228847929831e-02
1.579546029769217028e-02,3.013432626898558328e-02,6.871293319566526558e-02,2.066065641915200424e-02,2.006037776324464793e-03,1.948001443501280608e-03,2.214601337953335525e-02,7.562203603935085949e-03,9.870314603602356462e-02,3.935384044003501468e-03
1.911735720628042132e-02,3.031410441944444242e-02,1.243493360116786628e-01,2.888550537493260809e-02,1.919510578916189866e-03,9.143976141613247227e-04,1.951997346823847873e-02,1.427220815058600784e-03,1.002151772744070829e-01,1.027821054435659742e-02
1.435920496792585099e-02,2.180284456758641368e-02,1.209324879950800929e-01,2.904180550611462630e-02,9.883649020666646773e-04,4.099366825295483550e-04,1.104261277494258432e-02,9.472802917433954979e-04,8.226768114350289929e-02,1.820868127753074231e-02
1.491005291484993368e-03,6.894717627790351681e-03,7.322600201151079069e-02,2.089620981550927015e-02,1.015131440946474438e-04,5.245548333435899819e-04,2.444158043175601643e-03,5.881774739769182747e-03,4.172972460396850991e-02,1.781135573190611651e-02
8.269192489886627653e-03,5.011842433650781810e-03,1.339048069371999786e-02,9.513737974287374277e-03,9.018671014658277002e-04,2.061560669925257671e-04,4.798738243519309193e-03,9.158325119460974245e-03,6.068598910216370726e-03,1.430772261684443332e-02
7.869864635724584806e-03,2.481571772465443297e-03,2.230639411071743544e-02,1.989046564425508892e-04,1.102090667820761595e-03,4.707407841540494015e-04,1.265251614849852504e-02,8.676192414321156482e-04,4.389119239592342153e-02,9.845783327026118303e-03
3.928391811896973958e-03,1.302558691978313379e-02,2.027267702428629803e-02,7.464660029634919217e-03,6.058090434605386751e-04,1.394561120158449108e-04,1.984886271121839504e-02,2.473555591806563675e-02,6.955639179182909748e-02,2.671802733648153978e-03
5.702025132222938650e-03,2.558667182453221167e-02,9.058625471601151197e-03,1.325968376547603800e-02,5.192657385636676717e-05,1.332065426896713299e-04,2.357173383618611784e-02,5.215995330258362678e-02,8.133474296145212779e-02,2.510091624511523109e-03
1.530161050046277040e-02,2.276406550371348758e-02,3.305976310884958802e-02,1.718809457379739253e-02,2.515444177840426340e-04,7.460837983589194795e-04,2.385848799792340130e-02,7.459922442174571344e-02,6.916348201189012612e-02,4.939750023216966240e-03
3.165996128754527961e-02,6.824927853174285290e-03,1.013900285519107880e-01,1.951659116811613540e-02,1.159472016989101438e-04,1.391431494631122784e-03,2.089459767145279701e-02,9.514573689577071613e-02,3.661699613158048844e-02,2.618787742972335936e-02
4.985991598498123317e-02,1.377338633273339150e-02,1.734047151643733076e-01,2.271165609143835709e-02,7.103294047725947232e-05,1.671175454620999704e-03,1.310866173065327288e-02,1.168159942479234242e-01,9.180801011791637697e-03,4.751255851304443667e-02
5.442721366529028326e-02,3.224568154778473250e-02,1.971845760398333869e-01,2.686033295856244535e-02,9.726553480778155438e-05,1.551606519061308987e-03,1.980198088513187519e-03,1.287841793543351709e-01,3.550240601233370895e-03,5.594966700082504296e-02
3.185405583849031802e-02,4.016666459053935129e-02,1.546861390826565208e-01,2.677987526445674976e-02,5.740174806634049554e-05,8.084439710999047519e-04,7.430122835440595118e-03,1.212703388735189014e-01,5.204197837202374083e-03,5.276861720851358517e-02
6.690308253554239082e-03,2.998500538104405949e-02,7.086800598741760382e-02,1.816797973040335315e-02,1.415950878394147804e-04,5.359194920737544001e-04,1.336025147441071391e-02,1.062123612015913737e-01,7.569859854819180681e-03,4.623595662845089715e-02
3.333677633612208702e-02,7.020940370340681552e-03,7.281052279697160928e-03,4.613483538882685690e-03,3.383657545298910719e-04,1.510529934040190933e-03,1.735308289619565125e-02,9.962033672732205358e-02,2.933276347393865002e-02,3.892478496061979598e-02
3.610761560780222090e-02,1.156207265310646784e-02,4.010819212980908793e-02,5.390205110136474936e-03,1.155418855532708332e-04,1.173124827415805141e-03,1.650425467269880236e-02,9.186791364156295103e-02,3.591901728248333286e-02,2.905327057632948323e-02
2.831789648757858380e-02,1.643834044386019086e-02,2.503161760294479732e-02,7.896367791024311647e-03,6.245628052084321044e-04,1.888212513053950188e-04,5.411473522134476258e-03,6.447560756250317326e-02,2.086467262501218861e-02,1.879955849510439939e-02
2.816163984771278411e-02,1.646892608830913263e-02,3.453401115330018145e-03,7.022042236136458518e-03,1.036897066083344908e-03,4.059902598582598092e-05,1.324354970559630737e-02,2.600179028177729279e-02,1.932376812499644360e-03,1.392035499334963802e-02
4.195173465239316474e-02,2.258929667316349199e-02,1.849276114996635870e-02,8.224183899289201627e-03,6.058743643022335146e-04,5.844584557236601370e-04,2.944182919883369526e-02,1.634552813093177043e-03,7.494474377790327768e-03,1.601602246566066756e-02
6.259337369819820140e-02,3.030566809354801397e-02,6.359762275643605911e-02,1.103778596333076026e-02,5.954469519999153865e-05,3.003341778625052429e-04,3.651962550495817944e-02,1.906386161012097943e-02,1.371759875026785057e-02,1.956149637626675847e-02
7.538263713628358398e-02,2.831063996867949975e-02,9.226438409141991814e-02,1.121068659621173025e-02,3.862215808309490527e-04,7.557225218522139066e-04,3.357489359572660842e-02,3.879359041500424904e-02,2.900271658705586009e-02,1.865327413643353555e-02
7.060290558613681322e-02,1.641024007768796672e-02,7.603600443943915599e-02,7.122981993155697890e-03,4.611936013473171979e-04,8.403006571791791189e-04,2.226336797673722501e-02,5.716855273043237873e-02,5.575863047298575820e-02,1.494704136598129854e-02
5.465114394026994449e-02,3.362725529394601509e-03,3.905054830161103913e-02,4.358229965151165074e-04,1.556191017782571160e-04,2.419906498012613883e-04,9.632567031917001893e-03,6.646466894086201782e-02,8.243705709382639912e-02,1.472259792323493514e-02
4.330354324840250679e-02,5.737544685705456629e-03,3.828139070151544143e-02,6.420944823864945493e-03,6.625836924013392892e-04,7.062847154081519380e-04,6.915707160136287147e-03,7.190501890400546880e-02,9.036757707063022838e-02,1.840386057505113276e-02
4.370434419603516640e-02,1.028339159210563993e-02,1.061995570590218152e-01,1.010974789254213101e-02,1.084376583251056353e-03,5.394404850225243667e-05,1.639829732794230444e-02,7.319833720173790637e-02,7.026544123924498286e-02,1.949528247922779553e-02
4.920708987916132954e-02,1.074268011705882889e-02,2.056671460388814487e-01,7.888885264231483910e-03,3.245582051670759471e-04,6.120959408680397285e-04,2.632529574844963763e-02,5.433624557768276103e-02,3.035712929967223153e-02,1.534495781387694782e-02
5.076020659020225728e-02,1.166129883537226491e-02,2.575860779046483251e-01,2.215932674296800138e-03,4.562659697853946989e-04,1.300252446996947003e-04,2.576469219267577340e-02,9.772695988928974814e-03,1.660912391256942622e-02,1.145515090296866934e-02
4.577407565926341904e-02,1.908414037999401486e-02,2.226188012314566644e-01,4.416814973155072719e-04,3.037500492780202872e-04,4.286844656480654934e-04,1.680996456625743693e-02,4.048970673631924894e-02,6.515537220062352086e-02,1.187618987299011303e-02
3.509528970071739556e-02,2.944481140184072171e-02,1.369328160797507743e-01,2.574618065634717151e-03,1.779760880983019631e-03,2.371912327987921924e-04,6.548054531959474935e-03,7.367800871489008085e-02,1.100351962958580898e-01,1.205217481263030910e-02
1.863470518967912798e-02,2.993986949599808378e-02,5.852321793087957719e-02,8.007573050663961342e-03,1.854987135863745600e-03,4.995165523538279385e-05,4.060547299899739879e-03,8.687831825059524893e-02,1.381807032795404344e-01,5.796867641828840761e-03
1.440754670193709376e-03,1.566510226406087752e-02,3.786415540828406805e-04,1.321360321715798515e-02,4.516258145235792134e-04,2.050575438327492857e-04,1.546398160121919239e-02,8.876253127214132899e-02,1.360212277290678839e-01,4.951422298500707253e-03
1.724468094072418439e-02,1.244423181664185574e-03,6.158417460627067103e-02,1.847589768119698578e-02,5.651124512206291044e-04,3.501673320768896648e-04,2.033313792956599128e-02,7.890345031484385929e-02,1.025022358983563170e-01,1.208124688819627035e-02
2.150875964710191948e-02,5.707969849999616069e-03,1.105146734977449641e-01,2.125257159592306225e-02,4.262737119196723730e-04,1.665138484733104873e-04,1.012987424327006607e-02,4.913782248302574901e-02,5.279853122083814909e-02,1.160341940913331427e-02
1.656529079859933584e-02,3.593565643116553888e-03,8.860791912446107366e-02,1.598914947392681557e-02,1.856891416688592647e-04,5.779038288203252509e-04,9.800562021345196953e-03,7.447387310798737198e-03,9.005179044455483006e-03,8.319631670923251926e-03
1.131261014945544527e-02,1.742309268853503221e-02,1.730577352157884607e-02,3.469416166285211201e-03,4.551950977148366915e-04,1.768283447505219076e-04,2.230447800969384206e-02,1.682416075025965074e-02,1.607500554388800740e-02,9.392647143139322072e-03
1.074905870113529970e-02,2.921269954326837989e-02,1.272237024568472208e-01,6.689475109269720290e-03,4.142324956558746346e-04,3.555623604553458236e-04,1.840830442266510811e-02,5.268150385738702354e-03,2.799270794689741326e-02,1.565946726064565767e-02
1.377713053878115712e-02,3.884068485503563289e-02,1.549886591740231856e-01,7.152275854204926016e-03,4.058980686569430008e-04,2.052142460931641614e-04,6.115094674726539135e-03,2.714586741207083986e-02,4.077171403094530244e-02,2.181998233141965032e-02
1.826748341186381491e-02,4.773226741407939760e-02,1.055837927261126241e-01,7.603087983161132060e-04,9.725952840155875590e-04,1.084442517684772081e-04,3.986702674403660475e-03,5.753157188627568835e-02,5.897456637390281753e-02,2.418953340612620823e-02
2.318386639492558271e-02,5.475899783955321537e-02,4.378725485914448240e-02,5.304097174991494190e-03,3.961929248512552218e-04,2.022625323308878485e-04,1.206632037669578758e-02,8.427988526344529219e-02,7.567193891810596040e-02,2.436165686806599298e-02
2.789922541701118225e-02,5.609646613472653309e-02,5.877430855162939921e-03,7.153660039924038087e-03,5.119030010925572187e-04,8.016414932379853581e-04,2.207131464480148464e-02,1.108101802154348725e-01,8.561633371695726025e-02,2.451886193543549933e-02
3.158798498291440215e-02,4.935726028797395720e-02,1.262793945119651887e-02,4.161953842969351794e-03,5.306870450886638779e-04,1.130336671507476158e-03,2.978322880884416712e-02,1.208949638022327744e-01,9.087873555360802269e-02,2.376863104865858251e-02
3.223076282999536024e-02,3.834629353419326953e-02,1.781896278039675485e-02,2.316231333102302444e-03,1.699980603374594561e-04,1.290510122184643617e-03,2.701525404769878486e-02,9.744956997839157586e-02,9.336194338080186506e-02,2.146673709588355072e-02
2.841687991504844926e-02,3.095959615230077164e-02,1.332338564350952527e-02,7.936507034751830517e-03,7.479066276819684722e-04,1.104637401503321802e-03,1.428916957535570492e-02,5.408608276486207705e-02,8.892053049202076898e-02,1.982072649467820843e-02
2.371643663999686152e-02,3.082481294273857822e-02,1.520052088908065840e-02,7.980307637488389186e-03,1.139426837765382264e-03,1.231249158482252565e-04,1.501970227661592961e-03,2.504864472224849203e-02,7.124050747402550787e-02,2.010693876326245799e-02
2.441538853156793865e-02,3.356458607519275522e-02,3.971119104515911935e-02,2.586804542734917178e-03,1.513323383063810285e-03,9.025488300594272043e-04,3.296446260965025382e-03,2.680045737313948434e-02,4.073551098457756786e-02,1.986248639803592231e-02
3.085091951884665062e-02,3.343612748638143811e-02,8.732047866145446757e-02,4.057784096128442056e-03,1.378634471233339785e-03,7.362859566758815687e-04,9.371379134026484349e-04,4.146068257610444063e-02,9.048816003757842452e-03,1.709403933582151480e-02
3.699698448521547556e-02,3.053537608753332036e-02,1.467286744047703317e-01,9.508535025285914238e-03,4.541928941808208767e-04,1.526616519529088215e-04,2.744227771221432761e-03,4.056848091026914876e-02,7.936072566195634392e-03,1.450174519946709206e-02
4.004587606931730298e-02,2.714999315009010428e-02,1.992434885650427867e-01,1.400494171076464150e-02,5.760282990218198052e-04,4.526309105649986000e-04,4.815883429978518905e-03,1.867836985817878173e-02,3.286214102403667986e-03,1.564104404576898213e-02
4.295700214874575984e-02,2.046366141430572619e-02,2.238753902658948691e-01,1.635981805448881096e-02,9.099031886108093631e-04,2.919852908254780429e-04,7.571546381091425956e-03,1.159853469457231001e-02,1.651011154318407156e-02,1.851689863549711365e-02
4.630504984102047639e-02,5.123320467233934486e-03,2.172730538541352840e-01,1.374063336175490591e-02,4.185403676669220956e-04,3.365672433109510495e-04,1.218111045130548450e-02,5.539526492075780295e-02,3.998141527409949936e-02,1.770299443217282498e-02
4.601076175351340170e-02,1.961323294039037102e-02,1.992262906564021274e-01,5.998789741450741113e-03,4.030706421777588335e-04,1.688525980872950915e-04,1.295609616018380573e-02,1.310783809720386939e-01,5.973021912709852027e-02,1.252785157015374670e-02
4.087131249553482837e-02,4.923201712921491946e-02,1.832212320908871706e-01,2.863350340142809067e-03,7.431511125236371640e-04,4.609717957835430808e-04,3.810814612524875480e-03,2.193867405108641533e-01,7.211476076485268116e-02,7.934878248187863733e-03
3.404724021187652272e-02,7.629241201581334064e-02,1.579861125387321263e-01,7.698852001579861194e-03,2.377371607301982930e-04,7.854668027528691329e-04,1.064251285393175324e-02,2.617480968374322203e-01,7.359646375277872909e-02,6.344231710000714126e-03
2.558094068591378403e-02,9.234125458324335400e-02,1.097202757274935159e-01,6.112772468659033280e-03,4.933777368855912044e-04,5.670301003545216191e-04,1.854295837800160399e-02,2.308629203045594047e-01,6.380247174594774751e-02,4.032047254153125170e-03
1.267967392888431216e-02,9.340491481646656657e-02,4.145550679546589068e-02,9.236434477264707319e-04,7.082629617191653262e-04,4.753080212079755038e-04,1.559857396339991986e-02,1.650332511833556837e-01,4.868416662824555374e-02,2.212012254058521362e-03
8.502316632122714629e-04,8.398128686636160967e-02,3.504180657028554968e-02,1.858584280163877705e-03,5.230177081250574761e-04,6.912790845122733117e-04,8.578166595902134844e-03,1.171011039106384655e-01,3.179523177711737064e-02,9.483119887519637567e-03
5.821327108472567138e-03,7.156723192174951897e-02,1.020885545926063925e-01,2.717532375064966865e-04,4.405086585566059406e-04,6.614938298727421166e-04,4.579624580364104885e-03,1.011625960719324535e-01,7.614362490640292670e-03,1.291230412444883090e-02
5.527489199674559886e-04,5.912321558016710166e-02,1.325337349861900604e-01,3.016672326269529813e-03,5.316576485818056081e-04,3.601761359989054715e-05,4.450206814221502674e-03,9.589957290561228198e-02,2.401862859884931409e-02,1.206632846140390930e-02
6.644969325209467564e-03,4.599978690339787818e-02,1.111905145421836355e-01,1.001051363053089092e-03,5.828461463606853269e-04,7.670165811322482560e-04,6.032651382440190613e-03,7.802825032394479499e-02,4.476087457490800225e-02,1.015203260520562527e-02
8.488071244268643317e-03,3.213536672497364910e-02,5.814661730094375369e-02,4.473892267153816577e-03,5.536037556151062432e-04,9.140264403822942908e-04,7.637242419209002396e-03,5.160702558944548629e-02,3.604420271267370218e-02,9.091522100584722293e-03
5.131733502825698914e-03,1.766375811199284371e-02,9.923380732225069514e-03,5.947072025203437723e-03,5.403016251452576928e-04,3.459105906849735358e-04,7.999876758836605914e-03,4.740310833125993550e-02,5.069045002997566059e-03,8.071443679196614943e-03
1.327889046879554991e-03,3.485977156823224891e-03,1.637693374824349471e-02,1.341860625077253687e-03,5.639732705538266864e-04,9.821235775977029585e-06,5.765765754838548390e-03,8.213812169961738630e-02,2.252286962800520431e-02,6.189958517717844902e-03
2.071123489183837336e-03,5.271374483989526086e-03,2.367845102121148015e-02,1.296920763135619992e-02,5.841237842935288619e-04,2.199637022635490922e-04,1.102008060652743919e-04,1.266947921382141073e-01,3.263130094083078331e-02,4.585863647189197118e-03
8.737944695085103283e-03,4.059696711395578521e-03,1.138865895356877198e-02,1.996515139275254272e-02,5.888759528634794063e-04,1.999461088231105430e-04,9.146011628728226497e-03,1.347366423239375055e-01,3.279240403142121701e-02,4.819392753310252318e-03
1.775413346096044523e-02,2.167244585934806345e-03,2.514402305597691206e-02,1.846096715575629849e-02,5.877922789555666125e-04,1.080913686540100618e-04,1.865422357191218183e-02,9.639827106475289120e-02,3.330495262487278424e-02,5.923865778545529641e-03
2.408802597212652760e-02,5.095593189207560034e-03,7.307456706590935436e-02,1.145785491793642474e-02,5.895612903188990773e-04,1.994249769692699355e-04,2.547462930087913621e-02,4.743756859329032599e-02,3.200261124437858706e-02,5.492041653753255981e-03
2.400545113140175116e-02,5.877908548004462386e-03,1.018541749274165242e-01,3.138603299542283565e-03,6.096154001615705295e-04,1.013613268213348247e-03,2.812670503838682681e-02,2.794249025143685089e-02,2.263108587229899216e-02,3.386474838039821560e-03
1.564595241191139505e-02,9.990269984587145727e-03,9.336094956228192798e-02,3.694002125465467058e-03,6.381109652503031901e-04,1.127520777595699764e-03,2.566449042768646424e-02,4.277214661576490828e-02,5.568651989268445790e-03,1.238669122326750910e-03
2.813924495714877766e-03,1.438259639472968220e-02,5.985074845987718717e-02,6.208811363538448320e-03,6.250552833183775593e-04,3.157848496706067111e-04,1.589540242475156323e-02,6.466822008402843547e-02,1.643572787364494525e-02,9.893524897114818525e-04
4.391585829552181221e-03,1.137474085399269204e-02,2.455346472020988186e-02,3.183305878842740758e-03,5.857095799255730706e-04,3.738755979497105459e-04,1.216303281208814657e-03,6.481713130892828578e-02,4.128856980411827610e-02,4.194860050382570420e-03
6.910376943179668673e-04,2.846095538740613193e-04,5.416866929449705784e-03,1.899715306047715553e-03,6.372305439304616756e-04,4.490393019898663088e-04,1.893244947485068705e-02,3.293233504537958906e-02,6.174131108158352477e-02,6.914580403869216747e-03
4.908214511733507285e-03,1.582870397657386297e-02,3.909398896444103017e-02,3.141656331076934580e-03,7.608815729443595263e-04,4.269712511806737559e-04,2.781228557721169767e-02,1.437070910443021682e-02,6.704561785056624423e-02,6.763192781086386010e-03
1.886844489900494672e-03,2.958437068018452201e-02,8.026885150419467430e-02,1.617718003947847668e-03,6.619984621439234038e-04,4.451250728443751086e-04,2.548497577308958192e-02,3.522933400613759841e-02,5.214653134960824804e-02,4.469936796944514595e-03
2.307113986250055107e-02,3.614693093892442505e-02,1.145542094605932065e-01,7.981254399062233038e-03,1.269633441465201572e-04,1.020816267326455859e-04,1.832585660525262380e-02,1.568694600104230882e-03,2.081006341239786256e-02,3.592577122791912932e-03
4.498653819797258924e-02,3.260963742305202084e-02,1.227587693724468687e-01,8.631522859145790080e-03,5.915805169488663881e-04,2.674533212860243851e-04,1.274013311046611266e-02,5.501957619707539826e-02,1.422330858915468212e-02,6.176661925250077033e-03
5.340494251149596056e-02,2.082878680255782419e-02,1.022428684160347212e-01,5.672206179211289855e-04,9.319915930360629262e-04,1.114122340190167401e-05,8.565755134843495294e-03,7.273376700509281978e-02,3.120009186032084506e-02,9.766346170903050794e-03
4.876917525407686860e-02,4.462038967325703681e-03,6.289462634266505814e-02,1.121392252155030932e-02,5.448145133488402347e-04,2.524930647600811509e-04,2.214552538532415984e-03,3.640075371649541258e-02,1.019376964146253423e-02,9.219062533906264775e-03
4.347450751037675032e-02,1.337589988023691993e-02,8.850247438498553762e-03,1.860932579972892492e-02,2.507514589220168283e-04,3.847711043631559273e-04,6.820227481208029040e-03,1.501095552964934986e-02,4.852061922280253431e-02,2.289898301886013864e-03
4.544220662499284108e-02,2.787901059378182500e-02,5.505157230010038899e-02,1.829363046632620851e-02,6.450223522537698595e-04,1.011507994108258634e-03,1.480101047329098266e-02,4.993860682925461980e-02,1.191727246568833193e-01,7.141269885525168386e-03
4.978312461723213844e-02,3.335381385484544742e-02,1.066780451914733224e-01,1.289894051879661441e-02,2.685078304707527361e-04,2.769689635435516363e-04,1.806581872455875759e-02,6.905387095016907173e-02,1.668514541440270782e-01,1.284025392390735626e-02
4.857468273136221482e-02,2.809710947669410985e-02,1.208293107767562657e-01,6.164779130981387634e-03,4.241544610227212381e-04,9.408785255264572305e-04,1.675435712392841017e-02,7.656363827162819546e-02,1.727651774547181995e-01,1.219887332754132116e-02
4.316463922258590574e-02,1.475102736976852645e-02,9.520908787863933964e-02,4.588614273679588081e-06,9.131540674563185314e-04,9.775281390157790004e-04,1.388393407766617960e-02,7.061401133757955195e-02,1.456996014042675203e-01,7.418080900116471449e-03
4.155712436996135406e-02,2.787372518584696653e-03,4.879596636572058888e-02,4.696760036812980960e-03,1.098692622871170078e-03,3.957215349700256095e-04,1.224103140819340733e-02,6.267518981487667229e-02,1.076203077005235820e-01,2.924122602114665338e-03
4.668667692770447214e-02,1.834508118892847969e-02,4.496539554043459466e-03,7.104079084659252821e-03,1.045487344244067172e-03,7.639039866199220669e-04,1.334735803108446500e-02,7.261240334465542123e-02,7.192593037404333700e-02,2.619315418890365201e-03
5.233760604833577468e-02,2.318191420090491908e-02,2.135973169369644736e-02,6.808428726712595531e-03,8.385333738338380475e-04,1.603561853704529253e-03,1.728258635944036545e-02,1.007716909800042138e-01,4.116119554988318524e-02,6.960542213766704976e-03
4.950293142834336080e-02,1.394402283661798185e-02,2.575888147506595616e-02,4.160523576986473529e-03,4.757224091716827927e-04,1.226969041749196611e-03,2.151111025661725865e-02,1.286607489301352381e-01,1.765697378054583572e-02,1.177656200016324352e-02
3.427892840118208079e-02,1.072802188064161770e-03,1.791684511428049548e-02,3.042644287760524775e-04,1.556788508635516223e-04,3.394448866447736038e-04,2.249364420714527676e-02,1.472446437736796288e-01,4.447989356094984512e-03,1.245532368713497991e-02
1.072097724347117857e-02,9.389801398396929732e-03,5.998250170050941320e-03,3.398832031700449192e-03,8.085829086384957887e-04,1.443797011896741540e-03,1.981266198146788490e-02,1.635681798373882223e-01,5.335373971211837540e-04,9.763964107901420414e-03
1.295637138407983342e-02,6.308949922473572683e-03,8.401552725417009079e-03,5.720333249556925660e-03,8.539756612049647852e-04,1.189111146042580881e-03,1.544641470067507558e-02,1.809159540325644966e-01,4.523557531875003340e-03,9.074957399931030816e-03
3.029832266895034210e-02,3.646052387058694444e-03,2.128344157185688493e-02,5.156769463504102570e-03,1.634948285540301582e-04,2.610829436689032106e-04,9.621605509477073465e-03,1.915329339908481698e-01,1.742060318668089275e-02,1.312717034324369786e-02
3.771112179237285505e-02,1.336827699504565710e-02,2.436829107988167445e-02,1.006121427204552561e-03,5.972395764278550520e-04,3.046649372060060076e-04,2.237641870552308475e-03,1.886803167386671420e-01,3.491990159993590276e-02,1.742544245334893410e-02
3.386825788605370147e-02,1.837872402220616652e-02,1.403392817178665368e-02,4.493761152633636395e-03,8.060621423857398851e-04,2.937949409389579341e-04,3.122206466617627550e-03,1.717711660755039116e-01,4.482467297262921618e-02,1.439876031349439194e-02
2.379502058260956482e-02,1.943045290598907973e-02,6.079494117162163175e-03,7.549779072101530861e-03,4.715443031369584708e-04,1.795319526789472585e-04,2.489381407062181417e-03,1.398808697750543728e-01,3.919130787581094622e-02,2.314917479668874602e-03
1.909677975809639938e-02,2.177881361152182726e-02,2.968444310664473257e-02,6.598271224643238210e-03,7.554267275814402331e-05,2.448216511772664523e-04,1.265334087962064836e-03,9.104752153048667473e-02,2.186065316224133914e-02,1.093774233214498022e-02
2.565232745798925670e-02,2.752591473034809999e-02,5.093448513479033324e-02,2.799029281165400177e-03,6.283429307418405283e-04,2.681980719693360720e-04,6.720993845807650240e-04,3.129946906125839756e-02,1.171748663235010549e-04,1.476795232580554312e-02
3.440788582417928648e-02,2.884162465283872726e-02,6.635733273104550689e-02,1.610083459505801898e-03,1.037232534312323247e-03,1.340922258175545592e-04,1.255789867260274049e-02,2.154373798809077617e-02,2.169658384363753675e-02,6.995425387159148918e-03
3.271469314655247457e-02,1.603827790336681200e-02,7.349226655714660716e-02,3.669172254724975980e-03,8.975981614428405354e-04,1.974818755432797789e-04,2.693720817690479705e-02,4.970593715834527304e-02,3.832680545369126363e-02,3.940030613723726101e-03
2.055333791645629765e-02,7.089967389550469110e-03,6.469008321967142927e-02,1.495401061394423334e-03,7.902665570891972274e-05,5.295187073569093553e-04,3.229399398733170251e-02,5.022806048448962002e-02,4.569684433451676187e-02,8.412782166195212699e-03
6.692439230175734922e-03,2.451215359101728899e-02,3.111979347599106924e-02,2.738767851101210800e-03,1.224533017396283504e-03,3.747728977891467863e-04,2.705384605026232153e-02,3.426380680033438292e-02,5.001412254408824781e-02,4.483139194211961318e-03
4.997820032258499731e-03,2.590974622749195669e-02,1.806887422049719555e-02,4.968754744988781308e-03,1.387876065611597012e-03,6.065793057770849615e-04,2.004496438574971187e-02,1.635887487491926098e-02,6.194218608368760870e-02,3.463908533456511521e-03
1.424093870741728433e-02,1.565197930388598571e-02,5.216195272941181321e-02,4.636682976069048112e-03,5.870114634588255919e-04,1.166236053424276036e-03,1.712235264501523607e-02,6.176699560797922761e-03,7.609689792882110004e-02,1.099316178619770719e-02
1.555003385790632020e-02,3.314669797917139168e-03,4.921385168098547230e-02,4.185879593241183597e-03,1.418603444455252710e-04,1.837951540496921086e-04,1.504992067094243144e-02,5.846143449362087297e-06,6.900883272783779609e-02,1.568234043810910749e-02
3.158326467567874538e-03,6.929568769879641474e-03,2.238954906269553791e-02,3.837315383777151982e-03,7.422234519127440680e-04,1.125381510727764718e-03,9.858011111733535475e-03,1.862749887344746294e-02,2.788306450273898840e-02,1.591308698202346938e-02
1.826921782194522101e-02,1.560698631853978287e-02,2.793632784081054744e-03,1.247342840358609982e-03,1.385054024814655902e-03,9.410454751101864903e-04,3.241886380038649235e-03,5.437652662332252002e-02,2.762655300617071485e-02,1.193436735126235902e-02
3.696844425796094041e-02,2.249413917876819449e-02,2.227847212231029005e-03,3.671466880906762865e-03,9.890656026587838975e-04,9.076966287340580805e-05,1.535046173059753140e-03,8.321025658624356391e-02,6.401358538978836610e-02,7.373414736336789295e-03
4.672944045761688592e-02,2.580547848047683515e-02,5.554753444192584572e-03,7.452697064247730714e-03,1.432001705342622329e-04,2.144234638632800793e-04,3.539933938113051098e-03,8.039325828280294295e-02,6.735162195909145944e-02,6.153935815484052815e-03
5.089717608668006127e-02,2.563095866187310723e-02,4.420436379748012359e-03,7.230646354889008233e-03,5.192352179394560716e-05,2.028563615099395617e-04,2.790894547416979295e-03,5.342907550048939941e-02,4.765052775133812174e-02,8.232331890768803187e-03
5.472167336193559800e-02,2.498727282689833240e-02,2.810873166719517202e-02,3.561508869525957435e-03,1.583294594518191414e-04,1.633547509605654284e-04,4.589622503795823434e-04,2.706146421705385788e-02,1.863753780618644662e-02,1.091630968534034428e-02
5.799350193358158295e-02,2.554991292620826734e-02,5.487837658302008315e-02,1.035012844990604048e-03,1.310515585999447315e-04,6.992890040493385207e-04,6.588882057552772342e-05,1.188245525848762377e-02,1.338115013135645834e-02,1.287206517837190430e-02
5.706441752186303118e-02,2.407550760539663506e-02,7.513660352557337274e-02,4.144171664322614593e-03,1.831898804213375029e-04,2.210009580298112218e-04,3.741297958593569305e-03,5.343288313286613522e-03,4.537681401250014124e-02,1.401053383248177485e-02
5.123657830268586039e-02,1.662548076793317342e-02,8.355577468161527743e-02,4.596461599765361110e-03,4.291979897627059073e-04,4.424220158778296910e-04,8.835419993334378899e-03,5.505152136613312812e-03,7.395662287530752055e-02,1.347770188952908746e-02
4.233800909472620194e-02,5.719752189428375586e-03,8.067331124150856070e-02,3.634672210878362331e-03,1.017786332436171977e-04,2.911047283994235173e-05,1.155304696022282224e-02,5.288286202262551007e-03,9.625493805678621284e-02,1.059608255786663802e-02
2.953724020587731453e-02,1.365007002311901868e-03,7.638159070118136218e-02,3.882901982979768997e-03,7.690448019039712634e-04,7.190936119582932518e-04,1.069974675991756941e-02,1.562059516854380666e-02,1.111257767247895434e-01,5.980313358308802021e-03
1.146069035196175395e-02,1.467451527321935074e-03,8.129226399180533580e-02,5.504595396630543661e-03,9.103855938566466841e-04,4.596508037514866773e-04,5.705621988979007325e-03,7.430778628454712265e-02,1.200715380416243067e-01,3.486211995242439912e-04
7.296188549043312009e-03,2.167229848759447824e-03,8.610012883194018141e-02,5.506555182442807173e-03,7.895340334765971657e-05,5.089192558121061281e-04,3.869579054296250382e-03,1.580846466289660412e-01,1.253231657522824449e-01,5.329113294678777812e-03
1.924886066874334500e-02,6.138476307068971294e-03,6.255706656446106961e-02,2.605431052302007409e-03,8.117926716236503401e-04,9.819756149700130127e-04,1.436825580146774972e-02,2.240397293531900258e-01,1.254826604611856689e-01,8.520454484126600142e-03
2.346526814674657069e-02,9.822381786683868909e-03,4.525389655624014601e-05,1.481884147729753225e-04,1.644201800118728950e-04,5.496088965473505065e-04,1.916213740376528779e-02,2.321412236544630470e-01,1.166090626751101061e-01,7.466843030437955026e-03
2.596920204822170120e-02,1.103066407377210727e-02,7.269019249293036389e-02,2.106474825365682428e-04,9.419107404826223889e-04,2.632526021886610846e-04,1.736869455732958575e-02,1.813361530589124582e-01,9.642230393999255689e-02,4.595470505268098131e-03
3.119262043941005424e-02,4.020588411719335127e-03,1.178819437641672879e-01,2.503074803847038076e-03,8.652396392235214059e-04,7.491709352519693599e-04,1.671019814526388675e-02,1.108935147553439943e-01,6.317088859871165807e-02,4.137929486242157909e-03
3.802153331170157052e-02,1.360423329093385023e-02,1.283421565787856988e-01,3.903073456592138189e-03,2.703114774092187328e-04,7.166964266458554283e-04,2.267149230750658412e-02,6.154245090394736689e-02,1.803138713950136821e-02,6.552235690082191047e-03
4.430377759354286321e-02,3.366957709554852657e-02,1.200386996046215182e-01,3.658951271192238067e-03,7.400079602154310300e-04,6.650013665103217918e-04,2.891537200428256210e-02,4.061747747230660954e-02,2.558727346395617275e-02,7.993903931455105874e-03
5.014985994881269310e-02,4.262684658799566900e-02,1.059621860693127915e-01,2.495815054767102498e-03,6.390592354355617067e-05,9.203934237695134395e-04,2.568102915780400008e-02,3.281936937302135787e-02,4.853116898027049625e-02,5.013562271192943155e-03
5.491055870131054950e-02,3.556973597329102232e-02,9.332640254859962681e-02,5.565880113617455334e-04,6.690310525867622544e-04,8.731884650263977083e-04,1.439510363857932074e-02,3.075953664959623149e-02,4.769816010190158079e-02,1.864959829331179052e-03
5.466092901116356012e-02,2.176647818703775217e-02,9.099794625302388973e-02,2.785505180782194522e-03,3.885352928214388555e-05,4.024799019112993272e-05,5.100831643410614832e-03,3.602603367542307755e-02,3.680929644612281060e-02,8.314280879685023024e-03
4.502243413944937572e-02,1.450694861645143545e-02,1.032663121097774084e-01,7.930371369776751181e-03,6.987231317756053455e-04,1.088312862230634680e-03,1.853677489180894115e-03,4.128482789752493942e-02,2.545661202018907610e-02,8.941827005617457302e-03
2.646371017370166556e-02,1.705414828454153084e-02,1.219915472350669161e-01,1.362261256996294412e-02,2.803430012172967805e-04,1.237364790658917807e-03,3.852699483571852494e-04,3.400031169134522940e-02,1.463596432474814288e-02,1.658423497690421008e-03
7.742320148884727048e-03,2.064931644638735853e-02,1.326684169412045144e-01,1.651333493395437321e-02,6.415715939971249927e-04,7.425594020298684379e-04,5.953540368438699909e-03,1.642130543441809240e-02,8.184101297922252022e-03,9.509883474829830194e-03
1.013091432214419671e-03,1.643308249728010761e-02,1.261257632318137090e-01,1.390338047218217521e-02,8.391429619179867480e-04,3.601061903358445900e-04,1.294287129510668724e-02,6.597646585697982714e-03,9.719006021873552101e-03,1.747523792475564122e-02
9.191703975033289203e-03,5.833987074868316955e-03,1.040191347314094877e-01,7.115724698938747511e-03,4.735878546348565679e-04,9.246636851515966380e-05,1.661806709258671286e-02,1.614115918383558779e-02,1.344360093749799243e-02,1.842105746583874021e-02
2.308434098720335559e-02,3.618550844885841302e-03,7.691936750724866212e-02,3.736608496321241471e-04,4.607754565151126239e-04,8.979016756291578662e-04,1.392075758329060046e-02,3.555549785225137205e-02,1.266850943175799708e-02,1.415395082437989963e-02
3.452228632176813222e-02,8.404350447324572884e-03,5.709571825428508274e-02,3.484402714812617242e-03,7.836895202664394787e-04,1.162914104390518934e-03,5.624120399183667705e-03,4.712723167242616890e-02,1.139825793353381467e-02,9.405802112057737654e-03
4.281022463281581453e-02,9.541486032203245343e-03,4.950746044351265335e-02,4.585912684602623003e-03,5.933434072237978420e-04,3.647865951461133811e-05,3.429774881560195953e-03,4.455180833318943961e-02,1.717127914370187788e-02,8.049722383348778543e-03
4.553692991659028660e-02,7.167044963914797825e-03,4.810852176743551922e-02,4.127838429594334925e-03,2.241138881616757024e-04,1.404381432566852682e-03,7.365150278856106604e-03,3.086774755461087552e-02,2.788857192604761448e-02,9.820883718097469378e-03
3.694168579727023782e-02,1.618877298995920373e-03,4.230226608020902501e-02,2.889493145633267954e-03,6.832287296681561085e-04,1.273127235227942576e-03,3.999617856204590316e-03,5.774293728499804539e-03,3.475381666466373365e-02,9.870332854523187344e-03
1.927565194813131780e-02,2.823654697399820279e-03,2.793981562439080274e-02,1.550030048250766864e-03,2.363375690667596815e-04,2.280525230094551800e-04,4.184467676340940592e-03,3.170608494196124061e-02,3.788097214808427982e-02,4.456425328450208841e-03
2.986178212237016946e-03,1.917959143590779788e-03,1.018844899244315469e-02,1.140192982344086442e-03,4.572731445341378701e-04,9.709380736812019477e-04,1.361974279361948675e-02,7.282003210160543916e-02,5.030346841440488243e-02,3.142273889102750305e-03
6.241237302358183803e-03,2.446397974719579684e-03,4.844638399966448052e-03,2.268948948876618570e-03,7.611211722003103459e-04,1.860874071396263838e-04,2.252363253638659316e-02,1.044503640712815123e-01,7.931059212937416336e-02,6.537755669147294994e-03
1.001909249220955464e-02,5.101094540928801345e-03,1.747157375215185188e-02,3.740331424205291938e-03,7.521067612305743421e-04,5.674574005322032683e-04,3.043642895939649082e-02,1.253099488688920737e-01,1.102582031854813793e-01,4.963718689861586035e-03
9.399269277085620100e-03,4.858252018600280574e-03,3.120323458422340906e-02,3.241586972010839732e-03,4.323395951522603282e-04,1.515354925587990374e-04,3.684782312937495696e-02,1.452151793677999569e-01,1.204308085750911000e-01,2.838281040384608642e-03
5.348852781959720359e-03,4.666351722404055852e-03,4.560108947581333755e-02,6.574683058257992834e-04,2.503099887517426904e-04,6.694265255143218209e-04,4.071425776333619656e-02,1.642788178929087961e-01,1.050162232991971728e-01,2.115595144353464574e-03
2.785099546740955109e-03,5.840984742873372645e-03,5.615768125873661643e-02,9.341356459601591689e-04,6.637492803027287723e-04,9.909332826533538956e-04,4.068839493533718543e-02,1.654634801237158115e-01,7.839914188484202462e-02,8.669380019523313489e-04
4.609295611556074243e-03,6.338762032167708123e-03,6.025746481912063607e-02,4.896743116498417309e-04,2.376746411358376455e-04,8.938030884474197245e-04,3.603973924986612898e-02,1.348497576172004997e-01,5.405949427843218663e-02,1.740384268708530021e-03
7.250665882012530608e-03,4.862699698705503018e-03,5.964042463216282647e-02,2.620687453621931267e-03,4.852944718528397791e-04,5.170399190872156841e-04,2.766439769089820699e-02,7.845623491634104441e-02,3.416784819315200894e-02,4.248594274435552910e-03
9.033092077859196031e-03,3.104407620380564194e-03,5.686638388475710737e-02,2.360131919164551884e-03,7.271014571019815539e-04,1.096978379190834872e-04,1.800524703712948205e-02,1.670634495137361675e-02,1.611756055167309215e-02,6.124452235573507597e-03
1.540878422539156828e-02,2.652424076852722985e-03,5.320360231194101730e-02,6.161165396956561069e-04,5.979270480661148324e-04,4.318631459679270852e-04,9.997167695958143058e-03,2.560528775770315110e-02,1.220969606492507825e-03,8.448997000227885176e-03
2.961220227546508890e-02,2.559991970885072601e-03,5.042981119623999448e-02,3.779057047570146769e-04,4.933607150368760422e-04,1.314891338254932905e-04,5.631862646715501096e-03,3.094362731803690370e-02,1.838803446181144774e-02,1.153946928242961106e-02
4.498608885256324963e-02,1.759368196182401574e-03,5.016274876884083828e-02,1.667796906387580694e-03,4.163106363598437568e-04,6.848805727623789635e-05,4.573977929265827386e-03,1.142063650796619999e-02,3.486796074860503553e-02,1.413674129466519457e-02
5.171609592542193018e-02,1.242739903933735238e-03,5.080834552522954517e-02,1.954202537676101060e-03,4.677333686179158297e-04,4.317679901474455895e-04,4.600724080223718773e-03,9.239985856534417216e-03,4.606775921220842424e-02,1.463674353160123072e-02
4.575200423018953994e-02,1.849363919730283821e-03,4.949864106125772406e-02,5.431405157821045339e-04,8.094180426057729760e-04,9.881604497798946157e-04,4.327584317091498663e-03,4.905665843397651743e-02,4.696893770994772788e-02,1.207940187431374816e-02
2.834810713031692825e-02,2.335086890190139590e-03,4.678404462187257112e-02,7.560275354006846605e-04,7.979130858789848339e-04,7.024188175774076937e-04,4.546290989979799232e-03,1.019113585302750397e-01,4.068804534124782074e-02,7.444028834094808950e-03
3.768142955672132508e-03,1.468644769674996332e-03,4.531000278413555710e-02,7.895718258867201033e-04,3.122595941571275303e-04,1.528213126561668047e-04,6.076103265175427856e-03,1.222010730855588728e-01,3.758264854806382671e-02,4.278643272828729603e-03
1.906184393502833793e-02,1.829896937958141404e-05,4.493789308678162314e-02,3.090658687605048562e-04,1.565053129315465731e-03,5.439153392953427566e-04,7.853045789001703719e-03,1.043560248198200507e-01,4.333693152347713184e-02,4.727929376448297520e-03
2.943651790064082119e-02,6.316848210631739171e-04,4.319961426526935933e-02,3.391075540639485342e-04,1.266259575739543545e-03,1.604463306828533213e-04,8.275366038780538822e-03,7.543424967807214887e-02,5.160297060620813725e-02,4.930202008586602631e-03
2.420613517872777926e-02,4.055920751870715503e-04,3.963405204725915787e-02,8.386226779815749831e-04,2.309992481740912647e-05,4.616370015113832343e-04,6.790995665151991836e-03,5.003026259910389045e-02,5.020689293716189966e-02,4.997706756144946550e-04
1.139940748485089583e-02,3.782956521332486157e-04,3.622784839516950128e-02,8.856058732682915843e-04,6.482358067532429757e-05,1.019160374662529591e-03,2.520651427105975641e-03,2.822673211695310089e-02,3.385013283072522972e-02,8.975204898467344442e-03
3.113024369481735831e-03,1.200144382399546484e-03,3.404817644050905923e-02,1.547367239743584265e-04,1.253200397583722342e-03,1.417141798930110237e-03,6.646749091245160272e-03,2.576694310788202325e-02,1.042604822859120005e-02,1.144340679812494606e-02
5.975412250411620517e-03,1.815058129219610308e-03,3.204840000012590395e-02,1.488465328995203056e-03,1.635986771299717318e-03,1.170084792616318554e-03,2.047338232736974420e-02,6.127527880591905618e-02,6.306568164366263031e-03,5.346901243053968703e-03
1.636268804653298256e-02,7.569926522154760227e-04,2.922911819480458057e-02,1.539509679389381228e-03,2.261908802415513349e-04,1.695571298327445205e-04,3.350307670821539574e-02,1.119203385493087038e-01,9.721774643233441204e-03,7.360056547778591821e-04
2.316478926594674193e-02,4.377999718616963718e-04,2.627772260548132122e-02,1.274258867887428004e-04,1.088186979585425030e-03,7.242155036958218724e-04,3.943219665824596043e-02,1.245169285363586231e-01,3.168814928581004456e-03,9.847131815471739033e-04
1.802433072068822945e-02,2.189046802261672506e-03,2.443961109992751068e-02,1.037534054603676944e-03,7.557884343836720120e-04,8.724914456023819031e-04,3.705261885652438858e-02,7.954247446628656681e-02,7.484678823011027202e-03,7.620371031995349861e-03
3.792990057162360339e-03,8.780743445769354297e-03,2.338075571570589345e-02,6.529734642108007102e-04,2.886836406708671345e-04,6.489618093946208617e-04,2.954205100590858932e-02,1.067760125715374285e-02,1.801771609582309558e-02,1.234362811264324775e-02
