1.760836166246594614e-02,1.037533784539320433e-03,1.718052658071920202e-01,9.340087650088076641e-04,6.330881083271410609e-04,1.932595566624971991e-04,9.742088716178080475e-04,7.775759518041485720e-03,2.451152962056801221e-01,5.882953932883815129e-03
5.214079279313482002e-03,1.840027400682903852e-02,1.747800026185148681e-01,3.905906201511586285e-04,8.415891376893238187e-04,9.553206262284067579e-05,1.585020506231953844e-03,4.071219004856152512e-02,2.517607196096119382e-01,8.358456363101242651e-04
1.449375735122792989e-02,2.089447856394697350e-02,1.765304442519416150e-01,4.639359811282057610e-04,5.923680687625192424e-04,1.386501014183654412e-04,1.271582367971106327e-03,5.024635081251664637e-02,2.659294150302900506e-01,1.146604675905141604e-03
3.045843428788146817e-02,1.101279037480798820e-02,1.718501720100708841e-01,7.660378810071958103e-04,4.429182838679458496e-04,1.529986405941619726e-04,4.734600776953189118e-04,2.702035944270943582e-02,2.800764167796512272e-01,5.206215243701248566e-03
3.521165103630368581e-02,5.755705082542764139e-03,1.360040371021048744e-01,8.455055929947896416e-04,6.109944012106975977e-04,7.150042116804418250e-05,1.181868783449310182e-04,2.441019480329222752e-02,2.471553242361125002e-01,1.052662545829527799e-02
3.387747814491581105e-02,1.537452263143245824e-02,4.630893298789062751e-02,1.545305590606664559e-03,8.196175214230717355e-04,8.928950949450246023e-04,1.011560998017789828e-03,8.671355569595791402e-02,1.152760497335054701e-01,1.453482167651800293e-02
3.517948751864148627e-02,3.291992891129143228e-02,7.901843135522269856e-02,1.752320649044027210e-03,6.080648290293656213e-04,1.324828228087990452e-03,2.633122862329475948e-03,1.379243146935389408e-01,1.113256305818417224e-01,1.518975732026958854e-02
3.854123292598167494e-02,4.567321946777672115e-02,1.830130300381382358e-01,2.605540740412308552e-05,6.784884167767578941e-05,8.862548610604001212e-04,3.448081801669392737e-03,1.649168098412112649e-01,3.625973757686752896e-01,1.358378784571008698e-02
3.751062547989449103e-02,4.890155669177067427e-02,2.226974733680724960e-01,2.313806828875505407e-03,6.333235126643680778e-04,2.457420589639831843e-04,3.217393319136057674e-03,1.708360021181075661e-01,5.542097935580302392e-01,1.329581082624772294e-02
3.058462553691240066e-02,4.384484483300735841e-02,2.047142876699041825e-01,2.234922398528023813e-03,6.968383389956879373e-04,1.109537911415938698e-05,3.686259792184436428e-03,1.672419541005892574e-01,6.429249275912793937e-01,1.505351587697641678e-02
2.202613262022626653e-02,3.081445137781159763e-02,1.638947553851230754e-01,1.079914825314551850e-04,6.256264849054921735e-04,3.426874542596970719e-04,5.689576978113762736e-03,1.575298044583233470e-01,6.380383655006383048e-01,1.500023606707295148e-02
1.629300702064766584e-02,1.408410144644547946e-02,1.310032495054264667e-01,1.732648011767167580e-03,7.381505830954323156e-04,1.130629242225781282e-03,7.178708646244227193e-03,1.339124134571130220e-01,5.704972071357641283e-01,1.023118365055347354e-02
1.523560524225819370e-02,6.446749641025525078e-03,1.300201589450909745e-01,1.037179049191883258e-03,6.136045898786423669e-04,1.486843703361546802e-03,6.042978695341194410e-03,9.197953870330037585e-02,4.680875759797075153e-01,3.155298846330479613e-03
1.716833953671252633e-02,1.561234607146449668e-02,1.734231102156363336e-01,4.318598107961181109e-04,4.190893018553711551e-05,7.517327835522089746e-04,3.509841570639354001e-03,3.615521803444020355e-02,3.692961763583617607e-01,1.968021384757163983e-03
1.780334577183153091e-02,3.019155751317256775e-02,2.363852725741391880e-01,6.000685482995700686e-04,6.438787382308510873e-04,1.553794537526762248e-04,2.444337537834938030e-03,2.875121915295319672e-02,3.284525320825655292e-01,4.372781466213665827e-03
1.429241856758335302e-02,3.195076807978193545e-02,2.633518134598029081e-01,5.322792921601048966e-04,7.016336249276603019e-04,8.787099956086347934e-04,3.159934620992544806e-03,9.270586965983726446e-02,3.651499305913916138e-01,5.729371182497866241e-03
7.296513405090741464e-03,1.925099840598115328e-02,2.301723585873750866e-01,1.449326873427144325e-03,6.618528377297467832e-04,1.679266855105426576e-03,3.483761958191139430e-03,1.318339892844218320e-01,4.254808985592550274e-01,5.649294616321860751e-03
4.890310769118232787e-04,6.867242374329234240e-03,1.797672574228079689e-01,1.311840011120985307e-03,8.561350261089866647e-04,8.871740822089207827e-04,2.764048081219355746e-03,1.334034275326629049e-01,4.356426981065850690e-01,2.054827707598877451e-03
4.965530332742897589e-03,3.937931363907410699e-03,1.652590864985760688e-01,6.320016418346277457e-04,6.596909523483131602e-04,5.271047760214200026e-04,2.996378924314649621e-03,1.279095620866270433e-01,3.811766802447004165e-01,4.593820526203929583e-03
3.125271598176751400e-03,3.094146207305274818e-03,1.764961654881634923e-01,3.800383592685749415e-05,1.711681275790256028e-04,5.113351032204153110e-04,5.203982587037872531e-03,1.615793895911198930e-01,3.007746613955911141e-01,1.070011844886805188e-02
1.605832729337442616e-03,5.344990782754500958e-03,1.643923004602851068e-01,7.829531224908070717e-04,5.568898404541486324e-04,6.591533087558361067e-04,7.223040023233124642e-03,2.308580535491238372e-01,2.241523506933712495e-01,1.275788666940681770e-02
3.193685458036465020e-03,1.645064863271574265e-02,1.247231241842129412e-01,1.487090096238240840e-03,1.086534026816701043e-04,1.146095960636168889e-03,6.469583037473604185e-03,2.821402643654272180e-01,1.512132409518513743e-01,8.990062069100948974e-03
4.613077765909228550e-03,1.625369634269622360e-02,1.024839393416219352e-01,1.762177022436965885e-03,6.455957099727852077e-04,5.753088892466599923e-04,3.126999759565349951e-03,2.908296605008548474e-01,7.689207693488386841e-02,5.870120446332333444e-04
1.474910385753432605e-02,2.060942854929154883e-03,1.128366550510812166e-01,1.870211959790177986e-03,1.262692093353842931e-04,4.870014724468156049e-05,4.530253075670478600e-04,2.949793127171255747e-01,6.593949529466645865e-03,1.298921645606767455e-02
3.112241366656224445e-02,1.254403250960029262e-02,1.142673359592308868e-01,2.275540068279650972e-03,4.670023829725952584e-04,3.822158588735079980e-04,2.093872395326221072e-03,3.228529536381399834e-01,5.337139619855286315e-02,2.243441502897800324e-02
3.823681504165156453e-02,1.485229504967758990e-02,7.228294193335474405e-02,2.404280902987746601e-03,1.775084807398973486e-04,8.292480995344202969e-04,1.127990287780544559e-03,3.399353049876062682e-01,1.091038966919597175e-01,2.410650212415361288e-02
2.682347607194547970e-02,5.804068608922000397e-03,5.951179005262364347e-03,1.482505728350542052e-03,1.833398639178672582e-04,1.309317734776279480e-03,1.303936241460680124e-03,3.107243182515535551e-01,1.713515262379632920e-01,1.774630384865205981e-02
4.592477579992999132e-03,7.066624421687660133e-03,4.375774404626231462e-02,3.479237603822979614e-04,3.231020437567886901e-04,1.163879999340769033e-03,3.339062148131614026e-03,2.615494179999164337e-01,2.256012435883338052e-01,7.703613785216830573e-03
1.526148814870855776e-02,1.912461105963859584e-02,6.402723620286339401e-02,4.766309485094819714e-04,9.882491116591507474e-04,1.989674651592985655e-04,4.568259444476963776e-03,2.338373955254388070e-01,2.274682115606009580e-01,2.990822808297208539e-04
2.754793975062964570e-02,2.639935369131366297e-02,7.387889116196466599e-02,1.500181360645780771e-03,6.306997259864368472e-04,8.175170385877661471e-04,6.270624887650762605e-03,2.213892511061362756e-01,1.554025257980151953e-01,4.366399874617819983e-04
3.284022993960143688e-02,2.337038573874582192e-02,8.837376663764012763e-02,1.813077613359761813e-03,3.855316473117106815e-04,1.066378260084842539e-03,9.062236186374974037e-03,1.977019745647521365e-01,5.442751846458647458e-02,3.815865468031263801e-03
2.957435002799280871e-02,1.035833110354059117e-02,9.367441869642084695e-02,1.142236731245694237e-03,6.215186700487320423e-04,5.918588826328962521e-04,1.175339885293970495e-02,1.663211083506450083e-01,4.775826585759975623e-03,7.659085993302726034e-03
1.675894438053580557e-02,2.583319860570235452e-03,7.019963579104358808e-02,4.139397521576615620e-04,7.387138262045689525e-05,1.032117675916684749e-04,1.278954852078989686e-02,1.489526855224228563e-01,6.003404029560777816e-04,7.847413937948881021e-03
1.459052704691761720e-03,6.496820580684735912e-03,3.325936918540165627e-02,1.876109796935371797e-04,3.458228617242355574e-04,5.772832515648073379e-04,1.168599668043098991e-02,1.500891935616881223e-01,3.403797994644178204e-02,5.278330504879934215e-03
5.351799919386266736e-03,4.192077161504785890e-03,1.898032104739360432e-02,1.103360117264506543e-03,5.921248663668947674e-05,3.599035454101352544e-04,9.339993857421569068e-03,1.555826269501088821e-01,7.014841265024306105e-02,1.739191338604788696e-03
1.345145811860357435e-03,2.943031154283268051e-03,2.885849617952243248e-02,1.904299958209062366e-03,1.819874307643423999e-04,6.416886837785796150e-04,7.573997581180840280e-03,1.520413694299237450e-01,1.101975944341714170e-01,1.996852761800414332e-03
5.306143132741865387e-03,2.017187064801597395e-03,2.911185938698367115e-02,1.459422291624633663e-03,1.121162264284897986e-03,1.671460473466891174e-03,7.510468186935573102e-03,1.364486782605853488e-01,1.502629509374260874e-01,4.246711502725286982e-03
7.810917945730979327e-03,2.587487970414575379e-03,5.025710660151715484e-03,3.281155313775276170e-04,1.178950341721712132e-03,1.798054208956868837e-03,7.777548910278337529e-03,1.120291442967840806e-01,1.530487208112453479e-01,1.568370433191622901e-03
7.537075326368448611e-03,6.367335873574214711e-03,2.861982081683503085e-02,1.904083303754353909e-03,2.284459454807201634e-04,8.399652979463881819e-04,5.238093304774303106e-03,8.120817503815422334e-02,9.287072432326240468e-02,7.566133275115616112e-03
6.522351020177102193e-03,1.519540389132127559e-03,6.453712046564134830e-02,1.676602239251116008e-03,1.526157507659100404e-04,5.688676399634699397e-04,1.380255368683967624e-03,4.518073105261932731e-02,5.116164162536438603e-03,1.875578815506937641e-02
1.835151350566987909e-03,9.073924895490231152e-03,1.050925457423058235e-01,2.842312141002843458e-04,3.164296259396823718e-04,1.457008525800142446e-03,8.987229308497532432e-03,8.807145079617512834e-03,4.861141064391234778e-02,2.436279739107951800e-02
6.588316615415565174e-03,1.381221236954523722e-02,1.350535217197823823e-01,2.575579444053368878e-03,3.290654309599276507e-04,1.228835272231161178e-03,1.267012498082311853e-02,1.885718567465689138e-02,4.953076320086892415e-02,2.153293558520617129e-02
1.028396086022111307e-02,6.834456452779198721e-03,1.290282285134156381e-01,3.990200619006703704e-03,5.151195671130029061e-04,3.311082082518264163e-04,1.043494010177193135e-02,3.295844688268511485e-02,2.226820138501361956e-02,1.512717195232079863e-02
2.822541276734332957e-03,6.770170752357137361e-03,8.258281933147042231e-02,4.392490243423231855e-03,1.165629897206877210e-03,1.073808829966552505e-04,4.015650201490864740e-03,4.054182723016304390e-02,1.426049885684530644e-02,1.140167259926430990e-02
9.445136746574397599e-03,1.859975237999425893e-02,1.567038780959922536e-02,4.360915957386773956e-03,7.615127252367930337e-04,3.779804652318696670e-04,3.606074926296598364e-03,5.281484150075069217e-02,6.136925393610071638e-02,1.128665966740996854e-02
1.545059140503077938e-02,2.467907758869042345e-02,5.076031315426404039e-02,4.310005688816468707e-03,2.878651084580053222e-04,1.151520335260916095e-03,8.751779761887217707e-03,6.898163348574951059e-02,1.175889116810649310e-01,1.146250859245753241e-02
1.405034655360056298e-02,2.616692025244889835e-02,1.117431668693878860e-01,4.264242626593512005e-03,7.149252773740891274e-04,1.525164440731989609e-03,6.686288828960581035e-03,7.876894846858212285e-02,1.713379609714100194e-01,9.887019944183972689e-03
1.199556904829560296e-02,2.610756216188213352e-02,1.756508213956144149e-01,4.214491321344303494e-03,6.452757808651686186e-05,1.355287083700975779e-03,4.692702399611426399e-03,8.278323153598034223e-02,2.170967400877525377e-01,7.863486702734992853e-03
9.808079797492383692e-03,2.715918834399201273e-02,2.477257323020142787e-01,4.156084270848800846e-03,9.090218400622400224e-04,6.036178895398320709e-04,2.019029009175322270e-02,9.479656573611254522e-02,2.596905172556995267e-01,7.134781157995410787e-03
3.319039863596088820e-04,2.989468368989280783e-02,3.127767607574711284e-01,4.205988689349013550e-03,3.131564287194862710e-04,6.178515709699391794e-04,3.062322860734410790e-02,1.197018963353677357e-01,2.968173067834092294e-01,6.997325378535070896e-03
1.668215520218419012e-02,3.014001361155249289e-02,3.382218138023391774e-01,4.825601184201095892e-03,1.360491556953492788e-03,1.574176355448033467e-03,3.234681509730796128e-02,1.463262302849660246e-01,3.140352433761253725e-01,5.371732611172005088e-03
2.911336005077343886e-02,2.123951719874848931e-02,3.047340319286903076e-01,5.925903378854087585e-03,2.210290103745037905e-03,1.441250060343501069e-03,2.956906282282549883e-02,1.670591772347930493e-01,3.096755798413421412e-01,2.097579526379817795e-03
2.763650872176967935e-02,3.867526264329205696e-03,2.331883954514762103e-01,6.226746686354180105e-03,1.326671168961152114e-03,4.527947491591904276e-04,2.641765206858819742e-02,1.869625400829188488e-01,3.045981829047000322e-01,4.949089680495004362e-04
1.828735596384397505e-02,9.881520458958528708e-03,1.701936565121891787e-01,5.092359864149329646e-03,1.808628735627123240e-04,1.450979032557351374e-04,2.213330588464218138e-02,2.081035167863930224e-01,3.031308714640831847e-01,1.030539622636429849e-03
1.311287838567556582e-02,8.466808263319022115e-03,1.415272868557757580e-01,3.960167554008803791e-03,9.040285169327884297e-04,4.212590475221164501e-04,1.552691488158692602e-02,2.212568738811095392e-01,2.688901524793066433e-01,1.301012713452039896e-03
1.482943208888034062e-02,4.072199122221066038e-03,1.256192839451057697e-01,4.134104305537619935e-03,8.087812147911996449e-04,1.450723448933605034e-03,8.510227168656837177e-03,2.196409137960577962e-01,1.783572218949840971e-01,3.521907995507153610e-03
1.710731463371158861e-02,1.067874638570999804e-02,8.348898422330831848e-02,4.593416111242792227e-03,6.575011310267625791e-04,1.624961609970386987e-03,2.850158776573808068e-03,2.099771306774991519e-01,7.482918741943478391e-02,7.448391134519404683e-03
1.451680419490606472e-02,1.313670953574144632e-03,1.479402952210012549e-02,3.651618701524436770e-03,6.854834640863053784e-04,5.928626426613872041e-04,2.159503092404969644e-03,2.035112753283696285e-01,2.223992560282707712e-02,1.203129172206607311e-02
6.466074577259366650e-03,1.413907500954893204e-02,3.345108357768747376e-02,1.472766154285314478e-03,6.808843022469699465e-04,7.083176606260550281e-04,6.432163262171981463e-03,2.012404222761925709e-01,2.811013166544965025e-02,1.755945909562134019e-02
4.881091468740990195e-03,1.907190810537339604e-02,2.472650367618898365e-02,1.814767464978175220e-04,7.257651278118884206e-04,1.306762256180624615e-03,7.380746259240862812e-03,1.955219146594240898e-01,5.876787428590933560e-02,2.393967904414473838e-02
1.606225052377815293e-02,1.195296506484980377e-02,1.790537703925451640e-02,9.711725486624852004e-06,9.120861644147904793e-04,1.302151218348872926e-03,4.440478345865462445e-03,1.851064799122377480e-01,9.927485211177855540e-02,2.855140209125541298e-02
2.286259526050485325e-02,4.715643826343910230e-03,3.875719138127141361e-02,1.382514315933490359e-03,7.744746338211650795e-04,1.286904707821363760e-03,2.005784405760694181e-03,1.773718451067992086e-01,1.400714764679706070e-01,2.825255605550227797e-02
2.182396541024305900e-02,2.351391045328416786e-03,1.190722626378408824e-02,2.055007847335527885e-03,9.834674941026903979e-06,1.189028317677288732e-03,4.364436502975313492e-03,1.728297592354574308e-01,1.360764851449274282e-01,2.350899107931634854e-02
1.273758549402906511e-02,2.144506325197219430e-03,4.174107364011926669e-02,1.019647514100844189e-03,6.094006950595346264e-04,5.969960587263333949e-04,1.017823532206497093e-02,1.617015280453923121e-01,5.567051258448824785e-02,1.845508747301094141e-02
3.070579885920099146e-04,1.136987156948708437e-02,8.617561378054185151e-02,3.395465616010988818e-04,1.339038338287250557e-04,1.505184455779902603e-04,1.519299063478000110e-02,1.419973445676689372e-01,4.636070905675772347e-02,1.573012772147329777e-02
8.328833408760562620e-03,1.576133914731418784e-02,1.026214284699467905e-01,1.366657273338897920e-04,9.702292923207428855e-04,2.832995965190877462e-04,1.830699734133225606e-02,1.254151446534714776e-01,8.891636364303642792e-02,1.345203620187980509e-02
9.455240559784649362e-03,7.646359341332600347e-03,1.013883312114659263e-01,2.297005174099764520e-03,1.173304987213320220e-03,1.012422403925178262e-04,2.150028258753388169e-02,1.184044356313156410e-01,9.091041068778674128e-02,8.902014784424509483e-03
5.338578550424699816e-03,6.254051956468132181e-03,1.068573813254280747e-01,3.095592401335650785e-03,5.687519585811727480e-05,2.471877378102483252e-05,2.435741771947999915e-02,1.135365615818346163e-01,1.460158226462174857e-01,2.422052103748371498e-03
4.124117141931407226e-04,1.198208760454673623e-02,1.200529289543117162e-01,8.676101313402140910e-05,1.363884125229130337e-03,8.608148609273061184e-04,2.223886748684413342e-02,1.034677260075609062e-01,2.698440480463066837e-01,4.111681772729513899e-03
3.064883581150611158e-03,3.744858527694606542e-03,1.104222444177223456e-01,5.168382819122663806e-03,1.248890461975173507e-03,1.534816633513949678e-03,1.232312266327983789e-02,8.590706290878782903e-02,3.695018271169899227e-01,9.776115901731923657e-03
4.278574653503495508e-03,9.577899453905837357e-03,6.540717117324121310e-02,8.816008583222050693e-03,4.929590029455329855e-05,9.546896263102427026e-04,3.967112604706750888e-04,5.633131961126086606e-02,3.767463883269068781e-01,1.416690317422989939e-02
1.826882777235502679e-03,1.190046141031911829e-02,2.192923850567608107e-02,9.021150149159107290e-03,8.588263101485470695e-04,4.746691265879524058e-04,7.120440934350546168e-03,1.626226370186642858e-02,3.216287340867398648e-01,1.680230600556375381e-02
3.637157123877388619e-03,3.278536207961628250e-03,1.778243998403421927e-02,6.550053110486316402e-03,1.055660881874246303e-03,1.476575188601992250e-03,4.763275192419274932e-03,1.454754052246088128e-02,2.604313178410287977e-01,1.737491945988993772e-02
6.721460995941247289e-03,2.331939427619317273e-02,3.834503926491669018e-02,2.513283070709615517e-03,8.536789214553660785e-04,1.390284379915823938e-03,2.205116548537037428e-03,1.517952118931622033e-02,2.071348693386739492e-01,1.545280619611758346e-02
2.220797387090030217e-03,2.973238848900998030e-02,4.205930978546799232e-02,1.888038029642055389e-03,7.717896494046331971e-05,4.758448868700020313e-04,8.138885075357680382e-03,6.876683539379657012e-03,1.504580587115550983e-01,1.113129411209378729e-02
8.248626008467572351e-03,2.029497438089163455e-02,1.351747386548339015e-02,4.966950485485293817e-03,1.262315421177752795e-03,7.044288414536493785e-04,1.037424077933621867e-02,1.947164824943931408e-02,8.453864847305804509e-02,6.388571800997378675e-03
1.818504044471556599e-02,9.119309711838885502e-03,3.534644209376926888e-02,6.240688315938022583e-03,2.036587364902434083e-03,1.605585049739002282e-03,8.767580287917102130e-03,3.560169419780908132e-03,1.621787345019588822e-02,3.612216457728272510e-03
2.325431978718741147e-02,5.209229079846322379e-03,9.156492915045950920e-02,6.887999153948024152e-03,1.325181784528775639e-03,1.679923350859351388e-03,5.054591597430899662e-03,2.394403268439237661e-02,2.619688403516876735e-02,2.638984421471798035e-03
2.422447023204968991e-02,2.494820779530225116e-03,1.386602856944628148e-01,7.213483383165777453e-03,1.205882727595898487e-04,6.846744357112382728e-04,1.625294910978379104e-03,3.290640151185960510e-02,5.369095665287256652e-03,1.087090870067302685e-03
2.453950298571046934e-02,5.574126270557358195e-03,1.465430150638098450e-01,5.910661500826131648e-03,9.394929821461939050e-04,7.418128805764411969e-04,5.785260897270320078e-04,1.782335774870177914e-02,7.429548666797722301e-02,2.684365096984627115e-03
2.617717115644217774e-02,1.279331829379555530e-02,9.837208026946103745e-02,2.983049500960645566e-03,8.972953635389578284e-04,1.367516444723315726e-03,1.133062417187892090e-03,2.595450568020962745e-03,1.494491459368601505e-01,8.140161363068233388e-03
2.795995206876233929e-02,9.698029236992313298e-03,2.239235202446842460e-02,1.076684947641709522e-03,6.390522192690374767e-04,7.440326067565721175e-04,1.786408434690088792e-03,1.121273623516242171e-02,1.609513636426912753e-01,1.340261346782180632e-02
2.851174864138733556e-02,8.947187551103725264e-04,2.895574150238099803e-02,2.125588186355651266e-03,5.635219335201311925e-04,1.896248482074208578e-04,8.298468904550528047e-03,4.221007508581357121e-02,1.201934425288692238e-01,1.647174566988442862e-02
2.905893990570622420e-02,7.219839500535869294e-03,3.250512509861237104e-02,4.104740494521239014e-03,7.187138043428828275e-04,3.345915520654957169e-04,1.361159719477937798e-02,7.236713339371657339e-02,9.160504249484682782e-02,1.621093122467658076e-02
3.056627694091454059e-02,3.560967736769614020e-03,1.684250772690089326e-02,3.281104199035586588e-03,9.759016405831333514e-04,2.251862080031135618e-04,1.341858915798165887e-02,8.341327534466901061e-02,1.161744024496703664e-01,1.324109750983636438e-02
3.013562271642690471e-02,5.348784425481529874e-03,3.337809712858470085e-02,1.196472473644345173e-03,8.242549131665639168e-04,5.927233166223878913e-04,1.029941182205202505e-02,8.070070841060597577e-02,1.693332779579941605e-01,9.567139477821373292e-03
2.421944983509555921e-02,1.130588448236223911e-02,1.038399431942022971e-01,7.250485927552008381e-03,7.576707715868277163e-05,4.701447891042960427e-04,8.631121655770949974e-03,7.715310268296064755e-02,1.972894030303790902e-01,6.613078206299038281e-03
1.389793468260356116e-02,9.276402182330324014e-03,1.933054052389726885e-01,1.296789426843718458e-02,1.058000129476497795e-03,3.880189192069792071e-04,6.382368584432097577e-03,6.731032546004719896e-02,1.761726817896272501e-01,4.335657191245646629e-03
3.341523457605521073e-03,1.068984078416516806e-03,2.401999808336097442e-01,1.675637152856766787e-02,1.256379736102675952e-03,4.773679199679458697e-04,6.789434704191775645e-04,4.037603205392848588e-02,1.212725749195639330e-01,2.672683817622434951e-03
4.609415480626127826e-03,5.478471077004523800e-03,2.112706716116409533e-01,1.636737609639462090e-02,8.422460184407607993e-04,3.410832021527971064e-04,1.009347199803665995e-02,1.174306113805330398e-02,5.693252785519309356e-02,2.204100724151366111e-03
8.615441204303226838e-03,4.816108075737608393e-03,1.246952683014421609e-01,1.152904701332594511e-02,3.553253461642384725e-04,2.679173081869822850e-04,1.646006699460388772e-02,7.537798603571791572e-03,3.145813651178094861e-03,2.536349060988728633e-03
9.426464405896272172e-03,5.853433851075282197e-04,3.358516976276346155e-02,6.034580528513606469e-03,2.365969621343311051e-04,7.513723410170380012e-04,2.180683862437319404e-02,2.025742888420575816e-02,5.796367992492615362e-02,2.033839959399854225e-03
1.250933031589906812e-02,3.781652230301754593e-04,7.855125955464899168e-03,3.987058765042329755e-03,8.152914642105778525e-04,1.109532083802735897e-03,3.341100964267901263e-02,1.785539002648251633e-02,1.081561379052436572e-01,2.344146172836732416e-04
2.318125165613030281e-02,6.255172255777442444e-03,1.909394717708876726e-02,5.541383704514282402e-03,7.815264564029405581e-04,6.535406985204252929e-04,5.088059329133010761e-02,1.964622077194086262e-03,1.323427340838623512e-01,1.500674505527847249e-03
3.767506918763177670e-02,1.495330363975492897e-02,8.423829083516706784e-02,8.677977145910306320e-03,1.709693556061305702e-04,2.045345723989280644e-04,6.310893468337321066e-02,6.527930164054061499e-03,9.462678760623921548e-02,2.534480725569401849e-03
4.632040768751069515e-02,2.398433107187749463e-02,1.365032949416446206e-01,1.259301576435173722e-02,3.169264304570207033e-04,4.782916076277869450e-04,6.107339914502512429e-02,1.820962035981529836e-02,1.129066771981854927e-03,4.021741569389791077e-03
4.492974921631988361e-02,3.190811323853843390e-02,1.435002835166250545e-01,1.661341402213921056e-02,6.447880897335295063e-04,5.878083193392356041e-04,4.844682040538481060e-02,4.735322902355502267e-02,8.287783659332202679e-02,6.832468585167931867e-03
3.589915923930891289e-02,3.529374496296493191e-02,1.058731169021447927e-01,1.839880322950303640e-02,1.244574271277399443e-03,2.722542443243114191e-04,3.577316689073380823e-02,5.733477131815550853e-02,1.040702532018739357e-01,1.008009314808564101e-02
2.145525945875819199e-02,3.083957197369764994e-02,4.851875252116837761e-02,1.629705704707582956e-02,1.690552227923515461e-03,1.420838287412747036e-03,2.785140291612738656e-02,5.504868971037258502e-02,7.559580858257447522e-02,1.210589481030024429e-02
4.094298587448425529e-03,1.906095931816227315e-02,1.390428796560163292e-03,1.176972973968411565e-02,1.265068665943853499e-03,1.839314942656032105e-03,2.155833938075255723e-02,6.088997323201609385e-02,3.718502959502626576e-02,1.201012512953886571e-02
9.955015207447270517e-03,3.098111529232117078e-03,2.069523343551558925e-02,7.410530558315711613e-03,4.540743235257745872e-04,1.294346738477929670e-03,1.370560114956682028e-02,8.356699125400358918e-02,3.225562921719128499e-04,9.880663081563734532e-03
1.528983355655197385e-02,1.305230793513388089e-02,2.075157516751014591e-02,4.289729747103315782e-03,2.817040866172805394e-04,3.481586755549178291e-04,5.108277949365224932e-03,1.151585170089603205e-01,4.630171547846730074e-02,6.012354863215472328e-03
1.208098278689419269e-02,2.308538358367535209e-02,6.711527228563380146e-03,2.522780953668340119e-03,6.284506795241728404e-04,6.549474871379703589e-05,2.678465217788167808e-03,1.406771720470677001e-01,9.707142824021286476e-02,1.164918513442109388e-03
2.791395611953376328e-03,2.068114991740232361e-02,9.608191995580522837e-03,2.137023372486132264e-03,5.547045203139035555e-04,8.651623698010200416e-04,9.482871144366715119e-03,1.484585709343907156e-01,1.404986494060177504e-01,2.180454354518988024e-03
9.066034626306901031e-03,7.987579248973830995e-03,7.210171606324635059e-03,2.113763577217949927e-03,1.158380086714636508e-04,1.543647431570479211e-03,1.522478100588651670e-02,1.337620353417494079e-01,1.805650465874777677e-01,1.376004999779883347e-03
1.507129240393047936e-02,2.765865285736885705e-03,2.293830747979148238e-02,9.708695273915072740e-04,7.039921518149702814e-04,8.462913074355443536e-04,1.935793452148561536e-02,1.035612374027468224e-01,2.250866935672138081e-01,2.351426757126105511e-03
7.331702842697476741e-03,2.244900066878346371e-03,5.199673946785542122e-02,7.567217074038569760e-04,8.954132448526334626e-04,4.499868020149524811e-04,2.059840543513014044e-02,8.337442314594011028e-02,2.483119244479308763e-01,4.465728296003472139e-03
8.371181114456890254e-03,4.657462506250129725e-03,3.908451006674782541e-02,9.949233602778969135e-04,9.070686035650616687e-04,7.089873779577050708e-04,1.705116426990162595e-02,9.950343716709218744e-02,2.065379255196740371e-01,2.923192142594160242e-03
1.516747731279717744e-02,7.126979087418086958e-03,1.415143730958690060e-02,4.672373322288386364e-04,6.553638762833681941e-04,6.893451755976554018e-05,9.804174584615540575e-03,1.418764916785056340e-01,1.086462419182477740e-01,2.174839957617491026e-04
5.751966514124746098e-03,5.341774428274255124e-03,6.430441360836125497e-02,1.278008965679622820e-03,9.359338922252834951e-06,5.797433839772731228e-04,4.870879693166147578e-03,1.683986154282534620e-01,2.903904185192936194e-02,6.519787648388460088e-04
8.988622514844307743e-03,9.700018222572022800e-03,8.346320730122035181e-02,4.404792448628569554e-04,5.124654548171229083e-04,2.662850228978144522e-04,6.808417770555686734e-03,1.590715478685050810e-01,2.130739139384513550e-02,8.535554521272868721e-04
1.680852291631630344e-02,2.213491480359676411e-02,8.707183160391890331e-02,3.693689439644289724e-03,1.837090063003476124e-04,3.789219971438223186e-04,1.255534598131678899e-02,1.369753563918539585e-01,5.483118157565539108e-02,3.448946123509294415e-03
1.901580748453287131e-02,2.900943289160307081e-02,9.961296643953093666e-02,5.631750711767882951e-03,6.702703497828164719e-04,9.575930473300762373e-04,1.653898754832348883e-02,1.232047790905808071e-01,6.792919176095994771e-02,5.590940940037592011e-03
2.163534712174545321e-02,1.934216487974605575e-02,1.140653959968543629e-01,4.974313891197962821e-03,1.125246340801408246e-03,1.365156849008071493e-03,1.905716415034048455e-02,1.055673469063214270e-01,5.307297940259939756e-02,7.222535695072755842e-03
2.149011405291697402e-02,1.934293089529977305e-03,9.995510974505344981e-02,3.919349806308076653e-03,6.914646742506871079e-04,1.158143098534155160e-03,2.387867555349587959e-02,7.105638105550815542e-02,5.361372281231151227e-02,9.920870500953088075e-03
1.136858202785495479e-02,5.218594106718707666e-03,5.075148774373906130e-02,5.196129555917859341e-03,2.172385305130537846e-04,7.199133397564094793e-05,2.961091405051847689e-02,3.953769589733885370e-02,9.130510725661301896e-02,1.370060496433565464e-02
5.203006600356260836e-03,1.428004777361949196e-03,6.918430165156459408e-03,7.575018852841550188e-03,6.221907567101025690e-04,9.297538508628349014e-04,3.000238999929450562e-02,4.153198652583160039e-02,1.302327592925073552e-01,1.524027179818789740e-02
1.426736555710570245e-02,7.418873387901129060e-03,1.381119932827161965e-02,6.942054249556937201e-03,7.315047914165129803e-05,7.843146831726925021e-04,2.304443963227366735e-02,7.888311912990730868e-02,1.192414529014906299e-01,1.180605489890483584e-02
7.651760864744626238e-03,5.924709622839088039e-04,6.476480341010283637e-02,2.439821423599231216e-03,6.976421661196376307e-04,2.873137299510002303e-04,1.393394660164859813e-02,1.239780227587664180e-01,5.703434790873370547e-02,5.459551719807029940e-03
7.917227690584744543e-03,1.349390117547282462e-02,1.043761694118005567e-01,1.423817805181912212e-03,8.157451340037416869e-04,8.302330489921347758e-04,7.661324645401082142e-03,1.471354257783514252e-01,7.833223677309736344e-04,1.011139869694169854e-03
2.021204389988556088e-02,2.076904958162697004e-02,8.480183257657772367e-02,5.807382871245676337e-04,5.237346059684285220e-04,1.685210460187536868e-03,4.049574533768236437e-03,1.341156856160637401e-01,2.327501527632339778e-03,7.017467369495050547e-04
2.414035872082515716e-02,1.644190451935860497e-02,1.321931769804254343e-02,3.175988546573492877e-03,5.861910221286058178e-04,1.064204682017989845e-03,1.781821485395490784e-03,8.935182654779964817e-02,4.341269080712276823e-02,2.520478629772852398e-03
2.225663225297350514e-02,6.616074468950196817e-03,4.898646478655771519e-02,4.677610339949869918e-03,8.709210870728611607e-04,6.164781112044803594e-04,1.591387790572563023e-03,3.742364154564141454e-02,5.297552681849749395e-02,3.046504397334243858e-03
1.844091915373061163e-02,2.104244990487978868e-03,4.041009732564033313e-02,1.115484225039151296e-03,5.702538043094269524e-04,1.213261338133289147e-03,2.892243666233568385e-03,1.172117801361288215e-02,6.372953481523503140e-03,6.780281122729346632e-04
1.523972456382545991e-02,6.323702941804895845e-03,3.524843621121095949e-02,6.365321470662304443e-03,2.136067206452141852e-04,3.723156574003957464e-04,2.579357956896773194e-03,2.266158997025478905e-02,9.064138542038477353e-02,3.174674300218085360e-03
1.386052221134055976e-02,3.624316448785804348e-03,1.102567628981471898e-01,1.438768057188605232e-02,4.367796990525813785e-04,1.297186177809984975e-04,2.652717946541567964e-04,4.238469554133279110e-02,1.285592138204050550e-01,4.909346490696492316e-03
1.302412037349690369e-02,5.421391653431911241e-03,1.242082043495332522e-01,1.910919417817538365e-02,2.849080328878727403e-05,3.319145788847216731e-04,2.440720766471741934e-04,3.506520259235362813e-02,9.981042261607571409e-02,1.816494684104673178e-03
9.576858767620093082e-03,1.500655050601804562e-02,7.190312595787906602e-02,1.839054257388694075e-02,1.401340036029182943e-04,3.851145256003111984e-04,5.526398255312699008e-03,6.500476270585852159e-03,3.348655754315766481e-02,4.616617954503281045e-03
2.100135838391680668e-03,1.787563310228084887e-02,1.722740634707605953e-02,1.350177292654969677e-02,9.887428673085879322e-04,5.201733383752916214e-04,1.388953860273765828e-02,6.371979563459283236e-02,4.648781713597767429e-02,9.909758151576875465e-03
7.567846435384200515e-03,1.030929075654894202e-02,1.101800631517381307e-01,7.536366312208443198e-03,1.436583500232386070e-03,1.114662038006060960e-03,2.162240858465400845e-02,1.153890001575149094e-01,1.298947643772542238e-01,1.124306986660622565e-02
1.652218253837603457e-02,4.793710422593310677e-03,1.774434780345623408e-01,2.209191338585768903e-03,1.001498741901119070e-03,5.741290542555884573e-04,2.679763653995009126e-02,1.463613287315057854e-01,1.836567498456530279e-01,8.724994538103100078e-03
2.250774833728166544e-02,1.684299987365566256e-02,2.032767661638904544e-01,2.583822102400562797e-03,3.654649114537381364e-04,2.953038646444011771e-04,2.749786102780291119e-02,1.469410928038439312e-01,1.637305065312208707e-01,3.189801747819694978e-03
2.395387710580868662e-02,1.505783736242547952e-02,1.961418657923380826e-01,6.857700474270565956e-03,3.403659679828667658e-05,4.546724040847313739e-04,2.183850411915141260e-02,1.185906078364030725e-01,8.027824427471777491e-02,3.824235057245314005e-03
2.084678566343002235e-02,1.701465268258149513e-03,1.748060299580305177e-01,9.788416995748979235e-03,4.272882055370072333e-04,6.739346491704936758e-05,1.182319144499767785e-02,8.033070347299808844e-02,3.516908874199479312e-03,9.431241529862192247e-03
1.650601577139350698e-02,8.319029474084638220e-03,1.535229172807656972e-01,1.082803734547501708e-02,8.852858021466296964e-04,7.540973766381278720e-05,3.221029262258247490e-03,6.279859533016414475e-02,1.302944152598395529e-02,1.223514570106246438e-02
1.686355957775281800e-02,4.988161154703903838e-03,1.451116769219519265e-01,1.097274142589498881e-02,8.847804764293895879e-04,5.000415541184198825e-04,6.345196391672482637e-05,8.805141445168435110e-02,2.589486660951696717e-02,1.410108834711070250e-02
2.493007470250620944e-02,5.752459623641322309e-03,1.524401027192429647e-01,1.242142920413734017e-02,6.592985921027416218e-05,2.371094361882034453e-04,1.225305531184926657e-03,1.505792406463894451e-01,8.874822958666674089e-02,1.664770683248259150e-02
3.531859830402293843e-02,1.133144270780791010e-02,1.550639002463514438e-01,1.618169607331314611e-02,1.432742188422927304e-03,8.201836551464261951e-04,4.428172177650228913e-03,2.201505323000273184e-01,1.374618404691856921e-01,1.847532341913432977e-02
3.763401213773383269e-02,7.337179857438829236e-03,1.367382858242808807e-01,2.032651768558856042e-02,1.975563600258065534e-03,1.131012238360962511e-03,7.099920553305793559e-03,2.654368351999034092e-01,1.313665839175982841e-01,1.783827653758357848e-02
2.698550962522068206e-02,3.465433002483425109e-04,1.205452884951551951e-01,2.202074783623728799e-02,1.402490625353271713e-03,5.684813856734840013e-05,6.895583384110218726e-03,2.758547485365902552e-01,7.008726220639853455e-02,1.540118478889782386e-02
8.622329818630137394e-03,4.380410615120111477e-03,1.363838665105937265e-01,2.110034735507255316e-02,6.872077208566734069e-04,1.378221248197887159e-03,3.020872813660785416e-03,2.656526351147118215e-01,1.785521807398769006e-02,1.278158131849036275e-02
8.584478886719863755e-03,3.074634056327056435e-03,1.622231679829780615e-01,2.011446176775509576e-02,4.253500926531517644e-04,1.294050152706136946e-03,2.303640152102185042e-03,2.595288641561628307e-01,3.634117751091950344e-02,1.070189917579108911e-02
2.007713136376431534e-02,1.779766284399358781e-04,1.465121252390530204e-01,2.086126219022826564e-02,1.416573934193155197e-04,4.399447527225918320e-05,6.298172340086206043e-03,2.683036739935256709e-01,1.064215990083039881e-01,9.488044004379810048e-03
2.552739568862089428e-02,3.677567784542499617e-04,8.772304228363603240e-02,2.245405672770307837e-02,5.084707984025439633e-04,9.843816835732217829e-04,8.493417835044378764e-03,2.761840922051126967e-01,1.489575623313628139e-01,9.127877734034530594e-03
2.448544320179995085e-02,4.209366369785888518e-03,4.560029910445903556e-02,2.334290871764655925e-02,9.860837797061418938e-04,1.104960540248014827e-03,9.079517996183511172e-03,2.600499739911864006e-01,1.127283384368251290e-01,8.399249786813273513e-03
1.650591459049154108e-02,6.340713019792594204e-03,6.923646016408606385e-02,2.382555424595392962e-02,6.430095679828788787e-04,7.294105008561001897e-04,6.349043554410242068e-03,2.240179891890910213e-01,2.384740836485942789e-02,6.329283392079817182e-03
4.355787084686623886e-03,5.035214362170755287e-04,1.481833943914150631e-01,2.520847595467443775e-02,2.593559371712735409e-04,1.938685347559629618e-04,1.045604254124188380e-03,2.006039433687374918e-01,4.593776641023726570e-02,4.536311041162473939e-03
6.875056762676086397e-03,1.174205490589459895e-02,2.342712258914242118e-01,2.729541371210128867e-02,6.904979611464040967e-04,4.807843905833243604e-04,9.640395006411036152e-03,2.061787591371908868e-01,5.588611996952567301e-02,5.337271073589141060e-03
1.351031666587147913e-02,1.957169622741211645e-02,2.860864861198955111e-01,2.808045420964697114e-02,1.623506621365083447e-04,7.550482279073346317e-04,1.198696144019210930e-02,2.123440792814237366e-01,4.557513534422488050e-02,7.967577834492773486e-03
1.440502495326115989e-02,1.416204675780301236e-02,2.966454361880190849e-01,2.558241881612256796e-02,6.007071928341647807e-04,1.901219160878754436e-04,4.079108614097525128e-03,1.857513260852158565e-01,9.236784151395621700e-02,9.830146916085715642e-03
1.022918592774121373e-02,3.792272383526689751e-04,2.910196534817872660e-01,1.945157228184757683e-02,7.786325441448201535e-04,3.872586430420741493e-04,9.223575124790635640e-03,1.404870465989711548e-01,2.068264251337186277e-01,1.031241202111673680e-02
3.567073565445376317e-03,8.164043594760129335e-03,2.870218342163292080e-01,1.139288451985004565e-02,5.460426521941088868e-04,1.162771582185955313e-05,1.890927051862672029e-02,1.154990475771270342e-01,3.064683646559992480e-01,1.010485525088691307e-02
1.251402511823714037e-03,5.282017777729432900e-03,2.665615652054474372e-01,4.445632993106152578e-03,4.836517959958004501e-04,8.214343299416127777e-04,2.125580792165905966e-02,1.139208551274093206e-01,3.215722218428775925e-01,8.758475918290554649e-03
1.785611776489618796e-04,3.452738340302598068e-03,2.151821337229187225e-01,1.577168688357329573e-03,6.148690831223206426e-04,1.089523609402954108e-03,1.985984791532036803e-02,1.072906465653413882e-01,2.780149210238025970e-01,5.988261015693474229e-03
7.628188302099120181e-03,1.232943146078016410e-02,1.705197968906007056e-01,3.886447898196672326e-03,6.021669723905701986e-04,8.318618411315548524e-04,1.936978455966919740e-02,8.822758688432853769e-02,2.365573173514813055e-01,3.336237028989235201e-03
1.877693464281835270e-02,2.250297395737212158e-02,1.834235589308274295e-01,8.829655925556489579e-03,4.686485574029083381e-04,7.236929164320154073e-04,2.017006131490547624e-02,7.390499690735510829e-02,2.040767006479511370e-01,2.625246582264088857e-03
2.796083912977883820e-02,3.523487263774059686e-02,2.403735817012819520e-01,1.139558279939290215e-02,5.589210525187847693e-04,8.984802154624291519e-04,1.925267929148546595e-02,6.336974601929257211e-02,1.517081911696796237e-01,4.353986746876737333e-03
3.161466567351929602e-02,4.584311763878001073e-02,2.684061656284431052e-01,9.243317485392617619e-03,7.900365755164953912e-04,9.704801172423111475e-04,1.513483271144339462e-02,3.401144846038683944e-02,7.978240487224051714e-02,7.563801584356779316e-03
2.958802204555218210e-02,4.799013568089817439e-02,2.234215526896948245e-01,5.062591385552002617e-03,5.559497127335307496e-04,8.122754384787759640e-04,1.111571585007025201e-02,1.551360338947886316e-02,2.124449260858696231e-02,9.623875182200741091e-03
2.329194943348795316e-02,3.992079735750934250e-02,1.477623341918237188e-01,2.068471170184157243e-03,2.091354353132083275e-04,7.963985559403410994e-04,1.199800499589156327e-02,5.402608025717096224e-02,1.770905932826062623e-03,7.479548412890449187e-03
1.261003890738216296e-02,2.471230039447789434e-02,1.156629214735814676e-01,3.360489025572383978e-04,6.236425637678737373e-04,1.121909522856389622e-03,1.743212420984173450e-02,6.163603250005042500e-02,2.059995041340925703e-03,1.096519874928896703e-03
3.171857519305071316e-03,7.517275688157069868e-03,1.232025351108209377e-01,1.076415934254906131e-03,1.849546763241819119e-04,1.170593579541272548e-03,2.125825539294884381e-02,5.777181378840243881e-02,1.400338864481601164e-02,5.619720911487901573e-03
2.040654834068646867e-02,6.201917797819513078e-03,7.334077171563593844e-02,2.865554235724677816e-03,4.775340126619668515e-04,2.498921208349872921e-04,1.874335531226549098e-02,7.458696369716842633e-02,2.888390550616354302e-02,8.960671575096968225e-03
3.071897216879522843e-02,1.273428191838197297e-02,9.981337964703074217e-02,6.898653130361987081e-03,7.931926058425050339e-04,1.019183366790464866e-03,1.244633632195287637e-02,1.276448696491859491e-01,4.763570863126133370e-02,9.503729966930586637e-03
2.879230240588808581e-02,1.302018700938334383e-02,3.248904199848332564e-01,1.376048276846509287e-02,8.652612798819154767e-04,1.142984189873195826e-03,8.854881782843524590e-03,2.146204915615080588e-01,6.069399746187515571e-02,1.079828746400362909e-02
1.856517048161975339e-02,1.254387749154025136e-02,4.532323578522263197e-01,1.951477226228635203e-02,5.710092966270350354e-04,1.923036619196288139e-04,9.868486148067071723e-03,3.118809489435442339e-01,6.150526615056841478e-02,1.434199928190493800e-02
9.317273203266054210e-03,1.642559386113930098e-02,4.152279514420165185e-01,2.027790402039938641e-02,2.433182101786736363e-04,1.539242899729959934e-03,1.057280921390734568e-02,3.746426327490370856e-01,6.545618743952963392e-02,1.703815976090277545e-02
6.450947068911649235e-03,2.423531379454052850e-02,2.947959878706627457e-01,1.855523849831022462e-02,6.876231716909706306e-04,1.426544856737054856e-03,6.464446844509164417e-03,3.710998065299240811e-01,8.619869603724929219e-02,1.470129581479420397e-02
7.730879217260240577e-03,2.974068907647760274e-02,2.475060588421259811e-01,1.990323117115069124e-02,6.268125414297941211e-05,9.077244101780025914e-05,4.577395631567098260e-04,3.182322862315858925e-01,1.012337392603388647e-01,8.031713405315891313e-03
8.713756623110704980e-03,2.634625594435023241e-02,3.430812544623999538e-01,2.506139044960080733e-02,8.904776644721378812e-04,8.646481646368020003e-04,5.121887511049975222e-03,2.683124769923174169e-01,7.616226916220059096e-02,3.093732587064452252e-03
9.022717211624177794e-03,1.412899916980624171e-02,4.925168707222315478e-01,3.015152758021607052e-02,1.533998548187029637e-04,6.349909806158855752e-04,6.267326056742534429e-03,2.562490716839073701e-01,2.444110697580434421e-02,4.221535427795216136e-03
1.019221932488610302e-02,1.160424977345631686e-03,5.454854814795403462e-01,3.291855444678236375e-02,1.420460623320445081e-03,2.905313866931164522e-04,6.794233256411932702e-03,2.644640947932656583e-01,5.670629272677276539e-03,8.560590427781190545e-03
1.031170888141084117e-02,3.746237670635440328e-03,4.512381336556260392e-01,3.409975550847204467e-02,1.544511384105570198e-03,7.840475433481486562e-04,8.124311087608913559e-03,2.513585292956938000e-01,4.952086406548167341e-02,1.060805904909164696e-02
5.847482850743351834e-03,1.181991697947590205e-04,2.992840175790873469e-01,3.392862228130433949e-02,8.161743376204763038e-05,1.252047275882617154e-03,7.834895862099957101e-03,2.140392105033176451e-01,1.107982092068503649e-01,1.005110323906151931e-02
3.220925542396866487e-03,4.009695698609239654e-03,2.047845103325503513e-01,3.131892051051093917e-02,1.205065558062967754e-03,8.401700293798079408e-04,4.280970009128441320e-03,1.930592469682042844e-01,1.200666530944279609e-01,1.077528785909766078e-02
1.435580496898050153e-02,1.141798806798593937e-03,1.835976284607034881e-01,2.594145560245413734e-02,2.833231977876372182e-04,3.612610561243265227e-04,1.674362308095216426e-04,2.063111965351499266e-01,6.236859488623571618e-02,1.336310929168344624e-02
2.623743995713310323e-02,1.172346944438089344e-02,1.605723092996535206e-01,1.944508819679692871e-02,1.449151099985412396e-03,5.170395769018481863e-04,9.526635358511621309e-04,2.196940553124095696e-01,9.702537748003453241e-03,1.376617755057444291e-02
3.725625940610594045e-02,1.171203264420013143e-02,8.232007300419014184e-02,1.533697899132181047e-02,1.954895975627630230e-03,6.353660269801334609e-04,9.940952358465657626e-04,2.026706508251827632e-01,3.669419225453349892e-02,1.041522885894530931e-02
4.189612718315278289e-02,7.151678618818161498e-03,1.427034398563323953e-02,1.672334455346970172e-02,1.177437331783621121e-03,3.972268317599932726e-04,3.406631974982142572e-03,1.728073871234567793e-01,1.410762711422597349e-02,8.303771315187065405e-03
3.443212275033249309e-02,3.114343727390103678e-02,4.188609527455348924e-02,2.256790170931297079e-02,5.420163676520874671e-04,5.781496062995482429e-04,3.787797329425509306e-03,1.613821171523165121e-01,1.349494272664455811e-02,1.269369360728821519e-02
1.812892288414649083e-02,4.020442219069943895e-02,5.011447890775514585e-02,2.759652703302104687e-02,4.189047897947938549e-04,1.354445367326090029e-03,1.567890660111130423e-03,1.670397260573656117e-01,5.731295528335076175e-03,2.105706439412455278e-02
4.720937412988889317e-03,3.147995431179862608e-02,2.162933159224514623e-01,2.716846401963552565e-02,8.295965861678433664e-05,1.794229669881016592e-03,1.155750386266016011e-03,1.661285396637497414e-01,4.192022613585305590e-02,2.561577196256608832e-02
6.299936441353298430e-04,1.773644011485733460e-02,3.427032268464657028e-01,2.139242771297045209e-02,9.500878362225702051e-04,1.393993824132819769e-03,1.955194141661220891e-03,1.451260141199614551e-01,9.901418272512980956e-02,2.315298793704077124e-02
7.431492687950034225e-03,9.504181636864034166e-03,3.567148065462059647e-01,1.411322770507930646e-02,9.539094071180902884e-04,7.584507703786892577e-04,1.597505396840385788e-03,1.045182354060822938e-01,1.170683490338852162e-01,1.793760377142073967e-02
2.464441664636103993e-02,7.850784198614306833e-03,2.881429771509378401e-01,8.455900004704980030e-03,6.456192279082925798e-05,4.353126783357768540e-04,2.328054589546355718e-03,4.907299801734034406e-02,7.332919296030830647e-02,1.504458288260879066e-02
4.453271969406789876e-02,9.295643464376456694e-03,2.011781336567716738e-01,4.079878996845941186e-03,5.538818609439943646e-04,7.491565008222162531e-05,2.970625990021282577e-03,9.874260913670000056e-03,6.153181034464269734e-03,1.493376084310481938e-02
5.286661726899766212e-02,1.002959611213816507e-02,1.180412353670038106e-01,9.888163923758024228e-04,2.169161494909278235e-04,5.821578290236869690e-04,3.472628417562310531e-04,5.401697600454846704e-02,2.275591533570902117e-02,1.503145111980695552e-02
4.914124837364709092e-02,6.965299969277733913e-03,4.166438268808111967e-02,7.239333888014425587e-03,8.374188465367835271e-04,8.647842147996423262e-04,4.259966906945748116e-03,7.205861982627523310e-02,4.071989461185345806e-03,1.319311339703945277e-02
4.465870683212221082e-02,5.366664594569209561e-04,4.054530835229792213e-03,1.329677326663673657e-02,2.180276725712233018e-04,4.016063880786191974e-04,5.448762900794292680e-03,7.118006740287222134e-02,5.885569993943652600e-02,8.818027392848110796e-03
4.462817857565307827e-02,8.797663361523790776e-03,3.234498154650763263e-03,1.696591245589813834e-02,5.006006804148819059e-04,1.942745150664733898e-05,1.640389253184823060e-03,7.046101864032448814e-02,1.129214492992456770e-01,2.887259339232628626e-03
4.332626004167378780e-02,1.132295383132460656e-02,1.312069673527733321e-02,1.606069442963574401e-02,3.659119452301050167e-05,9.314140463005428372e-05,2.261354821830917263e-03,8.267561402009203364e-02,1.466750442477121330e-01,2.697009613581898176e-03
3.546054725105014793e-02,4.098038928962490293e-03,2.596862094200100973e-03,1.042523692979560254e-02,8.613091982695131018e-04,2.029026160513347043e-04,1.565823701334005235e-03,1.030452631171565603e-01,1.408208270390309824e-01,7.341043896502393376e-03
2.334760006722910730e-02,9.723534777560818507e-03,5.066484940576705676e-02,3.367683275793659833e-03,9.667831232700321246e-04,1.115381035782401435e-04,2.986297245676716120e-03,1.176395017611238936e-01,9.695371401496905017e-02,1.260903613415536965e-02
1.189155036208982587e-02,2.074420451693266207e-02,7.949326559375502477e-02,1.219294367469671335e-03,6.824943775028559758e-04,2.158759303520715888e-04,7.628293067405206816e-03,1.204080012199952726e-01,4.968691829109885688e-02,1.901324064416784823e-02
2.342618079211365636e-03,2.040608866715524009e-02,5.568791869271061401e-02,2.573265614823346242e-03,9.164062741576380327e-04,3.351767542906151746e-04,9.529394887519427801e-03,1.156076399989312692e-01,2.942507814767427246e-02,2.350359368472067570e-02
6.597644115083243013e-03,8.964839728400713498e-03,1.973711149227309544e-02,1.418375754036381876e-03,1.077173481691069256e-03,1.656071042705707766e-05,7.712114374298834930e-03,1.065207908588343827e-01,3.153109329351571483e-02,2.297867490007120261e-02
1.460705766405194506e-02,3.472762475728786991e-03,4.586594673004591033e-02,3.471679075045177188e-03,7.279735186739932722e-05,5.016544793304473279e-04,3.040541449216497671e-03,9.276645834161514892e-02,4.089990645755559040e-02,1.884329442021223655e-02
1.957231135857838422e-02,5.530350435356545802e-03,1.361082414902902160e-01,1.260110282069199818e-02,1.312919609337862567e-03,3.431480248198309118e-04,2.060979706856922930e-03,7.918585692567499390e-02,5.612357398334381908e-02,1.482723908694387992e-02
2.104385584893618544e-02,4.749334256935522358e-03,1.789285008852267433e-01,2.066634871699333034e-02,1.201192958337726465e-03,4.728726046764664993e-04,5.476081820809539091e-03,7.560442583331618283e-02,6.762548660976960835e-02,1.156946871008730782e-02
2.211489313669553688e-02,1.791857311661548824e-02,6.256741981971541966e-02,2.007592972752322152e-02,2.699982625293503901e-04,1.142381652671095376e-03,6.765384956757903960e-03,8.263380591345322046e-02,4.989013005076014390e-02,6.829195888001254704e-03
2.627369159484399530e-02,2.220124112406900163e-02,1.753249081190549619e-01,1.063019427201796277e-02,9.846820611695316413e-04,1.152029804747759694e-03,6.207560548204271028e-03,8.652647446266206743e-02,3.174867394345167251e-03,3.276596595328580162e-04
3.142140673463712786e-02,1.538700521209944785e-02,3.775234236262349219e-01,1.678988316146591184e-04,2.626763664528862009e-04,9.437974020020761757e-04,4.044463123835198050e-03,7.554746055802302740e-02,3.300631829701966558e-02,4.877537809798061438e-03
2.991674468133586479e-02,7.424251980152633303e-03,4.423228121290417869e-01,5.589749439623549129e-03,3.379913513287466365e-04,1.130197571142407993e-03,8.709475017616965988e-04,5.623721799037000035e-02,3.166887056576953713e-02,6.047133245470150825e-03
1.852574442436705215e-02,8.705263081935732047e-03,3.924881596860262944e-01,7.758719478176039422e-03,1.282278904160081553e-05,1.344998508146599912e-03,3.257637807016672098e-03,4.639686592362846779e-02,8.891895841676773771e-03,3.567532848336196424e-03
4.804891737001541763e-03,1.626229881651111014e-02,2.844849728390127508e-01,7.868104726547364702e-03,2.134939520419382696e-04,6.142239494881289669e-04,9.277617229123881482e-03,5.520163871179086662e-02,1.204385325574862560e-02,5.502199432148564915e-04
2.184166099137497662e-03,1.710136971154163979e-02,1.414457048943088269e-01,3.945960487788910051e-03,1.835753593770453513e-04,9.635770476907049758e-04,1.586782864746381222e-02,7.607116842945528534e-02,3.185279345596925271e-02,5.464014483060043031e-03
3.303635108291199437e-03,6.491819551573163247e-03,1.643504218021420854e-02,4.311466729126496068e-03,4.527101402172580458e-04,1.793132158165946285e-03,1.774667434443867597e-02,9.597999215483188351e-02,6.109066341131229316e-02,1.113904346791737970e-02
4.872884831268873250e-03,4.827219116962795133e-03,1.455017773562746197e-01,1.217559728526848919e-02,3.902160612489677361e-04,8.051304453688353825e-04,1.133575464507955918e-02,1.056095671771634936e-01,1.014525602106279983e-01,1.566159296276152871e-02
7.147553149316586071e-03,6.598680384456483139e-03,2.095775839043923228e-01,1.473789677356603621e-02,5.802641417795253347e-04,7.729151109311651821e-04,2.660261146307821788e-04,1.017649644484590610e-01,1.399805055020660050e-01,1.560975559092938648e-02
4.144114436675312187e-03,4.090955433006866759e-03,2.130007227539371939e-01,1.168983461214991200e-02,8.791736734337018359e-04,8.328418132457635547e-04,8.568035082003206196e-03,8.540346753654180778e-02,1.458230018958135421e-01,1.026794276927432172e-02
7.183772834462621992e-03,7.818966970972129199e-03,1.945006914464652292e-01,5.958201861892145103e-03,7.793721365138851212e-04,7.462827363326095991e-04,1.220825774474609132e-02,6.014452105482616384e-02,9.208499937011885295e-02,3.520973339475061501e-03
2.176758793243960960e-02,1.486569760764933773e-02,2.005519933160576918e-01,9.153727733351114601e-04,7.277366667795564679e-04,1.896828927671384514e-03,1.176930581506430672e-02,3.314488123709569134e-02,2.088576022814331561e-03,4.316096431831248229e-04
2.993619714480607805e-02,1.370496579051799606e-02,2.544691802693430649e-01,6.565885555413939704e-04,1.071811802338133637e-03,1.076317510701450342e-03,8.256571655288098832e-03,1.449866502473656435e-02,7.719131261694349433e-02,2.958848676317052308e-03
2.540529962618990126e-02,4.080331501068457101e-03,3.270072481865887726e-01,1.569626446896186470e-03,8.831490981778227075e-04,8.047307170821148530e-04,1.743861612114644757e-03,9.590800359575643586e-03,9.589954232089367703e-02,9.280422456579581411e-03
1.031356934849454732e-02,2.112747622928200231e-03,3.488302492726719772e-01,4.411181205061685644e-03,2.288041957786236596e-04,1.543406329347415864e-03,6.581545180786623796e-03,1.205521701984626701e-02,7.349173497964783808e-02,1.636555952490775095e-02
7.569907284825016722e-03,1.365961410773169340e-03,2.823068286773089408e-01,4.799980970912257408e-03,9.154711114004385197e-04,3.653385310294367228e-04,1.367743482087698664e-02,1.165427955114627795e-02,3.944468715845989015e-02,2.237070770337049042e-02
2.142184369714808870e-02,8.842226191829982360e-03,1.697452329923214709e-01,3.377758965505335206e-03,3.923854468723044918e-04,1.106890114044796090e-03,1.597509481679443635e-02,8.555046064905764969e-03,3.209742898841802874e-03,2.647517872006050627e-02
2.793016675700687665e-02,1.387807457492446807e-02,8.570422628702893675e-02,1.962594218494295370e-03,2.272511595902233978e-04,1.022596607955638922e-03,1.200649591493675207e-02,1.122518390839241480e-02,3.001440945923986373e-02,2.792719214188090979e-02
2.557600348844980484e-02,1.656704945455854394e-02,6.324615708549170823e-02,2.880478579339006140e-04,9.751025061263804330e-05,2.755299409273770806e-04,4.485503561389788015e-03,2.261094671423025809e-02,4.341625402747799345e-02,2.651245895441596209e-02
1.397681704760118764e-02,1.881572963135644261e-02,9.136105998007253148e-02,1.469112348426311956e-03,1.724513961959371752e-04,1.134742221526855669e-03,1.546466115389878455e-03,3.809282608156579208e-02,3.085827159448443699e-02,2.272468547233334052e-02
4.546477092947247278e-03,1.962043838125907338e-02,1.517928677513601943e-01,5.374855006149616837e-04,9.064973705274635609e-05,1.118312727847942936e-03,3.442835554583906568e-03,5.292007247673968795e-02,1.410313254024543085e-02,1.668824032927497883e-02
2.367990716114035457e-02,1.825809747062649702e-02,2.203973709930479308e-01,4.190693755107428517e-03,3.206353440785063508e-05,9.860577522366952789e-04,2.502763191105350591e-03,6.231037645725966828e-02,1.652966157115616161e-02,8.388374989023219749e-03
3.400093010028713836e-02,1.789449670157227529e-02,2.549195918005807693e-01,9.203137517609056434e-03,1.461247515083977570e-05,8.532434664516167552e-04,9.772791426279369732e-04,6.105656417727024082e-02,3.222965613399628171e-02,8.302228938164911247e-04
2.898019031654187894e-02,2.076671218681154854e-02,2.258985044924271268e-01,1.127950188563302605e-02,9.318791848103322802e-05,2.496274293821493435e-04,6.334992389317434637e-04,5.162669034681360153e-02,3.822703016423636274e-02,8.615750554426194335e-03
1.353867436724289983e-02,2.293646866078912633e-02,1.587368210338558072e-01,1.192458759648852736e-02,3.449704521199684429e-05,4.652511899162747855e-04,2.973752022534159514e-03,4.475269184550329654e-02,2.787521045385027083e-02,1.359981288418457557e-02
1.612349696638449735e-03,2.081528667440602984e-02,1.109271520220602297e-01,1.353649470062407746e-02,1.099465480870010306e-04,5.154814544486158168e-04,5.595311626501237555e-03,4.858674135796312715e-02,1.555674226347506135e-02,1.585109198559115848e-02
4.803890370664656850e-04,1.910297472562416318e-02,1.033085523451827137e-01,1.466790618332671457e-02,1.627457917594642671e-05,2.420306678001360565e-04,6.797970394829285987e-03,6.700662119508073167e-02,1.429033417004094489e-02,1.547376181519341358e-02
3.812586989024151392e-03,2.315954774321340309e-02,1.069525920624120607e-01,1.284034240674328253e-02,3.062091398296926874e-04,5.971861013691628309e-04,6.267792372524845501e-03,1.016501517437728014e-01,2.518459368529678277e-02,1.250720927632296281e-02
3.904486350114347651e-03,2.691555179197780215e-02,9.944484580178569733e-02,9.247356171288795626e-03,4.515044393254351676e-05,1.270039322118697318e-03,5.614213814420198657e-03,1.386368776428941463e-01,4.232355994754480322e-02,8.658851916668644164e-03
1.590435835095891813e-03,1.914801570821932086e-02,8.853589623972389633e-02,6.937956638963030387e-03,9.588814082679751691e-04,1.039495870018336543e-03,4.850335360277816150e-03,1.471284272709284802e-01,4.927871046518206982e-02,6.682347544089705521e-03
9.724247038555905095e-05,1.059667753359318752e-03,7.636864290316333626e-02,6.254439256959102959e-03,1.127392426569060954e-03,1.854178049919310547e-05,1.505358043897411140e-03,1.130301259552557724e-01,2.250269479826459348e-02,6.988402375668910371e-03
9.985541862447676765e-04,1.275552610592951830e-02,5.401341837928347323e-02,5.325113497297585298e-03,1.454944289924480643e-04,3.404356824719658109e-04,4.719735644527223335e-03,5.842788194329634477e-02,3.761493531093125509e-02,7.503819338475267026e-03
1.605799218727589194e-03,1.243548170520647825e-02,3.511351737967950692e-02,3.894486506455015901e-03,9.161753107114309520e-04,3.647345601365224190e-04,9.576866633004417831e-03,1.241498526460520571e-02,9.334240821992008386e-02,7.254470144741285639e-03
3.309400188644208212e-04,3.247833541620271519e-03,4.171278867692373299e-02,3.688951705377719117e-03,1.282127872015185847e-03,9.172684565972713316e-04,8.835909162489025137e-03,1.341715511485683764e-02,1.115853440514696787e-01,6.669404622899059026e-03
2.638416924839586623e-03,4.062567400144622733e-03,5.926165019578094606e-02,5.054598990276423787e-03,9.286959571722407710e-04,5.013434384377689606e-04,3.376826401001292374e-03,1.224691469370193381e-02,1.022934052069673916e-01,4.755270051491199135e-03
1.081348864880602671e-03,5.974014229749129157e-03,5.606223874418055086e-02,5.729824258001932867e-03,1.020639036646467623e-04,1.894893173919308675e-04,1.957584185692875199e-03,2.107526526484513468e-02,9.382074434839560162e-02,3.900717687315925688e-04
1.178682942373312191e-02,6.366796782441477148e-03,4.114420295816056256e-02,3.858569808159472998e-03,1.201571949894504653e-03,1.827953015834788667e-04,3.798568362446254430e-03,6.889109650873610768e-02,9.019795735894070576e-02,4.135853065301566336e-03
2.183068846923923514e-02,8.250779745962834658e-03,5.545983495868539448e-02,4.033412487229304753e-04,1.196604874860777339e-03,4.219779270507658265e-04,2.969593400526834761e-03,9.578488330544962515e-02,7.516934792461210657e-02,5.304723150077053119e-03
2.471298816947822136e-02,9.189228671582319943e-03,1.042148260727704112e-01,2.522006861112200023e-03,2.864778076405599954e-05,8.086244638360727153e-04,1.893590098306673682e-03,8.585573443847667463e-02,4.420144955862583686e-02,2.945523581063642753e-03
2.176748108845417973e-02,5.684666129363700852e-03,1.360959083431725891e-01,4.173667072489476923e-03,9.679512312034416893e-04,5.611531711729046256e-04,1.648685177046743579e-03,5.688617123150403049e-02,1.189199628904633564e-02,1.314021371744333519e-03
1.614333773514078224e-02,7.948067702482879008e-04,1.034203524866412344e-01,4.989175659500102306e-03,1.014808355227747030e-03,9.293816877333308803e-05,2.398419758345417870e-03,3.446595931797176438e-02,8.647427203707241244e-03,7.644987096080634557e-03
7.636488484136938308e-03,5.662841659663409889e-03,2.005388524007652162e-02,5.150931850204761714e-03,6.794895606784344790e-04,7.665674643498593529e-04,3.914131571081192265e-03,2.605544020682839731e-02,2.062653685291541278e-02,1.575352597912791849e-02
2.055281457059691258e-03,7.018010358199652104e-03,5.898039884559922591e-02,4.377923475411838947e-03,6.196619207148445097e-04,1.101357434229297992e-03,4.513586057830474771e-03,2.084038610189065457e-02,3.324171878652471684e-02,2.167807554560974292e-02
6.637296301206237030e-03,5.787936454855050795e-03,9.838889545565313033e-02,2.633970023017271917e-03,7.983155844283873741e-04,7.644853606356226796e-04,2.501996158753507123e-03,5.670902708934499881e-03,4.149722412022007617e-02,2.134883223583099177e-02
3.918685560762787644e-03,1.566400844402173961e-03,9.416018920083604749e-02,2.973476499871551340e-04,9.060506919594815082e-04,6.770960871978517462e-05,5.437546492650435553e-04,2.129041591949206932e-02,2.874514391753070497e-02,1.616574098778456037e-02
1.192829138476859821e-03,8.485594690706982010e-03,4.166638852496862278e-02,2.372797853404358739e-03,7.366352984919105748e-04,4.876587801477241173e-04,1.180847958944140517e-03,5.103381191361833907e-02,5.764481692893681786e-03,1.155582556245290764e-02
5.361221491980135666e-03,2.455245059555171902e-02,4.971081914271407304e-02,4.897538052463534276e-03,2.213101115842409591e-04,5.068391187539961424e-05,1.046035073549777226e-03,7.263139632032891702e-02,3.837839624296947999e-02,9.930688660205950688e-03
1.121768979033150627e-02,3.743275118297186010e-02,1.095354887065866784e-01,5.231139357225598162e-03,4.803355343808891767e-04,8.269374319144599545e-04,3.530334647174561327e-03,7.733421753910918461e-02,5.174000434572603724e-02,8.141005546453730993e-03
5.924802481343819684e-03,3.318733046357717070e-02,5.334341559221712076e-02,9.175503513470787591e-04,8.955208817113910914e-04,9.479289981409272326e-04,4.785788023691684920e-03,6.326861894579030587e-02,5.563909794004628234e-02,3.443267995473887205e-03
1.490067391474203876e-02,1.064523337036347994e-02,9.857868121542094630e-02,6.865160381515685722e-03,5.181850498963655764e-04,7.004563275434924543e-04,4.973954909438269532e-03,4.600757131143922568e-02,6.360680528961872027e-02,1.198389097016968035e-03
3.988046421406446496e-02,1.284039061894090561e-02,2.235914344972232959e-01,1.300033464238999070e-02,4.220004045079701546e-04,8.118299039832869036e-04,3.140508689107271868e-03,5.309045783370217042e-02,6.893586526907070910e-02,1.060544129417942795e-03
5.222571578825561250e-02,2.021413472064035460e-02,2.390553491641844719e-01,1.390963792740137171e-02,7.984294539294486308e-04,9.806121615708277440e-04,1.921851855167944299e-03,9.264035662844639918e-02,5.863053842218446388e-02,3.565461815152813109e-03
4.518602607148730632e-02,1.194761748429565805e-02,1.733415575206743720e-01,1.069116488133240589e-02,7.973888708707592985e-05,2.697581086887339448e-04,8.239371660841019601e-03,1.343125213196956214e-01,3.389600702233475094e-02,8.091655649152432878e-03
2.609577842602386205e-02,2.517361047104709967e-04,8.994401567638010686e-02,6.040127316728720677e-03,5.807834023211369892e-04,1.219133703122915642e-03,1.167265061244343247e-02,1.397484936225201202e-01,5.218018951334947066e-03,9.269596489063253175e-03
6.808620455131387042e-03,5.304698422401195670e-03,1.480314552788453836e-02,1.526905243027956976e-03,2.581861323232134328e-05,2.097127914987077270e-03,1.071892886924534494e-02,1.121898980952805019e-01,1.962639939263391420e-02,7.428517363668758235e-03
7.503782041136092436e-03,3.584113968817773284e-03,4.898150585615469732e-02,1.484485275590509846e-03,9.558059756774185244e-04,1.383864117678734436e-03,7.743037463752142947e-03,9.381732332401380992e-02,3.526500444392634270e-02,4.735538605197373192e-03
1.814068895715510721e-02,3.086447202237512519e-04,8.710052162972073408e-02,1.873708307818537991e-03,9.022536695059337614e-04,2.249581923634449260e-04,5.171175546446576433e-03,1.045371983949712619e-01,3.664334248303720981e-02,3.091556037965403035e-03
2.387433592104756808e-02,2.410460865152742535e-03,7.373302057375417939e-02,5.808087538176800839e-04,3.566687610736728414e-05,1.155193938435646354e-03,2.726968726083054979e-03,1.122904539665207785e-01,2.420204683796891784e-02,2.581401213004784912e-03
1.969475156025161239e-02,6.614302415084608901e-03,3.774553454657506024e-03,2.776920753519136840e-04,3.586120963430402772e-04,7.222660932897945630e-04,6.315592445314087552e-04,8.984216389359975241e-02,7.548652411142517914e-03,1.192909409687509855e-03
6.333666900077247058e-03,1.866318562162406700e-02,1.169831046969365962e-01,2.859111855526799044e-04,1.279556059542821030e-04,1.953131626269312545e-04,3.440824591056622795e-03,7.068376193529959939e-02,6.934856794373516278e-04,2.547668795526123169e-03
6.471964131136975600e-03,3.322709644717160293e-02,2.009592506091570641e-01,5.497041708286552926e-04,2.293987513247620230e-06,4.169497108699168138e-04,2.307321354306034362e-03,1.037548925863790578e-01,4.520273085165121482e-03,6.347247927382472336e-03
9.688367729518228624e-03,3.688437478407907005e-02,2.042669582492201985e-01,1.217163722116242075e-03,5.458649144211429692e-06,8.151656566293818550e-05,3.554187551366199110e-03,1.726559395519124407e-01,1.805815041605857152e-02,5.886201822243437159e-03
3.584257578588416308e-03,2.609266694243335058e-02,1.342043972337124413e-01,1.512464666627510827e-03,6.904334397402777821e-05,1.165505437255629059e-04,9.952814742686546742e-03,2.107354558937564459e-01,3.281939508790494842e-02,7.561802819834040346e-04
4.678444984175445485e-03,1.265585033450860632e-02,5.097683112749575030e-02,1.597139698100401729e-03,1.871679658621645999e-04,4.316691719257102983e-04,1.182294112266116075e-02,1.884625629059751839e-01,4.688910240481780622e-02,4.203481714993322592e-03
8.905134773390110947e-03,8.493032989066116520e-03,1.891886979983923439e-02,2.107480590887029093e-03,7.626823197207095294e-04,1.843719150819736431e-04,8.681551665121783196e-03,1.430976811349536360e-01,6.084211693220994976e-02,5.110448488185713282e-03
9.192500569164020752e-03,1.237900281211804128e-02,5.038035339325801915e-02,2.575560408758531539e-03,1.017029192026861232e-03,5.162058028859799717e-04,4.134102875086710302e-03,1.226412773718802696e-01,7.212355458375360739e-02,3.354411275079879733e-03
1.135812289450529797e-02,1.457947370184100103e-02,9.682021901604265235e-02,2.483330265642951819e-03,9.815071712553724657e-04,8.251453774653238647e-04,1.113265025965129787e-03,1.306960294350621443e-01,7.553834119055205520e-02,1.591393588238140030e-03
2.002811844996962506e-02,9.337959239880131226e-03,1.104979863088933617e-01,2.771187335882750041e-03,1.001488294044486057e-03,6.243088273530668754e-04,4.005249911503443909e-04,1.343947471479914335e-01,6.801333705656568973e-02,1.047449484850523221e-03
3.141977253566026473e-02,5.190279726419945363e-04,9.602932962918658832e-02,4.127596691385480854e-03,7.577902913513882670e-04,4.695978881486210371e-04,1.645158698714432530e-03,1.119694670254119534e-01,5.164681311482828552e-02,6.461407732967969914e-03
3.642330799607158831e-02,8.524083824000650705e-03,7.835275683719378215e-02,5.195109907008744858e-03,1.982168195636241608e-04,5.717823783988044322e-04,2.976924563597855601e-03,7.468029972930821658e-02,3.157589783515027393e-02,1.293617136735349463e-02
3.239482184943558857e-02,1.013443017204121964e-02,6.017043158974987732e-02,4.540649748521895408e-03,8.408273304478421496e-05,6.702495327057786173e-04,3.906616050991706425e-03,3.763243091497497916e-02,9.596473005072641421e-03,1.707427772930985438e-02
2.689448479008548290e-02,3.754956197151011060e-03,4.484820886149681884e-02,2.981269125217279620e-03,5.048611807695864911e-05,5.928634888020032192e-04,4.390399377650040270e-03,8.940821415401041528e-03,1.678376214642575415e-02,1.894547066157350676e-02
2.718129501326858183e-02,9.152545573882727575e-03,5.298782724497023977e-02,2.158225463169470386e-03,1.215358147071230886e-05,5.059939965874026002e-04,5.182895203078644042e-03,7.698833331196099083e-02,4.449108872889945970e-02,2.092130913248476179e-02
3.153160350054005218e-02,2.256160792600736195e-02,8.116217568457498310e-02,2.109242041349592041e-03,1.894485149943819845e-04,6.370667767759180446e-04,6.389584925082203784e-03,1.430840647540712607e-01,6.085465145898726752e-02,2.222877845775352371e-02
3.425241545411985417e-02,2.782432030858042471e-02,9.048997064381827937e-02,1.925407943474694494e-03,3.212554982005841396e-04,8.214983052101428995e-04,6.458713660248308758e-03,1.632889103443346812e-01,5.796506498614564795e-02,1.971908689590835470e-02
3.361777548085840422e-02,2.069692751886666876e-02,6.052936980014482493e-02,1.712002098280315972e-03,2.623759805617206548e-04,5.992975514214837155e-04,4.550009585270563608e-03,1.270375992348840577e-01,4.400111573044743207e-02,1.409230114421176731e-02
3.002341841337844916e-02,6.282711997091192449e-03,1.278491251267196462e-02,2.153457927119095151e-03,9.181326542449564938e-04,1.505103605415871460e-05,3.268792699036684839e-03,7.397103047468764347e-02,3.159579843060528193e-02,1.025413284057314668e-02
2.132709879219267871e-02,4.470852233485061999e-03,2.977254968062954463e-02,2.903124643684670218e-03,2.724183803701455027e-04,4.351126278207826433e-04,5.304587384458955487e-03,4.806952469810117645e-02,2.239306804773880458e-02,1.036073778014069691e-02
7.043782458668768932e-03,4.637530648162348397e-03,6.721085504256392451e-02,2.975662045488868760e-03,1.181417417425257048e-03,5.721464689110890419e-04,7.552986276871349013e-03,4.908131108806461362e-02,1.115981155609699869e-02,1.065587865721092514e-02
6.620673394738730948e-03,1.788386565199260973e-03,9.797592579201377938e-02,2.123672592699729633e-03,1.423576905566203803e-03,1.075708075155392849e-03,3.847859616636192977e-03,4.305521648776747257e-02,1.448870200182391819e-03,7.092756214000708187e-03
1.393568211192974977e-02,4.835895793393203343e-03,9.892583981272434768e-02,8.821166315944953002e-04,1.773243490994127060e-05,1.935012047503455439e-03,5.851579936545343863e-03,1.338423359739788696e-02,8.046996306881533043e-03,1.222963872913224431e-03
1.758528459383536940e-02,1.850744828311414554e-03,4.671717149719505774e-02,5.741232535287101296e-05,1.344331323074639999e-03,2.015070079909922311e-03,1.439007758894919262e-02,1.819604192875676554e-02,3.254274731663802604e-03,1.982015374050703771e-03
2.158387248081691454e-02,2.687101789241992840e-03,4.581719355007125849e-02,2.508702515373992421e-04,1.047627900822837525e-03,8.553588401761349005e-04,1.636854329100765129e-02,2.381484446736073166e-02,1.114030266773467087e-02,8.169395549257182573e-04
2.357326149700311041e-02,1.708476732421274069e-02,1.264668126314878738e-01,9.070976269975792282e-04,1.609615625940495729e-04,2.561506383994698087e-04,1.346434593780817396e-02,3.145338566816588584e-03,2.736257338504432743e-02,1.021707126902788362e-03
2.275791346693472814e-02,3.886475923790940618e-02,1.458698826296914719e-01,6.312931294977829413e-04,5.010593621021884993e-04,1.988216782406146985e-04,1.007919567029628115e-02,2.598226740470218482e-02,3.641984153675265068e-02,1.091481968716800401e-03
2.554928836385580646e-02,5.018938323630710296e-02,1.015344852427413208e-01,7.661494829374448489e-04,3.362934218890018022e-04,2.122414582469091173e-04,7.659989274586526987e-03,5.630392753202403955e-02,3.474153454834883609e-02,7.446168988037143825e-03
3.365649720319578014e-02,4.227568534743015444e-02,3.424167763247868562e-02,2.007882140297255480e-03,8.602900363236001520e-04,1.535205213499621780e-04,4.737086189776629902e-03,9.246658524495204867e-02,2.649658090562929599e-02,1.359467751570946417e-02
3.716468694834885317e-02,2.436841368643367575e-02,1.627448949064172479e-02,2.401921107617480469e-03,2.705485874095325404e-04,7.696497366206811897e-04,5.724190586786781368e-04,1.261954833870694570e-01,1.756757252373421924e-02,1.501461071709691598e-02
2.952940144704653547e-02,1.044946812044258294e-02,4.403229986112516814e-02,2.377318190256851298e-03,3.155898303179802957e-04,6.422518680956784990e-04,2.563846661182872175e-03,1.301090713705078394e-01,1.022719514086745975e-02,1.167549106149741792e-02
1.886759596539493850e-02,3.535255362539971302e-03,6.508100409257326635e-02,2.211035952875205039e-03,6.045115930869932399e-06,7.987484347791614888e-05,1.284398417948652213e-03,9.078730892355171833e-02,5.236090378531764629e-03,7.217592470649894162e-03
1.356369151581945411e-02,3.716686130236171968e-03,8.382582954658970853e-02,1.892916074511777303e-03,3.840481012086709536e-04,7.720469937190986261e-04,4.309251887313349585e-03,3.808359489145217436e-02,2.350406986768397224e-03,4.251541646459448646e-03
8.166603476754094246e-03,1.578372752817138250e-02,8.274397059954839706e-02,1.614818184702721936e-03,1.067637835944135389e-04,1.067032747816525160e-03,9.534895400183335951e-03,1.725147597430776863e-02,2.969535252349908908e-03,2.171901566372521752e-03
2.493245828172863023e-03,2.621349096250446403e-02,4.770538795331040471e-02,1.232740751304982167e-03,7.902601192301885336e-04,6.824910513030974261e-04,1.024100627560658484e-02,3.017962666374215952e-02,1.339256244221441461e-02,6.761088610087666968e-04
6.978457690046718960e-03,2.591556351327202468e-02,5.185410451522656609e-03,4.018996723657274344e-04,4.706407395689591678e-04,1.399357514400672285e-04,6.831342662651933122e-03,3.436281475347503778e-02,1.933164007517558167e-02,4.317873732793599956e-03
6.870663057950840251e-03,1.649169996475299826e-02,4.088339073417734948e-02,2.012030819061706797e-04,6.134105207432491913e-04,5.099744009511655591e-04,1.723421070283711731e-03,9.762162051933425885e-03,8.310621043836849756e-03,6.508297270759940203e-03
2.905743350553428861e-02,8.471185780142182625e-03,4.389622715571623451e-02,4.424634407920655359e-04,9.753975310646683956e-04,4.049487602120277138e-05,3.833108768858381910e-03,1.216890454354056100e-02,1.417382168569338539e-02,4.346349960735823581e-03
3.855381671647235831e-02,7.722022879040668641e-03,2.845132436952925448e-02,1.622870396939473693e-03,1.660476739139988287e-04,6.665576429996431353e-04,8.625353738469954124e-03,4.472563159052611939e-03,2.885339712457378122e-02,2.310241437569399321e-03
2.984850764056099642e-02,1.114307137885471415e-02,9.288294575182369506e-03,1.574394717783667149e-03,3.665078159335565249e-04,9.466527943917357442e-04,1.081295142608575295e-02,1.423973325221553933e-02,2.900231466222199378e-02,9.227538490365954846e-03
1.366525149707073679e-02,1.433338783401965667e-02,1.140921949189920188e-02,1.394498407940221462e-04,3.253765916223636174e-04,8.046355210973709250e-04,1.054966366439577183e-02,1.917332476837413369e-02,2.593180595656568999e-02,1.162396281375954916e-02
6.364830794332072697e-04,1.629395275534180690e-02,2.538800482138049361e-02,1.195050552806634471e-03,9.870557147800033352e-04,6.008442747783931904e-04,1.037679839930362793e-02,1.624783774827977256e-02,2.690211837789219240e-02,9.591617309878740921e-03
1.048155928419483747e-02,1.751660415136968574e-02,1.726633542841445740e-02,1.538509333206255526e-03,4.070449431554890528e-04,3.093473625424267076e-04,1.114830563453596095e-02,1.402550012271031044e-02,2.512966428465154833e-02,7.664546588160171120e-03
1.466193198661926676e-02,1.823820748074071740e-02,1.342754657905419896e-02,1.235766118640487963e-03,3.727522546258946537e-04,3.816577562304008728e-04,1.046710161950199433e-02,8.034940455674561416e-04,1.559411195553996564e-02,8.902163658260194012e-03
1.261260290179533686e-02,1.788766859513834379e-02,5.089762302802859628e-02,8.433780371334603570e-04,8.220733579620604801e-05,1.093146696232928216e-03,7.281914907692406923e-03,2.365461173520190530e-02,5.193832722558452963e-03,1.159161376897505959e-02
5.724384441149308819e-03,1.505090617007188818e-02,7.988989669724029519e-02,6.270385739985474870e-04,1.127763283062715571e-03,9.455044625708497940e-04,4.588640608279195843e-03,3.084562540327298943e-02,1.257493610378681344e-03,1.243919241962212346e-02
4.437291267945145563e-03,9.965694530273280782e-03,8.976025499275579189e-02,6.143830173046378957e-04,1.220129476368762497e-03,1.235747610753775718e-04,4.445946705181310146e-03,4.683789801999778055e-03,1.589939101892685761e-03,1.070985173458834962e-02
1.567744943445254988e-02,6.274262742379372454e-03,7.385090061546181750e-02,7.106119119996073341e-04,3.391608738365859072e-04,1.940845700016565725e-04,3.931900654406558782e-03,2.909355012451191047e-02,1.338614690386764373e-03,7.869518018966270220e-03
2.268732985851688866e-02,6.960828374135127894e-03,3.772081106076127788e-02,9.597540342762877000e-04,3.430356291613797853e-04,1.499738253422261988e-04,1.879807840729007078e-04,3.864674935913781778e-02,5.737369357896166238e-04,5.063474631116809954e-03
1.982438642456406386e-02,9.792815171126935392e-03,9.125153336445790062e-04,1.316507446089715044e-03,3.937460428688906687e-04,1.549567188810282580e-04,3.648616623149417409e-03,3.059875101253797108e-02,3.199203910426547592e-04,2.511439564247571702e-03
8.202476442673202126e-03,1.055649121436753185e-02,3.009404405337145691e-02,1.182424446477769748e-03,3.040601142522464297e-04,2.145170863234132676e-04,2.362693298435720058e-03,3.530823345622748077e-02,1.747858654086834745e-03,3.835262963077411746e-04
3.051098617058252502e-03,9.059552797309317757e-03,5.632500158852081495e-02,2.399051836734993710e-04,2.449516511362574136e-04,9.427341445197243977e-05,3.337604388244563326e-03,5.776878963981321030e-02,7.696836741971882674e-03,7.276074841291350166e-04
6.627265941523184309e-03,7.954871804823715128e-03,8.722160335698068978e-02,4.160822884698091480e-04,5.133656831070668587e-05,1.019156918670652365e-03,7.513345478114840520e-03,6.994040418014645100e-02,1.684961284239303025e-02,2.268921016626259312e-04
7.067312650945375800e-03,7.813516507827647506e-03,1.035853279217691242e-01,3.945767680629513451e-04,1.597267906853063271e-04,1.194802445588346402e-03,7.168062645958146566e-03,5.451872946588370156e-02,2.870085078460753170e-02,1.385737784934064961e-03
1.501834683911158937e-02,7.381865917822886744e-03,7.320476097086126011e-02,1.704436708214256699e-03,1.026783760370063216e-03,2.438347376779110079e-04,5.398190687164341681e-03,2.903131959004705276e-02,4.149470044055835610e-02,2.060386177845100614e-03
3.104441338077664272e-02,6.670675845757109354e-03,1.569291747748554266e-03,1.527947283872413626e-03,1.750754495058368630e-03,4.894864519837033084e-04,5.872715863030476650e-03,1.801458252373689534e-02,4.690265801159753528e-02,2.474008370050491965e-04
4.254600588191093796e-02,6.361471145107188904e-03,6.039974168408120819e-02,2.852185764682421253e-05,1.001147502447314198e-03,8.242688137200010923e-05,7.717446978296573293e-03,2.721528850263362290e-02,3.617704470231265790e-02,5.301110173894222309e-03
3.948768693230960553e-02,5.799951508429465434e-03,7.407414174776202898e-02,1.047766791386728173e-03,6.392343859704730565e-04,1.243698509013201059e-03,7.345414246781063229e-03,5.159142153243628792e-02,1.415346033653077339e-02,1.047767109228264770e-02
2.669033995454450289e-02,4.108083622794939105e-03,5.084990968794299293e-02,8.299313363992255393e-04,1.178580096842004070e-03,1.437034669295910155e-03,3.444030444003215539e-03,8.373548171139033602e-02,3.139172567838527036e-03,1.336472108047659715e-02
1.598876022851860798e-02,2.139605666331208678e-03,2.108643659269219400e-02,2.882266617950650801e-04,3.024292949366680252e-04,2.538649242639938659e-04,1.750268778245327910e-03,1.091547618169526890e-01,6.344460250853636157e-03,1.401939361655107734e-02
1.120745252580297897e-02,1.570692207778010127e-03,4.793629451798672031e-03,5.287048888831179206e-05,2.042502479386545564e-04,1.031147970041814072e-03,5.806294371128084032e-03,1.129771561989695028e-01,6.514005103509935661e-04,1.427575548198888912e-02
7.863647339264506764e-03,2.452721799684929108e-03,3.021481178661000744e-02,1.293511797030251541e-04,3.642337862291738278e-04,1.000060625944284133e-03,8.356211625565953746e-03,9.602722382618955610e-02,9.509773149701004208e-03,1.546297734718978141e-02
4.603344171625591008e-03,2.946955619266419628e-03,5.165646250247559607e-02,5.619053275819963812e-04,4.776048798531471167e-04,2.525590320850502933e-04,9.498734569150582563e-03,6.942198019122450270e-02,1.383860255741141410e-02,1.666661961549203291e-02
5.171588095244265999e-03,2.042819451558674105e-03,6.202397921757695637e-02,1.833445614728732714e-03,7.194604312617948298e-04,1.450892236991039490e-03,9.402083061749796564e-03,3.054036304697048745e-02,1.082956407930637382e-02,1.430527308568603842e-02
9.416993109026735795e-03,1.232819402248260324e-03,6.407922931938052347e-02,2.229984895647360490e-03,1.768912874078800313e-03,1.581505038474909867e-03,1.034472135926415258e-02,3.464373444094166754e-02,4.225761492212885655e-03,5.137360719029152728e-03
1.237002387805583720e-02,1.700498002107264824e-03,6.700726045446964152e-02,1.231611885048455608e-03,1.230542681430076696e-03,5.091482181178616203e-04,1.470199374016419036e-02,1.174612151042168096e-01,2.762036494067489877e-03,8.313327451928743256e-03
1.295655317428249208e-02,1.408369674252567434e-03,7.351205151126374848e-02,3.119709858371799119e-04,3.467327651559769762e-04,1.010368776839081547e-03,1.995554616976204232e-02,1.812279666261700783e-01,1.092797405539342251e-02,1.790150109846161755e-02
1.451615550367637425e-02,1.881465303201495512e-03,7.983582050181972645e-02,6.483979554114342042e-04,1.502490720400164641e-03,1.607278491379478952e-03,2.014790961323694243e-02,2.008645863702454293e-01,2.290988492326121589e-02,1.792742963196438874e-02
1.616208881022685590e-02,6.001345324367038381e-03,8.664268076034462029e-02,1.562536213690479811e-03,1.380404122666123575e-03,6.509965659018651218e-04,1.316412472625083999e-02,1.826162050691919614e-01,2.829217297891157071e-02,1.075558215596689529e-02
1.266524174164646195e-02,6.598585570245159813e-03,9.823497523311773560e-02,2.137632253956679891e-03,9.830167507371973651e-05,6.719326581026461393e-04,3.236570694843845467e-03,1.417183661227408020e-01,2.294282356005957618e-02,2.705405401460500396e-03
5.038433808897326872e-03,3.299855330643142182e-03,1.073248658079621054e-01,2.610295537658019124e-03,1.156427901625236947e-03,8.053224931694908393e-04,4.075852533566487468e-03,8.692388633083578120e-02,1.205329831187043968e-02,3.245331737825884327e-03
3.373550500608940919e-03,1.397210677543678572e-04,9.482017829209410387e-02,3.116832217551844531e-03,9.684052510273925395e-04,8.763860111231244971e-06,6.951726007462142969e-03,2.572575473866676662e-02,3.143191165100760361e-03,8.564710377389190762e-03
1.426769899812438055e-02,4.041128657682050481e-05,5.628395187710565073e-02,2.833030320361376152e-03,4.136016856655675496e-04,3.298250841138301664e-04,7.278952417151612724e-03,3.574132259759132263e-02,3.702390379832932316e-04,1.394016649678727661e-02
