6.432338064170976810e-02,2.098458822379582409e-02,1.105392482171936239e-03,3.251604880017949090e-03,2.721061160813378877e-04,1.696727335730969046e-04,1.532796674551196656e-02,6.948391990150634689e-02,8.771305970882554114e-04,1.927785144289050068e-02
6.041976609218888822e-02,4.405884833275273971e-02,3.290086377131481998e-02,5.768124174271765763e-03,2.196740026646256522e-04,1.765959024699152713e-04,1.235507472786079135e-02,6.847059117344513057e-02,8.366902848493670353e-04,1.974366564336597213e-02
5.754082303920669828e-02,4.159018007198016231e-02,5.062477205488411652e-02,4.582424141065133405e-03,2.139067975841937668e-04,1.799742773316069337e-04,6.765541654294130944e-03,7.312222623690517453e-02,7.611926938400301887e-04,2.007588157235373413e-02
4.392889749761706708e-02,2.151065612961880133e-02,4.374901808342335913e-02,1.200961117231440873e-03,2.929215922312487655e-04,1.796101984029803748e-04,5.629779886510315797e-04,7.196051000499295580e-02,6.519716417677472306e-04,1.936901619112220072e-02
1.631528602406515788e-02,3.677426546575580067e-03,2.718137428326440619e-02,6.755474229564695189e-04,3.436748213507478077e-04,1.754290784665602659e-04,6.496863581105664746e-03,5.034974837901069755e-02,5.112484383042222979e-04,1.752682266757444804e-02
1.204822317849646093e-02,5.485385793504605513e-03,1.457955195331282067e-02,2.717992450774534257e-04,3.455149220712519249e-04,1.674766884695413124e-04,8.479143501350486917e-03,2.032585610771119738e-02,3.420827392121286378e-04,1.393347969287858992e-02
2.691331622768592530e-02,4.897269135080294274e-03,6.278895599416484813e-03,4.336568674428502258e-04,3.499882627634264931e-04,1.557952037277642000e-04,6.313676404439140868e-03,5.166541661096493709e-03,1.483196308771263380e-04,8.009444095417508208e-03
3.065229547287780243e-02,1.428859438563039042e-02,2.160650745864348653e-03,3.758201420452356167e-04,3.664696116072965640e-04,1.404289064628046701e-04,2.515640156686096800e-03,2.412417790990793731e-03,6.548476145681512116e-05,1.375436770025203386e-03
3.387540305778276306e-02,4.931098097793734647e-02,6.258711727393137178e-03,1.768426719564095671e-04,3.701820323966372806e-04,1.216859589586739550e-04,2.775615250348665566e-04,7.888373714994074970e-03,2.941911267309458493e-04,3.940776359209223999e-03
3.619495277130756195e-02,7.475827554215240534e-02,1.948574537979246707e-02,3.144229772479931596e-04,3.560781602709706638e-04,1.001237829207983726e-04,8.407616081502486752e-04,2.653510143686368256e-02,5.322157990036302392e-04,8.200993344461211462e-03
2.970563742662300430e-02,7.223139854080411204e-02,3.895581322986596540e-02,5.116585994663494031e-04,3.357551294740154660e-04,7.597438409382581089e-05,3.527073493848764760e-03,3.427289678820658742e-02,7.736042743863635667e-04,1.078663498863319768e-02
1.683972422454058093e-02,4.996214446873952636e-02,5.836444971039950191e-02,5.403119810295061365e-04,3.117251055296999429e-04,4.913971794878942042e-05,7.413072281191100503e-03,2.199832745214719970e-02,1.012120065328146789e-03,7.981233845502748447e-03
8.485056831598121463e-03,2.343741788167390608e-02,6.583462508188719919e-02,5.240636337111968671e-04,2.785305252932656771e-04,2.039286858350747024e-05,1.179166522867891413e-02,1.166977272463966785e-03,1.241504821156287543e-03,3.058162505648115079e-04
7.245425075053986246e-03,2.336512754765543258e-03,5.549563064334256390e-02,5.687329411745467881e-04,2.357895774864971817e-04,8.611216231638510308e-06,1.572954576445869529e-02,1.344093870256528496e-02,1.455731632862603290e-03,6.278909998069781388e-03
8.635801624333859158e-03,3.144413305328994709e-03,4.140400516827475591e-02,6.154745599029372424e-04,1.878681562999423875e-04,3.793500519440663358e-05,1.799299032303976892e-02,1.862873163080622924e-02,1.648903394226780084e-03,3.225794993804534036e-03
1.409623251990031571e-02,8.277683903173885596e-03,4.221395791028811906e-02,6.120779110521876176e-04,1.356246133631555011e-04,6.948638783955889500e-05,1.735813154147804876e-02,2.124677001489544761e-02,1.815156663675779975e-03,5.743680959993912628e-03
2.604005146126283851e-02,1.902832721319753714e-02,5.412615852575067971e-02,5.841582165110463824e-04,7.627218906022188217e-05,1.015102420638991804e-04,1.368000369102096228e-02,2.760956504764815189e-02,1.949313063006122716e-03,1.314922061640869111e-02
3.749611268281465709e-02,1.641832565601165569e-02,5.663176035995216850e-02,5.558053418383042269e-04,1.173696181257107765e-05,1.282117645579460702e-04,8.860782077058352094e-03,3.408020595823767901e-02,2.047517171802998911e-03,1.641243569719688655e-02
4.182011648897326211e-02,1.012970199483787664e-02,3.988240274023642506e-02,5.146248819392006905e-04,5.074388804423200051e-05,1.515511705112927341e-04,5.340083970404404211e-03,2.929926270968419635e-02,2.106246189293833199e-03,1.720580913153415409e-02
4.235100797487136026e-02,8.755894855443192154e-03,1.104142222779202001e-02,4.485603639783645666e-04,1.122196312965017455e-04,1.823956120287856882e-04,3.969328730621411727e-03,9.605941388174287637e-03,2.121265092131179638e-03,1.615265710289037066e-02
4.259509218213742426e-02,7.934160228923872044e-03,1.822213404496377323e-02,3.641553123444386830e-04,1.837621409198752630e-04,2.153980126687763199e-04,4.601021689398212405e-03,1.395191491771598756e-02,2.090008325676356946e-03,1.291991702634148753e-02
4.027624799568491759e-02,1.117895162386777289e-02,3.832626646347263299e-02,2.693801246138224068e-04,2.595791757656627828e-04,2.259164180791870436e-04,6.168194157268677355e-03,3.208184745630959789e-02,2.014110646101084905e-03,9.173381233325495626e-03
3.572038634622928810e-02,2.597601581105385762e-02,4.439788574296642948e-02,1.617595348634483796e-04,3.127089068719012249e-04,2.236152344138329147e-04,5.022698690009180789e-03,4.916243103635430101e-02,1.894561426393940456e-03,7.565906913547311430e-03
3.315164326235459785e-02,4.084635526943446865e-02,3.963560922011859222e-02,3.645739925682413507e-05,3.514710000152920311e-04,2.604758264549473135e-04,1.798235661620742375e-03,6.688345979852677869e-02,1.726280847878348002e-03,8.535163794099798196e-03
3.342359774505301168e-02,4.216507667161698003e-02,3.111752916602841812e-02,1.015073881211938777e-04,4.302074695323288662e-04,3.165480507113116611e-04,1.066469031780077278e-02,7.387303351717865174e-02,1.508364574818855160e-03,1.037613295439268439e-02
3.312593266398272673e-02,4.037216205715932205e-02,2.253623146603151925e-02,2.412512093783237047e-04,5.295209928478705535e-04,2.797441370824572124e-04,1.433486163184541536e-02,6.630015486674360747e-02,1.255900787955434523e-03,1.146596223427223150e-02
2.671719702950008796e-02,5.017477025672228280e-02,1.352354440355877339e-02,3.859583193847619035e-04,5.301663054496763951e-04,1.893041537330247392e-04,1.036021845359657266e-02,5.607370611016660594e-02,9.782956404073761200e-04,1.067119608853523034e-02
9.436675992289349918e-03,6.447024077313234791e-02,2.174743359796189185e-03,5.510426733968690422e-04,4.679842676354279904e-04,2.882140271020220855e-04,1.640082420446315088e-03,4.539837100875231818e-02,6.532985670905766106e-04,7.286821943348486749e-03
1.319895915630754993e-02,6.679103563377833397e-02,1.140857345433198174e-02,7.247301067537642843e-04,5.992671357583966105e-04,5.085160954891257022e-04,8.451145467963144114e-03,2.161565109401779664e-02,2.723769236763632154e-04,2.789619134299664398e-03
2.464575004591785731e-02,5.015053470453847279e-02,2.177273147597987707e-02,8.683158438100370717e-04,8.620575788342887177e-04,2.873438980181972015e-04,1.655956673307406105e-02,1.061766955789977471e-02,1.029228325273286258e-04,1.166671608108081019e-03
1.704171944132665956e-02,1.852973361650794501e-02,2.339870260431295770e-02,9.990464203685478755e-04,6.639517614839426062e-04,4.980104581705360267e-04,1.813409114869848210e-02,2.103369365849489317e-02,4.367620316419532620e-04,5.056386218132775251e-03
2.600678450507135434e-03,1.127646982101025708e-02,1.921401302196737437e-02,1.193179159466364750e-03,1.323023084781901708e-04,9.773501037170053470e-04,1.045091201858004692e-02,9.965452316476983152e-03,8.422836583684493702e-04,1.215668208695075241e-02
3.655932275044277042e-03,1.627066091875649378e-02,1.570503429105134241e-02,1.409774510487391214e-03,5.944197523982200099e-04,5.119277734426736426e-04,3.747890335352604442e-03,6.398292926662767222e-02,1.380556331420927608e-03,1.712186171182670039e-02
6.463578531139928252e-04,4.069557557475637390e-03,1.237930228742211564e-02,1.478834236881875061e-03,5.120468207436629975e-05,2.605273884018861549e-04,1.793383418537443375e-02,1.005535676880151413e-01,1.791963578010346766e-03,1.642168227816546630e-02
5.534503760607554883e-03,1.869511477176037662e-02,6.220943801171788246e-03,1.479724342768684933e-03,7.278797980465924206e-04,4.707828458906825790e-04,2.718284101199599373e-02,9.686799471551738039e-02,1.921236643653061399e-03,1.059083161970746957e-02
1.192719606199716190e-02,4.622705273791294714e-03,2.585312984251159074e-03,1.786221944743225870e-03,8.009740629635142637e-04,2.423630447088232290e-04,3.061357179231010209e-02,6.975533524851712519e-02,2.317371850891612739e-03,3.215150589755720774e-03
1.629465935554284817e-02,1.855053694703615377e-02,1.049745577162582849e-02,2.214533826671198809e-03,5.741284499126005861e-04,1.389223195906437534e-04,2.904127016234626935e-02,5.195816949565153220e-02,3.312619285215163707e-03,1.804456105501099682e-03
1.469030038254207429e-02,1.394877885457423798e-02,2.945698560982898742e-02,1.641247413408746881e-03,7.863265131188261351e-04,2.293719295020922079e-04,2.342371270927417343e-02,5.120350792227395392e-02,3.359145356515748360e-03,3.604715057630845064e-03
7.955016758075212496e-03,2.377370372450362049e-02,4.871457054923633567e-02,4.748015200675134782e-04,8.755900172708181144e-04,2.714912907778881026e-04,1.703952123875018473e-02,4.964535450139406780e-02,1.989486574451397312e-04,4.629221432988318147e-03
5.521981125811013108e-03,6.539841132866153206e-02,5.710072814659478829e-02,2.583856486029528516e-03,8.616614371736025242e-05,2.261023735916452206e-04,1.568674173574500369e-02,3.737214474284367149e-02,5.263345694016147505e-03,6.492010298800978199e-03
1.615926003663262223e-02,8.482975979719281634e-02,4.997298197527579727e-02,2.496215001147532135e-03,1.390366646044369128e-03,2.053582705223006813e-04,2.156351444523372032e-02,2.331106019296079468e-02,8.293406291472710246e-03,7.843850316914325813e-03
3.538173216649040387e-02,7.746476874842271598e-02,3.094436119260169857e-02,2.348761895721997541e-04,1.415379604574606986e-03,2.303662354616170245e-04,2.840192801750520205e-02,1.688276888993343189e-02,5.538117450927547425e-03,7.828671503405744761e-03
4.745281094131471172e-02,4.862107530835851898e-02,9.016986852712143355e-03,2.017018819862972413e-03,1.399442852676542799e-04,2.498714655574246768e-04,2.770882157062064255e-02,1.897872846395548194e-02,3.393415013737455287e-04,8.242168464828281138e-03
4.135588137828961897e-02,9.771273106150311222e-03,9.430650578424178837e-03,2.772871600932359099e-03,8.760294486898219076e-04,2.521116115615072858e-04,1.956317828077607998e-02,2.906865005974802393e-02,3.602919934596170420e-03,9.997640838395374305e-03
2.059643939396366835e-02,1.768988875549125719e-02,2.517052672287524093e-02,2.556786533040280879e-03,8.761422302143533330e-04,2.599871121184274330e-04,1.171789073642938613e-02,4.729555702503956266e-02,2.566928777558211399e-03,1.111480120339205374e-02
3.741869053947634652e-03,1.793910269963427256e-02,3.990801067879051756e-02,2.378836472243145254e-03,5.732020254427598561e-04,2.826592166250583237e-04,8.292512286810660438e-03,6.887478429674953606e-02,9.877279126302240895e-04,1.086119444807318903e-02
2.430888630315298365e-02,8.418916422794821969e-05,5.091141556375659849e-02,2.463730154031651496e-03,6.056418421551756437e-04,3.119836608167504926e-04,6.162232430843121722e-03,8.335834789316150240e-02,2.074505268070115510e-03,1.180835155214365363e-02
4.009294301004882183e-02,1.314595847359604011e-02,5.685992781217759362e-02,2.677699406847849645e-03,7.848811702151007718e-04,3.363770133872639079e-04,3.052803780003088795e-03,8.377869882559230152e-02,4.527438699283141757e-03,1.472949093252122477e-02
5.326275241132627514e-02,1.246124570562333854e-02,6.061176961690505072e-02,2.869670592330385642e-03,8.234669883380260234e-04,3.536020734163178455e-04,1.603309504461604027e-03,7.788891311866838474e-02,5.725840172762332488e-03,1.583022790575404001e-02
6.527491323185578842e-02,8.468801953025018037e-03,6.110486317330035555e-02,2.658149228400274663e-03,8.061088902418084810e-04,3.834185956876273792e-04,2.935670697168366906e-03,8.420525928606306665e-02,5.483743036260517283e-03,1.231251133519044999e-02
7.182831944515125078e-02,4.301868838254525179e-03,5.520763144483056828e-02,1.970921557780533177e-03,8.729511093002149946e-04,4.388865054127211542e-04,2.590455646225128285e-03,1.069177112348846936e-01,5.034958802104209409e-03,6.739734468043610642e-03
6.358385253662852954e-02,1.709430070488499737e-02,5.022795257695363697e-02,1.575286212250670776e-03,9.752951172627457839e-04,4.789702596645938667e-04,3.571050774473800288e-03,1.197161101695289886e-01,5.010120522495663774e-03,3.167523706845663811e-03
3.871629316265754600e-02,6.713406462597416857e-02,5.628037101325315122e-02,2.069423865841223294e-03,1.034362990445767761e-03,4.691892012021686514e-04,1.390428939204621170e-02,9.355499771331182712e-02,5.550840344890698927e-03,2.153211929892556546e-03
1.125627494373915814e-02,1.305124993006251399e-01,6.590396336756806916e-02,2.908821884782457172e-03,1.093660222358590079e-03,4.936730368416084600e-04,2.472436451833119608e-02,4.081233245568527401e-02,6.116332903271889943e-03,1.632011818894913736e-03
2.402295394544828704e-03,1.849797083020091881e-01,6.229456167329540384e-02,3.283863253836369605e-03,1.215799245380138130e-03,6.284433471868230330e-04,3.514350798356886268e-02,6.061735551791218139e-03,4.845503961507771108e-03,3.234194659053580504e-04
2.525653119307466350e-03,2.244428884434437887e-01,4.644060814967485018e-02,3.182116022359807173e-03,1.332037841577574664e-03,6.942532843228840659e-04,4.362003319511107563e-02,5.838202158791505787e-03,6.963022778741640969e-04,2.003986873284436653e-03
3.123193992969476411e-03,2.490962621537193278e-01,3.761668386253199520e-02,3.054465541107303193e-03,1.354780826809649915e-03,5.204071471907510899e-04,4.446584562384033740e-02,6.353143365113913393e-03,3.627090298015765626e-03,6.522733610151638592e-03
1.335882309040619179e-02,2.535822092471408662e-01,4.818694765433152033e-02,3.243770477168319167e-03,1.426355107607368356e-03,4.869513864467091670e-04,3.511014936686202015e-02,2.589348918499305083e-02,3.681723980172143564e-03,1.432771955681668742e-02
2.752504996351193972e-02,2.377414251520440502e-01,6.668733722026067012e-02,3.743711862089737098e-03,1.694081442657488197e-03,9.914188197766992013e-04,2.245991800854876819e-02,7.794837895874584532e-02,1.168114854223571914e-03,2.254522417995514366e-02
2.936867952257352088e-02,2.094781532216576370e-01,6.461445956610988028e-02,3.635329150085287592e-03,1.565657720060470697e-03,1.178357517017457811e-03,1.375248926139271445e-02,1.110089779695752621e-01,6.359646073191187535e-03,2.521226268043397223e-02
6.153532375172273208e-03,1.692454037420739466e-01,2.389072167408034728e-02,1.249870401936653379e-03,2.349408448568071509e-04,4.272597031473823704e-04,7.068685410576075641e-03,1.086166887253372376e-01,6.955105037363520752e-03,2.062157907432510262e-02
3.470802352126899082e-02,1.090056539989581463e-01,3.994590732871187988e-02,3.901975968557291029e-03,3.908172654913392302e-03,3.500033507689798672e-03,6.268285707405302047e-04,9.025330342797972805e-02,2.538389956047334452e-03,1.416114822483352867e-02
6.670385693841895947e-02,3.122635572550277322e-02,9.237422300675321440e-02,9.746842948628705455e-03,7.242164988557676410e-03,5.739835925888939726e-03,5.099639436487625986e-03,8.529489769420463274e-02,3.010100498635326100e-03,1.090097504995433259e-02
7.182817516298491134e-02,4.193877561031024437e-02,1.155281974177633370e-01,1.321089069355695263e-02,7.610108135983250678e-03,5.568517896874529763e-03,3.500672586811581777e-03,1.007615317084335077e-01,5.621050537631875482e-03,9.827305566970976833e-03
6.269214686770646638e-02,8.151713079594333222e-02,1.139895720090553233e-01,1.284149768200880740e-02,5.327016513322325141e-03,3.505001447215446743e-03,1.242737693278022498e-03,1.162371483056855448e-01,4.361862607347616848e-03,8.492412198652923502e-03
6.342836321874538441e-02,7.102766385620198908e-02,9.338812549587770240e-02,9.491191407065268162e-03,3.157680252903867935e-03,1.082178545148340795e-03,2.368589104006548103e-03,1.124370826077047691e-01,1.018521541768538331e-03,7.478346989536773133e-03
7.177469671805672413e-02,1.736853975910141595e-02,5.652524228233121728e-02,5.252623821077611818e-03,2.430037216219931191e-03,2.880450952013981539e-04,2.687729019486864192e-03,9.371056139698409615e-02,2.548293069979300218e-03,6.731979006207713077e-03
6.121460178997838175e-02,4.824084762203707799e-02,1.782243752490869984e-02,2.025448709869006030e-03,1.930644301739365505e-03,1.840126853151018399e-04,1.851574325697881787e-03,7.009380122313875472e-02,5.802621025698656738e-03,3.608877480742997846e-03
2.393855381940632882e-02,8.430146843346858487e-02,1.537685826264184033e-03,2.388237787240033989e-04,8.195060412631113194e-04,3.243143466543039208e-04,8.207451153604236257e-03,3.737332962704133926e-02,9.063144059789609436e-03,2.136685682233177650e-03
1.448292607396376754e-02,7.179282731270507367e-02,1.130790366119208308e-03,1.183432864309358562e-03,8.557728793701433042e-06,3.863299509995369663e-05,1.144610796933741813e-02,4.138231915365806618e-04,1.225280747891802254e-02,6.277301053224473328e-03
3.373983308960374489e-02,3.437334042039721926e-02,4.768714780474248016e-03,3.126511315675907943e-03,9.413738605663012852e-06,7.301689783384191813e-04,1.091395329054933167e-02,1.107876738862566442e-02,1.342040274801540797e-02,5.225511518339769935e-03
4.481306682515640016e-02,1.126230050427583403e-02,7.346014356530239028e-03,5.120860542944603855e-03,5.314291808996749432e-06,1.010123989698782053e-03,9.051923799289748884e-03,2.806890437015939141e-02,9.741034983076084924e-03,4.655322265147631648e-04
6.080713868896252261e-02,1.200436561831000337e-02,2.516988952285168987e-02,6.306407541374937920e-03,4.923228281407854463e-04,7.763998520949496034e-04,8.090516528961918391e-03,8.500623516754358955e-02,1.980269596067955624e-03,2.989458696947795875e-03
6.826619780179810082e-02,9.659819189282353724e-03,2.668480303045398308e-02,6.451308755881345579e-03,9.923837690947602107e-04,6.139251682743116683e-04,8.888170818865779796e-03,9.997039472172980501e-02,4.579930743838075621e-03,1.780581363104844200e-03
5.099578581477576256e-02,2.510199712367258001e-02,7.171855100625360024e-03,5.563993864505752292e-03,1.405380232027027493e-03,6.683422449124438872e-04,1.009599031406083376e-02,5.781682579200683736e-02,6.362350221322082312e-03,2.248409877662526247e-03
2.198885011196449746e-02,9.036242186129864185e-02,1.556701826494995972e-02,3.784618115994244168e-03,2.030304058143504470e-03,7.293112770033961974e-04,8.356703072661425535e-03,7.218448681378505406e-03,5.221541859578856561e-03,4.484978813972615580e-03
7.897299465053292736e-03,1.514537237603615083e-01,2.074098795880270282e-02,1.958107627346902455e-03,2.344520356209061056e-03,7.068787198771526569e-04,2.167284547848392310e-03,8.557221011403015956e-04,3.706371217016598673e-03,3.769966837140014022e-03
1.620822679067370625e-02,1.701988853703557958e-01,2.443656857279876641e-03,1.154514922012144515e-03,1.772659472578989393e-03,6.107640384989508489e-04,4.138149383386966959e-03,3.716846790346686746e-02,1.251915442937800299e-03,3.787722435654641145e-03
3.515844055306219240e-02,1.354491656933149712e-01,2.793070958680306942e-02,1.444472413863677517e-03,1.151197016234604444e-03,5.153792330992206438e-04,2.737450896474039747e-03,7.332165285695618762e-02,2.378988198422455833e-03,6.615434195826759220e-03
5.170709011034194807e-02,7.249225099090234048e-02,4.942500773938944547e-02,1.596933820223706045e-03,1.527828942063327476e-03,6.076898038212927462e-04,9.431974829232621024e-03,7.503189840951866862e-02,4.373361212840608941e-03,8.139774545913785325e-03
5.478216145454126162e-02,3.096560789545779041e-02,4.380484006907678363e-02,1.728043155864684782e-04,2.327648821317470935e-03,8.030536279249509378e-04,2.515208311464391111e-02,3.425349881311696293e-02,2.230632061859032407e-03,4.456904497398664171e-03
3.541481325787953355e-02,4.697374202960850204e-02,1.067436965112836256e-02,4.648775801951523373e-03,2.182249416423396021e-03,5.650626417645464175e-04,3.252215749957835383e-02,3.789984861833829710e-02,3.289953230435310565e-03,6.479532617900407576e-04
7.026397297295115373e-04,9.882474653019712729e-02,2.630016870514963537e-02,1.003231992415215719e-02,6.630810742724965083e-04,2.209242929503492012e-04,2.711188999368237956e-02,1.066862974094318350e-01,9.945241547833346893e-03,5.740490819234406877e-03
2.268294032643079772e-02,1.243763693435568640e-01,3.763678524262201869e-02,1.284864480200312992e-02,1.430357520969255739e-03,6.976387396208142376e-04,1.525144166893273659e-02,1.245304436189359765e-01,1.593272044545406690e-02,1.858796130678915665e-02
1.351923375929451991e-02,9.747051884248818243e-02,1.697424804585818958e-02,1.125592408752791769e-02,2.556420142801889891e-03,2.304892993829937191e-04,5.507750839449846066e-03,7.399194530928299152e-02,1.921057445556120444e-02,2.748009046961180646e-02
2.227887419015688736e-02,4.851881005514417644e-02,1.578563572213513219e-02,6.419555064554686649e-03,1.545955232982556323e-03,5.491730942290435355e-04,1.687481467354516856e-03,1.449951154081590733e-02,1.763264462226724061e-02,2.647891530550663605e-02
6.002181635420739125e-02,6.407201206967095761e-03,3.834325648700388778e-02,7.069406544268498193e-04,8.561937482867194730e-04,7.730353754273449609e-04,2.282098841002369507e-03,9.363800077531346522e-02,1.173300359664816890e-02,2.327177371171250397e-02
7.760625713452749819e-02,2.360959203189290367e-02,4.082071383181293256e-02,3.702280280393155810e-03,2.518118590530396897e-03,5.586684960116439875e-04,1.582935749512192486e-03,1.312354945738738732e-01,6.021941741165116532e-03,2.594853913706914039e-02
7.219207929587435901e-02,3.117994529392129066e-02,2.270629729994259188e-02,5.081530049556393612e-03,2.513200082763443824e-03,4.688499055608147262e-04,5.271729703176010647e-03,1.255178620771652265e-01,4.895449018890321233e-03,3.039344362432822369e-02
6.352352045479665865e-02,9.125497576397429561e-03,7.445517539063297927e-03,3.450557786102854182e-03,1.928003359949866970e-03,5.785253574534802079e-04,1.506988025405634618e-02,1.087357941796629479e-01,7.678071727210732458e-03,2.856416718933835891e-02
6.944304063705425412e-02,2.405108307037083851e-02,3.237393818010159130e-02,1.149941820045689150e-03,1.968294504042621216e-03,6.433893280109617783e-04,1.962670558404692664e-02,1.163246584943015555e-01,1.020845413232817148e-02,2.257302760611899425e-02
7.781743934820369024e-02,5.124225751330301060e-02,4.081584176959540677e-02,2.814188745581573605e-04,2.461088013908859038e-03,6.106655795876290115e-04,1.711204511989946123e-02,1.441643925251404612e-01,1.029455984697673701e-02,2.008626501513103776e-02
6.622392835410749468e-02,8.002743821774699340e-02,3.983198086931583753e-02,4.153912079319155358e-04,2.386674922657821760e-03,5.946251344347169322e-04,1.344109650254646932e-02,1.610347821391800160e-01,8.704997174785901806e-03,1.995834029522693814e-02
4.432632017506096117e-02,1.137736513808054739e-01,4.146464468086751703e-02,2.552829312675822682e-04,1.424409373914936302e-03,6.417855859598449583e-04,1.260048093398296633e-02,1.580077694847027148e-01,6.031938432611791585e-03,1.400164453973855479e-02
4.058491620474810602e-02,1.306966603823880024e-01,4.073948988627303092e-02,1.117269405955966161e-04,7.180967959660454524e-04,6.939764481780438419e-04,1.307318877547749419e-02,1.507819160665440084e-01,1.766225829542833903e-03,8.098883984545377380e-04
4.999449754658610856e-02,1.135035535395870210e-01,2.339629145552077349e-02,8.297260728947436579e-04,1.498509669284801274e-03,6.827449517434546573e-04,1.317880211446208205e-02,1.378957690783408074e-01,3.569369203417084579e-03,1.302428408799652555e-02
3.737325768285909566e-02,8.176963232837561324e-02,2.811129601003637801e-03,1.447887210654615628e-03,2.895514617716803130e-03,6.417141641643632445e-04,1.256251349885076536e-02,9.701758802040649776e-02,7.346636858086664362e-03,2.362797843399435868e-02
4.450023635032343550e-03,7.611057767740113389e-02,7.996036186836179976e-03,2.203859252708636964e-04,2.609825320952431377e-03,7.010711738367260979e-04,1.038065985235432642e-02,2.881867706514936942e-02,6.941833323068139633e-03,3.174552982317959543e-02
4.112604864243827457e-02,1.096128434946894159e-01,1.641870798501594494e-02,2.348500110270083322e-03,5.704106340710273816e-04,8.419089039966458137e-04,9.557431673908961534e-03,3.255935321995574033e-02,3.083129424604817009e-03,3.567040000288924234e-02
4.894558867749005532e-02,1.478321658695817831e-01,3.808259940658934722e-02,3.545132527500485017e-03,2.130010351822965995e-04,7.630254439793544407e-04,1.794160139691951261e-02,6.493306325789970079e-02,1.993010716085307724e-04,3.187139368532132533e-02
4.455988456628332678e-02,1.500750863492655018e-01,2.795774165863924160e-02,2.088342884270000949e-03,1.566867937963144653e-03,2.021336287781492146e-04,3.646722297393396872e-02,8.097555520744800783e-02,1.852293477570230839e-03,2.227200524566349399e-02
5.334336151824565359e-02,1.174680397217875982e-01,3.838441304083384936e-03,3.470522142308685425e-04,2.434600187080596112e-03,8.546608590487569674e-04,5.293054930525582097e-02,9.318755136352463442e-02,6.251409745415085865e-03,1.343958208753642108e-02
7.468649609461686101e-02,7.665944148909788203e-02,3.170687004593264729e-03,1.438019231102714889e-03,8.772469434238847324e-04,2.380696153456058912e-03,5.522743478354731617e-02,8.881575423420155768e-02,8.312783047086208868e-03,8.893688906363945990e-03
8.725307772701978992e-02,3.381800913382074919e-02,2.627534479638597709e-02,4.564570389272934632e-03,5.850132595159174623e-03,4.017030324926445552e-03,4.302355542960185214e-02,6.082711952733827615e-02,5.509592100348522682e-03,7.378700669785783449e-03
7.624171764718587485e-02,2.064644988798366998e-02,3.755496965616465094e-02,5.594039621451802648e-03,7.588190905677230993e-03,4.556095049302542541e-03,2.356663425338014276e-02,4.078222127930905549e-02,4.459183621983313405e-04,6.708898773802927581e-03
5.156131602593175267e-02,7.725433992983163356e-02,1.871784051787437134e-02,2.984576669164006393e-03,5.744300493102051305e-03,3.039501435226067434e-03,6.900986783497683845e-03,6.795603389939459948e-02,6.280621172989067635e-03,5.089500772710567680e-03
3.758910297836659531e-02,1.127264452262660838e-01,8.433138024211004474e-03,4.160990139060860419e-04,4.176189711999439731e-03,4.862152317988847395e-04,4.347581687339333555e-03,1.284707216342968195e-01,9.078736311410004131e-03,1.834617450643878092e-03
4.265331817976489304e-02,1.202336695956029433e-01,1.474243696578093725e-02,1.577632364523430574e-03,5.166735833334368082e-03,1.020569729748187042e-03,1.795935886860452330e-02,1.633904947611856950e-01,7.267179492447589997e-03,7.081574001491674391e-04
4.954365175576627006e-02,1.093252076318122906e-01,2.980489643446672041e-03,4.687191302559648616e-03,7.172479883337569591e-03,9.469951599854211331e-04,3.279590238197105379e-02,1.543380347499732630e-01,1.943189249295958774e-03,5.880552664442831746e-04
4.386877064725667325e-02,8.865829783804035635e-02,2.512669609761840686e-02,5.097820969787682753e-03,7.537630948643213487e-03,4.901855045556768311e-04,3.219371340989058555e-02,1.602419913834791654e-01,4.110169719286981861e-03,1.413731591021360643e-03
3.652919547500115688e-02,7.046671004258893423e-02,3.026776707631483390e-02,1.772354667099581811e-03,5.319916827486401503e-03,4.848206462447908179e-04,1.800753641481574879e-02,2.311718648508150342e-01,9.307736849491855813e-03,6.862405567678663866e-03
4.457853878829857314e-02,7.502463843019992196e-02,1.043230241396305574e-02,2.125587946375695220e-03,1.723161682774082028e-03,6.441064721802005136e-04,4.944292607619264236e-03,3.209745302442953419e-01,1.302373034785249753e-02,1.166494206257827869e-02
6.160220064969963022e-02,1.025115157555200329e-01,2.338875018783120874e-02,4.080453660433918869e-03,1.231132205659810595e-03,6.032146619404428088e-04,4.840048257149531276e-04,3.401226842483732193e-01,1.318560707058324434e-02,7.153089251554748014e-03
6.387649667802482167e-02,1.120519834045144159e-01,4.874396244187804289e-02,4.360341632635026179e-03,2.490178373630310728e-03,4.824457065020784315e-04,3.789471456672267261e-03,2.765355402525633277e-01,7.932039818894747255e-03,5.502858653425727817e-03
4.315277652985545498e-02,6.258744104408042741e-02,5.173081959361609111e-02,3.907184124292420284e-03,2.458736035299863287e-03,4.529703739269462319e-04,9.041821152027269479e-03,2.064064586821819092e-01,2.267001722261038563e-04,1.606899845334785679e-02
1.777407895879946215e-02,2.336629293396290385e-02,4.120709961468153187e-02,3.124901199881422852e-03,1.849988744510430629e-03,4.616592016161238671e-04,1.405640193890090456e-02,1.853002995756084237e-01,5.467829381730213850e-03,1.815853470452515050e-02
5.441850580122092537e-03,6.972677414376317329e-02,3.866873281404967916e-02,2.632745745822951712e-03,1.049928111474212776e-03,4.287576912373710952e-04,1.840342871594037241e-02,1.809500626251965005e-01,4.557877209032928228e-03,1.420308209047645674e-02
9.415813305715895615e-04,3.694890122745102257e-02,5.230037181088638409e-02,2.963707386232414861e-03,6.099657561786926523e-04,3.792182738002950046e-04,2.449154548022391270e-02,1.351984499846843879e-01,2.628066822890000147e-04,8.373181094754449452e-03
1.637078366561371678e-02,2.516490882390425010e-02,6.659063044346945348e-02,3.598139356453082961e-03,9.507017118561360801e-04,3.513042351684016076e-04,2.947756383458099289e-02,5.257956595945810496e-02,4.292852576782297050e-03,1.442297737477051802e-03
3.529700418353499958e-02,4.144463186277432681e-02,6.376668997430780250e-02,3.692342493321312119e-03,1.571446098783587427e-03,3.340436232829670812e-04,2.702813493751049512e-02,1.357901306212198206e-02,5.186770460450799286e-03,5.804545363509989835e-03
4.089438151548745182e-02,5.453468602097538871e-03,4.826825751226311578e-02,3.322241685000319137e-03,1.706020430756570753e-03,3.104024092138256267e-04,1.882962554389234697e-02,4.383739895695953209e-02,4.600280621574206162e-03,9.733708845450692732e-03
3.472867038916962329e-02,2.677150698025354200e-02,3.695765048795485175e-02,3.078835532435638365e-03,1.415740351397008247e-03,2.869338010793912020e-04,1.381859592420769771e-02,7.366514817979015473e-02,5.008114856802877921e-03,8.566383676300066627e-03
3.650047912086274576e-02,1.923324916021510594e-02,3.345909019206545071e-02,3.036594509366866059e-03,1.216900487196735572e-03,2.714211406098718249e-04,1.456525624950941178e-02,1.335910467743984531e-01,6.189450168648349612e-03,6.411810677918371171e-03
5.815290718246751006e-02,1.248260737645031856e-02,3.097438281757062747e-02,2.855931868578347188e-03,1.209724685843193781e-03,2.589648162688765838e-04,1.511126460398719111e-02,2.116905544329047151e-01,6.810144685221062796e-03,7.492043882505620978e-03
9.166394412031481087e-02,4.377951167321331161e-02,3.050320706659273573e-02,2.530142121730612551e-03,1.174431910209602437e-03,2.475987779875907691e-04,1.343398626171794091e-02,2.791497828304898565e-01,7.443513002203985818e-03,8.700281538038047088e-03
1.180995837971994950e-01,7.134094870822471623e-02,3.403984315334426802e-02,2.405230758465011238e-03,1.054381342155770148e-03,2.445878561629586658e-04,1.472475892562386153e-02,3.128796794155405681e-01,8.542168734773239805e-03,3.440373654304605330e-03
1.218650568056688366e-01,9.521411540878094160e-02,3.074285816240824795e-02,2.431657245412045983e-03,9.536912487593169653e-04,2.478060789679315781e-04,2.030089533417826081e-02,2.918704898688460614e-01,7.593878091932154684e-03,8.468178047013922086e-03
1.007341941772078447e-01,9.923124921326653691e-02,1.224809529047997392e-02,2.010023345133955374e-03,9.103322634286123904e-04,2.431258549036025408e-04,2.368953690673895190e-02,2.144517658087017331e-01,2.501769622902074580e-03,1.948094567243641162e-02
6.535611753978610994e-02,6.721236695894067248e-02,9.156056654303404083e-03,1.026789940571261241e-03,8.732479592999794690e-04,2.374382269796995206e-04,2.018231473591176189e-02,1.217741567103924616e-01,3.879945586892617933e-03,2.257415088590023627e-02
2.926838073427129316e-02,1.379793254089045976e-02,1.727998684275355856e-02,3.542753805697515805e-04,8.052232537412370994e-04,2.597216881114026857e-04,1.218564816794714956e-02,6.395743384612165294e-02,6.562440201335754605e-03,1.813630258632252176e-02
1.878923279121258233e-03,1.989233241970019342e-02,1.604981423399440971e-02,5.966986949831614047e-04,7.371984607061907516e-04,2.936266348950000282e-04,4.082372478025038734e-03,4.070056389397750524e-02,4.669764970216894531e-03,1.231462137454309054e-02
1.123246644412468839e-02,1.131642677519222734e-02,1.978039613960363985e-02,1.155529525967218321e-03,7.284744605512841805e-04,2.758878049160211473e-04,9.347114082817568892e-04,1.217432001251793697e-02,1.580537904796814209e-03,9.138605827743248242e-03
6.968261690547008363e-03,1.737042347703089684e-02,3.008754656251223791e-02,1.252922980892122147e-03,7.506737541287408864e-04,2.388648504603556853e-04,1.304864327881417527e-03,2.732932530408831509e-02,1.265577670598917476e-04,6.075697987270103906e-03
1.404174128624077755e-02,3.232478018969741490e-02,3.738701226647143938e-02,9.189838720932634424e-04,6.860219047434889866e-04,3.192442888890512391e-04,1.324767190004494909e-02,2.885835041123738925e-02,6.082961403323238099e-04,6.987257630426048794e-04
4.171157810219297546e-02,3.498404415327568268e-02,3.549149111766211617e-02,5.195125267591776952e-04,5.736382375718847033e-04,4.584187640407158277e-04,2.833136415059431604e-02,3.125375182167216409e-02,4.008980313461656900e-04,9.311318230557901615e-03
5.394803530865789620e-02,5.516349827288309637e-02,2.323902161054001644e-02,3.327031887455348291e-04,6.616848562523109734e-04,3.210289866213099363e-04,3.350279514161071809e-02,8.771519357025474306e-02,4.070103428416131392e-04,1.431888099404874173e-02
3.383365490470941622e-02,9.958557498100695238e-02,2.890237224678631096e-03,5.647617430594488192e-04,8.878669564581428975e-04,2.229351418242633040e-04,2.353184286585843429e-02,5.935239670373980425e-02,7.799121500893088296e-04,1.377544442295230119e-02
7.095340195839438743e-03,1.308690721907030396e-01,1.340203411439796002e-02,7.184778621179392383e-04,6.776883871689923624e-04,8.349181277206900670e-04,7.715990446435171644e-03,3.255468955249357643e-02,3.699430972942634307e-04,1.089859058878611328e-02
3.893365480566499809e-02,1.106981425687147413e-01,8.904893747536555756e-03,3.909377423908299101e-04,1.113640098023273387e-04,1.131581688521426064e-03,1.274650146561293919e-03,8.950057891695345491e-02,2.015454859991342752e-03,9.983306359878648534e-03
4.942771515035601637e-02,5.207332078705302625e-02,1.454437597492486654e-02,2.664899753117351555e-03,5.902112797020273721e-04,9.550692044440959975e-04,4.079882271558242859e-04,7.013287233595651149e-02,2.475493895404272914e-03,1.171362421578967319e-02
5.094884244484937375e-02,9.587663179200131905e-03,3.202949618642732948e-02,3.929048427788021242e-03,8.020374743775089731e-05,2.564236912831545064e-04,9.021727612316707973e-03,2.286776200875845558e-02,2.332282311538946308e-03,1.206075931431781559e-02
5.009468423189853553e-02,1.373120066449834246e-02,2.764176959315227736e-02,2.739320222588389076e-03,7.374157951688026019e-04,6.240730513925226699e-04,1.871497982806955354e-02,8.699877426436599531e-03,3.233420107501302435e-03,7.499958938548550655e-03
3.589538206726773650e-02,3.345872768069335645e-02,1.748505094556343162e-02,5.694753525050460456e-04,9.012098853661849179e-04,7.506378094867849652e-04,2.221675043333869864e-02,3.173549884815350663e-02,4.836207981663479157e-03,4.865463435361794026e-04
8.957858310418986489e-03,2.199683711646010023e-02,2.454192532168217658e-02,4.246877477527070651e-04,6.197393777783488699e-04,3.731268086945114669e-04,1.370047970504571777e-02,5.330691223895952374e-02,5.249542683308721508e-03,4.191899604724608729e-03
1.882404801534674635e-03,1.737170442871330267e-02,4.356045740073414413e-02,1.984571161889759760e-04,6.538441800872969592e-04,1.685552008114683505e-03,4.205426209391498887e-03,5.594719722648514026e-02,3.722787376895000423e-03,5.975056878559557860e-03
2.665175130344295609e-02,4.301263691704834691e-02,4.949651325897273801e-02,8.547672570206082845e-05,9.005725285402662239e-04,1.647115975330756907e-03,2.124811599282708241e-02,3.458830936920036930e-02,1.498463376432208113e-03,6.587060785057781420e-03
7.715097654490982171e-02,4.164361351018211477e-02,3.354079857205852916e-02,4.497371951332639246e-05,6.446961861559527898e-04,3.772049072476545140e-04,3.035347130317672323e-02,6.286766702744877103e-03,4.902977865880560001e-05,5.835933529281129087e-03
1.131610255242488650e-01,4.432175906226368256e-02,1.508958294856975815e-02,1.461934438159348505e-04,5.357333796754922060e-05,5.919758175912005890e-04,3.326587253388071236e-02,2.243509223555055151e-02,1.326238195215144813e-03,3.971541904424061992e-03
1.240907392534007780e-01,7.700652547597279518e-02,1.791691494962452391e-02,4.548598126173792602e-04,3.931355952402574975e-04,5.495392656761029010e-04,3.461606732599447483e-02,5.930864547048329827e-02,5.393346657890637184e-03,3.263940930461211448e-03
1.245398830172316784e-01,1.291774278537273779e-01,4.308166934778562274e-02,4.636658630081613936e-04,2.399888146379243719e-04,2.018948888953668336e-04,3.549762983812770889e-02,9.690697764445650730e-02,1.341585154173883382e-02,3.757006950680993797e-03
1.204822119913065703e-01,1.725628297608895467e-01,6.957775554521500316e-02,4.256495403454635808e-04,1.645508515638311570e-04,2.050808293005359118e-04,3.376780722868855805e-02,1.108863302648286503e-01,2.240639239011110034e-02,2.040839933548101257e-03
1.039778262328131531e-01,1.852508823463996090e-01,7.741933407865562999e-02,1.597093462604301387e-03,2.449257051654312595e-04,3.600376934399265828e-04,2.732071417757526294e-02,8.979576228163430041e-02,2.733843313072906525e-02,3.064928678504692718e-03
7.573658694375259848e-02,1.598698814582588112e-01,6.336892711573854919e-02,1.573923237628738593e-03,2.589131073106070617e-04,2.861371801173761479e-04,1.704014228028243039e-02,4.719712850972815343e-02,2.554532564697350322e-02,6.907648746760826526e-03
4.904286550449516585e-02,1.093420822731914488e-01,3.757121656600944520e-02,2.384601466732400856e-04,3.989733579960675811e-04,9.844819003317909682e-05,7.797387649118960214e-03,5.863638242760822739e-03,1.797355988602362259e-02,4.074992519896656479e-03
3.295591501903085557e-02,6.139263940391811308e-02,1.374599784136089180e-02,8.831405356700706153e-04,6.063042359690489890e-04,1.662061630678925367e-04,5.179082739151785568e-03,1.700802399354664138e-02,7.553269304852460592e-03,4.183077367786159489e-03
2.561397812982977445e-02,3.288703915922532722e-02,3.110535857169445008e-04,8.553367548538137310e-04,3.646944353380772615e-04,3.881982806931871441e-04,1.024135298152650982e-02,1.648130840316218426e-02,2.059780614386255617e-03,1.112299918404240952e-02
2.047313289486242180e-02,1.623333067856536430e-02,6.400844196268975182e-03,4.318094687543598846e-04,2.148932707561289064e-04,1.424962038134381715e-04,1.782981100547609277e-02,5.416028556882188615e-03,7.828765940715650892e-03,1.295587272749876978e-02
1.129397595856640631e-02,8.173827736751709816e-04,1.776967334637346088e-02,6.240604880570061169e-04,4.463287789483256140e-04,6.784746847945878796e-04,2.021420017087017726e-02,5.296285846201756638e-03,9.520498670619581202e-03,1.165958812868654257e-02
4.730622174770421524e-03,1.526150933081485937e-02,3.583915612108383442e-02,1.079936346534602536e-03,2.343150091761229373e-04,1.176493906757599805e-03,1.392427459106264538e-02,1.956038935220469344e-02,9.280480879145841869e-03,9.565917012730136559e-03
2.409151753817788399e-02,1.540051895432447207e-02,4.332890448454776444e-02,3.948323239387738258e-04,4.865975180756496309e-05,7.195068142259535525e-04,4.491427454014420770e-03,2.200082441881889839e-02,7.911477307589700331e-03,7.039009382170308138e-03
3.841706642156827306e-02,5.211554405529258797e-03,1.999295741805074203e-02,1.904643978317936996e-03,4.891868859566588136e-05,4.143131092038742171e-05,2.012030811724777393e-03,1.900320347140187216e-02,3.913623878586519264e-03,5.433057338579622489e-03
3.986129571571694896e-02,4.099635400971235466e-02,2.853336154246901429e-02,4.145915815105123171e-03,4.274044603477458607e-05,2.398273665049067114e-04,9.758663076160608088e-03,1.034819811871589140e-01,2.345139882747328351e-03,6.210897028821502422e-03
2.713578284388965672e-02,7.034503260607753716e-02,6.909575014748699229e-02,4.165171496346195545e-03,2.790533459981223442e-05,5.228077018471147925e-06,2.026012278006981970e-02,1.892734274957815210e-01,6.402062517175489964e-03,7.181339907147720782e-03
9.174134822586599985e-03,6.476673807938630734e-02,7.438884713194907072e-02,2.024539517221670554e-03,8.128235271640146776e-05,1.003120019668676387e-04,2.476454817650617854e-02,2.247119100979646789e-01,4.406051656759030211e-03,4.629757892686783838e-03
8.289947139061620493e-05,1.759013986012367831e-02,4.767155081356401480e-02,9.654013278041862563e-05,1.344673795744496289e-04,1.142028703218476597e-05,2.194894774569178947e-02,1.961824236476858163e-01,1.637991688817250300e-03,1.360888191264072490e-03
5.675630407725473260e-03,3.932931270316505218e-02,1.080626376663947064e-02,6.906232678107241361e-04,2.092460541815385777e-04,2.966638494709496931e-05,1.464664635288878518e-02,1.380743454838487261e-01,6.203039576631086231e-03,7.560339612527833264e-03
1.704601671173491123e-02,6.376107921799235856e-02,1.916470723448780722e-02,2.969185570223882489e-04,1.943350505807480474e-04,1.490784873238577520e-05,3.959342692113369463e-03,9.361937615014317982e-02,6.817236845049700310e-03,1.226783536096888970e-02
2.150875785005630300e-02,5.093451604347674910e-02,3.843227981161172202e-02,2.126516075533828819e-05,9.884358546773312055e-05,3.346388954733812136e-05,8.810367466880828641e-03,7.379347214631433449e-02,5.549082170591674787e-03,1.555127715015539210e-02
1.754394745123575433e-02,3.838455882551743137e-02,5.320890240644311764e-02,5.030812153676941139e-05,2.330970912393996156e-04,7.016658324746094679e-06,1.877055285929532177e-02,5.777849327442022981e-02,4.788843828626725488e-03,1.630952489909808650e-02
1.447486732002755370e-02,5.633605173063348931e-02,7.066853023852236182e-02,2.054327222801761738e-05,7.971725712721471719e-04,1.209112796338751763e-05,2.120070750268921236e-02,2.570225106055906358e-02,4.588340277884026333e-03,1.367796276952219260e-02
1.852038789101005667e-02,8.793078600029172187e-02,8.695707199989098635e-02,1.468258114601111866e-04,1.489034592800029958e-03,1.388626686006308701e-05,1.765466446279296414e-02,1.659566179594269136e-02,4.140655093385319473e-03,1.042345361704938647e-02
2.438724120812616261e-02,9.274688686482203404e-02,8.761593843497046674e-02,2.851613147654874134e-04,1.789370935193043211e-03,2.222337126844486856e-05,1.504666873150448114e-02,4.534863117289250622e-02,3.434748018522821786e-03,1.011673521356155035e-02
2.272684511419895137e-02,6.266344801130580011e-02,6.709926343725303166e-02,3.526907723317089082e-04,1.464836438056891501e-03,4.145879051044248058e-05,1.823118457315247784e-02,4.756774506140296066e-02,2.846545108580585300e-03,1.189827554892614221e-02
1.298762079590643111e-02,3.357007968218617827e-02,4.229798645477626101e-02,4.231545691948412923e-04,7.495717928570009561e-04,5.981101403637195262e-05,2.537250503147676570e-02,3.701752704690586954e-02,2.395900774099232917e-03,1.262266309633897597e-02
5.962411121401727139e-03,3.346209800693304010e-02,3.553539690838657811e-02,5.136155028543044551e-04,1.603065245301242840e-04,7.438756671152135639e-05,3.162158808087772721e-02,3.898540947913740895e-02,1.918775255983440559e-03,1.204334682595769625e-02
1.266257262062567453e-02,4.087425903962823431e-02,4.624107116749971019e-02,5.866873664228110545e-04,2.965887129625208629e-06,8.993477963441405803e-05,3.540168785630243981e-02,6.245775020644983577e-02,1.414724530642674999e-03,1.135343594936560202e-02
3.086633858689380103e-02,1.855546642237701840e-02,5.191633934612623069e-02,6.312043044863615898e-04,8.695087912133569140e-05,1.071217177522696263e-04,3.906960624314699537e-02,9.162241709791507649e-02,9.705897931448298705e-04,9.932627120155379866e-03
4.611733821684400186e-02,2.773757471211081224e-02,3.962816374523241841e-02,6.622354510711793820e-04,9.448676979631071015e-05,1.230005115826880312e-04,4.569499928242725523e-02,1.056591000641435574e-01,5.967348384048767971e-04,7.652186965579077689e-03
4.945170499825666394e-02,5.509825148318622107e-02,2.412626242342498506e-02,6.833753694330528972e-04,2.789652204186046972e-06,1.365157524592093650e-04,5.676692755937662316e-02,1.045898603699542684e-01,2.605498563101752221e-04,6.564378123308249949e-03
4.917348662226653927e-02,4.031203339998734592e-02,2.643442963410637392e-02,6.863255209582873589e-04,7.577420668989012103e-05,1.483732826949297047e-04,6.756603802799598935e-02,1.083882496648262972e-01,3.665608864780332734e-05,7.380692975545906538e-03
5.699279026587628777e-02,1.657222068323924505e-03,4.437415922167465415e-02,6.685827785981787990e-04,1.028570180205402005e-04,1.584747151702747814e-04,6.348480205621452599e-02,1.265843826909363590e-01,2.745633139359526667e-04,8.050422364985439228e-03
6.712614944195047229e-02,3.460781968270060932e-02,5.785055816846128296e-02,6.338743438015731306e-04,1.372234317352834937e-04,1.659618806414882048e-04,3.236722194297046024e-02,1.410371387573039759e-01,4.501513819331683401e-04,7.113650629847870915e-03
6.292000700006641911e-02,6.320653707303605651e-02,5.819734450418830030e-02,5.838891197496780348e-04,1.902477370380220817e-04,1.704311383938306244e-04,1.545279739064868603e-02,1.316062424439704004e-01,5.712458638693509007e-04,4.753947634719221313e-03
4.293918455464927619e-02,8.729327666789360451e-02,5.579165173741268413e-02,5.179671956855936340e-04,2.449209796228146501e-04,1.719377321748063699e-04,5.285364195512450014e-02,1.064651005471784762e-01,6.394797978908458224e-04,6.357052442080243261e-04
2.345739613782266836e-02,9.763297297346790193e-02,5.776408782225973815e-02,4.369475446371395627e-04,2.900833174165838016e-04,1.704351785630455385e-04,6.516383566185106335e-02,8.826219699333126556e-02,6.531067273828829612e-04,5.435965275212078889e-03
1.425822682603588090e-02,8.341918821656578442e-02,5.417950215588110408e-02,3.433261468554217296e-04,3.123926489053824849e-04,1.657717281697247355e-04,5.974771004306243805e-02,8.136342862574237611e-02,6.149699686684629739e-04,1.124353286849576021e-02
1.058743265726782776e-02,5.419187960471470028e-02,3.278052278878299669e-02,2.394086846938297457e-04,3.241127892394292799e-04,1.579554769881663732e-04,4.691894239347040724e-02,7.525043471505356296e-02,5.311975292454360672e-04,1.378545011685913986e-02
9.662132952769346417e-03,2.966811680626744996e-02,3.974954969498375838e-03,1.271541534083733621e-04,3.732035301325521801e-04,1.471591588159736421e-04,2.878858456380185490e-02,7.127050876804003066e-02,4.073293703711659223e-04,1.234332151187089027e-02
1.579898673437939161e-02,1.288070235517120056e-02,4.335698074868853807e-02,8.967322754426562247e-06,4.368860690150440504e-04,1.335932218103316781e-04,7.806057988137370465e-03,8.052178862161275819e-02,2.487189676479338260e-04,8.023738067619599901e-03
2.855431397427652535e-02,4.802398193048578248e-03,7.382506803672421458e-02,1.122981814072098253e-04,4.003216043100281570e-04,1.174965276925521044e-04,1.020399328793759539e-02,9.965300730295766074e-02,6.215622792541319538e-05,2.093080063126851170e-03
4.231600949759056762e-02,1.716480475081269205e-02,8.592848019451061747e-02,2.337980758281807707e-04,3.056160691367574992e-04,9.918764520492834107e-05,2.428609055132076658e-02,1.142014217509905727e-01,1.445245952666563750e-04,3.651790280547037668e-03
5.644522148480257684e-02,7.203265885054036498e-03,7.438017323564115324e-02,3.527969130578615243e-04,4.056073583555221173e-04,7.905949231332253110e-05,3.712258270936404092e-02,1.244148881763636888e-01,3.634566291015329772e-04,6.922832718297166829e-03
7.187700209464285839e-02,2.231736741192124479e-02,4.865134637561159547e-02,4.665502858646070885e-04,6.269718663057672866e-04,5.754285616671796515e-05,4.433421830013545978e-02,1.401142436311353656e-01,5.868333401166650129e-04,7.064410499688015058e-03
8.011527027692824654e-02,4.625984811391217061e-02,2.963795561597208292e-02,5.723531427566375118e-04,3.831882085910420267e-04,3.509430929086552201e-05,3.761707794002611127e-02,1.477348088456601205e-01,8.067109161925677552e-04,5.930729339741334059e-03
6.786076676855783141e-02,4.946252315666491844e-02,2.640117623693002610e-02,6.676903643510285948e-04,4.381654929216302337e-04,1.219759419035305879e-05,2.043895781980969301e-02,1.149809560196663055e-01,1.015241440055186795e-03,5.444136348777657390e-03
3.191542640554154153e-02,4.087734763392566334e-02,2.824302691019023662e-02,7.503070003289969998e-04,9.148787547592285773e-04,1.064727336740240943e-05,7.861098700683957427e-03,3.873773394691349542e-02,1.205044737532210818e-03,5.092571404459507282e-03
1.693618197876207640e-02,2.892342795627815197e-02,2.611226477158669346e-02,8.182236169169055566e-04,4.281078561779119870e-04,3.294197681373742216e-05,7.651682315913112438e-03,4.127519660666192219e-02,1.369370817481677582e-03,2.896470774015952841e-03
6.180926043377784479e-02,4.613853460297741987e-03,2.523606955630672624e-02,8.697804827560023933e-04,2.728932343348498823e-04,5.420240955109367515e-05,1.292679621993649691e-02,8.764930465110747082e-02,1.502178907682936689e-03,1.701424585432886622e-03
8.807504271187803491e-02,3.822222858242584065e-02,2.992897297385525845e-02,9.036977969137920813e-04,3.589799823639278271e-04,7.396758847920460755e-05,1.565086496381172879e-02,9.897011297116395379e-02,1.598291459282681713e-03,7.067328015228246940e-03
8.994883910073975253e-02,8.399566445066350417e-02,3.386257501429665306e-02,9.191109245723463102e-04,1.966875165495796628e-04,9.181045067004750797e-05,1.546814771869468169e-02,9.430345897585264148e-02,1.653560418742012952e-03,1.139344640474259165e-02
7.411155655720155777e-02,1.101412558762143168e-01,3.188071365004278152e-02,9.155847292832827375e-04,2.808536709395603281e-04,1.073493309153441226e-04,1.238216493635518715e-02,8.888940445936642509e-02,1.664965868140128383e-03,1.455360492709458116e-02
5.374878651014102643e-02,1.087693573280885118e-01,2.635878358526323392e-02,8.931251711791004470e-04,1.181214905622294723e-04,1.202571693098419684e-04,3.098445555035060032e-03,8.769331191845762541e-02,1.630671224018836671e-03,1.757341860621646282e-02
3.586162516112805648e-02,8.664066891032523587e-02,1.860480165673164196e-02,8.521857186975399442e-04,6.539735105330659855e-04,1.302686408531664934e-04,1.094613799601550086e-02,8.545621347568031767e-02,1.550069396553212632e-03,2.051075895149813422e-02
1.837695620565061097e-02,5.462285717381058087e-02,6.341100995331878237e-03,7.936596316239032979e-04,1.205078707601451877e-03,1.371862991755829863e-04,2.355050157105777198e-02,7.421045166543541183e-02,1.423806666098467082e-03,2.160501632793084686e-02
2.660641817975819071e-03,2.194721235147594277e-02,8.585781781493334250e-03,7.188591173612716035e-04,7.892116853319470658e-04,1.408854156952666649e-04,3.548630849574035961e-02,5.866781571640236614e-02,1.253766700198025988e-03,1.933877452196846453e-02
1.716165874448190038e-04,4.184109287054226835e-03,1.827114450811356816e-02,6.294858930974518360e-04,2.153136506338773040e-05,1.413168122447462888e-04,5.315417657451451672e-02,5.453307333243476857e-02,1.043020455243047441e-03,1.472248343027284835e-02
1.720138801731361036e-02,1.565067468022641670e-02,1.607476736283904376e-02,5.275934380890979049e-04,1.880433385712179791e-04,1.385077008414019556e-04,7.238503724932347783e-02,6.641955216569576936e-02,7.957510948903052809e-04,1.022918777959675764e-02
4.056399678811865861e-02,5.586358980552786138e-03,3.053954570756155229e-03,4.155398652372549787e-04,5.168078273477559522e-05,1.325607950232639829e-04,7.895713119940667157e-02,8.183349593267522093e-02,5.171532352395142966e-04,7.213198021041884039e-03
5.080596273468145768e-02,1.973124945664403787e-02,1.277924707747030500e-02,2.959326409123582313e-04,1.770524380801959509e-04,1.236516889820388600e-04,6.865299080876761939e-02,9.072894860106237025e-02,2.133051340484658004e-04,5.716988495977026047e-03
4.432674881448643578e-02,3.931963977444093844e-02,2.293802134969971651e-02,1.715673404599743056e-04,1.046788678897307072e-04,1.120244436432195426e-04,5.196611439882579953e-02,9.481940100273539285e-02,1.089820220443396147e-04,5.565914663531110196e-03
