4.761319904788575627e-03,3.001440898834096312e-03,1.953997268837907083e-03,2.174157164643952030e-03,2.097799396608355767e-04,4.110620358994103050e-05,1.408062715042688543e-03,1.931087709891474852e-02,6.135944969024028500e-03,7.446276813837535494e-03
6.471054145978431121e-03,3.310859577918537876e-03,3.998442067958225474e-03,2.177640068569686171e-03,1.793229087594106744e-04,3.507013130373961098e-05,1.734437063234962190e-02,5.439926958290104697e-03,5.530127023536397790e-03,8.841963885080924776e-03
6.648095376966429125e-03,3.823760951522469156e-03,6.931150520801653177e-03,2.103562362462178988e-03,1.447082638438712684e-04,1.109552206559345750e-04,2.699998372086687831e-02,1.210932025972211862e-02,4.610517302810447464e-03,1.045141832154159768e-02
5.979408984176793306e-03,4.051821443852346959e-03,9.809450995833050510e-03,1.955534183820759053e-03,1.068686863328601676e-04,1.847997399166221438e-04,2.637670501339037937e-02,2.204754533811724079e-02,3.715843369062352651e-03,1.205201614377656057e-02
6.103371545253678809e-03,3.950750885146709669e-03,1.212235320430369440e-02,1.739213992121840932e-03,6.680534985868117790e-05,2.548853244614204556e-04,2.107243303418099289e-02,2.179616492138042316e-02,2.994036901224400495e-03,1.372143313369532727e-02
7.282403285461412981e-03,4.571703487452438534e-03,1.579532252927024968e-02,1.462177082748010101e-03,2.556444789781625259e-05,3.195665530952406918e-04,1.646569173221777704e-02,1.826367829010757185e-02,1.789517807544727720e-03,1.592056152146101300e-02
8.195363021147655455e-03,6.034839786791550489e-03,2.154016976649290177e-02,1.133734852686175531e-03,1.576203323014404185e-05,3.773114405830731372e-04,1.244076215607200879e-02,1.596051854670180528e-02,1.802320495780026783e-04,1.846994711107651996e-02
8.174554172252634573e-03,5.661389122780718930e-03,2.278131477968059135e-02,7.647089791355957469e-04,5.606628435224770939e-05,4.267394303494816176e-04,8.937456991899595318e-03,1.212451758203390503e-02,1.324568249969009393e-03,2.034451249915383494e-02
7.995291482341520747e-03,1.389078110027645169e-03,1.047943403019738207e-02,3.671658485739477348e-04,9.430955154086969184e-05,4.666559339159345602e-04,9.181590773765379784e-03,4.327037639862653037e-03,7.304571680639873176e-05,2.186680653205607533e-02
8.137664163121203359e-03,3.469034152785560425e-03,1.252598019946906879e-02,4.588232462565667007e-05,1.295430719631948733e-04,4.960825428819362485e-04,1.413974882120398041e-02,4.116596677340380976e-03,1.838857500316171036e-03,2.526297372265288305e-02
8.016976904491476819e-03,3.307710701822983140e-03,3.026041632459485278e-02,4.608024957311102521e-04,1.608083164830305877e-04,5.142821405448305683e-04,1.925139792436451891e-02,8.625020222522091634e-03,9.744083830433220624e-04,2.980917295137461287e-02
7.645622547879906729e-03,2.039557211699095755e-03,3.208173478462072320e-02,8.636841525870499626e-04,1.871668902172800492e-04,5.207782615815089019e-04,1.985242916838508842e-02,8.927323916534784728e-03,2.865185219816192719e-03,2.898604082594173625e-02
8.406367540981668843e-03,7.263982557041738682e-03,2.408863233603934437e-02,1.240692549493435833e-03,2.079859376359115622e-04,5.153681865836908698e-04,1.584159609274631356e-02,8.211422247674961608e-03,6.462095866942361815e-03,1.827647934490873177e-02
1.072564088709318172e-02,8.970415693639771301e-03,1.666492249381592780e-02,1.578422763590047861e-03,2.229459435589441132e-04,4.981294095607929819e-04,9.432409655960252368e-03,8.958062071906707294e-03,7.809361168459526617e-03,3.816050770740011394e-03
1.198838734898720511e-02,8.601353262514651460e-03,9.966387616612552847e-03,1.864245983185682009e-03,2.314867134169821053e-04,4.694192773819543191e-04,2.517912062563540908e-03,1.059901408546597146e-02,7.920639989696042285e-03,3.176631814635805066e-03
8.640885738439040009e-03,8.457615361421127326e-03,1.726988454850697085e-03,2.086640148587990719e-03,2.328213212305076877e-04,4.298677682477432087e-04,2.788492178641773303e-03,1.064519460478683538e-02,8.205495203083657679e-03,1.073493415296953527e-03
5.405353357905138580e-04,8.988573123941098406e-03,1.922205345532128698e-02,2.235496297052990723e-03,2.271534293927975079e-04,3.803635470624547343e-04,4.855550326619766099e-03,8.172890597298672691e-03,8.628105304703963946e-03,1.048619825086401572e-02
7.979177345194978996e-03,9.799735941317390744e-03,3.780973273702514098e-02,2.302391291072585725e-03,2.157009812425740494e-04,3.220336012772638708e-04,4.538489615329054788e-03,5.248960616172738264e-03,8.653279017779741053e-03,1.614215295175481027e-02
1.234357553292604430e-02,1.018328965842325851e-02,5.207936868932713792e-02,2.280820745394348918e-03,1.981062631210753330e-04,2.562169182045185775e-04,4.111434511672685740e-03,3.670220536784179685e-03,8.286015808010416261e-03,1.267968020522920562e-02
1.262720296727848010e-02,9.442701747594681866e-03,5.906761572324448900e-02,2.166389606873476287e-03,1.723142188081649637e-04,1.844328175862403258e-04,4.457666544758487337e-03,2.430831268577415133e-03,7.770244685852975911e-03,1.283936854285797980e-03
1.252353115970641396e-02,8.969748327628323387e-03,6.052152718024979283e-02,1.956953924952836536e-03,1.400843733015309995e-04,1.083446957071597871e-04,4.913658173212099613e-03,6.797652867575087240e-04,7.115692877649883175e-03,1.082603351794675893e-02
1.365181680419684344e-02,1.107587521691469692e-02,5.966173706836367524e-02,1.652702666387837957e-03,1.073664202988833992e-04,2.972004977154513798e-05,5.058215454839617813e-03,4.489441395860170104e-04,6.216448767519157891e-03,1.475140954044260218e-02
1.397992010371494447e-02,1.269398284607705686e-02,5.249236893383963515e-02,1.256180281316875147e-03,7.249918129491232188e-05,4.961226589327950647e-05,5.210989654083371739e-03,3.266425698212593095e-03,5.077945606592739955e-03,6.407119880654567681e-03
1.225249591111080526e-02,5.779102986368774356e-03,3.064256228254849321e-02,7.722649876792602548e-04,2.505084414368681463e-05,1.278065145035598218e-04,5.577368162541513318e-03,6.522665529528690401e-03,3.790148532034188535e-03,7.832625740495868794e-03
1.012507717303609382e-02,1.045211475001037518e-02,2.007123122019861643e-03,2.080969853059834581e-04,2.906734183645148388e-05,2.030451650052502181e-04,5.887031458320842250e-03,7.231546580598339526e-03,2.409564493582731434e-03,1.398067127231944311e-02
9.097803134581909645e-03,2.425975246250550513e-02,2.679385362515595420e-02,4.270758602513370292e-04,6.453492139288038477e-05,2.735834783968210584e-04,5.964160383606326860e-03,7.772977283869144695e-03,9.132930398535246946e-04,5.378647950237955451e-03
9.015688046108095641e-03,2.542399139071841938e-02,3.108073606627656180e-02,1.122119339518176575e-03,9.024839895983606801e-05,3.377925493339082848e-04,6.136876718617547723e-03,1.245765159136679595e-02,7.255711278780475025e-04,7.782359831054286997e-03
1.010207756575171555e-02,1.786650557340567838e-02,2.170785280305587150e-02,1.864223213916309935e-03,1.573504273095172002e-04,3.941997428872408976e-04,6.610230098842026503e-03,1.807689517169964663e-02,2.395808390379261174e-03,1.143715842781340558e-02
1.283083436535504065e-02,1.132016599745366142e-02,1.299337888516614338e-02,2.639119266007770165e-03,2.449847002454283310e-04,4.415253804133475904e-04,6.708202109831232565e-03,1.438738582970030232e-02,3.925913897066626336e-03,4.865002618023426054e-03
1.548164293126425353e-02,7.463442275473356619e-03,1.041648177460515259e-02,3.431457998590999123e-03,2.401121367972725463e-04,4.787147157740353500e-04,5.710954166555212187e-03,2.731243632084870507e-03,5.412146905259488522e-03,3.991262731316693596e-03
1.525883314352382072e-02,2.062174052841834158e-03,1.073097123229229538e-02,4.225288290665901725e-03,1.810359642242498866e-04,5.049646640621993253e-04,4.382172738325114739e-03,2.382334125920055126e-02,7.102547145526921964e-03,1.231089129657544391e-02
1.218672823342254602e-02,4.581417134514396972e-03,1.131732478208537923e-02,5.004293707467377152e-03,3.098425627666824360e-04,5.197446632486511396e-04,4.238586880845681901e-03,3.560438107274998404e-02,8.681969576955090792e-03,2.026734248626674631e-02
9.166485928756571908e-03,7.849288040563449573e-03,1.266444471598927000e-02,5.751870404428234031e-03,5.576552209010241434e-04,5.228105228503335212e-04,5.239411012854925699e-03,3.387959012945276904e-02,9.469543394236211789e-03,2.364415756091172924e-02
7.848481156349621651e-03,6.878481532817269130e-03,1.436385955981741777e-02,6.451761655532086380e-03,3.606879825593907810e-04,5.142107079739660982e-04,5.854640419956021712e-03,2.315541810588155752e-02,1.005490649911497912e-02,2.011003724212023780e-02
6.514336012995163017e-03,4.249343008078195275e-03,1.694526672414207666e-02,7.089058361876040930e-03,4.044981906875908147e-04,4.942861283213193131e-04,5.403408178272465535e-03,8.892932430454955628e-03,1.240838128045097626e-02,1.431126849663898366e-02
2.773183148366081818e-03,1.056500245496499145e-03,2.695858734130487933e-02,7.650005170192585371e-03,8.682218699215672568e-04,4.636637933337353569e-04,4.608414446101845481e-03,4.344533004023094606e-03,1.671141435029322928e-02,7.723060180071972432e-03
2.829541283708102237e-03,1.169200377741888217e-02,4.915543523302817741e-02,8.120950519444267157e-03,3.923802203567991671e-04,4.232417562876945069e-04,3.968198545806728844e-03,1.176650033858330294e-02,1.946226892705030589e-02,5.091376714029183757e-03
7.039088155171385058e-03,2.352317335688555375e-02,7.304379882427561310e-02,8.489754646861769408e-03,3.845078815770465214e-04,3.741647596417865579e-04,3.240253032478134995e-03,1.185245128720420829e-02,1.735168563077945508e-02,2.260227100351624302e-02
7.507345412296738754e-03,2.822522242014051039e-02,8.083935525324244253e-02,8.748993967839261907e-03,5.930538297175294528e-04,3.177968715417851570e-04,2.442302359900918457e-03,8.509784903497267725e-03,1.243477149765658332e-02,3.271093172555724488e-02
5.095510169103289674e-03,2.441234584351280670e-02,7.055885887760826591e-02,8.893843760357287784e-03,3.573492419536379756e-04,2.556938680274182607e-04,1.834419208846008740e-03,5.654305486724332808e-03,1.041785264360313781e-02,2.962461576784884698e-02
2.291718295143432144e-03,1.829402344302492878e-02,5.736229283344559254e-02,8.915845899102275637e-03,2.407024570137395424e-04,1.895638394403330416e-04,9.115688637045486070e-04,2.431003319896101085e-03,1.306553489000220752e-02,2.050627632161084249e-02
4.187467435551882377e-04,1.384620431216070438e-02,5.117044385118076077e-02,8.807777626327265366e-03,3.105462689252367118e-04,1.212121390098593054e-04,1.033932948536874907e-03,2.966470699029147631e-03,1.554795130671547156e-02,1.187701627258745847e-02
7.918073739159272499e-04,9.950668991167505029e-03,4.732892407069586721e-02,8.577428076417160582e-03,3.255425088231735987e-04,5.249788689684121469e-05,3.263563693780718346e-03,7.956392586759642241e-03,1.370487711848862242e-02,4.234978467892475118e-03
1.781627996481544235e-03,6.879174132221760503e-03,3.962399945814455010e-02,8.237720722205587459e-03,2.503098136593449700e-04,1.468591757553642870e-05,4.230818510315709734e-03,8.750861903647010054e-03,1.011359866968658539e-02,1.738984223848751443e-03
2.576438951920691483e-03,8.005647675168941005e-03,2.848417614602285347e-02,7.777010460628195308e-03,1.962497972549870828e-04,7.846315661514364852e-05,3.971248267702052505e-03,7.015218310831658304e-03,8.733646171305150044e-03,1.081492162408833474e-02
3.023764295843116897e-03,1.374094391332454645e-02,1.601489379345309369e-02,7.179191100119834863e-03,1.777674558819579507e-04,1.370798783433191859e-04,4.000528991143604413e-03,7.319014735647389781e-03,7.974557678682653653e-03,2.638643502612438019e-02
2.446704385389182005e-03,1.919489370620742694e-02,4.016317383650110096e-03,6.487275169691929591e-03,1.468200489645678946e-04,1.889447562349046389e-04,4.888220315744078864e-03,8.634309126737241963e-03,4.418922283266857494e-03,3.465004219247908024e-02
1.738424301530025527e-04,1.921404504117889961e-02,4.466085716621873668e-03,5.761681827861402094e-03,1.081377074895745595e-04,2.325474710315115600e-04,5.885277757760035665e-03,5.256454975288060195e-03,1.029677728937958498e-03,3.228878685100920048e-02
4.370365147478558199e-03,1.282258388753673706e-02,9.534203161202941396e-03,4.942663554259763871e-03,8.054913223782948252e-05,2.665048511934293074e-04,6.709311904283664363e-03,3.773249094584771660e-03,5.343565679942622812e-03,2.934081642321748756e-02
7.393016833852143234e-03,3.124797213932340497e-03,1.668047529880973406e-02,3.932177147220136497e-03,4.045117081997410825e-05,2.898601704391338008e-04,7.626038074738487015e-03,1.250129383830061308e-02,7.575058481633015553e-03,3.140346287828227334e-02
6.913172971300965419e-03,5.118979102906037922e-03,2.923021755866982152e-02,2.885099745444498574e-03,9.750287555844786952e-06,3.021021754395055900e-04,8.111965621037706131e-03,1.550960149914295573e-02,8.606765750302267093e-03,3.236548355403984917e-02
4.216462694252616147e-03,8.882950837573917041e-03,4.392177425404427543e-02,2.096596449242593262e-03,8.593878231057549449e-06,3.026193051676376983e-04,7.808414822972262886e-03,1.341536934661652358e-02,1.063172426989384897e-02,2.698803762060053568e-02
2.946982151974336661e-03,9.020656249802541660e-03,5.699019179080774822e-02,1.528612919742263843e-03,2.386984663751379348e-05,2.907184622669612859e-04,8.375109082310908462e-03,1.150866969787705044e-02,1.564397077167330175e-02,1.904826632790992610e-02
4.469137965131725169e-03,8.391919317387395300e-03,6.647682921212244578e-02,9.560808537872761154e-04,4.643318270467032273e-05,2.668435191779452162e-04,1.130749225773157972e-02,1.439702168303676200e-02,1.945864145250134417e-02,1.420284064615809881e-02
6.489717161372832513e-03,8.422085762388332314e-03,6.595937831802026197e-02,4.404584577299454351e-04,1.700441835690222336e-04,2.325967992115243060e-04,1.432908969495172782e-02,2.032521673187174735e-02,1.167765671499067931e-02,1.372902908977289595e-02
6.817200359716010273e-03,8.640407919206361323e-03,4.741513079015942378e-02,1.149204793120856721e-04,5.355015742784013981e-05,1.881435884947136445e-04,1.382769461697942737e-02,2.188339602439956857e-02,1.091123239433878546e-02,1.786134548689407783e-02
5.798818198398913472e-03,8.539774503244355885e-03,1.546939543158108027e-02,1.340080533705395420e-03,2.109574116420147251e-04,1.320808976213950689e-04,1.041729441723763042e-02,1.547846976543060769e-02,3.575435085566558424e-02,2.811935169548505573e-02
4.091245757942156384e-03,8.323663589506490740e-03,1.243507170233717173e-02,3.350493358679768573e-03,4.910387241120559444e-05,6.693580537151083676e-05,7.938072187509623290e-03,7.209863697009338650e-03,4.696973053412416971e-02,4.255208104215259940e-02
1.322035758169588359e-03,8.223453838739994484e-03,2.621034533344336614e-02,5.191382315266774086e-03,9.070805298807448546e-04,4.747480838945463278e-07,7.741088322426387808e-03,4.989424193476589900e-03,4.174959958923222386e-02,5.257373093442079676e-02
1.668773831127884095e-03,8.147889250446124082e-03,3.366450376603818961e-02,6.178895030516458504e-03,1.255795475675475009e-03,7.086224350538241625e-05,7.912609794042426564e-03,8.603319075966224527e-03,2.879971738252646782e-02,4.878120678980067682e-02
2.515054271470386175e-03,7.989654752080856473e-03,4.521690600135786636e-02,6.762752114214261659e-03,5.496999473105680526e-04,1.536479571197781828e-04,7.168934257921344075e-03,1.244452772694930667e-02,1.604306263307353833e-02,2.961899437500975507e-02
5.274461929712862939e-04,7.791952689251651840e-03,5.716775816673245331e-02,7.539191705620701400e-03,1.913193556619937144e-05,2.418757953185224764e-04,6.130320275548578612e-03,1.431601800426319723e-02,5.330302319953053071e-03,2.337253810082861542e-03
2.506048998729807926e-03,7.609571040362162267e-03,5.760792206257347309e-02,8.432271338563194704e-03,4.908281883605179492e-04,3.091699783742900384e-04,5.364401849472847511e-03,1.645990979983389529e-02,4.491626997690682972e-03,2.314873899677858185e-02
5.224832252063819904e-03,7.430358527961916128e-03,4.318004902668062805e-02,9.178447197629681018e-03,1.107375281369934582e-03,3.633793962176348649e-04,4.579573597464169261e-03,1.967972225186258306e-02,1.425733727838088098e-02,3.931187315171634500e-02
7.839550007276171670e-03,7.234334450293511062e-03,2.205705606572866406e-02,9.842118835703258725e-03,7.419133324732422657e-04,4.546338178064093663e-04,3.593715810718111064e-03,2.010557620195036962e-02,2.379265207602434748e-02,4.346275869178890805e-02
1.030541945468115179e-02,7.028441036341696868e-03,2.714349542336255347e-03,1.057172375643870149e-02,7.375399958385168194e-05,5.611394482338447846e-04,2.644839789982647831e-03,1.236571189905926946e-02,3.212758065410937364e-02,3.910186813497448094e-02
1.180803669987381260e-02,6.829550603107391489e-03,1.345238799661525181e-02,1.129563693278269956e-02,4.688991916625220055e-04,5.690167445251715370e-04,1.700745609185090644e-03,4.786576411143394355e-03,3.782794399123337592e-02,3.252039973120655209e-02
1.219115509468604412e-02,6.653739971978278774e-03,2.874014553536207925e-02,1.193599785341407753e-02,4.583326360600992189e-04,5.158150422138044807e-04,4.749022315726391850e-04,2.669918711245211976e-02,4.015426671451021584e-02,2.609222874427529620e-02
1.204659150775210484e-02,6.501942956250192016e-03,4.359748982653056243e-02,1.268293314365743878e-02,1.532558319078756309e-04,6.429784028817936772e-04,6.776065623057100007e-04,4.644366929151438894e-02,4.063234426902596202e-02,1.788756653147340059e-02
1.157166000192903776e-02,6.351472107598173794e-03,5.562932712956325521e-02,1.363143536078864973e-02,4.822131093707086695e-04,8.811876523787472333e-04,8.961518675475439819e-04,5.844125240628951501e-02,4.232780218466369176e-02,7.889530069901085421e-03
1.069030723243142265e-02,6.209149475510248109e-03,6.177857597120656186e-02,1.416457839443024946e-02,8.740620880901991919e-04,6.664205596652660957e-04,3.599433741281392687e-04,5.889141328780528317e-02,4.529143789982852109e-02,4.591324560616513153e-05
9.698885171928172191e-03,6.145090325899289080e-03,6.104257614144121408e-02,1.345837470304615813e-02,4.337856120579972833e-04,1.249323619835438772e-04,6.111763410137072399e-04,4.746518377163799068e-02,4.335896277289694178e-02,2.335088622391607791e-03
8.701510582832099397e-03,6.169129097320254912e-03,5.571154610807472346e-02,1.208819018775037120e-02,3.361387991300863087e-04,6.232742180045713681e-04,2.458753570421982806e-03,3.055572820689858929e-02,3.011696914591831253e-02,1.966863215394642778e-04
7.170032633406367081e-03,6.147970976498880885e-03,4.950125945399789368e-02,1.218525103275470804e-02,5.902596166462162819e-04,1.901750681366333267e-04,4.694260267256973075e-03,1.702493757602360075e-02,9.813874316764890568e-03,4.672060223628343723e-03
4.900282775976977714e-03,6.071480117719679249e-03,4.555034894411201518e-02,1.505368356704818965e-02,3.878441855768440211e-04,5.365633581425959756e-04,6.069435428549737124e-03,8.187376786144322932e-03,2.404793417320076621e-03,7.886612638142611112e-03
2.584458427862795955e-03,6.242496943547601318e-03,4.693780209283600346e-02,1.944508092289481960e-02,2.794985540488255219e-04,6.879630953696208237e-04,7.141974872807843079e-03,5.337455421711735908e-04,4.760987024894107120e-03,7.997386440013475734e-03
6.630429233995557923e-04,6.714467534063844369e-03,5.390650019913252600e-02,2.281762889696896043e-02,3.629340282394796888e-04,3.882341367398698577e-04,8.347617121561479517e-03,6.850381157187040299e-03,2.476835321632334108e-02,6.759649088368471781e-03
1.518358188127797229e-03,6.810840556556176442e-03,5.769807353177991427e-02,2.364837735783531167e-02,4.015603608873295391e-04,2.019719327851187936e-04,7.873846756688779661e-03,2.276768303000217559e-03,3.776670980160374419e-02,8.986518612387871946e-03
4.245559870205017731e-03,6.154938213183530279e-03,4.579499468060256595e-02,2.272273665245571478e-02,3.426577638343233836e-04,1.990331310222677864e-04,4.362401411101161919e-03,1.225240323724701569e-02,3.252794970311755074e-02,1.695812965917384285e-02
5.917203502502411429e-03,5.862244327605060229e-03,1.782054645926160405e-02,2.199692354011860765e-02,2.956013439754345525e-04,1.384674743093686916e-04,6.576348810465005527e-04,2.428331611184312080e-02,1.923889680250361056e-02,2.721145450173715480e-02
4.996462699148556882e-03,7.136470137101041250e-03,1.429934751469144963e-02,2.091724522886616311e-02,2.871276938488193597e-04,1.683148404233684049e-05,1.354464197782614390e-03,2.581187592559814475e-02,1.178145159772488008e-02,3.482983676929250066e-02
3.144901440003484462e-03,8.798213919775033087e-03,4.407679395401688238e-02,1.631882203664797651e-02,2.671641343394168884e-04,1.525986758043816041e-04,6.701902399113306673e-03,2.026804795604067108e-02,5.906145736464835094e-03,3.742764229281642790e-02
3.614189177288961580e-03,8.459099499848219544e-03,7.263597836919530315e-02,9.122464089448138400e-03,2.234809598935092638e-04,2.467177083204858995e-04,1.210958730206367941e-02,1.277045583756264771e-02,7.860791915780507635e-03,3.377161191107184990e-02
6.204300290065228179e-03,6.788974045934726212e-03,9.294625790154811829e-02,6.021385750108325038e-03,1.804027022304146308e-04,3.490632609861256570e-04,1.414783247710158995e-02,3.192194047679626067e-03,2.009522958051651598e-02,2.485344464060904035e-02
6.840231193649482302e-03,7.671596867385765788e-03,9.442277135932336529e-02,8.751946873580395553e-03,1.450846157125147413e-04,4.673000869505179950e-04,1.428662553687708170e-02,9.696789790537320430e-03,1.619883654907870382e-02,1.849430635809869855e-02
3.055226428417209122e-03,1.135738788355752753e-02,8.664738305708898081e-02,7.807633383418211698e-03,1.074290501603970398e-04,5.749414374261542547e-04,1.553203507109877576e-02,2.294928671384318525e-02,7.222595941872170591e-03,2.325210461227620803e-02
2.434223036479131030e-03,9.969110572394022582e-03,9.488089613625205754e-02,5.340115607807807870e-03,6.521034630073196730e-05,6.649944626801821681e-04,1.725032103641615730e-02,2.965770044629936764e-02,1.977378573807603637e-02,3.282708522386051236e-02
4.666535353294878029e-03,4.741852313977863199e-03,1.248240444295380530e-01,2.495709755512405537e-02,2.439056403088232463e-05,7.469177512956200540e-04,1.554347844526260923e-02,2.462927401824755239e-02,5.603367150686937304e-02,2.952355929427568151e-02
1.830103965106077545e-03,2.974672448395434057e-02,1.514960889711268743e-01,3.846051722743262097e-02,1.267193912743866133e-05,8.215325291605760690e-04,9.063585490085960400e-03,1.238124721507278744e-02,8.798986786459944698e-02,1.122250287156922877e-02
3.119449682232725007e-03,5.304747956936111536e-02,1.517844713047149519e-01,4.335346498402829069e-02,4.754445338982593128e-05,8.822008226443532218e-04,2.406766437079419386e-03,5.857423418284940161e-03,9.567787776726140170e-02,3.326651768894347411e-03
6.138449264143489015e-03,6.710353473735040930e-02,1.321161685217265291e-01,4.799510145187408511e-02,8.023123557020319415e-05,9.266395361453902803e-04,1.538018694075909531e-03,9.460985371633298668e-03,9.165130342035660016e-02,8.695724791627069614e-03
6.537190697547303787e-03,7.283620811891149127e-02,1.134470387337380565e-01,5.718305260149852270e-02,1.089823221578868281e-04,9.565556609581335945e-04,6.768237227640925072e-03,8.529016644742723127e-03,9.875855883489206843e-02,2.742174750815217291e-02
6.771138539673526684e-03,7.171892758795631040e-02,1.022777784476945895e-01,6.565687503760178623e-02,1.328851798178427304e-04,9.721409758895036739e-04,1.253886466282689779e-02,1.099996129338453275e-02,1.173761963666015151e-01,6.989440367091852291e-02
8.405880080485570588e-03,6.266430319236815372e-02,8.997623301874611845e-02,6.703126005158038803e-02,1.520065558331008674e-04,9.721940600833355603e-04,1.370008398171876016e-02,3.741700170577460377e-02,1.270244932691262651e-01,1.063855374864216136e-01
1.026007416720436938e-02,4.671903383496685269e-02,7.008339423639244059e-02,6.138438065959891943e-02,1.661975853777471516e-04,9.567069854196784580e-04,1.084762782377904702e-02,4.541108170037951725e-02,1.131598267248722645e-01,1.052089635273187884e-01
1.084680048363077971e-02,2.793808546253480699e-02,3.990656705805784021e-02,5.034574507282894851e-02,1.750255266814023064e-04,9.268365034346587620e-04,1.003575948402717424e-02,3.038963302088703786e-02,7.854287069218511552e-02,7.517087853028547872e-02
1.049922416623166356e-02,9.289978769987605745e-03,6.546261126718636719e-03,3.183346768079673567e-02,1.783407482226768807e-04,8.836743046509928923e-04,1.611072810631932264e-02,1.221321977084732779e-02,3.168635762002586231e-02,4.616445034220568316e-02
1.009470590056644156e-02,8.076820586223025164e-03,6.571256151404501755e-02,6.615060508550783813e-03,1.763193211831660858e-04,8.282112085975446491e-04,2.486100238254862135e-02,6.382066945543625643e-03,1.890862378762298360e-02,2.927602930356308295e-02
9.449991383641151432e-03,2.168468288143743025e-02,1.085526902909959152e-01,1.472393289682792476e-02,1.691970703484675838e-04,7.618720287181257773e-04,2.580182790525860359e-02,9.355478888294516474e-03,5.784223608451729420e-02,1.694251867732652142e-02
8.109762622368548585e-03,2.740014420695214767e-02,1.046628203007591990e-01,2.065239954967174746e-02,1.572407741598653150e-04,6.864967049985420565e-04,1.633298715772688731e-02,1.275732353291368464e-02,6.969517339412081847e-02,4.497301271868101372e-03
6.476394270534013495e-03,2.422751126056970142e-02,6.688245927806041324e-02,1.457206758713313829e-02,1.408622751659571661e-04,6.040275387781768399e-04,7.153785389441213831e-03,1.551600083277982975e-02,6.180029556230136334e-02,6.896945575318332716e-03
5.154952802836770126e-03,1.807353973658291230e-02,4.554077674765300704e-02,1.341543390001776609e-02,1.206191069146748046e-04,5.164254200195483738e-04,7.448270392564420965e-03,1.748335787743436620e-02,6.413117408631587024e-02,1.786406701089088278e-02
3.908687742869555032e-03,1.726463211975767451e-02,6.803329733175586536e-02,2.546616434317119926e-02,9.714300838632704824e-05,4.257428550846423113e-04,1.103930322765827796e-02,1.302014621472598853e-02,9.164856298833216897e-02,2.856691789331008285e-02
2.212806786326701990e-03,2.341016554068601346e-02,1.040350625033365090e-01,3.604958708087070696e-02,7.111735555432967520e-05,3.341285966650450593e-04,6.536720990488371213e-03,1.683463607952117094e-03,1.166672553036395971e-01,3.488428134202726377e-02
5.963957293710005518e-04,2.991424489956783297e-02,1.032753502379138155e-01,2.574522902745213573e-02,4.328616506552813233e-05,2.437088986669530598e-04,2.883968501617664281e-03,1.998746476301131378e-02,9.864898723792850377e-02,3.462196476654411104e-02
1.870640586347580969e-04,3.044215906571009697e-02,5.846769297878970373e-02,1.959982913565310944e-04,1.443840002914123566e-05,1.564099502656766797e-04,2.609845202248176066e-03,2.972440134432506251e-02,4.029409402551255293e-02,3.334348584034075441e-02
5.014082234196673774e-04,2.497253497025359731e-02,1.572498255305318851e-02,1.540203211883627715e-02,1.462432425788223575e-05,7.393681835058036646e-05,8.328163781089664708e-03,2.601806152760956919e-02,8.465547821249546148e-03,3.696377443228090337e-02
6.042371773880338224e-04,1.664742589220259694e-02,1.690877385115916245e-02,6.551702335490959192e-03,4.310949026763438182e-05,2.021636817435616641e-06,9.162081064039762079e-03,1.568601786681780158e-02,9.639983148259454598e-03,4.048828115375659176e-02
3.595698042187526079e-03,7.917250667872586037e-03,4.908015270983569212e-02,1.242469872555991388e-02,7.024763058125914512e-05,6.985632460853235864e-05,1.537049159835672529e-02,9.298466594737630694e-03,2.225922026312516372e-02,3.331308227143617989e-02
6.016296353665562952e-03,1.947420100298076755e-03,7.174341812476732472e-02,2.451803736466904443e-02,9.531051499085254155e-05,1.286201113713145671e-04,5.032424499533943996e-02,1.165458297949812684e-02,5.205326977651013320e-02,1.721972999504682231e-02
6.277743197150896862e-03,2.553590320898232145e-03,7.413648073421909290e-02,3.000522091952954190e-02,1.176317413612484181e-04,1.780575765417254325e-04,6.667568673923345013e-02,1.975463187329673173e-02,7.083062306513189521e-02,7.130070604074514005e-03
5.922317474486005900e-03,9.627062291358994689e-03,7.346415944547270149e-02,3.430428566540636576e-02,1.366234172826461229e-04,2.174731093786647182e-04,5.447040066820201670e-02,2.842713225502710092e-02,8.661306897243611913e-02,9.278332102893933203e-03
6.005040956913759720e-03,1.859961401412328630e-02,7.642655111591710460e-02,3.323557721510563001e-02,1.517891074998659355e-04,2.457138125786860298e-04,2.788171953670856920e-02,3.759311700813150470e-02,9.109708376749897640e-02,1.325712911312708006e-02
4.733770012289225185e-03,2.639958567775107720e-02,7.694181028482061091e-02,2.307042269604158216e-02,1.627354682514816492e-04,2.636459683732649993e-04,4.964374846720780859e-03,5.093572865806070271e-02,7.111401758385441085e-02,1.232549771527378067e-02
1.455917246973278349e-03,3.374700921324628317e-02,7.538558377557948165e-02,1.210608653945285940e-02,1.691820605735025202e-04,2.742942525146289034e-04,6.938555331235931808e-03,6.464866386928021236e-02,4.265304433860901689e-02,1.382389450093072028e-02
6.456314248770265996e-04,4.006687987734112999e-02,7.566192075680257256e-02,1.025448115130860906e-02,1.709678342767181891e-04,2.775624306060192896e-04,1.101982447904524716e-02,6.482212635458914352e-02,4.057503169311389712e-02,2.096224568013114672e-02
8.939485479631053243e-04,4.086874009996139395e-02,7.677807486684004590e-02,1.490666599361224233e-02,1.680542284315973689e-04,2.697730931878627070e-04,1.360163661155206448e-02,4.473583672613364731e-02,7.266874232195370820e-02,2.389474374502371240e-02
3.606429645482422258e-03,3.296182457918797604e-02,7.684020837858440700e-02,1.469555879336782722e-02,1.605254320470471581e-04,2.548789066105030827e-04,1.542441773732179840e-02,1.815807149006383112e-02,1.038066451883777330e-01,1.847643044872085763e-02
3.684285168704857193e-03,1.951924634453474153e-02,7.567616863898789237e-02,4.016973441046972453e-03,1.485857923793188038e-04,2.456610037771553919e-04,1.004563551524329142e-02,4.589206047797790219e-03,9.533577204056206678e-02,1.506111332174358067e-02
1.417119069090157094e-03,7.827312762473892516e-03,7.485822244986142793e-02,9.663491639339567146e-03,1.325541665972241397e-04,2.397138898441351852e-04,6.508384321059450597e-03,6.590103912627064131e-03,5.257605040071391261e-02,2.046897531329064032e-02
1.257919294900328091e-04,3.032571597391105732e-03,7.692450715133253292e-02,1.469160207153092160e-02,1.128553583414988650e-04,2.161324615592912315e-04,2.747865452495357186e-02,1.206454813508524640e-02,1.529557620773129220e-02,2.793886567598440063e-02
7.926071120313357287e-05,3.963547920496756499e-03,7.930390955060703795e-02,1.071882745979353679e-02,9.000900686021943563e-05,1.865671193764316502e-04,4.173265169884074477e-02,1.353826061538530509e-02,8.614553255049950398e-06,2.985897549570097273e-02
2.119243254565703570e-04,4.195932100238361322e-03,7.811481510655259031e-02,8.613598805132873654e-03,6.461627504387998443e-05,2.034743455507003146e-04,4.566854404333729744e-02,1.351509902045364142e-02,1.923029241784367585e-02,2.599020922098128211e-02
1.226338243385321006e-03,8.583430159952751097e-04,8.136199641093752599e-02,1.358044004954390982e-02,3.734460049029610551e-05,2.511145584635182497e-04,4.295331998613526048e-02,1.387804697676016039e-02,6.095262410210248311e-02,1.913132293030897491e-02
1.619363439567114010e-03,7.463312486072723462e-03,9.772343775995279147e-02,1.808409095481706627e-02,8.910765246494213037e-06,2.247699248323274895e-04,3.640162830188980320e-02,1.242032872298741777e-02,1.012037399901029866e-01,1.604110228685967643e-02
5.020337886973135497e-04,7.913008865680531620e-03,1.123575447670481370e-01,1.387230701502311335e-02,1.993723022714479853e-05,1.627922999910396144e-04,2.848858060968281758e-02,9.939058910866015173e-03,1.079595904402388534e-01,2.482591487228534913e-02
6.646202173948250044e-04,1.595632904762829367e-03,1.059431094406028812e-01,5.818668932956415612e-04,4.843874993776501079e-05,2.997622613227650975e-04,2.437150653488477994e-02,9.162601364323008646e-03,7.856720977231039515e-02,3.513346249611531968e-02
2.925771711377410508e-04,3.490480497353587366e-03,9.867800985251656831e-02,1.900746689076590265e-02,7.583916966816083146e-05,5.760228283470586247e-04,2.391995248475070612e-02,5.990839021296886537e-03,2.545218616101329462e-02,1.811633363079069581e-02
8.941303768262246626e-04,1.645659316112753649e-03,1.329629353952554993e-01,4.063435503679958122e-02,1.014087389192140670e-04,4.526000621714380790e-04,1.859776713615439100e-02,6.464169130123155818e-03,3.878467752733966850e-02,3.074073164212004147e-02
1.283159277761692415e-03,3.244986162243624836e-03,1.998798219540878218e-01,5.461360374989021604e-02,1.244610829466743227e-04,2.056341583278210178e-04,6.162804342345706496e-03,2.469554838308141501e-02,8.586686810639668210e-02,7.285013968769293857e-02
7.249364296902779600e-04,4.981407545678322168e-03,2.268088391931311065e-01,5.250702625792187661e-02,1.443695839804376424e-04,5.763107093904425637e-04,4.298317718847657030e-03,3.630785000630461223e-02,8.334451250425202462e-02,7.882961120626687246e-02
5.561575214656291899e-04,5.362554335026361967e-03,1.651094004359409950e-01,3.865659626723653985e-02,1.605814359147616978e-04,6.868776861691298333e-06,1.107468446175507298e-02,3.378041393091919808e-02,3.978937408432080963e-02,7.026984264738245223e-02
3.326136531572263140e-03,1.011841196341886802e-02,5.023735516298444281e-02,2.498245625183065713e-02,1.726318343935265428e-04,1.010009654841808897e-03,2.501786114782483111e-02,1.968916042958212750e-02,7.301919210712225911e-04,7.762323072493279574e-02
7.054213829341842747e-03,1.664310381527821237e-02,5.966964436709232267e-02,1.563497971952979362e-02,1.801576319963737896e-04,1.507252362857727096e-03,4.530945583506179597e-02,2.841458772807006154e-03,1.390078550984492553e-02,8.832177176700431454e-02
8.520937668944841489e-03,1.567675768008295473e-02,1.567736384899804658e-01,5.759624478559012377e-03,1.829041472544792901e-04,1.396513320620716659e-03,5.153339205416887503e-02,6.327536660604694135e-03,3.126043606995063118e-02,7.374331982796543394e-02
5.611232268792191481e-03,6.157864094260757926e-03,2.482056831360029414e-01,6.600364625808054740e-03,1.807255231948384343e-04,1.354745601559284021e-03,3.400052765467297122e-02,2.789902008355714044e-03,7.143351767255691487e-02,4.080829734472270209e-02
9.467836035098621799e-04,1.838709232278276694e-03,3.054102108578278241e-01,1.597342849043864935e-02,1.735914432515902022e-04,1.946651713372549381e-03,1.232030763962495973e-02,8.262870549961259109e-03,1.095969328207915539e-01,1.654112232477336283e-02
7.291989155400874483e-04,2.000403954621397112e-03,3.082825423814629096e-01,1.714921501858401517e-02,1.615992174261969290e-04,2.685993301759030758e-03,8.446001944358657101e-03,1.765810639083367425e-02,1.146156122851213210e-01,1.022842965741831492e-03
1.836302413721233647e-03,2.820761205745672857e-05,2.860010063801177727e-01,1.071448843836095982e-02,1.449635970103054915e-04,2.114537735992707852e-03,1.717032153627831223e-02,2.157786509046955015e-02,9.326965772580321501e-02,2.177710422070375587e-02
5.170644532764195021e-03,3.131687618970545144e-03,2.629416510356617498e-01,3.159747767362728558e-04,1.239856603335407089e-04,3.536455756621611482e-04,1.830228169232202967e-02,2.144239567213467382e-02,6.828365255593968342e-02,3.995171251015199043e-02
5.365378584807631648e-03,1.046352671105184144e-02,2.214531839845540473e-01,1.151409432605611516e-02,9.906001213601196625e-05,3.161396273239907607e-03,6.639871679071846812e-03,1.807182891292275634e-02,4.335884440112937332e-02,2.638418003687545074e-02
1.898448315545120261e-03,1.782593722501156150e-02,1.589221547167098958e-01,1.270611621994638570e-02,7.071936447714284178e-05,4.414668845948508356e-03,4.080082075598269464e-03,1.076550958468735358e-02,2.247783256560448306e-02,9.433120511371916733e-03
3.129180738727730532e-03,2.288553082341980224e-02,1.175504262761546403e-01,4.730763450079886363e-03,3.959054629279511791e-05,4.080526132081938387e-03,1.078765046158495838e-03,1.168585787113737666e-03,2.856009065890086074e-02,2.580901443981361773e-02
7.401060730560133326e-03,2.264732118216321657e-02,1.187152498648289672e-01,3.117622387019785418e-02,6.261423891404097655e-06,3.181186066871431045e-03,1.404819975702744500e-02,7.585074391826217982e-03,6.253960768437241691e-02,7.499448771393687346e-03
9.217566056019648943e-03,1.431526336084582712e-02,1.292127321559408959e-01,4.563367932139740513e-02,2.867134781326513820e-05,2.191991486416769615e-03,2.927963263485679896e-02,1.719160557352840402e-02,8.137722740113823017e-02,1.610837380952919937e-02
8.078256652567495505e-03,9.214286376063201330e-04,1.275096852672443770e-01,4.635885027505538131e-02,6.436450719751248700e-05,1.405627655933447103e-03,3.366741041885620844e-02,3.214281962881806315e-02,6.300899459802951352e-02,1.710136966951677356e-02
5.435096887944365976e-03,1.062760963717247417e-02,1.448150638313811245e-01,5.484181058730350916e-02,9.987530599573149481e-05,1.455021497485547467e-03,2.613637287393047459e-02,4.713579556704244888e-02,5.483176780496123309e-02,2.517012892547581746e-03
3.530568825833613287e-03,1.709685456334370315e-02,2.019000389823441544e-01,7.971211435742187046e-02,1.347270103283590035e-04,2.501811993056061046e-03,1.411578520557124454e-02,4.638720811465969762e-02,1.054768417092531857e-01,8.166802645481108583e-03
3.216297686163062906e-03,1.901241474027211623e-02,2.512858704864768811e-01,9.815433105726201202e-02,1.686643209827892948e-04,3.764546795353577828e-03,2.154333462977414682e-03,2.327933488330744677e-02,1.812528035021706840e-01,1.238724334593166269e-02
3.770601170104091564e-03,1.625211712869635908e-02,2.237017147445273246e-01,8.631561530519915593e-02,2.004938795855946737e-04,4.231856154384993490e-03,1.390884780625467089e-02,8.932457087719241143e-03,2.021784024676190894e-01,1.586356238097713298e-02
4.270134393747388075e-03,1.049185147881098561e-02,1.111484137386995474e-01,5.087406505442006177e-02,2.286293186780452384e-04,3.565633930186276872e-03,3.540146177547912054e-02,3.434946478367085360e-02,1.390942984547687000e-01,1.426163314157469393e-02
4.014877476820671517e-03,8.963664214998879470e-03,2.050576467888690080e-02,1.866457097068559279e-02,2.536317976381671974e-04,2.465675114018937592e-03,4.915951730906756301e-02,5.239576400188828559e-02,3.927536849059506951e-02,1.250744852134733033e-03
2.287820062175165495e-03,1.744626052576532874e-02,9.404004459832125684e-02,7.121377536271344955e-03,2.771582169520195055e-04,1.983551573909339387e-03,4.058701818238572012e-02,6.963437554871106105e-02,2.542505488442577122e-02,1.622376224709319234e-02
8.931983433940315215e-04,2.969948780833505178e-02,9.312843016028579668e-02,1.150441192109542127e-02,2.965488551725997744e-04,2.163026306106738666e-03,1.777483878783965229e-02,8.282153523801544237e-02,2.081073533361462585e-02,2.618799387240702131e-02
4.008854814805789743e-03,3.192882571327542579e-02,7.566499456702847903e-02,1.235937785239192219e-02,3.069668827510073708e-04,2.024460825674540519e-03,6.976159975732523430e-03,8.168823412519944649e-02,1.913717111146074484e-02,3.003703851077630521e-02
5.175403049505983809e-03,2.164949316524613851e-02,9.984123579584272545e-02,5.233349870153440608e-03,3.130404909620227707e-04,1.032325331897676829e-03,1.878491782539177049e-02,6.529820198889617344e-02,2.772353182765077695e-02,3.944473726660051305e-02
4.062962346242708807e-03,1.488550008368158019e-02,1.403847825549475459e-01,3.255115557814336480e-02,3.246173514291738737e-04,6.116104951281679108e-04,3.259170223156294260e-02,4.508880500600655900e-02,1.182292143671314841e-02,5.593241112684375904e-02
2.074785204636718158e-03,2.587217388197717363e-02,1.208826780221055469e-01,4.270859031746050000e-02,3.318023344332817056e-04,2.897871482493724875e-03,2.347193951474176379e-02,3.092250522013654732e-02,4.622071363405128031e-02,6.592967694523929612e-02
8.978460345166727188e-04,4.559109441490540732e-02,3.260311879701831284e-02,2.402603120370246786e-02,3.133762828268746347e-04,5.633255204783991187e-03,6.450405639001871583e-03,2.247646683872635623e-02,3.507432621378896165e-02,5.883267233641343436e-02
1.125931805235066497e-03,5.303253418402853470e-02,3.916445063526796666e-02,1.707493445645767716e-03,2.903215829658080741e-04,7.678714964377893193e-03,3.447688189093237737e-02,1.518783078361835362e-02,1.119556165309460415e-02,4.079380774165822926e-02
1.605265932629392801e-03,4.249492310484804386e-02,2.213150327454762104e-02,6.261166977181021297e-03,3.092320646751037564e-04,8.280657715282691012e-03,4.713906924237111495e-02,6.876190687205398396e-03,2.725601433977377017e-02,2.833260939025369907e-02
2.851626949626797345e-04,2.560025053670423809e-02,6.760614437556647371e-02,1.066578990920692346e-02,3.275410489487915670e-04,8.388868594792542321e-03,5.019446892647656810e-02,2.024157680906581505e-03,8.257556682281511073e-02,3.289910185607609200e-02
3.055298337673560249e-03,1.245418788661074860e-02,1.690740005263025314e-01,2.863189046419160194e-02,2.457955920600026823e-04,8.874754286822199995e-03,5.104790269774912848e-02,8.570247792460586322e-03,1.373873663607250717e-01,4.947679364318350453e-02
5.647891059146170102e-03,5.774305126471325142e-03,2.388140058182497416e-01,3.795338811436136522e-02,1.535700204055416584e-04,8.462211472834145834e-03,4.531121670213514308e-02,8.081478936872230415e-03,1.701434077429355429e-01,5.977845465856521101e-02
4.982050426633340655e-03,7.454036588489124440e-03,2.570865632809398171e-01,4.586510608056407201e-02,2.698177687807217493e-04,5.676354369469989967e-03,2.803850236469040969e-02,3.729642806951025125e-04,1.865122248509834824e-01,5.370838055115970816e-02
1.701976597643638581e-03,1.653330782235055627e-02,2.211042649936276472e-01,5.508130962960314930e-02,4.198534026397300221e-04,1.945043630734940654e-03,8.258222007194367456e-03,1.002455193548964715e-02,1.868441113677119514e-01,4.286004111127589278e-02
2.497363475948919439e-03,2.439867207013474495e-02,1.547603552710812569e-01,5.593831289006902935e-02,9.045243801191779978e-05,1.098808115405448734e-04,6.358546522010013633e-04,1.166587267540592464e-02,1.599681995575922555e-01,4.052150709923810906e-02
7.117047991214820769e-03,2.206368868832290012e-02,1.000186425064839568e-01,4.544619038922459442e-02,6.081837407486002500e-04,6.223279384036234634e-04,1.778444292859961660e-03,2.251332273920336920e-03,1.138140973801862327e-01,3.882945383608495116e-02
1.102826100430033540e-02,9.864931647238110723e-03,7.771796512763767817e-02,3.676704723851402512e-02,8.956677493012348305e-04,1.882723912180882904e-03,8.392610532074072302e-03,1.381022397456214100e-02,8.137267741927679821e-02,2.459499017644088334e-02
1.189357651702553122e-02,5.130223845814069553e-03,6.532881052008994438e-02,3.763544187572913369e-02,6.750318602560202632e-04,3.187917971387793734e-03,1.826495041854752158e-02,2.960372723810534776e-02,7.806500001523423993e-02,6.662926999870053511e-03
9.417832253891641331e-03,1.776902903873902109e-02,3.134138180603243673e-02,3.484004697158959996e-02,6.598447749092637435e-04,4.688895440928745120e-03,3.127995463973993334e-02,3.970360424972653457e-02,7.772223937407757299e-02,6.115876557149025824e-03
6.045809496428287445e-03,2.651885457741847557e-02,1.282729171515222498e-02,1.723415309229334169e-02,8.937869649951088154e-04,5.943654503624647666e-03,3.957140637843349629e-02,4.241110825325970085e-02,5.453157836585922902e-02,2.665447133271943089e-02
3.490072648238373015e-03,2.986248809911081284e-02,2.072999224567850449e-02,9.636341424603452749e-04,7.172750393100449850e-04,6.725067714779480767e-03,3.652604434436956815e-02,4.048629333382262885e-02,2.914137266821531513e-02,5.058889661400803317e-02
1.424263436625031101e-03,2.689749553830896034e-02,2.314841206252389594e-02,9.598835540320886997e-03,1.137152862459515478e-04,7.731143187087802932e-03,2.593586739768484473e-02,3.782947303715608611e-02,4.180644051237989572e-02,5.844548280026631848e-02
5.571892324302421887e-04,2.139954838418043834e-02,7.047868050227949765e-02,3.484360248723309544e-02,3.386235663975473804e-04,9.387493884632466465e-03,1.592481625530210027e-02,3.570874311612626945e-02,8.381833466885606210e-02,4.405877551794951108e-02
2.305440375589918288e-03,2.034807471244763633e-02,5.937080706481483172e-02,4.022557513390979250e-02,3.397852298151087837e-04,1.117481714362050793e-02,1.061863855703063311e-02,3.402035569522506714e-02,9.051596817782933679e-02,1.468174766094043800e-02
3.861063043982849996e-03,2.607649624996734999e-02,1.716753405007366562e-02,7.886178618970838758e-03,1.104553281262671364e-04,1.187654091584912884e-02,8.582676571607895585e-03,3.339011774875085686e-02,2.224334111465064989e-02,1.987988233964513990e-02
5.065635570350097636e-03,3.178293832228798466e-02,1.122907633835534824e-01,3.821742656177874037e-02,7.120241570679604294e-04,1.005997992978482566e-02,6.448369567890933733e-03,3.306397327465344232e-02,7.588719405153088182e-02,5.483493743624028027e-02
5.312579530235114929e-03,2.750960861135764990e-02,1.833286782203501220e-01,6.541991536220337355e-02,8.859595256544026748e-04,6.015342521760094242e-03,6.574126842191970257e-03,2.909840684889173149e-02,1.297832493094028539e-01,8.411970847720795508e-02
4.744015003632570671e-03,1.125732455186529736e-02,2.230579621346399921e-01,7.051470228710926547e-02,6.490653494008305274e-04,2.739913097957784316e-03,1.446947838913013873e-02,1.768567177835691367e-02,1.293878832738786788e-01,9.803672771400029351e-02
4.801740138166036426e-03,7.817040292636114052e-03,2.403326595881927208e-01,7.121430402539642712e-02,6.620798277390886307e-04,2.368099712210231141e-03,2.139969333732527623e-02,2.150711118671447264e-04,1.242513769450959704e-01,9.747004360088105945e-02
6.675613840106250571e-03,1.824337476823519044e-02,2.394702287725340994e-01,7.521185381860467922e-02,8.807091804340785130e-04,3.093318163641146923e-03,7.241057109947277373e-03,1.642885496686249600e-02,1.440475411086096225e-01,9.754744952147174908e-02
9.403315116030283236e-03,1.638693807017612206e-02,2.217517357084012319e-01,7.436983704873294243e-02,5.888570223100638747e-04,2.504451715074918535e-03,2.706323913143861282e-02,2.520031282009643769e-02,1.674277776803554385e-01,1.075170421910629226e-01
1.041721894421280062e-02,8.216281539638745773e-03,1.896966503532703241e-01,6.117975978571226631e-02,1.153675482614669964e-04,1.195727843505038548e-03,5.432519943117439937e-02,2.408569778867441016e-02,1.632196899637022025e-01,1.199930951801465584e-01
8.592509934310516018e-03,3.510278060560803690e-03,1.454341695961679226e-01,3.771816243702649091e-02,4.463152998774596409e-04,9.309333983450259094e-05,6.029711159058987607e-02,1.730260169573973744e-02,1.264764701928468849e-01,1.250860126764122560e-01
5.614629195601412125e-03,6.725889248336600068e-03,8.900582359736257387e-02,1.144888558631549334e-02,2.962160499398205330e-04,3.187444110872544867e-03,5.921960120155590757e-02,1.293672296658177068e-02,7.077589976717348075e-02,1.217781808913257907e-01
3.318699156830425424e-03,1.164798354282641987e-02,2.192472972762517583e-02,9.929037608657324127e-03,1.896837108680618229e-04,8.798691168878061686e-03,6.226604577282190967e-02,1.624308638674531666e-02,1.041747009351959644e-02,1.136666793375697704e-01
1.544311277963961344e-03,8.542040895254638527e-03,4.364643480438173961e-02,2.099107982663112049e-02,2.965979602067754799e-04,1.391226083366147413e-02,6.218855252252500354e-02,2.272125126899263506e-02,3.964049495784800065e-02,1.047961978718526255e-01
7.956136473662097112e-05,2.010722900807742144e-03,8.637344470414956565e-02,2.157299275686785228e-02,3.736460925848624046e-04,1.624430732466827787e-02,5.513963344995172905e-02,2.265132915861193044e-02,6.301040969598099839e-02,9.825368720111478382e-02
7.113951214767893225e-04,8.596794325219796890e-03,9.745292339533997983e-02,1.802424982472740356e-02,3.409482295606181164e-04,1.777969155091484871e-02,4.926739122886437255e-02,1.499772356714326044e-02,5.794627445925255860e-02,9.099744948864349481e-02
3.322890542098647223e-04,4.995235409340605462e-03,9.189024559396874459e-02,1.786346285417452634e-02,3.502774973455178176e-04,2.082116428626336682e-02,4.954139531034167099e-02,9.417629949266878922e-03,4.547425912414547466e-02,7.615152253437154628e-02
8.393092412975926894e-04,1.511818717278622841e-03,8.708145595121155602e-02,2.180808612175307720e-02,4.248846974006468278e-04,2.382620605027696570e-02,5.577959642098653803e-02,1.122036588587232292e-02,4.395602986934132178e-02,5.682990679032436793e-02
3.194302228758635724e-03,2.868146372942022987e-03,8.760434390177122832e-02,2.543064252725887875e-02,4.058001340494417374e-04,2.414168659650786988e-02,7.038136829333589695e-02,1.347633120937475303e-02,4.737034186504238131e-02,4.642734396752302983e-02
5.338487088193615004e-03,1.749339278328030257e-03,1.016889702369381532e-01,2.950000626569894771e-02,3.100499928359883484e-04,2.210060474803617406e-02,8.899546013451027637e-02,8.073923319951220243e-03,4.790774407492295883e-02,4.600356677675699474e-02
5.071240418677542584e-03,3.126478719333676201e-03,1.399606800980292554e-01,3.962540054540250600e-02,4.022577992590949916e-04,1.958864644975282301e-02,9.291270239177272516e-02,4.679963060595124062e-03,5.658654348951550062e-02,3.574317883316856237e-02
3.585582055426198705e-03,3.941173108521124450e-03,1.823602517328021810e-01,5.348260098083752051e-02,6.265446430069920901e-04,1.673193846342653848e-02,6.866377905707032880e-02,2.048422417377318561e-02,7.770398086865358545e-02,4.139751286008655669e-03
3.621774000988976609e-03,6.444668859113167510e-04,1.877502787316894795e-01,6.094139363812584725e-02,4.086175209742176043e-04,1.266439250513799568e-02,2.716035938288995089e-02,3.520513983359135901e-02,9.508006333090024409e-02,2.806142184801632689e-02
5.106686113090429420e-03,8.838150394458559045e-03,1.500891487965306526e-01,5.897758689307971980e-02,3.845779713012224908e-04,7.962869031208399603e-03,1.014388005847548756e-02,4.220631445674481730e-02,1.041162480780217503e-01,3.386799459906979226e-02
5.480067369929865310e-03,1.654238143569922853e-02,1.026877783397486393e-01,5.230523058790503832e-02,8.760497394975038689e-04,3.850152754725414891e-03,3.515661930893096421e-02,3.553202598868653028e-02,1.161537409472286897e-01,1.927455396856275066e-02
3.753242946786727093e-03,2.250803927592282677e-02,7.000289013307336994e-02,4.040311623281768461e-02,4.136144821972378418e-04,2.085213294761153677e-04,5.054472033460810643e-02,1.883339944823042567e-02,1.197862560555049416e-01,1.293629999996587926e-02
1.440773222484691054e-03,2.448557799079432648e-02,5.968675512475729583e-02,2.047678882340658174e-02,3.577639438300979358e-04,3.293850914445741861e-03,5.310207058855064000e-02,2.875485759021864998e-03,8.895292806342244840e-02,2.394706241872590277e-02
1.040130308873661732e-04,1.839014781717924346e-02,7.683464067857431745e-02,7.631121272357521343e-06,5.433035281076761596e-04,5.144507533229678714e-03,3.671710845047563426e-02,7.521407281757894712e-03,3.378516038402199634e-02,3.423851402164879154e-02
8.184165305649576151e-04,6.272635173732699597e-03,9.850728617644993745e-02,1.005993829098891790e-02,2.774374958828345846e-04,3.487863587885540063e-03,8.172665786795771728e-03,1.556444495347229437e-02,7.627080763472140167e-03,3.092796360148142992e-02
7.810345272571928791e-04,2.180341917004514560e-03,7.402010414555156015e-02,9.197392645435583866e-03,1.766270284244274725e-04,7.128158289974487020e-04,1.490885599319420260e-02,2.124204520190029963e-02,2.195206548716241782e-02,2.502934601533363113e-02
1.993946217764811142e-04,6.299127423748122814e-04,5.568135792361456060e-03,2.346221385730504726e-03,2.894633701246116810e-04,3.988270725728600835e-03,2.163659574697899407e-02,1.911175569482636769e-02,2.061157335502564539e-02,3.418831117195448438e-02
1.941830544419369687e-03,7.782651528908761211e-03,8.282549819340156994e-02,8.111640976634193478e-03,2.613232857465710903e-04,3.838719360477549272e-03,1.350797155221753962e-02,9.826246424730114212e-03,9.213716443458174962e-03,5.913798993500507528e-02
3.606191118988002087e-03,1.782069394148126651e-02,1.113399634169588981e-01,1.342875657400354784e-02,9.278839124430284478e-05,5.897177754898954086e-04,5.051534753474203054e-03,3.241777572441166457e-03,4.719746897713546219e-05,8.155109776692023860e-02
4.125646008359589237e-03,2.822206265297467348e-02,1.117463579212876201e-01,1.748950486149712050e-03,1.396496197722932103e-04,3.906190724337302300e-03,2.986470070369921792e-02,6.043619409487890719e-03,2.316556933025185755e-02,8.122249242741334807e-02
3.253163942558849435e-03,3.817604222081473486e-02,1.234846607488844367e-01,3.579652972819881429e-02,3.545952945677684817e-04,7.743326518150341238e-03,4.915155505494404192e-02,1.441217904731807720e-02,8.437648687506645040e-02,5.588532996209156362e-02
2.111513608204724623e-03,4.497274156907005854e-02,1.398674668525119180e-01,6.218152129683915397e-02,1.224810272736212092e-04,9.046170203339703661e-03,4.571311195157187757e-02,2.111945469317578691e-02,1.398097726365694626e-01,2.656506212417100721e-02
1.984271505292335876e-03,4.661804629152478674e-02,1.206551530949989681e-01,5.966171297259648121e-02,6.902946077841567041e-04,6.730759897398900203e-03,1.696809554131805536e-02,2.161352198675513606e-02,1.468592696990210777e-01,2.065840224919677018e-02
3.022886503796267527e-03,4.127477260417862504e-02,5.462507383798236027e-02,3.828005360389307582e-02,1.188560887268689040e-03,2.497336428512114855e-03,1.448536613677114948e-02,1.243183711889641122e-02,1.131796478234074338e-01,4.556517674130948492e-02
4.846083387290514924e-03,2.645807880094038292e-02,9.960044848813713256e-03,2.531336261381916114e-02,7.262765885892362525e-04,3.380455265352256102e-04,2.152104468961887895e-02,6.376530892796745432e-03,7.952664458642225154e-02,7.977236245235179435e-02
7.134741735560113686e-03,5.212224423154763510e-03,7.852944693626717418e-03,3.406954327645821817e-02,4.602136342852053928e-05,2.200040863484917144e-03,1.058132562868390608e-03,2.591798038980388727e-02,7.508429235741542751e-02,9.440065652599834156e-02
8.887220533912039075e-03,1.151172487812855000e-02,6.651351965979855618e-02,5.315558258887977117e-02,2.510334666682841010e-04,5.562898617671478349e-03,2.520584316167460287e-02,3.552484261965357937e-02,9.348510598878792544e-02,8.331307615397204325e-02
8.919590879427521934e-03,1.558654686126112812e-02,1.422480552368807494e-01,6.275779689140090212e-02,1.969061688451757846e-05,7.015002117765804270e-03,3.612401912436937618e-02,3.651863853566861273e-02,1.028744731863384942e-01,6.546194481896426554e-02
7.730284026163965552e-03,9.880480993499439479e-03,1.490425194881979387e-01,5.598427444067180514e-02,7.227565856011955903e-05,6.401491115975026062e-03,3.100146433181393338e-02,3.923334933871632652e-02,8.467178926849613929e-02,5.885676525288675159e-02
6.977278850519347611e-03,1.327077114563232456e-03,9.392728828687205156e-02,4.144673187592035762e-02,3.584345340655361028e-05,5.679325373851783557e-03,2.360893942079423866e-02,4.514302101025954861e-02,5.704207556413143365e-02,6.314375799889566931e-02
7.020114324987829224e-03,6.660915554696597574e-03,4.057993596524980817e-02,2.902371830236818301e-02,7.614094833515763479e-05,5.639089206105736551e-03,2.232174886714942061e-02,4.233005891565884415e-02,4.673936192145329571e-02,6.708651451599886850e-02
6.843689380463877439e-03,1.107389565926956455e-02,2.885291571906935942e-02,2.048116617104320247e-02,2.026623466767905245e-05,5.664751279956949104e-03,2.384639286079845780e-02,2.248404417207986242e-02,5.206541729101361177e-02,6.085477450460115290e-02
5.968442102566971427e-03,7.577110198173472172e-03,4.190476855799746964e-02,1.251002948149723161e-02,3.242391227036876887e-05,5.396515195937083564e-03,2.427291140227243876e-02,5.739303782666826600e-03,5.086695316120236343e-02,4.127238171201826067e-02
4.595312742268103587e-03,2.735150029669917559e-03,4.717455345622542651e-02,1.989432287721722929e-03,1.116832772301965980e-04,5.085276133789602346e-03,2.522486172581247382e-02,2.572240964218865805e-02,3.119522792229334138e-02,1.517384817838197258e-02
2.424196152424915995e-03,1.090734409434481085e-02,4.004604836858565581e-02,1.117158031387346408e-02,9.320122439282222597e-05,4.905965973546439624e-03,2.820922597966474266e-02,3.030551672439196764e-02,1.292738376306766870e-04,3.806797919669754199e-03
1.048871844492806245e-03,8.910240954912869091e-03,3.621095467554284048e-02,2.278142016826250130e-02,5.961458151281585022e-06,4.781584041937477110e-03,3.213184494237947275e-02,2.476310874967901574e-02,2.989291915602380195e-02,8.912925855904214184e-03
5.263555397947074221e-03,1.682406355446514241e-03,4.088275319921715750e-02,2.834465469234351276e-02,1.166389811144628153e-04,4.610868900059875326e-03,3.754610530262206258e-02,1.563156332288553538e-02,5.064270997342278091e-02,7.207660309746448390e-03
8.718582427971344889e-03,1.147676074686439750e-02,4.212173478402310434e-02,2.910503511534642124e-02,3.613167796442236734e-04,4.338697051972896339e-03,4.742649933756824809e-02,3.820400676443107962e-03,6.280530236364487151e-02,8.096843332008668223e-03
1.065883489499242810e-02,1.219551147999161679e-02,2.862990052849300263e-02,2.900789635156974036e-02,1.648868419901351593e-04,4.040761038937487268e-03,6.114071422397488603e-02,9.920859474372276457e-03,6.656831322571613030e-02,1.177940284020735640e-02
1.196367531385267129e-02,2.770736303773117543e-03,3.726841180915822088e-03,2.700950148747149199e-02,5.987018890678584906e-04,3.931697680859181157e-03,6.878352540302265505e-02,1.923929455761297022e-02,5.698533318959363159e-02,1.457752490809201967e-02
1.359912583326206535e-02,1.225298790888712519e-02,2.196472421418204507e-02,2.110783353704346818e-02,1.054916084086060090e-03,3.924264624215900547e-03,5.742954970571020196e-02,1.830269346433707756e-02,3.513108014887609404e-02,1.697344814328606219e-02
1.481736453183522123e-02,2.689754721904698970e-02,4.781988321854490492e-02,1.792900764104058894e-02,5.647950658934164717e-04,3.467068478705045021e-03,2.746486415706273984e-02,1.173060609996606947e-02,1.768122098026788172e-02,1.840189845232588495e-02
1.400775046532103454e-02,3.519198226293818177e-02,8.087040287086731671e-02,2.569032252029817415e-02,2.304460998474767313e-04,2.445375596272729175e-03,4.664533030138870787e-03,1.075984825834929402e-02,2.103075609152615585e-02,1.296971201091548509e-02
1.086439560322408418e-02,3.310374212729441656e-02,1.139155282057112278e-01,3.786706072865136247e-02,4.600222197784371294e-04,1.723340976115797420e-03,2.396313418249534227e-02,1.762253756815791716e-02,3.881457572220628482e-02,7.380253731513880533e-04
6.910363728488052096e-03,2.244917323736245890e-02,1.245289352104317765e-01,3.811441670749510929e-02,2.478257216630705764e-04,1.935567085070770757e-03,2.726028549292976166e-02,2.007030728983823231e-02,4.969001482459018543e-02,5.459121221492894277e-03
4.094085941470333029e-03,1.021060137874148580e-02,1.056374847595751426e-01,2.296857297226082006e-02,1.570567000807552844e-04,2.447176614274581847e-03,1.764346443277292967e-02,5.629199389620087590e-03,4.580076664041640711e-02,3.349671015471377463e-03
2.917211518983224734e-03,2.090365932851093959e-03,8.011579453805001139e-02,5.522052226842286658e-03,2.551729593308945786e-04,2.391464522945402956e-03,3.728479477678459542e-03,2.208940747740174154e-02,3.765085638142273011e-02,1.661465559376326673e-02
2.120175422234167519e-03,9.088790960055808960e-04,7.141884223358635486e-02,4.751241480185322726e-03,2.991010163370288653e-04,1.891758581595137396e-03,3.103581362135874461e-04,4.584756008621598128e-02,3.006353793036440486e-02,1.724747395728724181e-02
8.084054923237435093e-04,7.364674724705385853e-04,7.157834887266731339e-02,1.136095269384665082e-02,2.499281683965127814e-04,1.512044024249691162e-03,1.330512308820522641e-02,5.243597526291018246e-02,1.272345766275794279e-02,4.163621453983542761e-03
3.213893400100709292e-06,7.257838265534839739e-03,5.349531123050706161e-02,1.899430677566593326e-02,2.198578969035678329e-04,1.323043707875930057e-03,2.861518244411259682e-02,4.333630263278399897e-02,1.833799260466729281e-02,8.884508761649501443e-03
7.295426531883903278e-04,1.668476622346968391e-02,9.664990084545200741e-03,2.610436284369958143e-02,2.287362870197317123e-04,1.084549660350040898e-03,2.842399036745262356e-02,2.759400780233728367e-02,4.872394897531738545e-02,1.350673483485913956e-02
1.939466253131149221e-03,2.450718516611709308e-02,3.620190621759152017e-02,3.046360071017536683e-02,2.246356882150709439e-04,7.594798034293703121e-04,1.297988970548031445e-02,1.019479746160827441e-02,6.523978069480525221e-02,1.452101657124539764e-02
1.999668709182021720e-03,2.897084974655675035e-02,5.607338021744969619e-02,3.097443923300500015e-02,1.981036143552524181e-04,4.621374985605170320e-04,2.013050595313435002e-03,7.944071114277534082e-03,6.983157110420007418e-02,1.581339140152788342e-02
1.261625365350364054e-03,3.224586346187048591e-02,4.360856807653481354e-02,2.414527273188837170e-02,1.737865705246120296e-04,2.149687626528539071e-04,3.898908226800708830e-03,2.250764117174562651e-02,6.524106963530033887e-02,1.046611947661753306e-02
1.308365786077584671e-03,3.456924838556338364e-02,1.337752615563853227e-02,9.041709301409333460e-03,1.568277088274468059e-04,3.162817593925000169e-05,6.941561981167593959e-03,2.629917075802305770e-02,4.708540872779987119e-02,6.748065746558678732e-03
2.669517186248847665e-03,3.247461046245592176e-02,1.375320627142099725e-02,5.095185737033158802e-03,1.365137374827752052e-04,2.852436311068137472e-04,2.108427611527389015e-02,1.861093303283194167e-02,2.001917962364737485e-02,2.691216201569299193e-02
4.476844320644990383e-03,2.503308217555721277e-02,2.497354106040274718e-02,7.158816324072514621e-03,1.113986052253805744e-04,5.193598774612208152e-04,2.839702843749952396e-02,8.514407859120248778e-03,9.524666584341551917e-04,3.637843176923849509e-02
5.369617148660527604e-03,1.715591413181081701e-02,2.487910596328249749e-02,3.056387167470182940e-04,8.703574983968132288e-05,7.269328738212744653e-04,2.394956143432967755e-02,6.054025500889080418e-03,4.645400067099092825e-03,3.162057199155663550e-02
4.305469127930343538e-03,1.334953396716843411e-02,2.861254330442377161e-02,7.991002349786721160e-04,6.415107938717587248e-05,9.174244185142396658e-04,9.925357330715782120e-03,1.307628749621603421e-02,1.175401400500030759e-02,1.969618874298223118e-02
1.624161819483128325e-03,1.168637155372891263e-02,4.233306909406518714e-02,1.047674827786892852e-02,4.135345295156061282e-05,1.091745273607735945e-03,7.733411793007391455e-03,2.344217116292279801e-02,3.211620913079870493e-02,1.051894285673821670e-02
1.058476391000732261e-03,8.358544179105999866e-03,5.793371307888127431e-02,2.546319906127592417e-02,2.076811573656592533e-05,1.243398429550388474e-03,2.431995236580441686e-02,2.888908574247309874e-02,5.654748322485816242e-02,1.050159401192053005e-02
3.072733154573378637e-03,4.793654070340652197e-03,6.759894594342227836e-02,3.311711559579259834e-02,2.948515187714727194e-06,1.370275539820121988e-03,3.540300192668170004e-02,2.495934541783461150e-02,6.873532133821684542e-02,1.847661465635906317e-02
5.267356045757172305e-03,4.262787628332979917e-03,7.149845006633004374e-02,3.182790866148788034e-02,1.611717300443331447e-05,1.474304076915977993e-03,3.383429735022575741e-02,1.432847980471946281e-02,6.515567582098100163e-02,2.729645743186656301e-02
7.192583415485940580e-03,4.563847829025023325e-03,6.987352536713806184e-02,2.692006406469342125e-02,3.442098814387018775e-05,1.555945491155368531e-03,1.595033911198408608e-02,3.129437601638786638e-03,5.353998948485699794e-02,3.163201008494315875e-02
6.418955023570890525e-03,8.337819361905868774e-04,6.092400506356709933e-02,2.308641347206036309e-02,4.161463618020799234e-05,1.614306480806404270e-03,9.855702947327991265e-03,6.658931040480737563e-03,4.018981231410757166e-02,3.210535204833743494e-02
2.436763753841071807e-03,6.443344322272847452e-03,4.846822096970094390e-02,2.163642721129937357e-02,4.155956379877314322e-05,1.649716738522648057e-03,2.863727389944385054e-02,1.723671444450600165e-02,2.766355823190631488e-02,3.103195777571116434e-02
1.498343807519943996e-03,1.183506139479656785e-02,3.902732137703870952e-02,2.093244902228823950e-02,5.587574679046940522e-05,1.663695460071119197e-03,3.220149864074087903e-02,2.856578151799427090e-02,1.900368632315515421e-02,2.884076091939605235e-02
2.104002671494265356e-03,1.190146527950018338e-02,3.188330492827681079e-02,1.786537425879488120e-02,7.588151966907735638e-05,1.657718351591282646e-03,2.305414422965989391e-02,3.744298497872041581e-02,1.556748118575477548e-02,2.550347294544246315e-02
5.388819532033386952e-04,7.693615858340789940e-03,2.481905662712493438e-02,1.165321608609486657e-02,5.471437879722524728e-05,1.633180693858262214e-03,1.115591143810644448e-02,4.139752918110894964e-02,1.492003755909133977e-02,2.037311671094391846e-02
4.147053791021904599e-03,1.929736328068445278e-03,2.422258101716943945e-02,5.954886210741828882e-03,9.796140354105225802e-06,1.591925671475185461e-03,9.319831283368181993e-03,3.972525031714176091e-02,1.591415312064299939e-02,1.109583948574459356e-02
6.667249132361851606e-03,2.504940976545360840e-03,3.423558172972621105e-02,4.512631007504050787e-03,4.202546420941487705e-05,1.536209792526255528e-03,2.184082405604483024e-02,3.284447479402059084e-02,2.004345498948271673e-02,2.253345528093880171e-03
6.876647877289197505e-03,2.682715517408823698e-03,4.442882511371405024e-02,6.606921855247383304e-03,1.174418655622651346e-04,1.468388458698221492e-03,3.639752862904169217e-02,2.243039108286661032e-02,2.637526360409245957e-02,1.315154520678094019e-02
4.201218967724957079e-03,2.034468485425589262e-03,4.493183460146976671e-02,1.016379454497337055e-02,1.782769819398337911e-05,1.390855081336835573e-03,3.836711282489162905e-02,1.131479631362572111e-02,3.336000441491698137e-02,1.323382397224896236e-02
7.831547623820901737e-04,8.933179392874326247e-03,4.264523564661296118e-02,1.565214540899392479e-02,1.982025933093589426e-04,1.306109543976223400e-03,3.026274705675559978e-02,3.180582187333832848e-03,4.302789841882127125e-02,1.577545152991652842e-03
5.812419653949619375e-03,1.520492641647929258e-02,4.437069861755732481e-02,2.127972366289078432e-02,1.921999227722519349e-05,1.216706664371350593e-03,2.374133481462569265e-02,1.538799056112459280e-04,5.162190808003985082e-02,1.236453228759095205e-02
8.162563524327298009e-03,1.979590045188027447e-02,3.735165714127688941e-02,1.857760322945408230e-02,6.981724095220040319e-04,1.125141753880771903e-03,1.898646293311273547e-02,6.561177346072922124e-04,4.282223549800118906e-02,1.739993233138014198e-02
7.467547707494027499e-03,2.146749031857819734e-02,8.346322239933711556e-03,1.461541570995012135e-03,1.196747870340865525e-03,1.033792723771895239e-03,9.097614398311996628e-03,3.006146506869147254e-03,7.856696674961156229e-03,1.234110433953598644e-02
6.309504794191325185e-03,1.902407534533463382e-02,2.924504795258100337e-02,2.239044533004878532e-02,7.995546970726368722e-04,9.448954161573525686e-04,5.087694781399907697e-04,2.781638356279127200e-03,3.415794610854795688e-02,5.067641914173441273e-03
6.558268299878686897e-03,1.382538197328316530e-02,5.097786460449318935e-02,3.791792116602303586e-02,9.745072016759183148e-05,8.604978067605982116e-04,3.666157320233706489e-03,7.486858859041481060e-03,5.485991860833414752e-02,3.573741548760452948e-04
6.569423090810959029e-03,8.470226683009653146e-03,5.681100971969612473e-02,3.946592035784266678e-02,5.557861293691792768e-04,7.824050643283858401e-04,2.002415468190279005e-02,2.374657302986693877e-02,4.963784260671178644e-02,7.961984090327507702e-03
3.959113607361394033e-03,3.476490534266460982e-03,6.625831706457417647e-02,3.347835842786598542e-02,1.348697775730156047e-04,7.121426143911167850e-04,3.014330371812358814e-02,3.151864859195581403e-02,3.543824301127884019e-02,1.962616255566354551e-02
6.601293897756552956e-04,1.890743235661094873e-03,8.208806534812219946e-02,2.618427683536334039e-02,7.256527883992636499e-04,6.509332632025209998e-04,2.287537324426273597e-02,2.447241962173331287e-02,2.343384705525965173e-02,3.010018686397960413e-02
4.777540139625500656e-03,6.760486863287789791e-03,8.654987305096248362e-02,1.806751670014934696e-02,1.088213655221327916e-03,5.996767114776302247e-04,5.843321135744075981e-03,1.144521463132513496e-02,1.163688914547671670e-02,3.471472384011951157e-02
6.987394577732947490e-03,8.765305879129209679e-03,7.448586878101343123e-02,1.044551451725992362e-02,5.577238952473716638e-04,5.589339802156031945e-04,9.853839874804442081e-03,3.364843038981526081e-03,4.592278023521291670e-05,3.251596134786945147e-02
7.489458441283577440e-03,6.129662640167872836e-03,6.222498734731812114e-02,7.299708596097267271e-03,1.880656092419515481e-04,5.289227721740970452e-04,2.240386055104157809e-02,2.455963921424826439e-03,4.671607129045170746e-03,2.112037111455274466e-02
7.232201423258954529e-03,6.124290841633217661e-04,5.936405561595648611e-02,8.475443748216890394e-03,3.912109424768379093e-04,5.095228888010393774e-04,3.154061350101688976e-02,5.503488629784870044e-03,1.058684231770786431e-03,8.870206612757343401e-05
7.203472938200142402e-03,8.070047700093218104e-03,5.625779251788311924e-02,9.244198683702360697e-03,1.944919334068346043e-04,5.002887943352943637e-04,3.005180985917364073e-02,9.707768458218201529e-03,3.296610809574384692e-03,2.138840019849783114e-02
7.800727721568141530e-03,1.224812744159881929e-02,4.556761966280437059e-02,7.820162407587961939e-03,1.088483230445820772e-04,5.004693265758073262e-04,1.262521146410389150e-02,1.255723352482318415e-02,2.493845910167383478e-03,2.967893963103172481e-02
8.962888254622195308e-03,1.228271681331383203e-02,3.673971364295831182e-02,6.431540721221340809e-03,1.925438680996645433e-04,5.090352505207858865e-04,1.222024735744480645e-02,1.074872237272689150e-02,1.607140947551204992e-03,2.465733144630976106e-02
1.032022533626610235e-02,1.064095037353056730e-02,4.006605580958488844e-02,5.074661509009059136e-03,2.271304911511575885e-04,5.247137282685073508e-04,2.825400423934456423e-02,2.556103078979816718e-03,5.303961389900993702e-03,1.655759677525342824e-02
1.058649746299079354e-02,9.538216083567169212e-03,4.859571008301358241e-02,7.134680808822478192e-04,1.785453581170899434e-04,5.460281880461557383e-04,2.818870087486558332e-02,1.011723855424884536e-02,8.068259970106813825e-03,8.694399697327451215e-03
8.514875284255554733e-03,8.977192553939321654e-03,4.718472200927808363e-02,6.603751037869033148e-03,1.477730880222001748e-04,5.713426146169498562e-04,1.768628269150498283e-02,2.327776778003823668e-02,1.022734869192616115e-02,3.658760642859948918e-03
5.055544045611586913e-03,8.228270843002868234e-03,3.460107958969593778e-02,1.150059303206918924e-02,1.525045813043579503e-04,5.989093894161724935e-04,5.077857068303150319e-03,3.341586718627356789e-02,1.065322204499104426e-02,1.629467711647433065e-02
2.297910410857907388e-03,7.290607158869839323e-03,2.489980522237675298e-02,9.424878973583995789e-03,1.461998007084164687e-04,6.269194209140548915e-04,5.809063349801280550e-03,3.851037647087499766e-02,8.862342979833142190e-03,1.463067985854795208e-02
3.679975571027219259e-04,6.495389920386663435e-03,2.641263933267811934e-02,3.382145364537782802e-03,1.205486823595754446e-04,6.535531582217454609e-04,1.387707292337024209e-02,3.792648317041109191e-02,7.077750452664353757e-03,5.176385010990510079e-03
2.122176755728525689e-03,5.848520755265700956e-03,3.085203131496749504e-02,1.159077022132152992e-03,9.784622042309326867e-05,6.770312132249641911e-04,1.821156802285949644e-02,3.204132048426088647e-02,8.039194928028632614e-03,2.756617742160675025e-02
5.322892846895858204e-03,5.197383346453654691e-03,2.787146466003190270e-02,4.695466970198560949e-03,8.291511236215038793e-05,6.956633860345908058e-04,1.886088889060298646e-02,2.250994442955525296e-02,1.049479774203936587e-02,3.614384826280453433e-02
8.179746463794757699e-03,4.538549737411486269e-03,1.972184980254793746e-02,6.684529785290369008e-03,6.606880764185581005e-05,7.078948723478314855e-04,1.828485300540211994e-02,1.307094433220465542e-02,8.729243500493706620e-03,2.942336430513091405e-02
1.009564044119217602e-02,3.943813144916442567e-03,1.360993119606771287e-02,1.535646085800267168e-03,4.563242826886998584e-05,7.123484880598325835e-04,1.974743208505340061e-02,8.002921302866726136e-03,6.862200575081713744e-04,1.426171500000627743e-02
1.072517047262821696e-02,3.415318609019669417e-03,9.206174081787888222e-03,5.662620336493982137e-03,2.681469218137175726e-05,7.078618862715055707e-04,2.193971713983693464e-02,8.181109675256497196e-03,1.312559851174432968e-02,3.604376782074536923e-03
9.358324131595289683e-03,2.918432987017024853e-03,3.814046601335314632e-03,7.243240852300498155e-03,1.115283081751687608e-05,6.935188869543315506e-04,1.755161693605594361e-02,1.052063066215044168e-02,2.125782208782924301e-02,1.755422658372204209e-02
6.058551016418650854e-03,2.450006895120599403e-03,1.801041365175483355e-03,4.762691788173218851e-03,3.107391074456385282e-06,6.686741797454869018e-04,2.569621179377944153e-03,1.243853338242521117e-02,2.407249437637582617e-02,2.052292845052125156e-02
2.521152011459925051e-03,2.023864659523964740e-03,8.109435714996135122e-03,5.530711538870566879e-03,1.612577559147176931e-05,6.329708266007129597e-04,1.517067360380769045e-02,1.414818641701152437e-02,2.504517555077746815e-02,1.327983594905382189e-02
5.996983548436480259e-04,1.638725117438604795e-03,1.788899026531954456e-02,1.119225931081994224e-02,2.659592858312149650e-05,5.863501824749261420e-04,2.340144846435950055e-02,1.536492505551460656e-02,2.466156341545415812e-02,3.780453909915676251e-03
3.918705056302440549e-04,1.284677917852069650e-03,2.119604551184496935e-02,1.601761129782700369e-02,3.395005455406104196e-05,5.290540477992016020e-04,1.938057505977920647e-02,1.364966982992150621e-02,2.106437930154981750e-02,3.646596818258291198e-03
4.909514454735520311e-04,9.583685256809930083e-04,1.429468490564205982e-02,1.443339660827013156e-02,3.834313506515624556e-05,4.616190595340746369e-04,1.024759839082275449e-02,8.399858544569252169e-03,1.469719825234877542e-02,1.007413935377770783e-02
1.442241559246587709e-04,6.602450510038589647e-04,1.101802507476407067e-03,6.299769410669134317e-03,3.983641042589636277e-05,3.848635207044447766e-04,2.155906353040026435e-03,2.415932658614715692e-03,7.293123787368202202e-03,1.544677050866160618e-02
1.089223128634171298e-03,3.875146933739373033e-04,1.271070908942472863e-02,3.943562038317290595e-03,3.839184389436373708e-05,2.998670576856227654e-04,4.437812799552571033e-03,3.132048661610065468e-03,3.052411440489666977e-04,2.001315693808582499e-02
1.039702408540530386e-03,1.354514093252465233e-04,2.344735535905666246e-02,1.120994349123477507e-02,3.381385817807406420e-05,2.079436719107101059e-04,1.017206503232642549e-02,1.041313603515760938e-02,6.541867425978134531e-03,2.724168354752348753e-02
7.353498983469158954e-04,9.918383195775873611e-05,3.101935917188209518e-02,1.351195535827273177e-02,2.575923209079521988e-05,1.106089132768736503e-04,1.366043916083426596e-02,1.887293243561187495e-02,9.178858944755076063e-03,3.625997468167611870e-02
3.154815557075193750e-03,3.186084285082128095e-04,3.941585459858074070e-02,1.254440709014703094e-02,1.471060441285633225e-05,9.542044087336860577e-06,1.400507911736150087e-02,2.337349620244972073e-02,8.358317758405358136e-03,3.832573851178628505e-02
3.894973095539021497e-03,5.255238182350671205e-04,5.113664055526895291e-02,1.062200843347884879e-02,1.988228913354592593e-06,9.345581827105347368e-05,1.274371912141680600e-02,2.173783858335148755e-02,6.436375351064392222e-03,2.808274714540833980e-02
2.244924329785722740e-03,7.228205367534310845e-04,5.884475328085900930e-02,7.834627763521881394e-03,1.273723388087079632e-05,1.965064981282707199e-04,1.181048491688089890e-02,1.843684201285496205e-02,4.567689846924811309e-03,1.090696637327819886e-02
3.649314781790703212e-04,9.127826308096332643e-04,4.930414853865767999e-02,2.761613793611894518e-03,3.156204451670483694e-05,2.977013504865688460e-04,1.146491675184495469e-02,1.743690704838085637e-02,2.176148067607496569e-03,5.624766914064108919e-03
1.204153579354073927e-04,1.097139709720663329e-03,2.065569194989939905e-02,4.394946847003738249e-03,5.287579631244019337e-05,3.951484583965652318e-04,1.107096087925529999e-02,1.644113544400564036e-02,4.495033557796119031e-04,1.983927128528322967e-02
9.371056682800371369e-04,1.277376295279971253e-03,1.079967158054032615e-02,1.013761986157313451e-02,7.098576383917973146e-05,4.870192483646752822e-04,1.048990420892976193e-02,1.125429375466185759e-02,1.680659290816616594e-03,3.195173556634434836e-02
3.864421315658542969e-03,1.454661513797531535e-03,2.701965490874027112e-02,1.027893423719687845e-02,8.791230632577120760e-05,5.715933566155620730e-04,9.984160830995214217e-03,1.878475743737550389e-03,1.079639898043212570e-03,3.960713693443358024e-02
7.032657154371424815e-03,1.629669008660105441e-03,2.554747695021966983e-02,4.620225573348114151e-03,1.145349489754023673e-04,6.473006313435331841e-04,9.599615908796313088e-03,8.104002908368988442e-03,3.809799799208632431e-04,4.218277792219277816e-02
7.976409848532676691e-03,1.802589478890826574e-03,1.586249379518956532e-02,2.298149025083654103e-03,1.454244944821774085e-04,7.127592358931238116e-04,9.194197206462728297e-03,1.537671803220071014e-02,1.163520407805707525e-03,4.308751941342054553e-02
7.711468798575376801e-03,1.973213620580391899e-03,5.493911859890445934e-03,5.885057111074754391e-03,1.557705038859137148e-04,7.668089228954329348e-04,8.725771420328263736e-03,1.843932888409212378e-02,3.035114429543479125e-03,4.200294937102365400e-02
7.852264219170380921e-03,2.140942412670458848e-03,4.094601092565056978e-03,5.678582969617956833e-03,1.551049620680196891e-04,8.085386769724572887e-04,8.243048284677017418e-03,1.726659464533305405e-02,4.817548267059683018e-03,3.165831789445995581e-02
6.499944410200075851e-03,2.304779846072299750e-03,1.220827687188188147e-02,4.179219982432771062e-03,1.953074231057160502e-04,8.373080703552505293e-04,7.751190958861847377e-03,1.302448552437174625e-02,6.208895130266839715e-03,1.010480375241287927e-02
1.434697305275578656e-03,2.463374961589619942e-03,1.628907763611755696e-02,3.146334299939642330e-03,2.560969763990785962e-04,8.527618378125547413e-04,7.214780691977822763e-03,7.489947970561783123e-03,7.557909446631125988e-03,1.104902897821237288e-02
4.794033180227472331e-03,2.615087026917587397e-03,1.510840556184820868e-02,2.453135714160449045e-03,2.248445362082944314e-04,8.548373504814928961e-04,6.621064761654553953e-03,2.028531125673529827e-03,8.950892736239638922e-03,1.954469821286091216e-02
