4.550376014174817296e-02,1.074244293585564303e-03,4.092643343932612400e-04,8.362487751858708909e-05,2.959077048879798653e-05,2.176759140941708724e-03,9.462012919503329927e-03,3.431683575358485810e-02,3.033890851287374384e-04,7.134557962373326567e-02
5.016908835930634220e-02,6.057631836105016338e-04,3.547402015821676607e-04,2.912357515777210920e-05,3.004738126867329199e-05,2.031860498650235169e-03,1.553782760778924747e-03,2.086868471378326012e-02,2.451133080684630289e-04,6.564687033587110476e-02
2.956710346363533581e-02,1.659916389366680495e-04,2.913608578510940906e-04,2.623073007118619540e-05,2.991598841978892901e-05,2.080744047836407401e-03,8.758376475253812007e-03,1.021182910122381271e-02,1.810230866900420989e-04,5.215568650530476996e-02
6.419909030345370650e-05,3.713313597935155911e-04,2.207212054437743818e-04,8.107425459003209708e-05,2.917144535307014916e-05,2.622354470836225394e-03,8.396208102385217115e-03,9.980391610295957783e-03,1.127067018510217463e-04,3.609620900815255218e-02
2.225442891054586064e-02,1.335458185911930090e-04,1.445923946327313874e-04,1.340514096787933252e-04,2.780206319270558401e-05,2.430743007601478441e-03,6.880906677647112904e-04,1.635198793473277915e-02,4.185187932931602945e-05,2.275997648949122654e-02
3.831794054005525918e-02,1.612081135478542166e-05,6.487749524474200789e-05,1.838482702322463756e-04,2.580988313603304257e-05,4.039943718528347331e-04,1.595469796666674350e-02,1.900617748538240004e-02,2.979583441562485391e-05,1.542005072723295553e-02
5.613287604233801326e-02,8.763835548989818271e-05,1.643598327596601424e-05,2.292251305466629183e-04,2.321063129030553237e-05,5.342687526813307865e-03,2.930487285717011184e-02,1.215099712246093221e-02,1.004760092601541177e-04,1.213159402400685628e-02
7.565758849946553621e-02,1.057373337711763002e-04,9.732553980052228190e-05,2.690473412508130493e-04,2.003336259323196215e-05,9.016500886945701121e-03,3.181251685824532105e-02,2.590264199752694094e-03,1.684565267737884228e-04,7.617091336384150015e-03
8.566485676013430028e-02,3.179649538683655132e-05,1.757838682960738430e-04,3.023136610780406339e-04,1.631974273231338716e-05,9.420751108998197398e-03,2.408451696746351928e-02,1.678899353493851568e-02,2.320759757678406761e-04,4.823917248758047630e-05
7.403521992272753260e-02,2.150291459393060067e-05,2.498685391411185636e-04,3.281814157802178528e-04,1.212297346010915257e-05,8.277368207471703238e-03,1.642604131187403935e-02,1.995477969497136753e-02,2.897842120650179600e-04,7.900685114875873744e-03
4.490966788926652881e-02,3.366061038799645353e-05,3.177499463294130352e-04,3.459878327318546289e-04,7.506516320880923534e-06,7.687220305622820271e-03,1.603088637545149048e-02,1.226933830666923630e-02,3.401800939801502533e-04,1.544434750751663699e-02
2.065353131291745858e-02,5.616172112536155936e-05,3.777563379434869758e-04,3.552670118465951960e-04,2.542676878681853058e-06,7.392395670817010836e-03,2.103867256084524656e-02,7.050542849178535569e-03,3.820454765218142686e-04,2.484434520035262370e-02
1.735558399826393067e-02,9.823759044774123858e-05,4.284148224162624870e-04,3.557620991156664391e-04,2.689188349371335434e-06,6.952071160757663897e-03,2.800860486142029218e-02,1.164508085110184561e-02,4.143746410956054360e-04,3.466511355974603859e-02
2.573839460717568944e-02,1.348872943151995017e-04,4.684873454325845163e-04,3.474323458224286396e-04,8.104869626981772848e-06,7.009644344236872285e-03,3.548336492501701078e-02,1.603145362564169230e-02,4.363984511652462266e-04,3.918357187842536060e-02
2.797981870007404739e-02,1.604883354646478670e-04,4.970007593318731412e-04,3.304548614516048108e-04,1.361727080114606777e-05,6.888574356090078170e-03,3.917190228581073075e-02,1.146176334416626821e-02,4.476026550801118610e-04,3.753017586209983492e-02
2.476675949824222109e-02,1.857212408908316074e-04,5.132702553263854923e-04,3.052209984462261232e-04,1.913792780740444547e-05,4.647047445601583046e-03,3.366606827640452465e-02,8.168188451247761217e-03,4.477399018692960445e-04,3.660175827990883035e-02
3.033204007327037002e-02,2.124504215653128913e-04,5.169155948565401721e-04,2.723274390819341653e-04,2.457927795014869254e-05,6.285570556785628543e-04,2.068778974934169096e-02,1.959074545470729581e-02,4.368351906650161116e-04,4.078084413517912149e-02
4.487708852076134625e-02,2.348781754300081090e-04,5.078697558793792560e-04,2.325621855790819821e-04,2.985801624351029838e-05,2.335295328424870885e-03,8.120707505204504545e-03,3.854019829413026649e-02,4.151846357416840968e-04,4.502514328931130072e-02
5.070469824476920434e-02,2.513414915281656403e-04,4.863797987154307081e-04,1.868857809298256041e-04,3.489682498111136458e-05,2.823037547263699230e-03,5.664226260124979352e-04,4.546528853010839422e-02,3.833475929824291923e-04,4.324524032406006774e-02
4.063955785439906515e-02,2.639313725534431915e-04,4.529999494479459814e-04,1.364082066511037260e-04,3.962352708450696422e-05,2.244411393322397197e-03,2.838507382395121306e-03,3.477147809606602469e-02,3.421323559017572127e-04,3.745257978010282929e-02
3.134826180708215337e-02,2.729731629704351377e-04,4.085770912163187610e-04,8.236201183271522268e-05,4.397327907701793830e-05,2.168595229427877028e-03,2.770740248864680434e-03,1.832005321996538552e-02,2.925757861973666456e-04,3.285807242640352566e-02
3.679267698761454902e-02,2.771488474798417933e-04,3.542290405600042615e-04,2.607232273024956502e-05,4.789583196118383829e-05,2.424861166569904948e-03,4.579259625478939062e-04,7.307937899299698538e-03,2.359173913550847166e-04,2.997486350932715080e-02
4.627784125925379910e-02,2.760997314166136092e-04,2.913161642885481119e-04,3.107553862956657047e-05,5.135578642720769636e-05,2.290510605234526934e-03,2.395593716585259995e-03,3.560905151104020415e-03,1.735684965037458615e-04,2.659876064602112455e-02
4.322479983176500534e-02,2.704017939512766595e-04,2.214070573131043658e-04,8.767003681617194320e-05,5.432107863284039588e-05,2.045148214917200460e-03,2.179059425249348873e-03,4.773781992702543810e-03,1.070772762500319828e-04,2.128832044623328590e-02
2.948759450666649240e-02,2.603253949124174904e-04,1.462391459006838620e-04,1.423081740229017816e-04,5.676525879162932370e-05,2.351526975586526545e-03,1.080409040790521885e-02,6.885946640070451930e-03,3.809051175725391335e-05,1.236711672280271443e-02
1.535013372492123954e-02,2.458324759294863325e-04,6.767520131174305101e-05,1.936301555068942009e-04,5.869432648181069313e-05,2.637484961807508473e-03,1.442204987547058420e-02,3.310638854276252898e-03,3.168698352192662171e-05,3.638592099432171219e-04
1.491487261337851207e-03,2.271948167052305779e-04,1.234314961691727826e-05,2.403531142317734892e-04,6.014375872336935245e-05,1.556006811078901927e-03,8.240822183699071657e-03,9.000293274374909433e-03,1.005342711513684448e-04,8.973471083994426223e-03
2.908806992867388544e-02,2.049833061213015921e-04,9.184375191706955046e-05,2.813030596166478273e-04,6.112129574814320599e-05,5.741440619220908922e-04,1.794724920112906585e-03,2.228528786076445362e-02,1.667564993878525230e-04,1.065892962660054330e-02
6.020971627836671503e-02,1.796684641430834660e-04,1.688728856729200187e-04,3.154442560624416605e-04,6.161094446519191456e-05,1.634642178166659330e-03,5.118881610459842871e-03,2.398779466269231747e-02,2.287263854221219304e-04,6.674522474575079328e-03
7.638639987212283988e-02,1.516207551935172472e-04,2.415436640666855260e-04,3.419052974188004578e-04,6.169341849127557608e-05,9.632148462974951877e-04,1.120792036592743388e-03,1.292598632331328282e-02,2.849239545317306982e-04,1.347999919790569996e-03
7.273253201811637203e-02,1.214848128487544694e-04,3.080826707307682310e-04,3.600012223527098505e-04,6.153792290071864691e-05,4.251625246619525345e-04,7.966813898796182986e-03,2.783065039189562551e-03,3.339735673869403780e-04,4.414116207472642411e-03
6.415839741358586590e-02,9.013350777484768078e-05,3.668736562083217126e-04,3.692511108084499459e-04,6.114103191394662669e-05,9.741881146101451228e-04,5.557608701604187414e-03,4.523482973307667646e-03,3.746773352329397871e-04,9.783958445811225327e-03
6.504649190336547759e-02,5.803017763875263711e-05,4.164972124552618728e-04,3.693907111208981006e-04,6.033293444651244167e-05,9.590623053726131560e-04,4.036119714542251227e-03,1.243700038543935765e-02,4.060441130150134622e-04,1.049676461474197305e-02
7.248649890280502162e-02,2.527232994976086382e-05,4.557655131359629854e-04,3.603797682171105033e-04,5.933009090890709367e-05,6.578271043168148861e-04,9.733956244579988412e-03,1.368298323594378980e-02,4.273133704610994799e-04,4.472090351164640515e-03
7.112305142769009825e-02,7.190227689937385276e-06,4.837512830007205519e-04,3.424038527782000737e-04,5.873059849487859043e-05,2.325384405956506043e-03,5.209376250916222632e-03,4.497418271376241346e-03,4.379733679577239446e-04,3.039479843873236359e-03
5.130972593175376489e-02,3.767070897627728001e-05,4.998101605320350938e-04,3.158706260767435588e-04,5.832767548441170394e-05,2.577431034138524292e-03,5.959018307388855643e-03,8.569413583383957145e-03,4.377732046137981520e-04,6.497426973163647479e-03
2.278133363755990501e-02,6.635177021535295164e-05,5.035958837781874791e-04,2.814006121514992594e-04,5.708221669189239588e-05,2.083348338811393061e-03,1.650341580921300261e-02,1.697468109469426820e-02,4.267284567368550673e-04,9.174400560432898963e-03
7.236985830111037667e-03,9.514910721630075857e-05,4.950682181789635948e-04,2.398126846643599023e-04,5.564955330907074999e-05,1.971626625075134209e-03,2.111409922823574703e-02,1.560074652873031341e-02,4.051202823392304701e-04,1.765183998903157442e-02
1.453939821667871168e-02,1.222043581934677769e-04,4.744935190667777720e-04,1.921046068561997210e-04,5.649758310364221903e-05,2.185385721513535742e-03,1.890637280167771148e-02,5.462070815926899255e-03,3.734880273864068893e-04,2.926299974771168905e-02
3.195203305707371155e-02,1.420717028264524616e-04,4.424373369670777821e-04,1.394290862318509473e-04,5.850744863109391799e-05,2.229079824322883520e-03,1.554477615297897991e-02,4.939166360968351606e-03,3.326155283778765804e-04,3.307318093228728967e-02
3.934530122547045400e-02,1.575059515452914040e-04,3.997490948133873632e-04,8.306591789470585906e-05,5.657455842491976040e-05,2.121857778045755424e-03,1.911964632462094527e-02,4.625809160982193545e-03,2.835114596325729588e-04,2.431132416760833914e-02
2.850204901772133287e-02,1.793966688416935248e-04,3.475404983975458593e-04,2.439088901098444907e-05,5.312383098615569977e-05,2.092067127308953715e-03,2.888969449049189411e-02,8.701183759641269513e-03,2.273842185885677821e-04,1.258287891381217743e-02
6.712714333478200616e-03,2.016153417438911475e-04,2.871586278516999151e-04,3.515780076703615119e-05,5.925762114177956369e-05,2.113964852258002312e-03,3.349345534853864770e-02,2.427815426360003734e-02,1.656119749962506164e-04,1.216157965997510630e-02
1.153805311404775859e-02,2.005121268661720212e-04,2.201516984982878559e-04,9.411478403999434632e-05,7.018951503413201640e-05,2.081259466840919455e-03,2.694601186323167599e-02,3.020533489031527671e-02,9.970862687238680555e-05,2.498577189816396024e-02
1.498617114762902658e-02,1.886229693850326921e-04,1.482274323595007565e-04,1.510235725803464927e-04,6.214856064738165777e-05,2.045018847063109768e-03,1.951857641663348394e-02,2.809725986699558933e-02,3.128650466475176565e-05,3.829805710399604435e-02
2.521213948744756815e-03,2.171483615415575853e-04,7.321080820923972564e-05,2.044725204527374153e-04,4.476135947789816664e-05,2.053220126377210911e-03,2.280971708625213062e-02,2.941231492585652876e-02,3.798325711814630533e-05,4.091466499083450115e-02
1.800771531692895236e-02,2.613030314362215206e-04,2.995641459355895611e-06,2.531298161139254035e-04,6.903497502012330444e-05,1.995060279140996231e-03,3.122864471393358918e-02,3.822900792176039259e-02,1.064117063922633086e-04,3.414712687864227686e-02
3.745715951780032027e-02,2.118794558849404160e-04,7.846016979463221611e-05,2.957766368916412412e-04,1.156893160722026275e-04,1.848569132007630731e-03,3.114793094286279207e-02,4.551598219805352147e-02,1.723334124514363586e-04,2.321469173109874315e-02
4.985971115452355468e-02,1.198434811774795182e-04,1.512824200232353825e-04,3.313376413015664459e-04,7.506208340529816475e-05,1.854222449649934896e-03,2.178320758873822371e-02,4.286106094660473154e-02,2.341471451604296085e-04,9.019503759482511498e-03
5.141967064524591291e-02,2.236116525571831730e-04,2.196389205209033448e-04,3.589080372039301086e-04,1.494296091599130352e-05,2.037673470705497411e-03,1.322441772506033862e-02,3.461687354773252540e-02,2.903549003362155124e-04,6.131191495928551942e-03
4.288545258640234087e-02,4.312586556499862990e-04,2.818013533994265110e-04,3.777765453618324855e-04,8.317978670198550859e-05,1.853666727079342821e-03,9.779043117992986325e-03,2.993994024588281233e-02,3.395983197247316450e-04,1.622942975592154419e-02
3.299329886627325181e-02,1.901313319001884711e-04,3.361821121592244274e-04,3.874436766040257468e-04,3.036272689901662941e-04,9.695669615363737906e-04,7.805285721619380918e-03,2.840529371714523368e-02,3.806916196261017345e-04,2.010199460502748448e-02
3.005114968143838411e-02,5.700821460988254961e-04,3.814309318244917392e-04,3.876348541491203927e-04,9.445968569606086969e-05,6.013809842868615349e-05,4.446244502581157484e-03,2.260586553104579344e-02,4.126502293671985484e-04,2.299568150415329595e-02
3.091991480633697609e-02,9.988553861830149188e-04,4.164634705242709675e-04,3.783080379782027196e-04,6.724376010452097095e-04,8.115196093692718599e-04,1.493398202054772601e-03,1.043403345876134369e-02,4.347144473094205139e-04,2.798714361612491749e-02
2.768894845226931717e-02,5.694033760214653852e-04,4.403649066234136054e-04,3.596556424053619361e-04,1.151664915639439212e-03,1.802780025011045239e-03,1.206771248022433726e-02,4.364122973638002480e-03,4.463675453487607014e-04,3.295998738355197105e-02
1.882403170340688284e-02,1.197302225667724873e-04,4.524187849736787271e-04,3.321006779157449650e-04,6.950933032495948492e-04,3.067743440091181759e-03,2.587835280018361758e-02,1.855062855714975645e-02,4.473478898382317022e-04,3.487917306818024560e-02
3.578919078625314443e-03,4.420883423577343790e-04,4.523869786651360612e-04,2.962871904917498741e-04,1.110784394011130521e-04,3.211245763169604927e-03,3.523930769563957816e-02,2.859978145213278380e-02,4.376547939986076877e-04,3.227401744261765987e-02
2.068475032911663153e-02,4.529233934127038764e-04,4.405078650747317674e-04,2.530652125350869321e-04,3.771349961318351649e-04,1.409889819443489950e-03,3.359990990389502552e-02,3.046253191874748190e-02,4.175479706288947961e-04,2.581689659684192895e-02
4.386031307329170403e-02,1.525624048563877476e-04,4.169287473037472077e-04,2.034705756387426205e-04,1.140165738384103837e-04,8.918256531607740090e-04,2.421274143561128953e-02,2.601308618911990500e-02,3.875406108710546067e-04,1.837669742677447079e-02
4.622155058201816297e-02,5.134910425587824873e-04,3.817024795431118566e-04,1.487000634949573483e-04,7.598835706401955124e-05,1.694113264440617536e-03,1.718361274493407712e-02,2.211816596778750157e-02,3.483862709600890639e-04,1.240243648129006095e-02
2.916462585078589270e-02,9.180800109056490429e-04,3.359840897601520568e-04,9.008249995675764350e-05,1.180902652904885543e-04,9.992127224030555345e-04,1.742584856463838885e-02,2.032711924928410838e-02,3.010598997181557776e-04,8.324347875902658733e-03
1.898807682404607747e-02,4.623320785983136530e-04,2.820312465155204776e-04,2.904646978118518091e-05,3.851811635172697223e-04,6.111187791239801890e-04,1.911139492838393947e-02,1.605174312996679106e-02,2.467334815969142686e-04,7.553494992378438112e-03
2.823620851647073646e-02,3.274048867471145369e-04,2.205892119555224269e-04,3.291454470888254956e-05,1.228971134450171463e-04,1.449071300383838589e-03,1.521039117554362496e-02,9.017364367020544100e-03,1.867469015268686508e-04,1.299778397748766606e-02
3.884028385869561784e-02,6.016960491591551337e-04,1.507420494453503082e-04,9.427876107748526212e-05,6.797959817720780965e-04,1.721526000308571877e-03,9.400908708151738125e-03,5.429989205270231885e-03,1.225747550286997135e-04,2.227311323288458378e-02
3.421940730802760372e-02,4.314399009921575509e-04,7.539591627558088667e-05,1.535335323426722447e-04,1.133269548044045375e-03,9.023029678592865395e-04,1.135752616366400569e-02,8.312191399641342612e-03,5.578992361542297088e-05,2.563858133818497712e-02
2.421905815339348012e-02,3.681679759755029707e-04,1.626741612754551976e-06,2.092127005352427318e-04,6.514022722299788295e-04,5.147027013555811187e-03,2.096180324208926637e-02,1.328881632327322607e-02,1.197518993372427578e-05,1.790713683784965482e-02
2.698559389542942027e-02,5.034285102176545759e-04,7.114687993014614836e-05,2.599329465941420912e-04,1.176105517947765314e-04,6.671126828141409060e-03,2.701342625439950851e-02,1.629183132756064148e-02,7.906881354193958061e-05,7.113076927886742562e-03
4.168386319681296331e-02,6.017586888305409814e-04,1.523503277868360482e-04,3.044282361266018662e-04,3.283156695956034954e-04,3.825075296797687818e-03,2.328764570057916677e-02,1.932321177277322027e-02,1.438603532708108469e-04,3.095369322662036571e-03
4.994939768437905991e-02,6.132623312843472289e-04,2.351673230705800201e-04,3.415815040255730495e-04,1.087882064524685268e-04,3.743544646128167805e-05,1.528684064882890326e-02,2.446556870821119806e-02,2.047803420723089834e-04,3.859688047507125845e-03
4.154303702063770476e-02,6.406681608176208837e-04,2.934953406577048523e-04,3.704527856981370409e-04,1.094348103841943839e-05,1.428990292290449214e-03,8.420731190518717865e-03,2.616329730457215424e-02,2.603588264712962700e-04,1.671599445857728950e-03
3.180293077648370381e-02,7.057304221845254110e-04,3.355839190511754160e-04,3.903030872030837230e-04,1.005757000522648195e-04,9.220497772596226386e-04,7.051732277266566703e-05,1.457893361898775740e-02,3.092612562409602188e-04,3.859922968183527280e-03
4.383133739643525068e-02,7.700519618099484209e-04,4.120811824371788221e-04,4.006133889170480022e-04,1.401862609997795849e-04,7.634044035746284391e-04,1.335096619306538890e-02,1.338097888602490446e-02,3.503209738542200236e-04,5.985401544431485574e-03
7.197079554315198580e-02,8.265844839803758492e-04,5.018163016301477059e-04,4.010982949939440002e-04,9.189409050230204815e-05,1.011542622487749971e-03,2.665943677122013800e-02,4.795425960461500992e-02,3.825675088680463858e-04,4.415449460902737093e-05
8.110960496830342537e-02,8.701185370804862245e-04,4.916211314293952818e-04,3.917139710121892424e-04,6.539931916261327791e-05,3.416324304687120249e-04,3.163889389194648322e-02,7.221611209345626947e-02,4.052500531619548300e-04,1.075486141095212053e-02
5.329881371316969735e-02,8.923468213848317031e-04,4.198259887146503261e-04,3.726601516598861737e-04,8.003409969406115234e-05,1.022916174513227886e-03,2.615141200402858190e-02,7.454654880088561197e-02,4.178555631446509910e-04,1.510520617747787911e-02
1.441294884681966655e-02,9.414152102711346223e-04,5.287044687161898422e-04,3.443761456890345372e-04,8.485640212990539942e-05,1.664143753095548902e-03,1.597842743314349320e-02,5.580551791953645285e-02,4.201209235036541464e-04,3.813791565102443975e-03
2.197650439032165001e-03,1.044505832079743258e-03,7.497928190619209277e-04,3.075309131159360311e-04,7.031605729076609377e-05,1.548425463234521246e-03,7.328713063971589899e-03,2.662356819492151319e-02,4.120388536420174666e-04,1.940515900079505321e-02
3.437244451792352551e-03,1.079035060592033017e-03,5.199264198309270580e-04,2.630074361238776779e-04,6.026999807919257814e-05,2.016473773273917084e-03,1.385034914365361036e-03,4.164946763497074690e-04,3.938577014845937811e-04,3.994470710130279545e-02
1.239347150915207432e-02,9.764681554218114642e-04,2.836685183272200615e-04,2.118817467205259071e-04,5.959808543563809800e-05,3.340320608104465142e-03,3.183060981668281095e-03,1.853569174325959620e-02,3.660752123708970124e-04,4.690865993907380321e-02
1.868887230467410066e-02,1.005931307639427227e-03,7.906051793160433477e-04,1.553971074068401931e-04,5.729661376326513451e-05,4.193050216475322292e-03,6.919266454929621189e-03,2.772520472881153872e-02,3.294258406765020425e-04,4.122890960027467133e-02
2.485896910397354664e-02,1.333543935911249510e-03,3.617324540614013512e-04,9.493396261028506889e-05,5.104212511214459958e-05,3.643832154558908701e-03,1.070485485481541960e-02,2.804491768125558226e-02,2.848617535442038375e-04,3.034041328446535762e-02
2.597498255044334778e-02,1.350202706545514369e-03,3.657788790536847497e-04,3.197638538162437887e-05,4.604102320324263993e-05,2.170468069978971019e-03,1.528381438943357540e-02,1.851063034849474015e-02,2.335292663454273821e-04,2.078176304211270392e-02
1.931981029258059840e-02,3.864719417412998989e-04,5.234722244023377272e-04,3.192416683800966998e-05,4.351186070080436731e-05,6.442988998376201776e-04,1.762082667343379400e-02,5.017707677486381822e-03,1.767416923721040474e-04,1.548098828783312647e-02
1.428680655723199230e-02,8.566734861359769212e-04,2.359526363748993844e-04,9.518690397533445405e-05,4.108190007282273994e-05,4.870020612385898796e-04,1.387850961327883291e-02,1.822272769301900718e-04,1.159465856884611538e-04,1.320308222075479952e-02
1.516141149554538041e-02,9.078542253839657619e-04,6.807069744373811515e-05,1.562406311097859404e-04,3.818412691420510315e-05,1.050271870532765422e-03,7.777772389148300894e-03,1.043027435975481775e-02,5.268726552326932506e-05,1.082703646708726639e-02
9.757654443497593838e-03,3.289658553605911322e-04,8.978814131793494901e-05,2.135625954668559853e-04,3.593697682618333901e-05,1.094176058204339441e-03,7.912161913462251173e-03,2.877284102130539187e-02,1.143470462685181998e-05,8.481914249536356976e-03
8.120444332621348099e-03,1.426804355648752902e-03,6.010344023572386241e-05,2.657162939717482996e-04,3.461565025616640344e-05,9.525407517274185783e-04,1.490274278478039179e-02,4.326946281774624037e-02,7.479304857657253364e-05,9.675898429804709669e-03
2.210429077835406042e-02,1.436907280318509362e-03,5.829979753518841533e-05,3.113873045137320389e-04,3.367789613866453892e-05,9.088799737363371370e-04,1.991452672017033493e-02,4.853559170483307678e-02,1.357776720637880958e-04,1.441215526124286356e-02
1.718827249354686754e-02,8.674828386241519333e-04,1.515233538554462526e-04,3.494162490557636597e-04,3.294917149206323854e-05,9.392742153898365337e-04,1.737903837670493057e-02,4.645101609113436170e-02,1.928467490092520176e-04,1.663638852455811765e-02
3.569105613867472413e-03,7.820728381885646468e-04,1.979687200734101319e-04,3.788280638778085321e-04,3.262625786589842288e-05,9.250461140601693019e-04,1.126961653567452697e-02,4.011517199085167656e-02,2.445628502875987200e-04,1.141648509629171818e-02
5.926102086684409583e-04,1.421550758306558112e-03,2.481696376713000019e-04,3.988568399994036977e-04,3.272394895461813724e-05,8.715803026414069982e-04,7.626445345118783303e-03,3.143769334035127067e-02,2.896012427130738765e-04,1.424458745629416257e-03
1.260595432790768446e-02,1.530157374033279264e-03,3.105775477394942009e-04,4.089656031068978769e-04,3.306852819326572561e-05,8.344543182526395096e-04,6.639103546977400370e-03,2.088365632786942649e-02,3.267851317557261847e-04,6.307784910995709732e-03
3.064002959920712754e-02,3.028016160343339537e-04,3.596031095899871561e-04,4.088605245681579394e-04,3.355899981567871386e-05,8.130249703786516461e-04,3.551157180634964550e-03,6.746965915445379824e-03,3.551718958647055984e-04,8.691103760169068687e-03
4.274941989048886698e-02,3.089946247889202319e-03,3.892416395511646542e-04,3.984991904030074010e-04,3.417579597099047143e-05,7.824770678793324273e-04,4.837483164244689091e-03,1.007463049195116145e-02,3.740714555526235274e-04,9.310873791008407105e-03
3.925310308791316732e-02,3.877732743606807694e-03,4.100081071727116862e-04,3.780927001089590990e-04,3.486119989897565861e-05,7.440312452010839706e-04,1.562764289150393379e-02,2.082327934159056496e-02,3.829400985657619599e-04,1.203860975309837753e-02
2.163901290579436573e-02,1.745307082784349016e-03,4.238240553670954568e-04,3.481015184831648965e-04,3.551655621282341570e-05,7.105365743550183001e-04,2.212705662575444043e-02,1.701563083758216369e-02,3.814002384921510503e-04,1.451017232111119319e-02
6.147574788381848787e-03,6.506741306317533101e-04,4.251704514929507159e-04,3.092251573298380627e-04,3.606102010481265703e-05,6.828584029233639987e-04,2.035984942848072590e-02,2.882462826565877941e-03,3.695121974549319169e-04,1.228744067968714007e-02
8.958675588140591062e-03,7.034777419340265724e-04,4.128755152914982121e-04,2.623859164178192504e-04,3.643634834654167022e-05,6.563934024657117061e-04,1.258213502095673064e-02,8.487176491050969773e-03,3.477653109101787755e-04,8.041065375721599684e-03
2.964101509267321258e-02,9.926105008000274225e-04,3.897232619411733641e-04,2.087070604916190983e-04,3.658212311702699310e-05,6.319463925607161220e-04,4.747215391888886735e-03,8.707751278486827035e-03,3.165045549691102760e-04,8.722212126425283457e-03
5.306437372834594407e-02,2.218962122589256993e-03,3.569230332887018574e-04,1.494859478861965455e-04,3.643572271752372482e-05,6.125727473522341645e-04,9.981626413081234970e-04,1.962705998308050294e-03,2.759227901676598242e-04,1.259651818325269179e-02
6.315306019401827065e-02,2.023904386545202078e-03,3.142089066031229891e-04,8.616275289527804300e-05,3.594622072165958195e-05,5.988906975237860524e-04,1.044388993257358133e-03,1.906394995522722041e-02,2.272545133625046901e-04,9.548840727937119716e-03
5.277034076969178145e-02,9.918168023397540625e-04,2.624043960747289941e-04,2.028553532487768096e-05,3.507659345896603888e-05,5.909285847196253704e-04,3.101063063406810875e-03,3.706122544354888831e-02,1.727750235639398196e-04,2.782059236783342854e-03
2.549510472153148494e-02,6.707187264630918558e-05,2.033719490140692486e-04,4.652749617787596385e-05,3.379893980158991349e-05,5.893147823348511604e-04,6.651390509982446110e-03,5.042489122407083080e-02,1.131856623000726623e-04,1.521553430870687361e-02
7.538784305323635061e-03,7.780109589262352784e-04,1.387678578865360422e-04,1.126276077659550668e-04,3.209472656092143394e-05,5.934095640676959093e-04,9.949772964880417708e-03,5.438928256506827402e-02,4.746687494483409545e-05,2.206167712296839070e-02
3.215695182497150389e-02,1.011927835376462588e-03,6.999996547780617444e-05,1.763760814534702504e-04,2.995797193507451146e-05,6.028238868399524381e-04,9.138623428710711261e-03,4.722427534854258674e-02,2.163513826928812459e-05,2.656001229828282989e-02
3.705664166731857667e-02,6.537381998416169496e-04,1.246476042329868475e-06,2.361846774511434282e-04,2.739569430308170004e-05,6.204851615548748851e-04,4.406949220602343967e-03,3.321068698549509840e-02,8.725598086639765666e-05,2.920943909375761996e-02
2.221719053084192028e-02,1.341171758572536489e-04,7.304369559707029865e-05,2.905550194887938920e-04,2.442652276257645846e-05,6.474973916615765681e-04,2.424587307448114459e-03,1.937100340457201253e-02,1.502341323971542872e-04,2.426393555546514647e-02
4.575840550163443737e-04,8.911391910174858936e-04,1.435321449116978561e-04,3.381159273016354325e-04,2.108013528278803188e-05,6.768623145400456736e-04,7.245707285165246120e-03,7.056900444507378453e-03,2.202904486504188384e-04,1.137726953904318571e-02
2.257929862344060581e-02,1.692307178537501506e-03,2.109734100348932334e-04,3.776577670749234838e-04,1.739714648794045350e-05,7.052152321315251866e-04,1.395113254355418581e-02,8.426674436285358852e-03,2.909344772033264047e-04,2.402696144109748829e-04
4.774120526691463806e-02,2.975399189911886663e-03,2.736705477600325908e-04,4.081629603628287033e-04,1.342821157607799150e-05,7.463730404686935455e-04,1.756862508477186405e-02,2.707190568330209574e-02,3.364111185311055054e-04,1.603112816069061138e-03
7.361557692106200645e-02,3.901004033129670465e-03,3.300056536453469642e-04,4.288318831986459600e-04,9.232537433761504495e-06,8.062169767048836446e-04,2.199823427314007152e-02,3.871041340235741729e-02,3.653297158700194165e-04,8.028301036205822035e-04
8.263057640828554151e-02,2.931248012227762652e-03,3.785374941478142721e-04,4.391034976347448675e-04,4.876419001741359885e-06,8.532201180134679416e-04,3.132841098408817304e-02,3.519072584176407420e-02,4.287011280669993075e-04,2.152504352253771687e-03
6.806309478659709755e-02,7.013084289279652907e-04,4.180400514772739974e-04,4.386701851470587625e-04,4.317651704784858512e-07,8.715707228282439881e-04,3.850417813673469303e-02,2.364741506017978626e-02,5.057107556866967391e-04,1.035188597429864341e-02
4.866620153614637651e-02,3.491251107599703031e-04,4.475059363492569792e-04,4.274863921434842221e-04,4.025622534579937888e-06,9.255281810193170550e-04,3.428675467491238554e-02,1.709167926032611334e-02,4.835309989818913773e-04,1.593528917770052622e-02
3.951894249722252839e-02,5.540023674780042429e-04,4.661695538631481094e-04,4.057708488132895255e-04,8.417945944244876504e-06,1.047616830569925031e-03,2.291072645438634731e-02,1.637362698222303431e-02,4.008083445121399550e-04,1.721407901480768304e-02
3.057715538089374532e-02,2.064212598029211386e-03,4.735384637916570621e-04,3.740022800650639285e-04,1.266730631176477542e-05,1.098212049619610824e-03,1.649152849439350713e-02,1.449632386993698029e-02,5.001001958164184857e-04,2.060357858967246797e-02
8.039203751848810614e-03,3.043714297858752301e-03,4.694062940227188897e-04,3.329086874676369942e-04,1.669756679500041923e-05,1.000628236667948845e-03,1.801221250951571054e-02,1.204839024942060133e-02,7.131871657800246912e-04,2.803903917243990088e-02
2.479891870058014564e-02,3.038006033262334073e-03,4.538517255069588331e-04,2.834504399939919025e-04,2.043619617960230978e-05,1.050093300230365732e-03,2.115734464749413624e-02,1.363911426601263285e-02,4.771035521400316011e-04,3.130830065811315843e-02
5.715112733924574556e-02,1.806708152788604003e-03,4.272357556733028341e-04,2.267975650499409366e-04,2.381604385013612153e-05,1.426611147251667395e-03,2.137530084650539342e-02,1.759497894961885994e-02,3.307757476365461003e-04,2.196040404714512048e-02
8.145742334678322816e-02,2.900301840036073673e-05,3.901952040707895911e-04,1.643017759365935943e-04,2.677697470539762740e-05,1.467790380448572452e-03,1.706303987535830180e-02,2.364073690334062006e-02,8.399689117156349189e-04,2.146486292023130904e-03
9.014469563661245410e-02,9.804946661737979231e-04,3.436269044476532525e-04,9.746390394410495107e-05,2.926732652962172400e-05,4.724193154610556249e-04,6.369989709135886677e-03,3.970925519061168502e-02,4.112855469693672090e-04,1.678396122249549427e-02
8.104414354047392854e-02,9.032940929164690221e-04,2.886639035492363911e-04,2.789751939552384105e-05,3.124516789531966640e-05,7.493431449396988856e-04,8.764897393171865517e-03,6.552701950007136511e-02,3.180865395287032116e-04,2.526334158666742810e-02
6.750135267354297197e-02,5.311102426726196316e-04,2.266469575976561978e-04,4.271037677578385397e-05,3.267932552016196971e-05,6.580376707684200714e-04,2.008359898160885434e-02,8.058815161168425556e-02,4.796182716730477340e-04,2.396530149859175604e-02
6.373743494718817071e-02,4.851418940745318262e-04,1.590916434585122065e-04,1.126406334006822379e-04,3.355015024899190033e-05,6.094445181926351788e-04,1.985267259821613811e-02,6.601259629082817382e-02,1.977890498509128668e-04,1.988230345192215642e-02
6.274144782080612326e-02,7.757107348257336662e-04,8.765064159434975404e-05,1.801841912505187666e-04,3.385000373912428812e-05,1.474746736689747269e-03,9.526898268731973096e-03,3.170318794947860064e-02,3.727425389094125277e-05,1.523785346699523327e-02
4.884273471499527702e-02,9.459848254472526252e-04,1.407230298506011314e-05,2.436842489196687652e-04,3.358345734497999579e-05,1.493842593465190185e-03,2.674490459400854017e-04,5.427244976004969024e-03,6.781573317116946034e-05,6.075842869414809812e-03
2.435300815037109989e-02,2.481377455117965826e-05,5.984287276429402967e-05,3.015773118571736869e-04,3.276719867579088634e-05,1.492675853227888897e-03,2.444303927667819832e-03,2.780885224091357751e-03,4.815336748590849549e-05,7.199388563645639852e-03
2.321305851947833097e-03,2.896326853052470091e-03,1.322868375998677607e-04,3.524321071797199226e-04,3.142964713360613544e-05,1.154173203258225229e-03,1.394929734338360740e-02,1.042689767425518561e-02,5.931961787123250259e-05,1.581812232858985368e-02
1.559843521957443233e-02,6.349753912325290482e-03,2.014888440840921112e-04,3.949853952751060902e-04,2.961028818327267524e-05,9.550475625225664971e-04,2.307402024506577040e-02,3.344430543011247398e-02,1.410195020522994592e-04,1.359763855696720543e-02
3.285592522942248211e-02,7.272461323658363161e-03,2.657593990782367802e-04,4.281737816830755356e-04,2.735874350637807184e-05,4.252764733693112364e-03,2.266405049010108627e-02,5.868493957334958849e-02,1.756781563673771298e-04,6.159441772667844511e-03
4.172696204393290531e-02,4.390676501327443575e-03,3.235321006843744850e-04,4.511607276336156158e-04,2.473359990673914478e-05,5.531520101621095926e-03,1.560839161862089333e-02,5.665687995492058038e-02,2.141670134995401066e-04,3.924360408358938679e-03
3.266255101793928695e-02,3.893989509879552686e-04,3.734023347239146017e-04,4.633580726865102169e-04,2.180102533865564622e-05,3.145211198585460763e-03,7.949165789623895140e-03,2.060175855520602825e-02,2.652738282274362384e-04,9.362111493366237838e-03
1.268043822743350826e-02,1.410060823314182111e-03,4.141619349325790221e-04,4.644415153983021149e-04,1.863320582490504170e-05,2.230158530027826847e-04,3.429442212141275894e-03,2.055867577269175628e-02,3.037356134749241991e-04,1.629903254395088930e-02
7.621283609643494938e-04,1.005992982413552676e-03,4.448289454748882450e-04,4.543596446510353979e-04,1.530664143925763459e-05,1.110807944230586411e-03,3.894762710808897382e-03,3.638077674539610951e-02,3.238558215341585272e-04,1.925050574538744036e-02
6.048934207405218602e-03,5.015738907216469970e-04,4.646717231711729526e-04,4.333362716541303288e-04,1.190034272365069948e-05,3.291625103740302327e-04,9.619343719776754509e-03,2.979767704722857333e-02,3.364316162097426744e-04,1.750606589175508765e-02
1.840217985997568209e-02,7.329472476467421577e-04,4.732267890485417137e-04,4.018659768412938369e-04,8.493971168073760402e-06,1.751200125383978873e-03,1.859288539851643163e-02,2.565257748091518200e-02,3.436337953723374718e-04,1.174476321849951717e-02
2.326674979987480504e-02,1.042975476503075517e-03,4.703100060168403343e-04,3.607029529085326969e-04,5.165968709635709302e-06,2.315468858641218670e-03,2.712846100419394335e-02,3.557401739653730938e-02,3.401535435036218765e-04,3.422824774941210686e-03
1.817024838467679038e-02,1.035238712428035793e-03,4.560208112258596139e-04,3.108433909706632254e-04,1.991721413184970384e-06,2.563827242267481109e-03,3.131400990249207095e-02,4.810780817350731459e-02,3.249852080700945940e-04,2.761072278964260378e-03
7.238759689987713658e-03,9.675390797490901517e-04,4.307393988362049719e-04,2.535018171601424470e-04,9.581984535517019835e-07,2.358756843075552993e-03,2.866976838143413600e-02,4.613760138970034175e-02,3.010309576712593880e-04,1.831643881797707105e-03
1.090185590644866462e-02,1.066001873533461508e-03,3.951169305995978049e-04,1.900819379768044475e-04,3.619669740584136971e-06,1.105818542473667714e-03,2.028880195395022998e-02,2.377324922532175755e-02,2.695676836154536492e-04,5.092412196618135121e-03
3.762614360101821515e-02,1.286031810313865899e-03,3.500590271627515983e-04,1.221426905572106409e-04,5.936499913453575809e-06,6.990277867699389806e-04,1.158562241203084375e-02,8.780617908012593176e-03,2.303450897638666323e-04,1.089830568373926015e-02
6.376229986350032131e-02,1.441824443001508277e-03,2.967029566082925586e-04,5.136031531231962603e-05,7.861707449534749545e-06,1.459666035609181057e-03,8.408969433566716029e-03,3.302678984662611034e-02,1.841504071114529514e-04,9.899363774873692554e-03
7.464733603975413911e-02,1.395309782889123714e-03,2.363890918117095914e-04,2.051262997948182572e-05,9.358578652935401905e-06,3.205558688675672323e-04,1.037458215818483527e-02,4.142055941993690038e-02,1.327592218051546814e-04,4.170828529030752921e-03
6.176648024138815113e-02,1.400258105141811852e-03,1.706273510488708447e-04,9.169031613068238007e-05,1.040147393127643328e-05,1.370787248846995574e-03,1.052771027047971243e-02,4.724646411941872681e-02,7.769299061648269732e-05,2.089943334972919550e-03
2.623790401585950061e-02,1.877364843514379295e-03,1.010594601194955737e-04,1.603976949402246719e-04,1.097636468636509202e-05,1.553947411400008645e-03,5.091329878755357016e-03,6.386408296380986782e-02,2.018054168789333884e-05,9.458571668838140073e-03
2.304805499352791109e-02,2.340644452040616108e-03,2.941797717364379619e-05,2.249144750405758812e-04,1.108108852367629192e-05,5.936130655950624729e-04,2.935540771249267947e-04,8.001130736301895197e-02,3.831118818321341680e-05,2.136647966745357924e-02
7.115992264743882523e-02,1.501106253094779608e-03,4.251689792009947762e-05,2.836179354228292077e-04,1.072531732500707071e-05,9.141960059438824712e-04,3.698070125047579846e-03,7.586893104291086987e-02,9.610621960749266349e-05,2.585129403047863386e-02
1.010254114016163746e-01,5.406350650638700123e-04,1.129616547098534073e-04,3.350235148459434326e-04,9.930239685058699472e-06,2.821933916697267567e-03,1.225058793578006656e-02,5.875192984831565518e-02,1.516236613339860904e-04,1.822347227290110200e-02
1.034280325077096135e-01,1.555740987519062301e-03,1.801738444071743076e-04,3.778221656071147072e-04,8.727966116631575322e-06,3.568145511758207423e-03,1.680713853396755345e-02,5.627954371667418659e-02,2.034234027144495092e-04,6.951540740547349113e-03
8.676522795059092574e-02,1.229916344252774242e-04,2.424953912404109605e-04,4.109135355863141777e-04,7.160672115386870935e-06,1.767404485222696204e-03,1.538498996631243801e-02,7.393408976114144993e-02,2.501188155531392020e-04,2.878511715197027841e-04
6.906454311671503254e-02,2.242374178793292341e-03,2.983937615705751448e-04,4.334341413277661786e-04,5.279500482932320557e-06,5.264287455143039449e-04,1.318409045014351695e-02,8.639215734730573693e-02,2.904064735758412458e-04,6.027370434658669944e-03
5.606475942334654405e-02,3.440985871208205107e-03,3.464999689587506962e-04,4.447798148483147096e-04,3.143250083803331469e-06,1.441946066426746855e-03,1.213226941828654190e-02,7.621490628020533009e-02,3.231559272414391126e-04,1.851614445264396225e-02
3.936501184006740289e-02,3.482681359403979725e-03,3.856424871005120032e-04,4.446218450011953961e-04,8.168833189257934708e-07,1.536758279897161919e-03,9.532216158406877499e-03,5.611847684269667680e-02,3.474405860336296850e-04,2.986885875451415762e-02
1.828144699674018325e-02,3.407237969458718624e-03,4.148762334747551034e-04,4.329163872462649348e-04,1.630111086385808101e-06,1.285142573005429098e-03,5.969954881192877753e-03,4.224336498654385902e-02,3.625338600000157065e-04,2.632703118548302898e-02
3.236628514471760407e-03,3.497724249012045591e-03,4.335058785868369001e-04,4.099068798754287304e-04,4.125459960534383085e-06,1.278102449490731889e-04,5.732485513874076809e-03,2.856769239583423908e-02,3.679256303678744475e-04,9.055345919008559591e-03
4.849003080167339948e-03,3.858819112807929108e-03,4.411029007209138356e-04,3.761193761144263959e-04,6.595909764400597540e-06,2.361630983967483426e-03,7.960097342684838151e-03,5.074689026364619104e-03,3.633476584459525765e-04,5.542563268135363222e-03
1.285097686906219033e-02,4.654192867843112182e-03,4.375160286821954433e-04,3.323508758745849110e-04,8.969048991641205172e-06,3.414442334984635254e-03,5.030486365005147446e-03,1.836753004024935590e-02,3.487814385737093522e-04,8.542328170259412545e-03
1.078185175911666738e-02,4.574057470414617278e-03,4.228748307904815523e-04,2.796509139742451308e-04,1.117510466216909756e-05,2.376366237173966212e-03,6.625726457415536189e-03,2.713143535079837187e-02,3.244531359401289913e-04,8.466004700084940604e-03
2.061371883076935224e-02,1.650453350726111641e-03,3.975862346934822705e-04,2.192968291164618566e-04,1.314866940190878023e-05,3.487159377889045668e-04,1.991120065174402029e-02,2.538126142365175822e-02,2.908279111700029051e-04,1.446206226031217408e-02
7.091893833482026954e-02,2.744207516191872476e-03,3.623240383934712592e-04,1.527632956433895583e-04,1.483031737449308397e-05,1.269003725019465789e-03,2.537551352209485578e-02,2.511812212591001472e-02,2.486016605933809276e-04,2.238539021322487679e-02
9.870733385969536477e-02,3.746727293894061908e-03,3.180119570979602272e-04,8.168684415646775357e-05,1.616807010930702333e-05,1.650007521553013444e-03,2.148682709911396704e-02,2.574027992050954838e-02,1.986846503365775831e-04,2.420589414883444687e-02
8.164276059089267679e-02,5.123692826857577636e-04,2.658007048448900373e-04,7.826223882858537081e-06,1.711867698598650025e-05,6.494163461510943239e-04,1.254330693492644068e-02,2.237672374420211774e-02,1.421783665840967842e-04,2.043291030408933215e-02
4.526072398611580977e-02,5.248910027095912180e-03,2.070390897324498312e-04,6.698043401949011931e-05,1.764867969644000497e-05,6.268803484476302484e-04,8.611574200848653125e-04,2.178478439180248083e-02,8.034884338710759910e-05,1.549457275878153573e-02
2.756408603176761785e-02,5.297567984331660006e-03,1.432396723541386478e-04,1.408606099043761383e-04,1.773523529974068910e-05,6.160102127057205017e-04,1.255318546097740871e-02,3.229764287452802779e-02,1.459672480782959024e-05,8.340802415984633483e-03
3.157067533062810072e-02,2.293800031309184764e-03,7.604110913541336570e-05,2.119534457339877461e-04,1.736667838338977929e-05,6.427349904478956311e-04,2.191174626557905805e-02,4.697815210809327263e-02,5.357647052848527795e-05,4.397440216548576669e-03
3.029543363298632316e-02,1.490743489221155443e-03,7.168519299353376086e-06,2.784557208339499736e-04,1.654280920269372883e-05,1.629011868664600191e-03,2.003948537881456923e-02,5.238551347443921868e-02,1.226048855795732492e-04,1.913112833670043214e-02
7.374852727080521107e-03,3.877042564450121874e-03,6.160982990694813472e-05,3.386666191661188204e-04,1.527490133369940837e-05,1.609736459028367683e-03,8.711539702871780658e-03,4.648578580306721164e-02,1.908961728340217491e-04,2.619486716695324652e-02
2.973870000163593083e-02,6.287978615072028522e-03,1.285293681081762130e-04,3.910301787900799107e-04,1.358542918257962694e-05,1.276931461455037839e-03,2.703277574611974345e-03,3.331053256642366178e-02,2.568698011011752067e-04,2.106611223899720539e-02
7.058158842509945630e-02,7.428571373794312475e-03,1.918727073777195733e-04,4.341743664633080572e-04,1.150752248067832914e-05,1.256735476298119145e-03,9.455530512575308771e-03,1.071992804367307914e-02,3.189951642910673815e-04,1.054538047250360225e-02
1.072791411955298091e-01,8.241386905740177155e-03,2.500065613495487042e-04,4.669457989077626129e-04,9.084161495558591091e-06,1.372732416433513529e-03,1.451230929279534280e-02,1.739137273650747523e-02,3.758285307992311548e-04,4.522369690672932083e-03
1.207924371891518078e-01,7.460221358632630057e-03,3.014233517854977493e-04,4.884392353251657297e-04,6.367132945072069760e-06,1.346659740608230175e-03,2.122449041435293948e-02,2.979840307789903206e-02,4.260478004999650702e-04,3.616602884615828517e-03
9.461498200239301659e-02,2.837399409053345881e-03,3.447913291435075874e-04,4.980210908406386893e-04,3.415772363029247825e-06,1.254122358904817200e-03,3.030237126859298621e-02,1.364693164357356700e-02,4.684842344960189796e-04,8.812966713260111115e-04
4.730175084580698353e-02,3.575095035968481588e-03,3.789860980044395720e-04,4.953463647068165289e-04,2.955237930830862923e-07,1.226857429555951824e-03,4.020353274725748521e-02,1.037510150167590510e-02,5.021504462365361477e-04,3.793056738538073958e-03
2.234459201106531526e-02,6.893571370420363033e-03,4.030917133646200949e-04,4.803685368370415689e-04,2.923647940907523907e-06,1.232129990699673550e-03,4.501548568805366357e-02,1.283862487266991190e-02,5.262639677857452189e-04,1.423467433293839485e-04
4.016028847757212306e-02,5.619008828112007775e-03,4.164262729539157230e-04,4.533421576862098714e-04,6.168953628850364817e-06,1.209690257348242136e-03,3.893889006785367785e-02,6.760745363908621415e-03,5.402657900325732749e-04,1.714553852072382353e-02
8.000768410638585404e-02,2.278063456203813317e-03,4.186164100959199148e-04,4.148180354848315563e-04,9.366543406734401423e-06,1.177566883668383375e-03,2.670009194640158082e-02,2.660011853461471260e-02,5.438334299672845096e-04,3.843802513225005185e-02
1.082864618935592133e-01,2.352192823525616860e-04,4.096021389359795419e-04,3.656311069750659546e-04,1.244329493900054581e-05,1.165778750398656100e-03,1.956299460936472903e-02,3.134090955800985373e-02,5.368882238392619181e-04,5.013557662632611017e-02
1.091904281197958876e-01,8.952156946676450081e-05,3.895154173348593248e-04,3.068812586189069479e-04,1.532858264094560450e-05,1.164154047254995199e-03,1.842840822614618887e-02,1.876297863625660256e-02,5.195966721533444750e-04,4.818672858362439693e-02
8.963824141390794309e-02,2.814835972003973310e-03,3.586831998850100139e-04,2.399075402830687777e-04,1.795598506078588069e-05,1.160063503718238584e-03,1.366452239770733768e-02,5.775735644303365592e-03,4.923658026135429352e-04,3.638477268464693215e-02
6.578907242262081734e-02,5.903584914520156567e-03,3.178820715746164764e-04,1.662563783101183548e-04,2.026488910745383699e-05,1.167298891517630976e-03,4.147526111334010057e-03,2.774674219811865128e-02,4.558326702436856751e-04,1.975707261082274707e-02
4.847138936730321923e-02,6.295917725855426812e-03,2.683123489241253669e-04,8.764454554918589405e-05,2.220195237383194064e-05,1.193079695679741346e-03,1.203339976306308685e-03,2.996380077072898634e-02,4.108482600681781006e-04,5.959574999765968398e-03
3.757076920864133029e-02,4.462846635437596118e-03,2.110070000025488044e-04,5.917778563236129668e-06,2.372238830230623735e-05,1.215102553963915777e-03,9.191385743277259018e-03,1.227301390094312147e-02,3.584561915585979209e-04,4.973591390349119644e-03
2.502838840121312733e-02,3.593031299635205972e-03,1.468055157645905022e-04,7.699395649795644095e-05,2.479104328416335305e-05,1.229867561142785606e-03,1.735200120027328638e-02,5.885543145177158514e-03,2.998667498364429151e-04,1.742568572676329863e-02
4.306999396656237093e-03,5.737254780296045450e-03,7.753177165493568270e-05,1.591234608085828346e-04,2.538323987004085020e-05,1.284080995103929106e-03,1.716710987712013331e-02,1.100060795326555235e-02,2.364268842411799813e-04,2.869510072771278009e-02
2.012278418501460206e-02,9.735730738243202412e-03,5.981100454175982485e-06,2.385144134150116971e-04,2.548536597122835615e-05,1.381938188183945296e-03,1.439700411535607509e-02,1.118223485003537292e-02,1.695869139672392652e-04,2.501343996860921556e-02
3.525003587861782334e-02,1.231350849942745330e-02,6.670818505907262497e-05,3.132694137572796032e-04,2.509519611226148348e-05,1.424279544330378598e-03,1.688975101088506861e-02,1.823611824248317845e-02,1.008647601123071778e-04,1.050382792900234757e-02
3.048432722727548172e-02,1.048950232024136418e-02,1.412188399662440497e-04,3.815967709868780698e-04,2.422193730377810778e-05,1.402872355323213447e-03,2.143563463410980488e-02,2.837791659069424308e-02,3.180858338240056518e-05,1.426681116254537854e-03
4.573744791899491541e-03,3.776732980670166693e-03,2.145759313243498861e-04,4.418548806120413917e-04,2.288599878316047490e-05,1.540212638023821280e-03,2.017358737799180776e-02,3.005444862806764747e-02,3.604125427048884931e-05,7.144585241446812368e-03
3.028314440818963629e-02,4.816886841017915290e-03,2.797880416648111939e-04,4.925930834272505051e-04,2.111849155735457062e-05,1.840218344088413380e-03,1.278353456344202659e-02,2.042472766575254006e-02,1.011899693920922157e-04,1.246110588007009849e-02
5.184943577485047472e-02,1.065674508749390494e-02,3.376737529358251558e-04,5.325879836123514552e-04,1.896047021577699522e-05,1.532093745119196375e-03,5.354154407756911427e-03,8.677078448217922374e-03,1.622249503599931049e-04,1.912674556542150184e-02
4.847652555199512964e-02,1.168963796593150070e-02,3.980691688255382659e-04,5.608743104208038050e-04,1.646193570367217857e-05,3.655153782475828992e-04,6.662249845244192208e-04,7.006093907505801972e-03,2.178502661231806038e-04,2.327539484632801248e-02
3.240302878869116138e-02,9.916957510320409744e-03,4.547291895929002608e-04,5.767695384784978820e-04,1.368062350770677676e-05,3.649472925023538629e-03,4.396619967200175901e-03,1.562304908436410768e-02,2.669182433289491070e-04,2.431995658775690933e-02
2.062745894877474756e-02,7.786499876970011912e-03,4.822112731435886611e-04,5.798916322662129317e-04,1.068060686738607200e-05,6.752344826571060263e-03,1.241883330041726463e-02,1.924774701041874481e-02,3.084573365812105935e-04,2.520465590734660699e-02
1.432220605215332211e-02,5.492672408998014802e-03,4.895020434540606116e-04,5.701694472359294247e-04,7.530749064138953060e-06,8.217797904528452782e-03,2.053788658517006344e-02,9.846754375764531567e-03,3.416956079714721442e-04,2.585016963877171184e-02
8.941421858353944957e-03,3.047921155893516289e-03,5.281685843226859153e-04,5.478454991711819658e-04,4.303042448385048429e-06,7.608057580444872389e-03,2.283775341825287214e-02,4.044652088413945579e-03,3.660792404959100277e-04,2.525236788643187014e-02
6.856939517283674491e-03,1.359343376113604507e-03,5.781117102359403402e-04,5.134710004809664398e-04,1.070874557506999319e-06,5.087113535093541403e-03,1.774830870231999466e-02,1.778914316038221824e-02,3.812856312019241491e-04,2.582052254899568425e-02
7.534471256333521300e-03,2.854995304627339721e-05,5.270985999835274202e-04,4.678932525360578621e-04,2.092736609412854888e-06,1.486097385909616788e-03,1.293915240515894176e-02,3.530160994777233746e-02,3.872307414421562242e-04,2.594482868588140340e-02
5.395877230739758341e-03,1.708959629025007991e-03,4.142428883664629074e-04,4.122356722329534925e-04,5.116895401034542665e-06,1.488661410879788373e-03,1.726329417062184499e-02,3.029964651704927445e-02,3.840705237710032136e-04,1.700704577009016019e-02
7.087053945568907304e-03,1.071745026685589535e-03,4.829915216486783524e-04,3.478709140349530468e-04,7.934526990250292180e-06,2.806726603756058876e-03,2.579772629342681756e-02,8.665560436877372055e-03,3.721963933766540443e-04,2.450585513552420313e-05
2.448986823207317462e-02,3.175496124431301508e-03,6.664145756084785717e-04,2.763877212516838199e-04,1.048398046800512603e-05,3.227637480450909306e-03,2.428478440274843900e-02,1.140993395702662779e-03,3.522248553095563557e-04,8.565408365589433776e-03
4.149436088617933227e-02,4.674247022178239577e-03,4.020056113969971414e-04,1.995522979728446165e-04,1.271049786324379565e-05,3.266157650823115887e-03,1.353921252650340697e-02,3.562091531287238898e-03,3.249815354314808478e-04,1.399464165053022902e-03
2.276504923355596524e-02,3.238962248849840651e-03,4.332721830095925689e-04,1.192651319080190170e-04,1.456751368911268150e-05,1.764152193537214851e-03,1.350027889230177858e-02,5.419217059549044993e-03,2.914800058180199425e-04,5.279207355470846505e-03
3.157671524007607533e-02,1.582114903393457006e-02,9.676507288279088525e-04,3.751431489588208872e-05,1.601775375897189783e-05,1.436412861388328263e-03,3.399523617392549713e-02,3.947425922301529139e-02,2.528959374198409132e-04,2.202722346626096589e-03
7.884765621097346300e-02,2.260839415642217076e-02,5.588573722827407195e-04,4.367350093153059038e-05,1.703410691009457035e-05,3.621725000529959441e-03,5.750597679141639801e-02,7.315474883538997108e-02,2.105372159864246618e-04,1.347919320890454513e-02
9.247302705782013688e-02,2.183409766409068545e-02,1.552609184131860246e-04,1.222833097832509935e-04,1.760024879894554441e-05,2.447511097116173914e-03,6.175400159429252078e-02,8.182923958833432376e-02,1.658107253866176209e-04,1.328970621804736151e-02
8.439130513304000936e-02,1.883657145116622231e-02,3.013706500347888774e-04,1.963618859141072232e-04,1.771100295533558529e-05,8.108513525224861568e-04,4.672492008917054906e-02,7.068994286697610763e-02,1.201866080513292622e-04,5.446468947825639471e-03
6.357986487173225565e-02,1.420338166446266127e-02,6.771881370318603277e-06,2.640666048287392594e-04,1.737243065739280267e-05,3.182328128830758020e-03,2.936723948562440165e-02,5.632114535653887782e-02,7.516094115535900148e-05,3.926971385287029298e-03
2.626149751251359576e-02,4.856011570102458652e-03,1.522836077085008095e-04,3.237117390940724747e-04,1.660164776073394646e-05,3.584661481120547319e-03,2.012750364765828262e-02,4.436868733229706180e-02,3.221775744417072572e-05,1.191861273916058374e-02
4.746243100173519469e-03,6.075863480768467495e-03,1.108612301156249139e-04,3.738110725856784509e-04,1.542637322444327487e-05,3.131987433655958938e-03,1.472701389955658260e-02,3.419002882441235514e-02,7.208787883074404754e-06,2.103691606464474367e-02
1.080409271291479095e-02,1.120917680864346420e-02,1.345068432815230098e-04,4.131157625908166977e-04,1.388422056374075841e-05,3.120305728893939430e-03,6.509458753148004116e-03,2.605241134846563930e-02,4.177120541325399640e-05,2.424238443665681017e-02
6.937022798118243350e-02,9.326632339994214704e-03,2.509985454554551610e-04,4.406464916238630883e-04,1.202174966794276661e-05,3.646005867716988012e-03,2.752350190039855576e-03,1.839399700882242417e-02,7.024323122551972708e-05,2.070265026994693586e-02
1.219950711196714360e-01,5.753460075167623165e-03,2.948024849831222798e-04,4.557190871974611032e-04,9.893302202795201250e-06,3.694151272787248204e-03,7.722386703754334676e-03,1.165781301733295056e-02,9.155123522568080316e-05,1.237023867627994912e-02
1.395963929392950720e-01,4.064425942191395198e-03,2.648290406678119541e-04,4.579629450156068554e-04,7.559649029310868170e-06,2.563838086534981145e-03,8.136649182235314651e-03,1.231433376109225715e-02,1.048022993627345837e-04,3.487962651082256085e-03
1.345844293237365430e-01,3.792146401208867056e-03,3.244599646901271295e-04,4.473317658254402575e-04,5.086482591544844181e-06,1.288897433046572128e-03,7.499413093818083423e-03,2.104631842977460268e-02,1.093084439900588475e-04,1.724802236577994497e-05
1.213094430264108070e-01,4.163122541311247565e-03,4.438458126093703130e-04,4.241063039767060516e-04,2.542790944829826112e-06,1.522739868660032093e-03,7.922775411667963563e-03,2.674872857079857447e-02,1.046051380483524587e-04,2.724648965440399587e-03
1.002480985949885384e-01,4.436412916370014413e-03,3.555017348070402847e-04,3.888890209544011473e-04,8.470751338766691603e-10,2.869352913818131335e-03,9.665117217549279785e-03,2.464530554459921918e-02,9.046323631112430539e-05,5.428685198639489340e-03
7.787421326096091723e-02,2.470434181291213029e-03,1.226039870512246545e-04,3.425907355507221488e-04,2.474004170690203987e-06,3.186008600708502194e-03,1.172361118661221016e-02,2.638834182722394478e-02,6.689673763374065984e-05,3.510186583418393232e-03
6.427466214490538954e-02,2.129323527756898319e-03,3.198704894380875372e-04,2.864095613362365551e-04,4.808142147088012089e-06,1.802271212632946228e-03,1.160047807519646451e-02,3.909654092966988875e-02,3.416708666627867291e-05,1.157123428861092825e-03
5.390942144548853399e-02,5.410190239167346135e-03,1.073330136423271929e-03,2.218026156338057087e-04,6.938302635164058053e-06,2.601084973607286082e-04,7.815093148317287658e-03,4.921266265686283919e-02,7.221820263362316185e-06,5.811963001603801145e-03
3.650647860682117163e-02,4.136299798580654261e-03,1.508672651320308415e-03,1.504511625770795793e-04,8.804710052803208517e-06,5.671133387492717460e-04,2.037273867335041497e-03,4.145255488683988881e-02,5.653992350370140336e-05,8.581601689799486093e-03
1.947727630692102155e-02,1.014991688858989842e-03,9.873930211250097656e-04,7.422001388104808935e-05,1.035424804360955858e-05,1.811184730702702526e-03,3.077136808298396378e-03,2.091426976856616132e-02,1.128460174599913080e-04,5.306104642640423370e-03
1.470360406093752272e-02,2.808622214060413368e-04,1.514410166765932549e-04,4.887838827104743617e-06,1.154177372349856682e-05,4.056095925102305537e-03,5.449744714853778024e-03,2.301901571442172955e-03,1.749963080338888858e-04,5.336472467944635388e-03
1.317572967926246286e-02,8.947836353028337927e-04,1.273949254528371872e-04,8.478025526841459925e-05,1.233123801744031222e-05,5.419001906816312691e-03,2.474286408460283845e-03,1.084320490334714053e-02,2.416721840621205929e-04,1.465088659661571528e-02
3.203212606290336065e-03,1.110287691224202174e-03,2.821151356427456709e-05,1.633274507276105659e-04,1.269658508317964373e-05,3.993585299449019417e-03,6.930215747330634862e-03,2.232768148905300148e-02,3.114375220716895020e-04,1.189199585007085815e-02
3.345410324602474117e-02,5.952648426245403177e-03,5.645079492733266193e-05,2.384147350166508129e-04,1.262240918180611766e-05,9.533694125311452296e-04,1.826650597468332943e-02,2.989223042629327032e-02,3.827691592492100990e-04,1.043461895388468749e-03
5.941323032146600402e-02,9.749248857274014218e-03,1.085936537643332733e-04,3.079951913118961562e-04,1.210435323625568693e-05,9.820576403682145569e-04,2.409446036873991170e-02,2.893099639203158824e-02,4.540348931367518088e-04,1.165960978312289079e-02
6.691027497383858491e-02,9.174557040952574516e-03,2.221702841717433153e-04,3.701409542153060849e-04,1.114923957579583489e-05,1.424347357940026213e-03,2.236402776794444922e-02,2.298136878425187726e-02,5.235363052569473336e-04,1.386470092081918369e-02
5.470996761121724172e-02,4.249686392594995490e-03,2.436020691341526294e-04,4.230918170982940333e-04,9.774929846194424824e-06,2.180363483795376423e-03,1.932283663767849977e-02,2.221981136989096065e-02,5.896716042746689848e-04,1.491432513332782532e-02
3.203198404162440477e-02,2.246821916112298843e-03,2.833385593269744968e-04,4.653000477022826422e-04,8.009917614639606339e-06,3.587742314505792170e-03,2.220041615477947455e-02,3.350229725862712005e-02,6.509666470732205276e-04,2.310214823077979401e-02
1.368610842189299168e-02,6.968564277566056953e-03,3.595201888316763156e-04,4.954702908276765278e-04,5.892663656534638528e-06,3.798291221201599652e-03,2.947424630856497127e-02,5.235715691179120695e-02,7.058468250184274807e-04,3.487196068025631007e-02
1.332463304633727322e-02,7.800495015756079772e-03,4.184944203347909487e-04,5.125933603816048645e-04,3.470690122593548627e-06,2.016737511591473395e-03,3.089762265525917984e-02,6.426982202170430925e-02,7.526814537820733855e-04,3.928594973053725625e-02
3.660949840453911475e-02,4.359490532130645690e-03,4.491144217204137679e-04,5.159730518026178336e-04,7.994556011007696211e-07,1.451153252975454877e-04,2.018958785077673915e-02,5.954321919981261924e-02,7.903836074544963973e-04,3.339156359453480244e-02
7.278112801172566260e-02,1.421235507573043351e-03,4.746415963937411259e-04,5.052456896385511048e-04,2.058961629316833245e-06,1.078146362387988853e-03,5.343297449364511204e-03,4.760386257179122921e-02,8.184346988541274992e-04,2.728982211449242773e-02
9.290954859136453525e-02,5.307307191461801098e-03,4.991733364782245143e-04,4.803919213293557865e-04,5.037340247291421709e-06,1.010950473207573863e-03,7.748454087140482002e-04,4.561442795538000333e-02,8.356975364244320463e-04,3.077015071963439680e-02
7.352099565607775333e-02,4.098233686311646140e-03,5.108128080706026471e-04,4.417395592333590772e-04,8.064916689559439365e-06,1.422336533400317578e-03,6.427106789095890331e-04,5.029894662495312113e-02,8.404137459292950352e-04,3.918045721608511694e-02
2.589279646896554613e-02,8.863617947272057086e-04,5.068190744717761178e-04,3.899572792551339573e-04,1.106907137990709529e-05,3.798997394824347833e-03,4.499057843844583501e-03,3.782017919677671536e-02,8.328049573958467688e-04,3.940982100289602136e-02
1.325468651344770613e-02,5.387613031966722102e-03,4.924475436769340086e-04,3.260411470397622607e-04,1.397705961816502428e-05,8.045697968951619553e-03,2.084464351788987632e-02,4.025688158203256407e-04,8.151964749142295982e-04,2.880929711206194413e-02
1.922322088975076879e-02,6.181317838875833789e-03,4.691668308543980588e-04,2.512944893885019960e-04,1.671774531893062949e-05,1.164165088161494416e-02,3.513821575326078750e-02,4.100178680684668509e-02,7.864983270832343618e-04,2.030021716748772742e-02
2.322720583794889507e-03,2.975878921620489070e-03,4.350551973064837067e-04,1.672976130230588909e-04,1.922329576480769390e-05,1.220418981208062914e-02,3.551806904387665165e-02,5.923057295139880218e-02,7.418120511514693502e-04,2.563051882696920636e-02
2.602726083762787676e-02,1.349012751371512879e-03,3.903103057594690083e-04,7.586749841770586773e-05,2.143079649510849853e-05,1.073017780619403387e-02,2.647310809791494912e-02,5.671760639067854881e-02,6.842033381831899835e-04,3.818023132443516821e-02
2.969535650599734733e-02,2.956401787936786558e-03,3.371087546382995747e-04,2.098313645633724956e-05,2.328374737992770137e-05,9.863654010927766849e-03,1.759756594684435890e-02,4.784559807012686572e-02,6.258271747650833968e-04,3.743585689911273912e-02
1.339371869606235249e-02,1.620322003775948949e-03,2.769931755544325996e-04,1.210849565289571643e-04,2.473340386179717293e-05,9.597254760346719121e-03,8.959388470179666455e-03,3.817967770786108439e-02,5.627756170093240091e-04,1.155931225564727459e-02
4.764750306996952053e-03,9.612560913992357955e-04,2.108664825619101463e-04,2.221663469502896111e-04,2.573993118015471126e-05,7.514916527105115589e-03,4.453548090992533702e-03,2.705900207770983723e-02,4.719620531441006436e-04,2.731807986491161661e-02
1.065777981431426276e-02,2.778128860226704040e-03,1.401683293789580584e-04,3.219252453379785350e-04,2.627334386755568376e-05,2.862441862037093908e-03,2.081865002985801988e-02,1.750229102492097122e-02,3.646846667804428104e-04,5.451781401289145651e-02
3.099038618316655828e-03,4.728744408662948970e-03,6.683902652744377676e-05,4.180784215692181778e-04,2.631420787459468316e-05,2.109603275350120568e-03,3.074965908805460044e-02,1.554408056549068384e-02,2.945986208195700961e-04,5.871209515103955473e-02
1.172725610071401886e-02,4.640854667470880462e-03,7.289799005354904852e-06,5.083783133724375678e-04,2.585408857814691639e-05,4.821832691053007207e-03,2.776312163930738999e-02,2.339826068740928980e-02,2.434285163244449379e-04,4.926654228530405466e-02
2.450534721957983372e-02,3.456406424097612905e-03,8.054721876255227595e-05,5.906785505385492904e-04,2.489573438848712372e-05,4.825543530407608306e-03,1.692190799980146723e-02,3.324990458116929004e-02,1.007211130181665892e-04,3.715676851703032801e-02
3.118856043372585096e-02,3.075046349946855030e-03,1.512016950615272188e-04,6.630672223294139253e-04,2.345299177082893965e-05,3.662341577993026218e-03,1.007136880505613008e-02,3.029122458645168089e-02,9.272941227300493246e-05,2.110556116445269290e-02
3.790899812291603777e-02,3.651128335388581503e-03,2.174977379987699322e-04,7.238909791768409919e-04,2.155045333209221084e-05,3.128802162451142788e-03,1.176003506763154995e-02,8.620406562195859906e-03,9.249652442901401235e-05,4.040885638534523570e-04
4.523130914897274812e-02,3.536889615909769892e-03,2.778224518025699630e-04,7.716206754685846995e-04,1.922284769966548786e-05,3.669743426987852677e-03,1.435765282339857875e-02,1.878220337532185771e-02,3.475992045612941769e-05,1.612227607056696682e-02
3.938676528947043093e-02,1.408375547398088784e-03,3.307500783647547246e-04,8.049313471842335600e-04,1.651418758708299756e-05,4.364399946388176736e-03,9.460408308591393770e-03,3.297303477569805963e-02,2.727074877475110164e-04,1.421216278122906969e-02
1.528787707180054301e-02,1.527658390490516755e-03,3.750199458816217617e-04,8.231081378293234963e-04,1.347669698808397543e-05,4.434489306092862654e-03,7.005278138350109346e-04,2.853118110675899322e-02,1.136699421446432570e-03,9.301173938740339188e-04
9.234516074523678800e-03,2.474693962854601203e-03,4.095650673827455146e-04,8.259819813082569214e-04,1.016954068364733994e-05,4.129899553671162980e-03,6.752186451327053286e-03,1.429206837164862312e-02,1.686328943084622507e-03,5.469964475358370624e-03
1.786766196725995612e-02,7.053279571956915829e-04,4.335656369700215552e-04,8.131334515374225328e-04,6.657386692386077190e-06,3.973976394395619186e-03,4.071527991100635721e-03,9.250121499604952065e-04,1.282371098490530216e-03,2.109903159630148722e-03
1.715045445078221958e-02,1.479454135171378703e-03,4.464711401603854561e-04,7.840564387577781454e-04,3.008842979228790000e-06,3.980659881678044049e-03,2.248587692174157208e-03,1.520592737529643731e-02,5.623267909809976425e-04,1.175144299752495063e-02
2.122984539789058225e-02,2.045965065466791993e-03,4.480015768578217731e-04,7.398831887911617305e-04,7.051927892662773363e-07,3.926859722164365192e-03,4.419954596295081264e-03,2.706010301626361747e-02,3.954910893181300797e-04,8.837010806273399785e-03
3.022949850354843954e-02,1.463660647515650564e-03,4.381536268158458007e-04,6.830730343740159735e-04,4.413243942908555382e-06,3.793481213092887543e-03,1.619141283767824933e-03,3.082785581220489832e-02,6.586257645921045041e-04,6.050304296397015710e-03
3.414265461168133203e-02,1.061967517514005423e-03,4.172067397841933123e-04,6.136863418642736576e-04,8.044986543368877816e-06,3.685425271338876700e-03,3.239795570793241406e-04,2.284002027508150873e-02,7.884879057623389803e-04,1.939883449888842731e-02
2.834482451829364522e-02,1.064868790192285150e-03,3.857168228633485636e-04,5.298917136674143350e-04,1.153293126426946580e-05,3.630339303829839114e-03,2.532320115822307705e-03,7.710623223294044495e-03,7.168158398312976997e-04,2.155419121431968732e-02
1.636962455829595042e-02,1.003199468213173719e-03,3.444998031330722093e-04,4.358513079209509018e-04,1.481400944899042412e-05,3.581032220076276699e-03,8.374466914033524764e-03,4.823165540789126071e-03,6.868847811478874955e-04,1.522734858339722282e-02
2.157896927536461992e-03,7.760816709923839141e-04,2.946111935545542358e-04,3.407349868713247659e-04,1.783108652151862384e-05,3.491589039253420630e-03,1.236240760664862777e-02,7.709676063976162418e-03,7.390316886117722240e-04,8.481301930370211545e-03
1.404169020201891625e-02,5.954200683985630058e-04,2.373212389888911227e-04,2.417256257674896183e-04,2.053437883840227539e-05,3.383343212000835751e-03,9.120074537263715003e-03,2.183028081471800712e-03,7.619226478140640572e-04,6.065829673708239382e-03
3.366543544193382337e-02,5.102706643828535879e-04,1.740835633376459067e-04,1.255348522865195519e-04,2.288260848745541834e-05,3.350467110947903410e-03,3.312497782111148599e-03,2.128605517378847657e-03,7.354667527925417853e-04,7.856921595050343418e-03
5.555268656999073212e-02,4.229661987042990972e-04,1.064984935183877732e-04,4.576951208139793054e-06,2.484383750303907642e-05,3.388817079005086025e-03,1.840009434382280928e-02,4.361900837550183874e-03,7.129892250090019094e-04,1.062534544077795538e-02
7.200942184211307773e-02,3.089387452163954578e-04,3.627323363824495059e-05,8.549395462905450623e-05,2.639624076866358454e-05,3.300777745832243586e-03,2.548544976583751176e-02,2.071600367835773129e-02,7.081381169084548970e-04,1.199619646383325543e-02
7.281996722215891560e-02,2.110334639013178423e-04,3.482029588567787915e-05,1.632784178174345583e-04,2.752887161607718707e-05,3.073829750113509212e-03,2.084124178308938841e-02,3.783988938249305961e-02,6.977309370095560216e-04,1.487116640548939196e-02
5.774863804329572609e-02,1.405415323688444240e-04,1.049895029452849952e-04,2.985767973451756117e-04,2.824180682990977062e-05,3.142529784570526410e-03,8.650756956150206650e-03,5.076664337442447772e-02,6.726265598123289330e-04,2.338625734623548877e-02
3.799185346530357943e-02,8.083661588100485588e-05,1.724658847545003045e-04,4.469765883346815617e-04,2.854549695007218654e-05,3.545215014088321220e-03,6.192139407803607873e-03,5.964286073724796994e-02,6.454670044127501592e-04,3.347761520690641091e-02
2.029615298958712191e-02,2.539028291818640898e-05,2.355491134087142407e-04,4.520933849668073838e-04,2.846060359360518354e-05,3.016389203215953142e-03,1.824281376876924279e-02,6.008074519198797203e-02,6.315241342203952758e-04,3.532648315965205427e-02
1.376707344277572614e-03,2.828810113868191313e-05,2.926493808038785793e-04,3.990412874403194204e-04,2.801872540664799034e-05,2.180769473211835105e-04,1.958018165342892067e-02,4.725766408953868680e-02,6.267440538959375600e-04,2.659929594132157127e-02
1.781261110184248139e-02,7.870988974384933836e-05,3.423270795662433684e-04,6.219229999952190224e-04,2.726130210296169113e-05,3.912643969079761253e-03,8.031750800061295686e-03,3.007773250005272431e-02,6.060419376508662187e-04,1.549591047492910115e-02
2.871247997559252599e-02,1.067273808329192465e-04,3.833288163511260212e-04,9.530193864954983026e-04,2.623580395163285480e-05,6.377055137692902616e-03,5.944777323853128390e-03,2.465555192361108469e-02,5.717740523218351693e-04,9.707579565180798897e-03
2.896495638844431494e-02,1.130188333087449185e-04,4.146187966408122977e-04,6.284406493999564105e-04,2.499502657094981363e-05,5.121207170309596303e-03,8.661261309921777438e-03,3.239670203361938450e-02,5.781932030496432463e-04,8.441778545328171984e-03
2.233277440001148195e-02,1.490027342848290607e-04,4.354048042490950765e-04,2.673569054814698125e-04,2.360162101160461761e-05,1.080559536219927001e-03,2.637637793180960984e-03,3.975920418956353092e-02,6.279023166825149077e-04,6.020220048235344276e-03
7.812470130170038989e-03,2.197299775600067349e-04,4.451581532255827981e-04,4.172628713238682040e-04,2.212557305290523051e-05,2.672357255888338501e-03,1.824310972391832153e-02,3.908049041541147156e-02,6.076254498787721312e-04,1.893754888912489720e-04
1.218882781185186802e-02,2.146717313361078485e-04,4.436271013126704245e-04,3.637544593631148078e-04,2.062986315221829458e-05,3.286025503106635923e-03,2.472755634716258463e-02,3.538823224323313366e-02,5.077685575471995111e-04,4.144298166634532814e-03
2.171253722309729114e-02,1.215766682123869827e-04,4.308433701941368280e-04,1.433839229008661276e-04,1.917053302022436761e-05,2.415118997840607620e-04,1.493558232706557014e-02,3.467912985702573114e-02,5.698529349015174538e-04,1.088772886269711269e-03
1.065677727695374388e-02,1.804541294757575933e-04,4.071216174864344148e-04,1.881401522865289687e-03,1.782214729033649932e-05,4.179468415160611169e-03,5.324052988352612550e-03,3.855840692229793587e-02,8.215645995060680490e-04,6.240852450051699758e-03
5.241815127571565654e-03,4.270841799725712891e-04,3.730518744800187829e-04,3.365836960350201794e-03,1.667305383160729086e-05,6.871962125163640425e-03,2.115484320941848906e-02,4.759469649317922546e-02,7.420366881004700037e-04,7.489418110033465269e-03
3.297649967295522046e-03,3.463011422764305765e-04,3.294851008218451969e-04,2.262252230237312475e-03,1.576565282351700790e-05,6.695642642445631329e-03,2.334142683258491613e-02,5.768127124983591508e-02,2.355228441688106997e-04,1.254283966505252050e-03
1.440108524543070971e-02,1.709188440932284385e-04,2.775121996149790553e-04,1.713887041137083849e-05,1.509988839150489598e-05,5.045233957455312612e-03,1.685234987209598134e-02,5.622999004591607702e-02,4.835296020715624849e-04,1.202077186107634692e-02
2.264225125913269313e-02,4.899798261927254864e-05,2.184370692165205725e-04,1.011788362430397770e-03,1.475611297068633247e-05,3.741252337641572286e-03,1.197715408399658947e-02,3.444840282771630124e-02,2.258524153598706705e-03,1.514703286341983687e-02
3.935956454704087754e-03,1.811057855245885428e-03,1.537443692602593974e-04,6.195390386419749335e-04,1.488644583576288089e-05,2.982175750164996197e-03,1.154732033754304020e-02,2.676104178420847003e-03,3.953463054509847099e-03,9.286095133475566823e-03
3.031766066310268709e-02,3.530504736305542426e-03,8.506266523309192595e-05,2.500064787182891763e-04,1.544827086511532571e-05,1.709786883510477917e-03,1.000764352839008178e-02,1.582421953933334929e-02,3.510164596815847256e-03,9.437706356463244472e-04
5.220092019221130725e-02,3.085188338579645650e-03,1.412383165799138191e-05,3.794293995070106189e-04,1.621245442685268081e-05,3.699087828858290371e-04,1.907253687497528338e-03,7.210429694949928303e-03,1.591785400075067334e-03,1.280650023430819281e-03
4.868721149152619582e-02,1.094137274276958801e-03,5.728000138018396535e-05,5.109540196664912959e-04,1.733010782189693398e-05,2.064443969971644244e-03,1.060661161857688259e-02,1.977476969349771865e-02,4.032762562862092612e-04,6.991575642737850663e-03
3.325623076446215798e-02,9.715750689154420590e-05,1.273408177187338548e-04,4.292395964481016167e-04,1.932797034882129995e-05,2.503544406356065458e-03,1.815691726635519643e-02,4.077462218599496591e-02,4.560062162348037826e-04,2.120880145624506538e-02
2.385474275778664069e-02,1.255906528161370534e-04,1.942798935942647198e-04,3.609761818737912496e-04,2.189683206946839853e-05,2.481918838038352313e-03,1.340051888057345458e-02,3.597432127851915573e-02,8.092878117939004447e-04,3.015646936610297604e-02
2.143160098266019137e-02,5.287826698192729571e-04,2.563928328496010056e-04,4.116941543838765517e-04,2.386953419603443091e-05,2.662289571736180943e-03,9.309780353400493036e-04,6.638285325046389823e-03,1.019165076970217137e-03,2.569962796400711638e-02
1.860314380850387056e-02,4.445515487739065859e-04,3.120920723853476950e-04,4.789806468144263449e-04,2.580845217178681709e-05,1.806889215308304930e-03,1.702779603763796695e-02,2.938128410288651238e-02,8.765448363660103452e-04,1.012392388284160186e-02
1.631685255084561539e-02,2.942167925157540076e-04,3.599454006209180284e-04,5.139962143187523777e-04,3.012138861207730014e-05,1.120393841610639596e-03,3.139787458906939666e-02,5.605557919313400306e-02,1.053624713720106366e-04,6.677137424542596046e-03
1.830850798552720315e-02,3.343023175355238881e-04,3.987122194342811979e-04,5.657697961083520220e-04,3.554087229391529010e-05,4.404363376695938880e-03,4.272517496668732512e-02,6.616295590614577893e-02,8.363353739915556145e-05,1.566746292780461444e-02
1.909995158261968209e-02,3.521133207832809415e-04,4.273775620997455446e-04,6.588574945306505852e-04,3.673549989367969352e-05,5.518876015155986525e-03,4.615307141809776859e-02,5.779612671007763186e-02,2.322744769425873559e-03,1.394671970082660660e-02
1.149205330443250558e-02,3.290921160261902961e-04,4.451772891339658982e-04,7.702453017864501275e-04,3.609351378589191174e-05,4.365719292895539096e-03,3.831552954990555954e-02,3.823176546253424790e-02,6.299657237209647064e-03,4.036022099600015955e-03
1.690693689836903369e-03,4.187344063578262192e-04,4.516117147329060349e-04,8.872869977783467499e-04,4.486444955470111906e-05,2.503692555217061199e-03,2.341476635915413357e-02,2.411867718870148655e-02,7.694190652815408558e-03,9.083036888937350006e-03
1.437511360228707624e-02,4.080963912697286298e-04,4.464594890005239001e-04,1.021031633986662799e-03,5.802816753157545256e-05,7.414828509718228607e-04,8.666398010038954547e-03,2.386450645611358501e-02,4.762677755908674079e-03,1.910314672697884311e-02
2.558980600215996631e-02,8.732286300153416897e-05,4.297962117757319093e-04,1.177290183398016282e-03,5.120571036709929263e-05,7.284092403029579369e-04,1.519176815946840379e-03,2.726741016888152222e-02,6.858990473516169990e-04,1.995946711827024933e-02
3.031099232208331676e-02,5.824836618240541780e-05,4.019914349555455194e-04,1.346167959817752948e-03,3.425494420367486246e-05,1.448682002201463585e-03,5.213133334512950329e-03,2.247114348969674741e-02,1.056292970745422539e-03,1.083153314778009801e-02
1.612964451445741271e-02,1.018332703193599318e-03,3.636731265118587275e-04,1.519659102935057857e-03,5.927735330301726918e-05,1.327272062614308920e-03,3.596484212881669810e-03,1.241010512261007254e-02,7.787230480123723351e-04,1.873534257402400443e-03
1.769355377694934589e-02,2.226794693820026427e-03,3.157154318572551383e-04,1.705260276489990734e-03,1.063646953897169330e-04,9.904733355148461187e-04,2.990327117736947017e-03,6.144654637406361461e-03,6.017540726213337771e-04,1.059597673479713287e-02
5.167449991285027328e-02,2.180158467083618060e-03,2.592749335138477503e-04,1.909359906254753329e-03,6.338963674801129122e-05,9.029854440107632982e-04,9.844718992529038690e-03,6.297875369206012638e-03,1.109149718185400719e-03,1.201240203910442991e-02
6.628929970156338669e-02,8.930779739614001789e-04,1.957577682801368998e-04,2.112480731008440325e-03,3.052390781829781538e-05,9.338644597300560686e-04,2.206622383697861775e-02,1.267480274594021648e-02,1.588567692918180663e-03,5.823885120572974347e-03
5.705256390823774948e-02,1.483015069718128260e-04,1.266621726684688933e-04,2.294736654008424585e-03,6.742478867470484542e-05,8.706991896657372779e-04,2.972048352390276385e-02,2.633808112425628858e-02,1.795932721430838980e-03,5.301629693929088213e-03
2.917504214191935993e-02,2.410598911769804204e-04,5.354818639460581450e-05,2.487277151071847284e-03,2.890200392125218684e-04,7.476941522678132949e-04,2.612251260618879412e-02,4.287832237530916912e-02,2.059695333003373850e-03,1.336654272931410772e-02
4.368221414764723691e-03,1.846588277588489656e-05,2.173817057777960402e-05,2.723891064727716228e-03,7.106057600137714305e-05,6.721566039350613912e-04,1.552468771824698154e-02,5.127642298506333157e-02,2.459436787160801559e-03,1.048215134347175309e-02
2.407385766013688672e-02,8.832451647824025170e-06,9.711778207788158057e-05,2.931191848636924280e-03,7.095473168765021850e-04,6.703585358272525982e-04,7.767402349193799384e-03,4.563900395298313428e-02,2.815469790842951153e-03,7.997480669901975425e-04
2.338617811656323181e-02,1.505321639663387040e-04,1.708910992012921469e-04,3.027248664359201945e-03,1.183011560605927871e-03,6.764149899949260629e-04,7.056939337183508465e-03,3.137723916320780265e-02,3.159694226953762859e-03,9.244512097367757822e-03
1.957303915917946863e-02,3.985499073786878069e-04,2.417795207156012973e-04,3.158352902842006572e-03,7.110353150263346066e-04,5.893879550200662029e-04,9.117415294401576276e-03,1.669503009130514012e-02,3.629199636640278743e-03,9.088056909612297549e-03
2.740001398065055466e-02,5.663508682139993620e-04,3.077587666460406945e-04,3.495587393493684771e-03,6.811854016262904976e-05,4.694837664112697117e-04,9.271119782692677572e-03,5.327961759626258578e-03,4.051735243387257282e-03,5.791119197580766806e-03
3.490286597247053285e-02,4.624931029143983761e-05,3.660796642287140264e-04,3.723641746768439811e-03,2.846910454043242371e-04,5.537129202346086077e-04,9.297552591338686945e-03,2.110035592548754543e-04,4.235666094850884869e-03,5.478667647358691391e-03
2.387512295039925098e-02,1.832299052871363661e-03,4.158951844798984814e-04,3.463302923162367430e-03,6.180737456841583447e-05,7.629007940447506912e-04,1.339673738054153809e-02,3.176789193127930490e-03,4.591527270761812905e-03,5.828502258828763272e-03
1.519041732782034759e-03,3.954366526987080667e-03,4.584116682029506389e-04,3.390993290357996025e-03,3.730218634316870882e-05,5.352245434482198532e-04,2.017689673128181607e-02,1.398161110372635879e-02,5.504556338377101371e-03,1.358860536656163230e-03
2.619628317508728571e-02,4.900082297032999808e-03,4.913983524203861548e-04,4.350890656602200181e-03,5.560391090309536654e-05,2.486128907888520215e-04,2.333282784541055796e-02,2.539424051711250407e-02,6.015971338557617870e-03,7.516505448736961366e-03
4.771520569773713555e-02,3.866870533781865613e-03,5.088230740222532151e-04,4.554681366597234868e-03,9.774700548981175505e-05,7.208898035834219748e-04,1.908510682123597951e-02,3.322079762969340488e-02,4.724622531369786216e-03,1.467769259085046837e-02
6.874351889091515067e-02,1.541445716486691819e-03,5.126537284037760564e-04,3.035668468577735904e-04,5.002091085076552479e-05,2.466676717855151302e-04,8.830822286581363131e-03,3.942803114541516829e-02,2.460835269121870814e-03,1.485595424414582269e-02
8.032327315684839597e-02,4.167037299827992358e-04,5.140108610990753654e-04,8.460481309589117094e-03,2.456591693909678057e-05,5.351174041290739482e-04,3.645970858146092928e-03,4.383476427632566202e-02,2.017931781642517790e-03,7.979461373116194384e-03
7.018875572905894367e-02,1.007154416810294734e-03,5.080404225606387908e-04,1.631234676719109378e-02,4.129813589097516591e-05,7.546612298810124499e-04,1.342926624247661564e-02,3.862258144755566225e-02,4.430648390338167743e-03,1.066422556528355114e-03
3.862190618027733918e-02,8.840627166311541786e-04,4.708210227609100837e-04,1.863707701073033171e-02,4.811868013518573592e-05,5.338247702739362319e-04,1.572308331420091757e-02,2.031836895591651246e-02,7.438909772556906962e-03,5.900234578585244680e-03
2.573822648850705719e-03,1.065913169872871559e-03,4.129487196106150786e-04,1.645114121308299121e-02,3.516695252655540173e-05,4.343334865291908673e-04,1.051335422729017879e-02,2.190767895337629272e-03,8.005607844580212712e-03,3.582379395172525030e-03
3.702808953976451101e-02,1.174221082881581404e-03,3.875259676575416607e-04,1.261248339116121352e-02,2.681393083584789712e-05,5.235962451501960206e-04,4.119117614085659324e-03,1.467525841042699800e-03,4.605636628400324589e-03,2.489174021334735008e-03
4.886598431273903032e-02,2.781460616836490228e-04,3.758838650684431272e-04,7.525316922814151259e-03,2.806673735157393153e-05,5.582603081991215901e-04,2.773243406048834635e-03,1.668147370081701428e-02,2.069815710710168257e-03,5.548393350474684418e-03
3.532006447988978587e-02,9.873767615101555935e-04,2.673424124228505937e-04,1.420233838919168637e-03,2.765811845254108545e-05,4.985016698434769538e-04,6.230763229331974691e-03,3.027803519000347998e-02,8.255246418857846782e-03,2.849519082664687172e-03
1.375235998144827207e-02,1.007197298451543684e-03,1.026452522082279932e-04,3.225246820672449458e-03,2.317786812487876495e-05,4.558138702354239862e-04,9.709949361748756655e-03,3.151295455357133041e-02,8.958878201381295300e-03,1.028524961403162871e-03
3.174721599009003997e-03,2.718870900675274455e-04,1.263452827292288743e-04,4.552897653119988841e-03,1.993174199531415190e-05,4.497498419418046790e-04,1.017199144558569163e-02,2.580689501747343573e-02,4.188110783023560151e-03,6.996763166131417244e-04
3.765832685921437044e-03,1.293136878159155921e-03,2.720681173850706151e-04,3.854905756272522955e-03,1.915853347157832234e-05,4.280494764450227109e-04,8.480903906560961422e-03,2.252618362535129676e-02,8.080676225091100017e-04,2.152466339247434413e-03
5.195501316751082767e-03,1.284981075890251909e-03,2.150269157196276729e-05,3.383288065490216035e-03,1.841946192001808874e-05,3.808033171898542765e-04,6.487021561283430257e-03,2.209009144252110229e-02,3.978729916482372925e-03,2.111689353498608351e-03
3.621768814525937186e-03,9.567476184184819845e-04,8.755792958980466523e-04,3.671706691388684426e-03,1.711966123751465686e-05,3.324881474398185249e-04,4.517420661531886851e-03,1.747980088026026071e-02,9.666113905545014456e-03,2.676811193340927113e-04
1.535474633276809461e-03,9.527326559197679071e-04,1.418538090139842859e-03,3.952742026191440050e-03,1.639311233540579588e-05,2.884133822693826571e-04,2.597952506964537785e-03,5.665692776131450725e-03,1.020877969845054682e-02,1.229603871772314829e-03
1.410100579622227540e-02,1.089042880081655257e-03,1.010346370508721867e-03,3.703092164744403725e-03,1.651600260716775632e-05,2.377847931729004324e-04,2.384144363827416045e-03,6.083277940428942834e-03,4.257394633106183213e-03,7.795162722305837982e-03
3.106701449076368360e-02,1.078322921922557874e-03,2.876701496503825421e-04,3.295221098721713184e-03,1.692956403561078250e-05,1.788039228880109962e-04,5.498311109623914630e-03,8.449929695497675197e-03,3.074989671971841646e-03,1.180985093413773092e-02
3.851534317746240638e-02,9.979342999994892435e-04,1.188504772583961084e-04,3.591061879966765246e-03,1.745246378302820853e-05,1.175211904819814675e-04,1.024009619253513081e-02,2.542479200724884029e-03,6.926160608709180933e-03,6.645016374841712474e-03
3.037383530145036301e-02,9.839274703813186401e-04,3.795588151180345933e-04,4.373023353884878187e-03,1.828618888106627879e-05,5.604545044121192081e-05,1.243622329744074016e-02,1.694103176449004468e-03,6.104523204962786047e-03,4.385124936374770049e-03
1.890877868137453427e-02,1.004956863820753851e-03,5.056063817393786301e-04,3.581921178696267916e-03,1.944898661386833930e-05,7.090857329847036184e-06,1.019532316534820481e-02,1.694124526551476009e-03,2.491244721745686317e-03,1.179433121299644852e-02
1.492485026075473543e-02,9.971092667165970883e-04,4.280622969183159928e-04,1.625400656050824820e-04,2.076826682254218832e-05,7.143766824696884204e-05,5.577010822783584620e-03,9.983933421837763028e-03,5.261893605855980961e-04,9.250149161421552385e-03
1.125725865398274732e-02,9.711474334520482383e-04,3.893027035237962472e-04,2.957751599312785813e-03,2.214762605350557945e-05,1.347651133913675453e-04,5.278022537792431300e-04,1.873908630145897439e-02,5.137058920331215653e-04,2.123994987315231883e-03
2.101150581707854608e-03,9.599494330072650067e-04,4.283286388485032961e-04,2.059073133107791522e-03,2.357589947858845824e-05,1.956736618025086501e-04,5.561599255285798980e-03,2.619937737160221367e-02,2.303676993017846931e-03,1.459526114609089112e-02
1.971395915618015873e-02,9.685274361462514444e-04,4.331952147604745834e-04,1.848198839742640339e-03,2.500458512432372169e-05,2.535984654122438531e-04,1.142273181091287178e-02,3.024955078922172622e-02,6.245353192246934013e-03,1.841139240025262483e-02
2.998826955115831486e-02,9.783382503644967500e-04,3.844779883684452861e-04,4.585473243294538662e-03,2.634451162964297305e-05,3.076244496899569782e-04,1.123920983724942951e-02,2.770417847452565779e-02,1.022314659997632796e-02,9.956757360970680537e-03
3.241236267177813324e-02,9.682904530166991462e-04,3.350521255084250132e-04,4.788945819773421202e-03,2.752559525927673011e-05,3.565064122340301468e-04,2.328066072686890524e-03,1.934119913309026786e-02,1.388703643918325244e-02,4.190190999279731765e-03
3.408910610907056604e-02,9.549111440840921160e-04,2.958203521512462299e-04,4.238456817954115718e-03,2.850147161096952569e-05,3.992592466826085378e-04,7.674485909908585965e-03,1.157115148936420888e-02,1.658317264414187198e-02,1.384601419705764995e-02
3.740980552754472749e-02,9.892880484147663963e-04,2.436942629521107165e-04,3.945192736487584603e-03,2.922379449836878522e-05,4.351886177060778921e-04,8.749569948089929924e-03,1.080491843738889610e-02,1.738748830873660875e-02,1.436508747707797469e-02
4.189973657465084073e-02,1.048808372191300815e-03,1.751583137698989713e-04,4.008363177762163526e-03,2.964180436061002237e-05,4.636448122057609616e-04,1.510228875840317116e-03,1.846471659448273295e-02,1.683371227959800515e-02,7.822074929416795303e-03
5.129888477892876469e-02,1.021358575825645834e-03,1.031436419152266873e-04,5.086025705114767016e-03,2.971618678481191634e-05,4.840315070482147770e-04,5.227117513997926561e-03,3.180015324813982580e-02,1.742973228051812942e-02,1.364553112157526442e-03
6.855212177457285783e-02,9.463529800970847845e-04,3.185558103750893818e-05,5.939991892848641743e-03,2.942100715271078827e-05,4.959429603290596306e-04,7.376221604648597330e-03,4.643506481362074528e-02,1.975039012234013416e-02,9.980114447335406563e-03
8.743122801324909599e-02,1.066880774569365763e-03,4.212966484169886132e-05,2.407251701092098014e-03,2.873850458580097999e-05,4.991785823187037518e-04,7.739332129798923154e-03,5.716524017035435473e-02,1.872336170855815746e-02,1.720407220897948730e-02
9.519929612778367523e-02,1.315554213429769113e-03,1.181287633238626325e-04,6.764351996495859831e-03,2.765904814611659044e-05,4.936906692714976763e-04,7.398653016942780339e-03,5.919225370178921031e-02,8.723405749159326636e-03,2.220033296858928834e-02
8.293357714844054596e-02,1.126812769843769935e-03,1.917884068967959073e-04,1.612056645264077145e-02,2.618414403502576369e-05,4.795832888708138311e-04,3.719530617645864547e-03,5.121519162891730731e-02,7.216910058762747264e-03,2.089210579050683469e-02
5.440783815090921571e-02,3.729369046840003837e-04,2.606544814077665982e-04,1.979314299367535002e-02,2.432669403527470636e-05,4.571374739664385090e-04,3.246506481344715953e-03,3.693555563783657014e-02,1.901648235220695579e-02,1.027535015796030016e-02
2.606771052057004628e-02,7.308041545064206698e-05,3.241034083923458845e-04,1.813902228528850927e-02,2.210941880980783942e-05,4.268071012934614877e-04,8.959226982056518393e-03,2.250608587554784809e-02,2.094614220127679477e-02,3.836756115550344660e-03
1.334179600997857131e-02,4.354540021361357730e-04,3.807994883760332152e-04,1.439640171718826502e-02,1.956417792599997416e-05,3.891965657742953795e-04,9.883317220250573826e-03,1.294157975697030755e-02,1.604216266784010830e-02,1.108308420464949352e-02
1.587356202571982983e-02,1.251317643239414044e-03,4.287581986519883089e-04,9.155818394891991965e-03,1.673180613452675969e-05,3.450467957089190592e-04,6.978381378580749729e-03,1.065351168228933360e-02,9.856397055103115895e-03,8.718614239244287106e-03
2.181092264314254264e-02,1.483969168043595662e-03,4.665945064789839411e-04,2.346053063676820614e-03,1.366120460607864165e-05,2.952250042671158829e-04,3.202935714405941159e-03,1.457678524313033366e-02,5.246536304946575364e-03,1.985243388029584409e-03
2.415007709519697773e-02,1.272758477216225656e-03,4.935587367071347020e-04,3.378479027461704122e-03,1.040788043133142088e-05,2.407059008779450170e-04,5.915619462985223943e-04,1.898241472789863327e-02,2.397494622147055242e-03,4.595987066589154492e-03
2.288900912629058398e-02,1.223462243398405628e-03,5.089947855852392476e-04,5.491340010386156281e-03,7.032565163514948767e-06,1.825471271264456541e-04,4.529300816112068759e-04,1.641292675232250420e-02,3.313123450656830062e-04,8.079726917015550916e-03
1.339035972395384230e-02,1.368467664896877737e-03,5.123499699104318598e-04,4.998408800485587729e-03,3.599873734162837690e-06,1.218659352179000835e-04,3.269378203790750635e-03,5.325197785748440535e-03,4.335127395191858655e-03,4.784017263561346142e-03
1.101160104860810646e-02,1.370978812870062187e-03,5.034522231600661001e-04,4.162937362603069333e-03,1.767572764143271930e-07,5.981626450279111393e-05,6.759582254218357393e-03,6.826442664240465856e-03,6.879297289828742099e-03,4.278816037901939789e-03
4.051478278120751453e-02,1.264062842254759901e-03,4.825217752502961662e-04,3.504320593806441522e-03,3.169181666256652110e-06,2.437515005369679977e-06,6.486615456430012104e-03,1.015570711094533618e-02,2.493540665406682698e-03,1.121394714933836821e-02
5.170668893770463681e-02,1.360879834200076589e-03,4.500435764515696522e-04,2.918788728777890317e-03,6.371339212706479511e-06,6.374824313837865273e-05,7.148680608383112907e-04,1.805160260437693211e-03,8.695921899660468204e-03,1.118774888779244109e-02
3.908552103867322242e-02,1.530692972284220530e-03,4.067514431732616609e-04,3.098537828089064933e-03,9.365698030097179894e-06,1.230097267167046498e-04,6.594937780013391052e-03,9.955728158858803342e-03,1.865888387451309499e-02,8.651056224786724674e-03
2.393185257712373074e-02,1.285512877249692099e-03,3.536680679158696675e-04,4.066746306131182459e-03,1.209237602675210989e-05,1.791781783403359864e-04,1.042870414924384863e-02,1.285472902196349923e-02,2.124110179257152758e-02,8.424798213015227688e-03
1.929885594626168377e-02,9.300928291012769845e-04,2.920831527800435553e-04,4.162395841417047306e-03,1.449709308492089378e-05,2.312986805126031168e-04,1.176644792911792428e-02,6.232873562777921372e-03,1.897157021880762837e-02,7.450474680438763826e-03
1.133228697526642882e-02,1.467117147963888524e-03,2.234950950139505789e-04,2.146363936781602900e-03,1.653249144470835035e-05,2.785320397099635167e-04,1.577551568341339222e-02,3.794374290962943940e-03,1.683178110702517050e-02,1.907303491013549214e-03
6.927421990491472274e-03,2.195694243158504387e-03,1.495726218055911717e-04,6.312831398783783641e-04,1.815927997150869433e-05,3.201655662912386417e-04,2.263926578770755413e-02,1.245752374132501686e-02,1.543774114831282691e-02,3.422653448403951450e-03
1.284719219794788411e-02,5.687164309531839672e-05,7.212633806720341603e-05,1.706300607488382085e-03,1.934718835991297006e-05,3.556156036441510929e-04,2.588442380959580374e-02,1.858322950592042333e-02,1.362333903222789043e-02,1.317183126687567320e-03
9.770094822604564327e-03,6.203267373028370502e-03,6.934984235555691917e-06,6.101187660334176765e-04,2.007570763153305494e-05,3.844553365243468727e-04,2.113940364050533732e-02,8.002986771671978181e-03,1.199777927997611182e-02,6.082573768432683776e-03
3.892470359061139806e-02,1.264020658962067625e-02,8.565749523569104844e-05,1.042394110790304538e-03,2.033459297304394652e-05,4.064509281425774832e-04,1.088161014129683350e-02,1.170396625264364526e-02,1.106266446547742900e-02,1.055661902141147301e-02
4.418463493265839537e-02,1.386022621538678633e-02,1.620912531432942805e-04,2.051770660714894324e-03,2.012411742757183952e-05,4.215332170095548343e-04,1.786112291251597511e-04,2.244729535485603250e-02,1.009317668248353034e-02,9.955925419754815126e-03
2.615306458239318246e-02,9.271305839790114703e-03,2.343359437288624844e-04,2.509316666147947718e-03,1.945507370242781006e-05,4.297385611287856191e-04,6.650950956016347775e-03,1.755461664767726457e-02,9.188579806833640368e-03,7.416129419964004148e-03
5.464812639080890086e-03,3.169581609049323869e-03,3.005879097646013275e-04,2.478026853697225685e-03,1.834852439207597052e-05,4.312745789314652040e-04,6.188559372181760831e-03,1.592043311751395983e-03,8.770621927128951015e-03,1.372771723767175159e-03
8.816108707371185516e-03,4.721965106701620039e-04,3.591865301939068441e-04,1.528737283860099770e-03,1.683530572287461212e-05,4.266429709401255263e-04,1.875982701930757439e-03,1.916133916190490213e-02,7.295059823874261787e-03,1.176420005603315277e-02
2.079288602507597256e-02,1.231535937628174936e-03,4.086561288758768472e-04,5.882232802934112388e-05,1.495529731666275478e-05,4.164851980282342401e-04,1.325396446905447237e-02,3.640375703454555578e-02,3.403611616060028908e-03,2.534649551648205171e-02
2.953050929253533269e-02,8.799753197765305219e-04,4.477424812007505753e-04,9.172828822052222358e-04,1.275647673630907985e-05,4.012875152831261809e-04,2.237881847147088141e-02,4.104405825760446686e-02,4.735978227355548947e-04,2.570130522375012327e-02
2.697369134390874626e-02,7.240673860259993653e-04,4.754441930585718928e-04,2.019574012021147749e-04,1.029378208914843761e-05,3.816633375387999921e-04,2.639896454134530585e-02,3.316587374583918058e-02,8.484217953606133355e-04,1.122266701389938032e-02
1.173682100125617023e-02,8.093261627017605620e-04,4.910385827770815401e-04,1.212471576814645865e-03,7.627810261822685729e-06,3.589410713569365181e-04,2.560764220410496547e-02,2.329796736175300531e-02,1.305833950642184063e-03,3.212015646826799509e-03
7.681860515083292415e-03,8.055019913044930528e-04,4.941009836204256992e-04,1.939086578229304737e-03,4.823382583313924263e-06,3.345181413009359699e-04,2.147938172794243081e-02,1.928026927523021627e-02,1.832563043794703268e-03,6.770343594531035361e-03
2.475559826536398791e-02,7.047112523352494929e-04,4.845157777588589222e-04,1.812316089694506176e-03,1.948012993243216871e-06,3.085229915637465684e-04,1.483544123719922336e-02,1.828428000812125712e-02,7.181970827378447416e-04,6.759384202674923944e-03
3.945814000767970675e-02,6.504232887019563468e-04,4.624787511109489362e-04,1.612610081663247126e-03,9.296840713262280640e-07,2.810880233849589300e-04,5.647254792967364503e-03,1.301125514995021999e-02,4.176855810294328314e-03,1.455774067339464344e-02
4.812494504593789468e-02,6.472714812968101764e-04,4.284933526886889688e-04,1.683343181829741707e-03,3.741607556927521598e-06,2.551642692568614887e-04,5.620034965596775595e-03,2.713040686361000483e-04,6.400854199713762113e-03,2.767675635690876670e-02
4.044034264743080059e-02,6.290601277071695713e-04,3.833617205477975664e-04,1.737631886910342809e-03,6.421766431349739865e-06,2.337977739961431627e-04,1.643551409449160727e-02,1.796294428053430564e-02,6.549571342803708722e-03,3.468377868042942652e-02
1.421033230132135068e-02,5.931942773086298481e-04,3.281649668312543091e-04,1.695440542750040538e-03,8.907820548639312593e-06,2.139681670387971637e-04,2.184073325321404108e-02,2.849751269906006593e-02,4.224165702480619893e-03,3.003722274542839840e-02
1.485988858469122938e-02,5.707305225545838924e-04,2.642311420851705859e-04,1.806214071702125354e-03,1.114252869076690886e-05,1.921663754176556921e-04,1.763560862440610374e-02,2.205848592012295620e-02,1.402735008068184365e-04,1.714389255301997789e-02
2.703609151526411083e-02,5.631827716818548803e-04,1.931038222868425910e-04,1.953162735361999199e-03,1.307506909463992099e-05,1.776234691088653768e-04,6.277662558926894176e-03,5.871420236107103077e-03,3.387162862794836429e-03,3.119820922066313638e-03
1.784844283694684425e-02,5.557726381396783108e-04,1.165168846964487431e-04,1.742369035112916169e-03,1.466220093830257521e-05,1.806733683277567050e-04,2.955707578443388800e-03,2.670980438259808317e-04,4.529944182495294208e-03,5.612565487097047508e-03
3.369588292404363493e-03,5.471845247350815965e-04,3.635022355696971891e-05,1.544282827691834028e-03,1.586923918856211806e-05,1.841328404099012756e-04,3.327912204795088584e-03,1.141193617414943372e-02,3.648355473846303168e-03,7.618157047084123459e-03
2.771533994765993866e-02,5.437374564031752103e-04,4.544348199756756223e-05,2.168292849151460568e-03,1.667081981452750057e-05,1.673516281735253129e-04,2.338642972324197003e-03,2.775012200283082792e-02,1.790701591120453162e-03,7.534001222587384528e-03
4.971307085240289636e-02,5.453983049739546170e-04,1.268841883975126920e-04,2.691493270392101168e-03,1.705143751757469699e-05,1.679205574766653400e-04,6.804982120922722574e-03,3.337966961867498694e-02,1.200789232406680555e-03,1.009474816267475275e-02
6.276021601058090482e-02,5.483604497111141743e-04,2.059560754196646860e-04,5.036939228826973905e-04,1.700574368812312869e-05,2.318817156759135493e-04,7.008691226151460459e-03,2.696116568404613445e-02,5.770270001195769265e-03,1.510268559776746858e-02
6.341856606511678263e-02,5.516481322399270854e-04,2.806622144337176262e-04,4.599603654942242652e-03,1.653859814532695289e-05,2.804825979556070420e-04,5.371437108210667596e-03,1.815176972598283797e-02,1.063745005968224668e-02,1.974278803192712484e-02
5.623424986490781902e-02,5.560157666805273140e-04,3.491971879576810330e-04,8.357056533090909817e-03,1.566487420678980440e-05,2.128668670715437735e-04,6.175150512190324785e-03,1.874988141944590458e-02,1.297062236851585608e-02,2.166574261090535233e-02
4.747323920944174214e-02,5.608698827364940083e-04,4.099856045825512035e-04,6.844619166399902241e-03,1.440902262241635622e-05,1.960802686390323310e-04,1.164431422180107686e-02,3.468621139002085740e-02,1.114580917318807284e-02,1.874503545040635127e-02
4.077955992821018921e-02,5.647758382859919450e-04,4.614589907692350315e-04,1.781601040319207019e-03,1.280440574339854673e-05,4.601342163180919750e-04,1.925558902228903871e-02,5.840586830934305085e-02,7.046999526661444462e-03,1.042005118665247088e-02
4.139411459940846999e-02,5.669345463830870527e-04,5.021024218938842333e-04,1.873151282554388723e-03,1.089241884458578285e-05,6.215599582042464610e-04,2.405192610162304109e-02,7.377147735108481597e-02,4.177764966157242361e-03,3.615760782859292347e-04
5.229710489590386896e-02,5.669920608508133156e-04,5.310537192521130271e-04,2.246037305464393570e-03,8.721420642702924021e-06,1.105276882600764209e-04,2.469210654066249233e-02,7.360832136128753200e-02,3.244284260933802400e-03,1.053818090576743964e-02
6.333721039736114888e-02,5.643734049709584182e-04,5.481247478936762283e-04,1.462408327465363530e-03,6.345499629971056240e-06,1.566768313735712390e-03,2.413802786529349945e-02,6.514167771674335417e-02,1.998234842987557137e-03,2.042881348521928195e-02
5.836493069840999193e-02,5.583893263161742327e-04,5.526086465224854015e-04,1.353214274566485152e-03,3.823106762676706950e-06,2.287489100523277391e-03,2.389062656146978200e-02,5.612032532206427671e-02,1.654148608109292772e-05,2.947480853048509153e-02
3.683343796057107072e-02,5.485727093945954669e-04,5.432684466017793923e-04,1.462439533693884498e-03,1.215588213920370937e-06,1.373745294948700880e-03,2.177277517155628075e-02,4.610224394956299182e-02,1.088496205696705757e-04,3.277587907168118958e-02
1.497486246043538798e-02,5.346527199933179394e-04,5.209265307381637103e-04,1.186230847216341927e-03,1.414345755906894899e-06,1.424135351002651841e-04,1.630883952157091699e-02,3.368486927310995749e-02,3.491796426996882433e-03,2.756475044933325361e-02
2.132232264980541813e-03,5.164133176497218104e-04,4.885750527012813716e-04,1.112949058229520394e-03,4.004178293590674675e-06,8.052800765362746202e-04,8.687216102872440809e-03,2.071327871309459889e-02,7.197145931294593804e-03,1.777863612118181155e-02
1.059166916921123851e-02,4.937158973123612809e-04,4.458428273030339722e-04,1.347406175621604276e-03,6.493131745527532959e-06,7.765853501454862738e-04,8.296582812614087393e-04,5.291061307586485477e-03,8.246528196620250828e-03,7.077540090514160623e-03
3.195035239032180396e-02,4.665736775822060213e-04,3.885849213279043003e-04,4.873804193836434669e-04,8.823664056857818174e-06,9.893167508002553671e-04,1.234969963619182362e-02,1.762725366983501629e-02,7.256721570385112237e-03,5.147385370747601004e-03
5.225729776145750932e-02,4.351452647519107788e-04,3.206347388207735289e-04,2.091374831892760851e-03,1.094287937591963819e-05,1.034200540997870944e-03,2.034758769832558170e-02,4.258067238006038591e-02,6.237383037359541665e-03,1.615170298539815585e-02
5.438168599935526426e-02,3.996983138227211537e-04,2.549109228078304864e-04,4.265399161268648189e-03,1.280381863348630053e-05,2.670826265903833408e-04,1.671806071977512131e-02,5.332305595233646084e-02,5.733549175749752536e-03,1.775631000037894425e-02
3.763302646160796711e-02,3.606060233361510687e-04,1.882513461147769323e-04,3.643135394898658081e-03,1.436659886350223762e-05,2.616367363665139320e-03,3.339530010561151622e-03,4.482172827068356402e-02,5.510076449081289553e-03,7.412906888063193651e-03
1.835797975223911124e-02,3.183535452783803430e-04,9.827731522119872000e-05,1.099576602975526176e-03,1.559937378122252716e-05,4.379019245927239998e-03,7.497390972371262979e-03,3.202047109699901473e-02,5.417609630851565744e-03,6.647155470123545205e-03
8.394208158940966516e-03,2.735249274795204639e-04,3.072739839717410248e-06,5.017476831196970724e-04,1.647909254326571684e-05,4.575457215579297257e-03,8.864529811286705682e-03,2.753076118287620805e-02,4.623875378092437947e-03,1.539352346275814180e-02
5.207340524441331914e-03,2.267813431270787345e-04,6.158632029345986183e-05,2.662804744108145929e-04,1.699203857382113170e-05,3.371393107453313481e-03,6.554811196650659096e-03,2.540083049266793347e-02,2.451887285594860078e-03,1.789812069283154214e-02
2.718103522738209848e-03,1.788449774279695596e-04,9.505572847934114417e-05,3.747605524347842479e-04,1.713413573069179786e-05,1.398583616999524940e-03,7.828028118325851617e-03,1.612971340410326512e-02,3.298916543627929176e-04,1.835355557262639478e-02
4.868102225100152513e-04,1.304842774470715491e-04,2.135429661752452743e-04,4.261378867190487082e-04,1.691101477242340823e-05,3.897920176254291900e-04,1.139898348854361150e-02,3.691839268564280768e-03,3.206058307334810941e-04,1.932244993062325056e-02
2.067558687108696919e-03,8.249442152533342353e-05,3.760184634259048459e-04,2.750914845084162291e-04,1.633783893494849783e-05,1.147447357513357467e-03,1.223807625601611854e-02,1.391066902846245295e-03,1.885416491347849128e-03,1.942277125059496679e-02
1.152629758101503255e-02,3.567563634177743463e-05,3.379786751007019668e-04,3.605014500806342712e-04,1.543889329086451371e-05,9.988214582220178352e-04,9.893521259250430758e-03,3.343826319863742094e-03,2.711978615082980514e-03,1.540310698345103736e-02
