5.531032306727134279e-02,9.516711553281466396e-03,4.387230603055336455e-04,9.274711749050939863e-05,9.127965932068279854e-05,3.466836050096436597e-03,1.079200132357498454e-01,4.614191471895977975e-02,2.538270107097130991e-04,4.943539229671637530e-02
4.882190929442259408e-02,1.038487917017586783e-02,4.241630599535924084e-04,1.081518007087597417e-04,5.293745874444310618e-05,3.449160537836391035e-03,1.136952465233211779e-01,3.844031913615780782e-02,2.792015909783933099e-05,3.800262513144258419e-02
4.303865963554753815e-02,1.117785181451398310e-02,4.478259395819311956e-04,1.212291679835914341e-04,2.890552683833412973e-06,3.432962130840321122e-03,1.005639456436061008e-01,3.009936757271495025e-02,5.970717667351024003e-04,2.179827184854690736e-02
4.440949634620954684e-02,1.189375038199380966e-02,4.898511930752007075e-04,1.316477762085428976e-04,5.282208638435240643e-05,3.458084626922030939e-03,8.106579615660494675e-02,2.412332434226291400e-02,5.887927661387793539e-04,1.221307176364575323e-02
5.379981427353984491e-02,1.252886883107037601e-02,4.381828793721724786e-04,1.391360714415982875e-04,8.876460227173521610e-05,3.642960025603643546e-03,6.911997311510145736e-02,2.105377043131915690e-02,1.315044729505265137e-04,1.323118068307309499e-02
6.691864813127956779e-02,1.307725237940639273e-02,3.320138373189078745e-04,1.434889878088023310e-04,1.137258167947162674e-04,3.832413018791130770e-03,7.229974736775987565e-02,1.895632216796675623e-02,2.060241044379470512e-04,1.863111586374672363e-02
7.650808364670610984e-02,1.354439398204116546e-02,4.142520353828673622e-04,1.445730208921320995e-04,1.787524019036372818e-04,3.434291149452102510e-03,8.817142492158061562e-02,1.471361909743256272e-02,3.499059820275141758e-04,1.727955825983987226e-02
7.660171924690449552e-02,1.394845323845755013e-02,6.168737384097727674e-04,1.423296507987301042e-04,2.629217346628347977e-04,2.111756128506491262e-03,9.939366441417310516e-02,5.627861104028626486e-03,5.373064104774855337e-04,3.358890529617063539e-03
6.798875704119743124e-02,1.429083888128489591e-02,3.768596314214145079e-04,1.367770280941488692e-04,2.531579083385137826e-04,6.250433038886392271e-04,8.294872110671651366e-02,7.738766698993509996e-03,8.018883769400325223e-04,1.627159862816400862e-02
5.650747537539371063e-02,1.455243845883016918e-02,4.288205242274581593e-04,1.280098759693507396e-04,1.877259644009126129e-04,3.604132937698941190e-04,4.058866159401813140e-02,1.994628574006815022e-02,1.026372815261166740e-03,2.746087443657166741e-02
4.201653806112465306e-02,1.475574935541450541e-02,9.302351409876187830e-04,1.161976034746682395e-04,3.086792605262165569e-04,1.786313776530361590e-03,9.348714876917057354e-03,2.445965930044460834e-02,1.186136172590036625e-03,2.283360829560136113e-02
1.605952596503025520e-02,1.497380309105689200e-02,4.886380413769617591e-04,1.015806664339975594e-04,5.471854720568086273e-04,3.953444727091042291e-03,1.858696942705995517e-02,1.971071056345513259e-02,1.329117689554558304e-03,8.303001993804208156e-03
2.253933094407492566e-02,1.519681287443656187e-02,2.580566627657449518e-04,8.446525377692117465e-05,3.395735986207335725e-04,5.533456871098883095e-03,4.437861243790557075e-02,1.036449601073325885e-02,1.461669212698358351e-03,3.428124542983378154e-03
5.966844381171786810e-02,1.530849042861790604e-02,4.398286728906238810e-04,6.521641653302444211e-05,4.375603330344286258e-04,5.618869093951141432e-03,3.678929595111233436e-02,2.983895336216180194e-03,1.556649079448694378e-03,3.508508510702383620e-03
8.189651287832536153e-02,1.536910174677240740e-02,1.797965691240153551e-04,4.424979369163803639e-05,9.145664211907063475e-04,4.226780533636904924e-03,9.204503118466933476e-03,1.669961570218802920e-04,1.607086596195233998e-03,6.467662862825786403e-03
8.941995315996692506e-02,1.567516914215672658e-02,4.255199622346959648e-05,2.202212266612573472e-05,4.531172388420861966e-04,3.103995709530024596e-03,4.614349078015873851e-02,2.172517224551505539e-03,1.623141739626762000e-03,1.633851741453237749e-02
8.819368847774651521e-02,1.615922165526382029e-02,9.725057373595798616e-05,9.792485858716242587e-07,3.087283800872168841e-04,4.224548691998763691e-03,4.172645174624430714e-02,9.354940876403872174e-03,1.607001790126291697e-03,1.794555575529804825e-02
8.397758192930966648e-02,1.618684570937050510e-02,9.915807948704368489e-05,2.424760635262610887e-05,5.015850498240934487e-04,6.061536292299251824e-03,1.545768291617288792e-02,1.799724639419957722e-02,1.554028613335943282e-03,1.385952804053145609e-02
8.673549523067532185e-02,1.567282527697378552e-02,8.158151211223762630e-06,4.726861257869713410e-05,2.491123899387323549e-04,4.320735302485435164e-03,1.095425623767009096e-03,1.712095573453146016e-02,1.464525720249402595e-03,1.296518317221213856e-02
1.033452590997488429e-01,1.567805170214106245e-02,5.840080736307359582e-05,6.953226974407460874e-05,1.152240768683477804e-04,1.854938512239247966e-03,8.367781568249714128e-03,3.261289548766109058e-03,1.343311303193234652e-03,1.890798626834332488e-02
1.230594721949930387e-01,1.679847929426722675e-02,7.718795378582824895e-05,9.054482952764375189e-05,1.689794635693998089e-04,7.851011657760538498e-03,2.539712670484221488e-02,1.218619698406098704e-02,1.194138344608020909e-03,2.642807408625798271e-02
1.254060517777175476e-01,1.801479331003885687e-02,1.101550365526159602e-04,1.098403655524625054e-04,1.685326180985568937e-04,9.334618738303154112e-03,3.088937032176132871e-02,1.641104631099009684e-02,1.019731857677833768e-03,2.820773713793324131e-02
1.040702612301045021e-01,1.856264917252391233e-02,1.734795203852361337e-04,1.269917370430172394e-04,7.580009829265568452e-05,6.786829094367318946e-03,1.043879484127270378e-02,1.069873292677610971e-02,8.242801620564493576e-04,2.296176237745265955e-02
7.120802727827681144e-02,1.940677973866227618e-02,2.206381677278691344e-04,1.416206831909830235e-04,4.010950068527743813e-06,3.224233458723595527e-03,1.854763319543733732e-02,6.734120399198746665e-03,6.133014675444016474e-04,1.657059479939530094e-02
3.926489906635081961e-02,2.087305592384388134e-02,2.312512559866259927e-04,1.534068071579913523e-04,2.578435555101495628e-05,2.495330913286528357e-04,1.697001503151199936e-02,1.032553452030877950e-02,3.923083981607587158e-04,1.493129031955870052e-02
1.131215603002033721e-02,2.097032330595455241e-02,2.621775348410379882e-04,1.620952335277415363e-04,6.453323896316124362e-05,2.407477667129800068e-03,2.451449233796851312e-02,1.519699488239832467e-02,1.666700370701137447e-04,1.661709772633741464e-02
8.956989867874571090e-03,1.957167287686826032e-02,3.485368948693433788e-04,1.675027531047953056e-04,1.209684368357085137e-04,5.021492283265704092e-03,6.897907559933731669e-02,1.419894891541917045e-02,5.796080547670484650e-05,1.514058920970093834e-02
1.153868283212455478e-02,2.144625743872724186e-02,3.872165754972244339e-04,1.695223035679679306e-04,1.696407790770413596e-04,6.981983966700942151e-03,7.956246627887349210e-02,1.014614455537716890e-02,2.757815822196852317e-04,6.768113637965753222e-03
5.781348248597892661e-03,2.788491187863441356e-02,3.033186486972783060e-04,1.681256728368686929e-04,2.045143931930638696e-04,7.726677564684045554e-03,5.870173583507370257e-02,1.029022248724147451e-02,4.812479142968039791e-04,6.645670142752589486e-03
2.604681399646680690e-02,2.782249714671344160e-02,3.053273446928548652e-04,1.633643532231148366e-04,2.359056798605845624e-04,7.626465872763254703e-03,3.546922779608016607e-02,1.575616822747464424e-02,6.692193240700151577e-04,1.898724164471477308e-02
2.823047821162427695e-02,1.008983227072515060e-02,5.562657551545712679e-04,1.553685175630251190e-04,2.654332208684334377e-04,7.464440163044295216e-03,3.213220160812510495e-02,2.306724530369549941e-02,8.349657418071121688e-04,2.254994967332181466e-02
9.631898523489626496e-03,1.663643999804947579e-02,6.140802408185060081e-04,1.443441325656576689e-04,2.871743134920922151e-04,7.573065659393531449e-03,4.828539258999108019e-02,3.029978944456951373e-02,9.742824398058713350e-04,1.519737345608867043e-02
1.696672922612074697e-02,3.368824207545974281e-02,9.681516390941476873e-05,1.305682685309338315e-04,2.993408277599570854e-04,7.790413263742584568e-03,6.984229062180742631e-02,3.482875060528395350e-02,1.083654281284379770e-03,4.576089409146396648e-03
4.300985856294209375e-02,4.056884999453235635e-02,4.466729666299386953e-07,1.143827073657963664e-04,3.039107068082816713e-04,7.834108865900765370e-03,8.477773509983865807e-02,3.110123473525969531e-02,1.160348442966714589e-03,1.443307578441813989e-03
6.955367206686444148e-02,5.182904814515264941e-02,1.735703354189041710e-03,9.618599144100604958e-05,3.013813505732148060e-04,7.625889516830131054e-03,8.559846999401254930e-02,1.786939987280892692e-02,1.202458177520365594e-03,5.285206727085487929e-03
9.658693663313736022e-02,6.901565281379458405e-02,4.404745201068236554e-03,7.642409332082190758e-05,2.908807285507053670e-04,7.345985776646724551e-03,6.856009902487907037e-02,2.953116196796383430e-03,1.208951450456565487e-03,1.304602917617360067e-02
1.182288480480215842e-01,7.825799563162774697e-02,5.174048337352661099e-03,5.557991986333873626e-05,2.721872909568589355e-04,6.673988048057907969e-03,4.477952186861935968e-02,4.755413525709312021e-03,1.179712202337687048e-03,2.205995964893845210e-02
1.301753430005591350e-01,7.182981331780032008e-02,3.174208629192271612e-03,3.416189282045446328e-05,2.457075255646844485e-04,4.145001261787185400e-03,4.029009262449739087e-02,3.906020741142100447e-03,1.115547277908907411e-03,2.374501518622034596e-02
1.360393046798468175e-01,5.446220623320002091e-02,7.231606078937884022e-04,1.269187116155215651e-05,2.124667328846729746e-04,1.409185359227330039e-03,6.747171674713711709e-02,2.221882722045508997e-03,1.018163617384360313e-03,1.643740484755167389e-02
1.414183739848466348e-01,3.528193060255341296e-02,7.687069957470751759e-05,8.307302672110975311e-06,1.741132212011058447e-04,8.644612491914146005e-03,1.067358750534721235e-01,1.155800545492870028e-02,8.901283989049828434e-04,7.957397051706668195e-03
1.416039077421046011e-01,2.539512414927352565e-02,2.993416673525243219e-04,2.832433994073692168e-05,1.308807669869171139e-04,1.426260653243213369e-02,1.321664865821509660e-01,2.162263481299288304e-02,7.348109488074867001e-04,4.868136986449935963e-03
1.229562570651041298e-01,3.279260452921968494e-02,4.918392445368305549e-04,4.687182996419581851e-05,8.146088885786160463e-05,1.590556065351922399e-02,1.414437786488116910e-01,2.727504286426883293e-02,5.563020428612285104e-04,4.764438624468867421e-03
8.326292848904519317e-02,5.042161574985316169e-02,2.803833399132695577e-04,6.349805878042046655e-05,2.823417792245748247e-05,1.363044101143981793e-02,1.437341695912003336e-01,2.529613082767580637e-02,3.593134468110522890e-04,2.145103631802545811e-03
4.280664021400752001e-02,5.973015634263321993e-02,1.502076481051550674e-04,7.779803950014702550e-05,2.237483542247246864e-05,9.127942290919259169e-03,1.362139815400906506e-01,1.806939346190504503e-02,1.490628833546307796e-04,2.605110461455307884e-03
2.264264667472947953e-02,5.218019512298617546e-02,2.020181942168322760e-04,8.942348875787331302e-05,7.158508710953674680e-05,4.926778061398298485e-03,1.140366602009898062e-01,9.955663513997932770e-03,6.885314535065314393e-05,5.593174451671473028e-03
1.546299774286826606e-02,3.793868015674920630e-02,2.171082863621052073e-04,9.809150702616190693e-05,1.294246891114253929e-04,3.792293424738268828e-03,8.842282110774332682e-02,3.680059955777067581e-03,2.885969663642693806e-04,7.734482615683524118e-03
5.885567543767124613e-03,2.986666179471229865e-02,1.473177323849141074e-04,1.035917497797995447e-04,1.896877116497223481e-04,6.695805752473857515e-03,7.473555129536675612e-02,9.862837939846845481e-04,5.042342908954334981e-04,1.323753768225534137e-02
4.731186144453258108e-02,2.841381081165392231e-02,9.519717016361517632e-05,1.057919109153268692e-04,2.268776481135963770e-04,1.115994256056494598e-02,7.367339503379015386e-02,2.025372554064757292e-03,7.098812927933838193e-04,2.005398590500520606e-02
7.984482320964886304e-02,2.636949218294569117e-02,8.558326756013805050e-05,1.046413786708697154e-04,2.498040243746845715e-04,1.346439960218130671e-02,7.834057019552270740e-02,4.115729828037791374e-03,8.998505233000222373e-04,1.936474067740773242e-02
7.945576985938111736e-02,2.010354553153973281e-02,7.148727209368201932e-05,1.001729666626286077e-04,3.096132884008148179e-04,1.245749621320414204e-02,8.545166241858673239e-02,4.412611899989665569e-03,1.068792916440798298e-03,7.564453214084790322e-03
6.041780323960790899e-02,1.056380070448497376e-02,4.094564253496124021e-05,9.250266758039561612e-05,3.855723569080338762e-04,9.737009306287248631e-03,8.430350191222266143e-02,1.619579400249171377e-03,1.211832637219347527e-03,6.795975649974394725e-03
4.998369300886443267e-02,1.214896286909688747e-04,1.649838747768681463e-05,8.182742352104290342e-05,3.648825381058367115e-04,6.980363517941771782e-03,5.302480501925409262e-02,5.639008170825882127e-03,1.324690056234993987e-03,1.254811365065143340e-02
5.125505572050360892e-02,5.671657697499530443e-03,5.347642794628530916e-06,6.842095379959372095e-05,2.861611007347455776e-04,4.864023142740793448e-03,1.061667970221543550e-02,1.627337952888024963e-02,1.403789119612779222e-03,8.190278188430539022e-03
5.486940270420506693e-02,4.509016590035948291e-04,3.054896875435502795e-06,5.262772725865602332e-05,3.918769645137592660e-04,3.643678588086723871e-03,6.953580943172199547e-02,2.265440128378362963e-02,1.446349103608638581e-03,2.025966736900113117e-04
6.442689743012436354e-02,1.284773704946968326e-02,1.423088181512669938e-05,3.485521050386599729e-05,6.136698382195955766e-04,2.844199450979838055e-03,8.739932015159458667e-02,1.718428678369180243e-02,1.450459952138376035e-03,6.014446884707660111e-03
8.293005056157909394e-02,2.188507828607404865e-02,2.295946272147634414e-05,1.556456506542161386e-05,3.883917108876162720e-04,1.037539793944687420e-03,7.741685596847040773e-02,3.445911385678668108e-03,1.415133707457083860e-03,8.576399849650227086e-03
9.504680284478000951e-02,1.921034261881717289e-02,2.266434008930547062e-05,4.739995776411031489e-06,4.068026080334389183e-04,2.117972092653021624e-03,7.905119435392232718e-02,6.607724948048256802e-03,1.340327332050751793e-03,7.426589434322445130e-03
8.622309551676583805e-02,8.398567383790519342e-03,1.739740528002637254e-05,2.552294677699988205e-05,9.016951901290587565e-04,4.427665779492936243e-03,9.848472585733313023e-02,6.378323700631919647e-03,1.226948076708667254e-03,5.463970712150633888e-03
6.083992895474713003e-02,5.185679055832198570e-03,2.041812534396292435e-05,4.623001597342824438e-05,4.573934272732344832e-04,3.976678866347733987e-03,1.113717013898957719e-01,7.993788505604234196e-04,1.076848722635974972e-03,7.889187192191223635e-03
2.886602351565156765e-02,1.964372243592094058e-02,2.899747689432156592e-05,6.630128305905308569e-05,2.886185005813933198e-04,2.122554877306381642e-03,1.129673840140760915e-01,9.426293534805722796e-03,8.927878203050754148e-04,1.593391905346364795e-02
5.967389236278730982e-03,3.200904739483158984e-02,1.819684363569770781e-05,8.518450415942482282e-05,4.675215544253866619e-04,1.193453528668749104e-03,1.224644168508246811e-01,1.750936205907431195e-02,6.783391317595282265e-04,2.347107074381724404e-02
3.865094559743652985e-02,3.798506741448644253e-02,5.837525869807245419e-06,1.023483490571483961e-04,2.034618144766892945e-04,1.115905960745407644e-03,1.439214541361842625e-01,2.362538259356223094e-02,4.378052559420572481e-04,2.382648663394565380e-02
6.024729088792590836e-02,3.773986425675732170e-02,1.276629851296768068e-05,1.172952370748717046e-04,6.075132620463628895e-05,8.592427138889953062e-04,1.568004929799902969e-01,2.296212532113917418e-02,1.761745898602357671e-04,1.829233042489544422e-02
6.689721540214232931e-02,3.630957033281014684e-02,6.640205686638187541e-05,1.295734654177596850e-04,1.088706560828993863e-04,7.141345314865396240e-04,1.400202126121823376e-01,9.898225069320048045e-03,1.009891531867054181e-04,1.352468733808793490e-02
6.401028306243612687e-02,3.773367852620600205e-02,3.914061788588685248e-05,1.387883386676121156e-04,1.064001549535728656e-04,7.740107818088583181e-04,8.931254659049114863e-02,1.510231265192596775e-02,3.878042777943967005e-04,1.193959915199822343e-02
6.043469221842589362e-02,4.165985345476608259e-02,5.288455776452144263e-05,1.446120300045725744e-04,1.541617707899760656e-05,3.030682332424397725e-05,2.490887592579485790e-02,4.284849004677319245e-02,6.782323731895508433e-04,1.042046185725291167e-02
5.825900658247593067e-02,4.527588248675766536e-02,4.426434232828494283e-05,1.467919331358281943e-04,5.095727958655360914e-05,1.576520442695088144e-03,1.362035883423577676e-02,6.136209362367916337e-02,9.659580620392089990e-04,8.368514717393957247e-03
4.975851026464277876e-02,4.689171403685874623e-02,3.155888677933224996e-04,1.451572982028297317e-04,7.148297207433272128e-05,2.141453979353593207e-03,1.992377694180418046e-03,6.414371889031812712e-02,1.244490776422443488e-03,1.032798234588646127e-02
3.151425724150497265e-02,4.682164634725875102e-02,1.790130284961613245e-04,1.396239843445701973e-04,9.663552456709655991e-05,1.451629962827215162e-03,3.897585668892398353e-02,5.205379432081772006e-02,1.507886729115202624e-03,1.763623081070224072e-02
1.528858391014902701e-02,4.414221782988918263e-02,5.997544889460126698e-04,1.301972052130795485e-04,1.355877875531504625e-04,1.479841567601124491e-03,6.707047762590256923e-02,3.083318480166053963e-02,1.751014709393004147e-03,2.223340655446623751e-02
8.776129380625932383e-03,3.506528882755584331e-02,1.111055695796783153e-03,1.169721905612481006e-04,1.642653221160012174e-04,3.442774211833571091e-03,6.578289107807580582e-02,1.030258125210326524e-02,1.968475829529734746e-03,1.450427287770201037e-02
4.341542170470879917e-03,1.854261236310800545e-02,4.732718834075560262e-04,1.001327359622475885e-04,1.763771761984268295e-04,5.750850725383361076e-03,5.091241801022329538e-02,8.577510522657846035e-04,2.154441489664298687e-03,3.507657746169068769e-03
4.094106039296679239e-02,1.461545601337731638e-03,6.074200837662824390e-04,7.994766262644356831e-05,1.802298179541682495e-04,5.663630508296821527e-03,3.993239336265932971e-02,4.357270949481512404e-03,2.305358333088584899e-03,1.916350202341586539e-02
8.416697644536864920e-02,6.742024045991640291e-03,6.981260490055948061e-04,5.676525897728696530e-05,1.791316912492939056e-04,2.482232645931784203e-03,3.475477802881420802e-02,1.114601688175623911e-02,2.420725418810206007e-03,2.522602429474405175e-02
9.905336221833206667e-02,3.644840147372710275e-03,2.013179730501778240e-04,3.100582395071555008e-05,1.729338085030743917e-04,1.738565891037126103e-03,3.479501872250102129e-02,9.804020385407829011e-03,2.497647660013852574e-03,2.691228179203615511e-02
7.765491060410320556e-02,5.301934386868490702e-03,6.583568013884229849e-04,3.152477736578450250e-06,1.580352241460909572e-04,4.943551023682227208e-03,4.901095457026398428e-02,2.382097425701952542e-03,2.529285518247362599e-03,2.930451167344778896e-02
4.581755309253097985e-02,1.424040578208198710e-02,3.281188754684491915e-05,2.625955221833416064e-05,1.258532250613953450e-04,7.136324564738369229e-03,8.095656545553665817e-02,1.928314075384090706e-02,2.516633238466904968e-03,2.793155150802062794e-02
2.621501547867164522e-02,2.254838010540458765e-02,9.901461607018714230e-04,5.665492470252179210e-05,8.242907393860327979e-05,8.795159090352633671e-03,1.117055857242561095e-01,3.333352844981230662e-02,2.472254481542134844e-03,1.858909958761135323e-02
1.505483067550770701e-02,3.285213569844411957e-02,1.303523429467959684e-03,8.743118065853268612e-05,5.162358218259741554e-05,9.201397071125870866e-03,1.182700407652990809e-01,4.206657217851833552e-02,2.395270764913718861e-03,6.143307494007716439e-03
1.974913216632552190e-05,4.545416618397291053e-02,1.206710036180775551e-03,1.179724390255276170e-04,2.409475581477515301e-05,8.004886494128116148e-03,1.040054119430137425e-01,4.778879931363655409e-02,2.262701854289233747e-03,4.475462187665570080e-03
1.845857566147663525e-02,5.732146898386594747e-02,1.281135143465785562e-03,1.476634716076252382e-04,5.074960631731802635e-05,6.674128127500759608e-03,8.821005534472625698e-02,5.191339674118260195e-02,2.082553816709209818e-03,1.547158256443665128e-02
3.573147470047969426e-02,6.607709111560164383e-02,1.541035030396729032e-03,1.759038251974837899e-04,1.517327319691439780e-04,6.492808161990481011e-03,7.134967365781395843e-02,5.199079509683753736e-02,1.913530872137666865e-03,2.607524541647875116e-02
5.788663528427882149e-02,7.058660835432759018e-02,1.731707139095431652e-03,2.021216561432333996e-04,1.657301606520690681e-04,6.700342739011301563e-03,3.886365851234713231e-02,4.495345273162549421e-02,1.751926720883550991e-03,2.715817028623068730e-02
8.897872754082507274e-02,6.631019247979999531e-02,1.836231704169233141e-03,2.257869474608306670e-04,1.306021794886011000e-04,6.347445223749768883e-03,2.585844943378027075e-03,3.159035759796529480e-02,1.486141875401028210e-03,1.543692088364487756e-02
1.126192198297230884e-01,4.622695838524989997e-02,1.969492477933608692e-03,2.464237913987141486e-04,2.876421586406605665e-04,6.150971033125172613e-03,2.359298302687420218e-02,1.724021953941366758e-02,1.136690953232890504e-03,1.696157338872555671e-03
1.049233485040249603e-01,1.104398842959747155e-02,2.137843617727870106e-03,2.636214408044688430e-04,5.671821982612395164e-04,6.897707442572427808e-03,1.054292761968430962e-02,8.691745536514279905e-03,9.621096531371372022e-04,3.533353256635782865e-03
6.295410487310187930e-02,2.645672488407720124e-02,2.284494892891894731e-03,2.770438602875273967e-04,4.046655670850028328e-04,7.887012147192765457e-03,1.854452903402789565e-02,9.525417461899582383e-03,9.526207457912907539e-04,2.179685894015426575e-03
3.486451684530834580e-03,5.207655685399663337e-02,2.402662111639014293e-03,2.864375424065707847e-04,3.243502795098270096e-04,8.126335724992671955e-03,3.867950797612260128e-02,1.668384472386136297e-02,5.316978497962344952e-04,1.179070856399297342e-03
6.096611051047565177e-02,6.077634590868382508e-02,2.515826082554581747e-03,2.916373941627403970e-04,7.513872186590408054e-04,7.603623622092611258e-03,4.132129348585718981e-02,2.228868580763940579e-02,5.302880683163156738e-04,2.775073624253273068e-03
1.223037446484710328e-01,5.462142248459498500e-02,2.624589296203549624e-03,2.925705440334521574e-04,2.393378379381432724e-04,7.096544139635341253e-03,3.300381597570346826e-02,2.127672348956200638e-02,1.319875339054151159e-03,5.847864607540671777e-03
1.596417288270249590e-01,3.779059245951420232e-02,2.715324556327118350e-03,2.892579685966745586e-04,5.725021978927604619e-04,7.493254304074921900e-03,1.952382161764145557e-02,1.682118987207138761e-02,9.502938874387942747e-04,8.738723250802302861e-03
1.505080625617019330e-01,1.629728314352272417e-02,2.785191250942684830e-03,2.818138893328154052e-04,8.134964642565137988e-04,8.356383480747566969e-03,3.551311973047311700e-03,1.608964332119490817e-02,1.214927157800679836e-04,8.495066908424787552e-03
9.937131480159384911e-02,4.479576064491538716e-03,2.838449786164653176e-03,2.704429432387651672e-04,6.060682173654841987e-04,7.017510130978259729e-03,3.856425239507083047e-02,2.123396570983576356e-02,2.641035453938747721e-04,3.741977327451732893e-03
3.696832310337160726e-02,2.374403261512951502e-02,2.874812003209302209e-03,2.554351841895730816e-04,5.129516447443324559e-04,1.425468966692333434e-03,7.148184244818704680e-02,2.607762918863662516e-02,1.379888553253511918e-03,6.710555222663047931e-04
6.933545481361830763e-03,4.082062342449257336e-02,2.891048730861692142e-03,2.371590242662773257e-04,6.021116930194067357e-04,5.949375168822611075e-03,8.640699920931957378e-02,2.237477665402696700e-02,2.031248086133655151e-03,1.396591703285317981e-03
2.353490112266530890e-02,4.801179159883896264e-02,2.886354841651832693e-03,2.160522742776111187e-04,6.307141503989463277e-04,9.913077667933216722e-03,8.429767011097168139e-02,1.032606970517445724e-02,1.500839587028092274e-03,6.732226778356432267e-03
2.438895115933059632e-02,3.633256375275667471e-02,2.861704548938104244e-03,1.926114892281861229e-04,5.598198725525525919e-04,8.408372937576012382e-03,7.112785779544800180e-02,5.835891026527016863e-04,6.752675804560633261e-04,5.144975562068491125e-03
2.347212969416152123e-02,8.303717341464669430e-03,2.817633992401544565e-03,1.673798663905500124e-04,5.019581447266171321e-04,4.141776506720992214e-03,4.928486218729348500e-02,1.176645981385894026e-03,4.857173666124230214e-04,5.371787383818457315e-03
1.934676285524270650e-02,2.229959314210326268e-02,2.754469632988557244e-03,1.409339798899577093e-04,4.776474707602438728e-04,8.236820257226769781e-04,3.764640814665998203e-02,5.904256596964639267e-03,6.877896883153757903e-04,1.456153622928690883e-02
3.270343195714561519e-03,4.289036550058059061e-02,2.672725471481645319e-03,1.138696654035377745e-04,4.355893789878773829e-04,3.885665986864429971e-05,6.546937888393002114e-02,3.505309380375913782e-03,6.556084093137637793e-04,1.358970645619660654e-02
1.663917553951104605e-02,4.896441930135485981e-02,2.573053468390315741e-03,8.678739095482676112e-05,3.669025735362379842e-04,7.394653502676241724e-04,1.239424448983337812e-01,6.175843312664158757e-03,3.994958576585264836e-04,4.526253408469456223e-03
1.752685966974491111e-02,4.139134650789867004e-02,2.457370397247475753e-03,6.027746426472223290e-05,2.970933814056842264e-04,1.440423333982871010e-03,1.602821076902104236e-01,1.471159430943639462e-02,2.749461065168510372e-04,5.629895199027585423e-03
8.194379513391397002e-03,2.338207803304471685e-02,2.328721814829334390e-03,3.490543330021236607e-05,2.324330682103219279e-04,1.462621634834968334e-03,1.412838767319152256e-01,1.749784579484994079e-02,2.563496229657911572e-04,1.263591797641891445e-02
4.104686221824955378e-02,1.273602530984009563e-03,2.187817782471783001e-03,1.119803433860334329e-05,1.630164465109780253e-04,2.150310196846449626e-03,8.999185895414921199e-02,1.349361607930612238e-02,1.868347347127254803e-05,1.516594643435497519e-02
5.618745614108509173e-02,1.458280638538535234e-02,2.033194182472824497e-03,1.036996896535664640e-05,8.786015042690457769e-05,4.204324390553375833e-03,4.618979201842942500e-02,1.004344875197246603e-03,3.580605887229283690e-04,1.319674828253124786e-02
4.427644232510016820e-02,1.409624326909395681e-02,1.868931441663695958e-03,2.938773115961218621e-05,1.372692288349836869e-05,5.297205167680002838e-03,2.448942248779905489e-02,1.529406693206595072e-02,3.119989806940839548e-04,7.950668034064471007e-03
1.076187631328029241e-02,4.171344218213808575e-03,1.704336503650371714e-03,4.551875791613202248e-05,5.669282872237782939e-05,3.330399613466023152e-03,2.314654611131717124e-02,2.168394268918928669e-02,2.585297678382591927e-04,9.799227962798153467e-04
3.081546474044796410e-02,3.028851673713376519e-02,1.537087955080636021e-03,5.850956334126549357e-05,1.244272833592131617e-04,5.671877507672035352e-04,4.086088526449047770e-02,1.030381798798706873e-02,5.962784429223516808e-04,6.854292516237658200e-03
6.190128488831585923e-02,4.978142943392763198e-02,1.353330881074164393e-03,6.819632961421706033e-05,1.887364904862910177e-04,4.876234389335776524e-04,6.809642247720158748e-02,1.025784491399948928e-02,1.392562834104697442e-04,1.442054062822005316e-02
6.832550633874727442e-02,5.181785677488803810e-02,1.163616637866902873e-03,7.450939339302638026e-05,2.472602070008320173e-04,2.478766896035913738e-03,8.520492046303387856e-02,2.677504802167615661e-02,7.388639017242440779e-04,1.952257752229747539e-02
5.230310511935575002e-02,3.587087934903685632e-02,1.003480232139726883e-03,7.747543446197292132e-05,2.986344704401600676e-04,3.775304331558429743e-03,8.311244512094344283e-02,3.614626492771209204e-02,1.336696912170588910e-03,2.058624610000119037e-02
2.838036005647113363e-02,1.701074813350839793e-02,8.565090182349838167e-04,7.721729645816376598e-05,3.424956965975960188e-04,4.062097691895714957e-03,7.341755302250936588e-02,4.201989845190836487e-02,1.147273536625553758e-03,1.768023080840210384e-02
6.283089189230161437e-03,1.675411209984335043e-02,6.509700490375533791e-04,7.395142592638805545e-05,3.782916846830099416e-04,4.320696833856637990e-03,7.538284226808726618e-02,4.463972457444633640e-02,4.475460041502050284e-05,1.078266687329125159e-02
1.455108202605048286e-02,3.885192425739936173e-02,4.239346135456274951e-04,6.798297310012734688e-05,4.052942099068375164e-04,3.879081576350133353e-03,9.888775851610982770e-02,4.119234471801632574e-02,1.161104082652377823e-03,6.722454723709236522e-04
3.287539583851011721e-02,6.215926962030240283e-02,3.326737384154797132e-04,5.969865433236292037e-05,4.231767854382275209e-04,1.765461662392490538e-03,1.303136194753565236e-01,3.136157605938413862e-02,1.207009135778426686e-03,7.035369583193885196e-03
3.986853358309520173e-02,6.538466840195986118e-02,3.040918759126767399e-04,4.955753058271723408e-05,4.320300906413636864e-04,1.070976850496133765e-03,1.343159413407312430e-01,1.729941292558801261e-02,1.314837177978312387e-04,5.157152125730340118e-03
3.264291918740676313e-02,4.901853064196351473e-02,6.289022629856363099e-07,3.807990747537790243e-05,4.320996007493620107e-04,2.825878672383621421e-03,9.182590757434684614e-02,1.118618027492157031e-03,6.701994094452548394e-04,4.998998460152287091e-03
2.334608895114767546e-02,2.654148898698316730e-02,4.268492498974748163e-04,2.583460905382427113e-05,4.237720792416397740e-04,2.929590148036237494e-03,3.571078406174894859e-02,1.405456902759738211e-02,4.722314725937552392e-04,1.388198264241108544e-02
2.423713231345181462e-02,5.438154222264251006e-03,2.278457524521636040e-04,1.342491835183443181e-05,4.076825452443705723e-04,2.318442856860776762e-03,1.901429871860582307e-02,2.271794893798842127e-02,8.884800981413842110e-05,1.581329905062561769e-02
3.277729140988042827e-02,1.452762602772148838e-02,2.546399152249022931e-04,1.473511980788364269e-06,3.847035052758670105e-04,2.192420339255513051e-03,4.798049128011272479e-02,2.066991903235568598e-02,3.878228249507113270e-04,1.273863978344382149e-02
4.267296763393640946e-02,3.150038839737934887e-02,1.218396551974163704e-03,9.393257830554884556e-06,3.558777831279198202e-04,2.529998405113327749e-03,7.647286551225063178e-02,1.037947088393737470e-02,5.702991481551835653e-04,6.016066692968682905e-03
5.860466546836927415e-02,3.990868780373846986e-02,5.767840105080957597e-03,1.856136201961135137e-05,3.223871680318017856e-04,1.804954190648251850e-03,6.568389761864262821e-02,1.050705688337451576e-03,9.079111184896834124e-04,4.691541428683347094e-03
8.449006963748381671e-02,3.935000404102867444e-02,1.032593181950576533e-02,2.544499257072331473e-05,2.855216630745589703e-04,1.150755880703483499e-03,2.567586782613194563e-02,1.061554464892025540e-02,1.333394047374276709e-03,1.453225617703652120e-02
1.057422205108242280e-01,3.811805815685024440e-02,1.047389608300459615e-02,2.950197758298451060e-05,2.466506679645167656e-04,5.186991974496108111e-03,8.199751429268766281e-04,2.074026016574148645e-02,1.711018833073534983e-03,1.761237384131777994e-02
1.034452238635536481e-01,4.089624269717405391e-02,6.202632398411083228e-03,3.024834168603235195e-05,2.072328591525761333e-04,7.937949329823640321e-03,2.447633742461472611e-02,3.019731911845975614e-02,2.059993431091555662e-03,1.760095969245215053e-02
8.372656871869459116e-02,3.647611016547436941e-02,1.935085655534343405e-03,2.727165749211097454e-05,1.687723800306649804e-04,8.618455185132028323e-03,8.124303308661053047e-02,3.336161578888805629e-02,2.432915382229296729e-03,2.220182013044808694e-02
6.898248751416334590e-02,1.025830942668719270e-02,7.702268653782258327e-04,2.024285753849147700e-05,1.326609530292519176e-04,8.265043807967430503e-03,1.189631561797829390e-01,3.278784871749949176e-02,2.811971902939423232e-03,2.909153641870417667e-02
5.715938020817314114e-02,3.022361749872048628e-02,1.587076505078255243e-03,8.926211239004235148e-06,1.001481737077797318e-04,7.574089743933804311e-03,1.075912872787547492e-01,4.021362226696722358e-02,3.163149907017997250e-03,2.963982367234375276e-02
2.066604586847498731e-02,5.824305319248124918e-02,2.097325324622400719e-03,6.812781080663852116e-06,7.257032346814448645e-05,6.068854709822471896e-03,6.771443032097412829e-02,5.798826640919135106e-02,3.481152849825527168e-03,2.342375622311261216e-02
4.363377554398007591e-02,6.120270239573775278e-02,1.965654373418811336e-03,2.700177788345457791e-05,5.130606177865260076e-05,3.324981614850949525e-03,2.931941661972366914e-02,7.101385186074098133e-02,3.768119679688168057e-03,1.656705047406374295e-02
9.701340611745233600e-02,5.400617369388709121e-02,2.050657250686194460e-03,5.155842964676119909e-05,3.717305098434073676e-05,8.877249491966553575e-05,8.406510784715253565e-03,6.474433116339617378e-02,4.022446507779338376e-03,8.952715009778268451e-03
1.069543430568783565e-01,5.188435504150786665e-02,2.494055345709472130e-03,8.028975621427959428e-05,3.040584019850411487e-05,1.957885791849614445e-03,5.559108782187222042e-02,4.238737139892457401e-02,4.242006158453391455e-03,4.234552274987304563e-03
8.193094985757518045e-02,4.810356943556877429e-02,2.729198987903451272e-03,1.128940825765270984e-04,3.185649442176493749e-05,1.727745297708396929e-03,9.784600787923471155e-02,1.844575347561918169e-02,4.408320719729831583e-03,1.960377375814067666e-02
4.598280383050709630e-02,3.027057279800255546e-02,2.688124998683177024e-03,1.489654895488965998e-04,4.299713047568614504e-05,2.910824199840527596e-05,1.131037680970981424e-01,2.484667930877061930e-03,4.499036954887915794e-03,2.557029496501104365e-02
1.008549108880467046e-02,3.635411253936059097e-03,3.057562361673160818e-03,1.880007313214084768e-04,6.329382469491944278e-05,1.567262530688269193e-03,1.050543230114638765e-01,5.009599725233857340e-03,4.541465514091819200e-03,1.627498265772243241e-02
1.795953835254745362e-02,1.591932594909526572e-02,4.127186628343028352e-03,2.294085071311827606e-04,9.008831490430012758e-05,2.891321613588070192e-03,9.372058971533703264e-02,5.869328011978275188e-03,4.578773855630973583e-03,2.271362451813282394e-03
2.331422160382911821e-02,2.335692915106398621e-02,5.024981522367205460e-03,2.725207977890553579e-04,1.241775414326564135e-04,4.571278865917010638e-03,8.873572645863328501e-02,1.224929830682444740e-03,4.545922776297259965e-03,1.948553804282494514e-02
1.530028737015149331e-03,2.580471128048750576e-02,4.810201326178547773e-03,3.166059351291048156e-04,1.702045459034203943e-04,5.987386662502111254e-03,9.279401982084989342e-02,4.834857462896444830e-03,4.342779316219895491e-03,2.695345804489784197e-02
2.963811496391468778e-02,2.489232549354923954e-02,3.977506617068000440e-03,3.608832844801021207e-04,2.247643340394610680e-04,6.227586977374788106e-03,1.086898440263701776e-01,6.201488848050316395e-03,4.105455470227453371e-03,2.110815921350425728e-02
4.959384328613663379e-02,1.045982526226136786e-02,4.033434662811646518e-03,4.045393695360972354e-04,2.752892992203114647e-04,6.154808781479427504e-03,1.239877063582001671e-01,2.955884939749013618e-03,4.055652691115478950e-03,8.064163868372864127e-03
5.567633261327232380e-02,2.156069271906402643e-02,5.521256356191206298e-03,4.467446876240191433e-04,3.254706749903064455e-04,6.756837266902966654e-03,1.154145076749132776e-01,2.709249579437324022e-03,3.912223205234209231e-03,2.492918764402860671e-03
5.344258792453213808e-02,5.409745600426260626e-02,7.122295462611209597e-03,4.866704526053201125e-04,3.983686176687646781e-04,6.758478105526267467e-03,8.318705231254105992e-02,1.020726433026386201e-02,3.188599253328016844e-03,1.184842677775753590e-02
3.860380439118629020e-02,6.453129809036105280e-02,7.263494185188361721e-03,5.235056660461884269e-04,4.822838205857435238e-04,5.056537948295768137e-03,5.540978125308470420e-02,2.108949959765102355e-02,2.508876223881227087e-03,2.476421070597344468e-02
6.481737770335167619e-03,5.028867383979519073e-02,6.185456552200058016e-03,5.564749207302482816e-04,5.227931470015413857e-04,3.933534532692203531e-03,5.296726824167296427e-02,2.773493269217283327e-02,3.280517560485739573e-03,2.463871280581011666e-02
2.908600951253225222e-02,2.656123196869048658e-02,5.426111513446193503e-03,5.848548356152896309e-04,5.382544595402363220e-04,6.134142111422531338e-03,7.522377981253407231e-02,2.547327356040157698e-02,5.051327422432751527e-03,1.088166161876984173e-02
4.679282695287294985e-02,5.440868210363497201e-03,5.612938549356143517e-03,6.079869582547255992e-04,6.400795245797630869e-04,9.969026314243827763e-03,1.160770192774795706e-01,1.345242380711250685e-02,5.112548430305662375e-03,2.828727899467436361e-03
4.369840534994688663e-02,1.039187702657991610e-02,6.038249339614870821e-03,6.252903584469653858e-04,7.867200728712963210e-04,1.107318303411709143e-02,1.639612418034690766e-01,3.925539136817062479e-03,2.469686182242712257e-03,7.051942792031699186e-03
3.448335937548222679e-02,2.140388800264998725e-02,6.120611655014273483e-03,6.362774811967470334e-04,7.311705219880330463e-04,8.410715636978363316e-03,1.917130935329034447e-01,1.770630613547448384e-02,5.861884069541058498e-05,3.533913823268802594e-03
3.238138743284724869e-02,3.005209326464513761e-02,6.034938653528812771e-03,6.405654267115953697e-04,5.412216159920660991e-04,4.980368660074747239e-03,1.789503133607760754e-01,2.299357226667021054e-02,6.547717695668448835e-04,3.004060110868788346e-03
4.289035860732483968e-02,3.954549785349360802e-02,6.029059400119243968e-03,6.378739148895538284e-04,7.838545201444919921e-04,2.647289167233807684e-03,1.417767582959026385e-01,2.452614407034453547e-02,2.587929762743496065e-03,1.025634379264252563e-02
6.341175565384260526e-02,4.724713109883495188e-02,6.029681529373195729e-03,6.280256603694131697e-04,1.578403969352411848e-03,1.127541906993954684e-05,1.152164575344953867e-01,2.799934480052246669e-02,2.416242921422780392e-03,1.583935081284566782e-02
7.865438004969706187e-02,4.635870233124221584e-02,5.923257394218308519e-03,6.109676316737972738e-04,2.042676792265354230e-03,3.854539133814731573e-03,1.168441346098513384e-01,3.150135428565755541e-02,2.037809770960068373e-04,1.618761875692931868e-02
7.109539255602065344e-02,3.771000610878377790e-02,5.722921397343322045e-03,5.867796645166377346e-04,1.542482902359745703e-03,7.172797373021941314e-03,1.472079239262535366e-01,3.271870929975229103e-02,1.286689585795212400e-03,8.819816129414279060e-03
4.205460825195545677e-02,3.124934989555805051e-02,5.458694345615367968e-03,5.556298669401649225e-04,7.397962075334221180e-04,8.317399476300176009e-03,1.990982333083427258e-01,3.594682940095653839e-02,1.375785408345209021e-03,6.364026023238756463e-03
9.118794627381165627e-03,3.245488382092941160e-02,5.150317145737391515e-03,5.177473293802158528e-04,4.941272959754860030e-04,8.122112098830512258e-03,2.415123207399937910e-01,4.266834095602875521e-02,1.743991233291153613e-03,2.593876529063883496e-02
1.570891191445545829e-02,3.698575401107306870e-02,4.820737279353099099e-03,4.735007707736371523e-04,6.301757134688296602e-04,8.236801406083600965e-03,2.279758666190863092e-01,4.501307366963335638e-02,2.910873435412649098e-03,4.202778661829020823e-02
3.015116490079825309e-02,4.326641570960146344e-02,4.396261924452746390e-03,4.234352072282272002e-04,6.048293959307355500e-04,9.053515674439833669e-03,1.502420006296332766e-01,3.842463455250534621e-02,3.785226402875010304e-03,4.636351884421682085e-02
2.731962903805465470e-02,5.778295202807082892e-02,3.776362227131467401e-03,3.680740548820837137e-04,4.623968345435558523e-04,9.805081736393236533e-03,5.512848960964111117e-02,3.124597126818179707e-02,3.981195763985187486e-03,3.760540812333580674e-02
1.602728782962158961e-03,7.804102936845561111e-02,3.124399030607585837e-03,3.077982623088274601e-04,4.072293917467853476e-04,9.585398478613508383e-03,1.615239726144488547e-02,3.229695914569846033e-02,4.152581506632690468e-03,2.241779216487509857e-02
3.997362377652878551e-02,8.350178033774552366e-02,2.680117055902678409e-03,2.432227946085614820e-04,2.367282029816939403e-04,8.141106703316289273e-03,7.510204110145832224e-02,3.707286238335521372e-02,4.608383713814812564e-03,8.100814921850951061e-03
4.155111767160796915e-02,5.956119796057628146e-02,2.092566385604778707e-03,1.754170214006417884e-04,9.171244512292418881e-05,6.157051359157126105e-03,1.447305754292810276e-01,3.539635370340326465e-02,5.070835784657279355e-03,3.006276331964902182e-03
1.770733688388684279e-02,2.092569309491032828e-02,8.082638402263863341e-04,1.050554595397092263e-04,3.360472804662222171e-05,4.661745062961525875e-03,2.014784369552337362e-01,2.698613259056908617e-02,5.394406908314064615e-03,1.070813617680463695e-02
9.755268380288267815e-02,4.824789215406076123e-03,3.795257430276359153e-04,3.187179591885607095e-05,5.876119875899957126e-04,4.128333375206922479e-03,1.983681249941012803e-01,2.062239165728792928e-02,5.715366039433173243e-03,1.308657826102084011e-02
1.403568766849308536e-01,9.337830708176789868e-03,3.458324700026522134e-04,4.359568202275092291e-05,9.141712770947524975e-04,4.409238642931091398e-03,1.299292858447989030e-01,2.139899106794045450e-02,6.111018871625711890e-03,8.650424129336121981e-03
1.457616311764118044e-01,6.722917332886165810e-03,2.815831142857580776e-03,1.188460946252507572e-04,2.856688962272892576e-04,5.428181818586667873e-03,3.895570623509673341e-02,2.696357918780576193e-02,6.523549715303869102e-03,5.211075802458247329e-04
1.551438568224063064e-01,1.092096906686651145e-02,3.976877377334270790e-03,1.931651063502751826e-04,6.637684656738242813e-04,7.523168131951419625e-03,3.022534312093714745e-02,3.403693766524551467e-02,6.927028071722713710e-03,1.021335474305951931e-02
1.775114336881656596e-01,1.839420712408512681e-02,1.616826368837639711e-03,2.702444715594175414e-04,1.052314647894533970e-03,1.068638420157758465e-02,6.033754984087327800e-02,4.057366095102004494e-02,7.365992798384375997e-03,1.690710367039208184e-02
1.780740553749500521e-01,1.226030066972117263e-02,2.711712902837446100e-03,3.502879992931308981e-04,9.968718425058418695e-04,1.361592173467764295e-02,5.714601721427015057e-02,4.269232765809045926e-02,7.859122729290858242e-03,1.898331592810566931e-02
1.315868064476873323e-01,1.606647258045168503e-02,6.067829559960209555e-03,4.242501222018460667e-04,1.062028527537855213e-03,1.474092864243272544e-02,4.079523742036031408e-02,3.809693137596335821e-02,8.376986458558804971e-03,1.820330018034276715e-02
5.134212901120659145e-02,4.973008357811248281e-02,7.741404491284724181e-03,4.905767540890753091e-04,1.319976952093912656e-03,1.461719520242873473e-02,3.531068416890256745e-02,3.288579541804104861e-02,8.925752801140836301e-03,1.945959137426811481e-02
2.580363413773699433e-02,5.974201558366486198e-02,8.909662393714502457e-03,5.679715765735258081e-04,1.529029241677427745e-03,1.542092104974294303e-02,4.645153086153623601e-02,3.533486004219661691e-02,9.565293056073644745e-03,2.437870245662051086e-02
6.171739921149511920e-02,3.807260190474457545e-02,1.010889249548313322e-02,6.599940989530624427e-04,1.639287311306142879e-03,1.719495670067710744e-02,4.707835434674023656e-02,4.144950926298968802e-02,1.028661077917343569e-02,2.634575277075197272e-02
4.015972660010129480e-02,5.508147111399803141e-03,1.068640406477672916e-02,7.268803313733466836e-04,1.752304288988739507e-03,1.731245070463804242e-02,4.873771024691919349e-03,3.870469545050515825e-02,1.098476551019652268e-02,1.859556588389685988e-02
1.550894100332261480e-02,1.628244549410301847e-02,9.920699004838596374e-03,7.604132311623097110e-04,1.906498044784750738e-03,1.508444927005737728e-02,6.561612642667534467e-02,2.677392058945335385e-02,1.169339548948261122e-02,6.137611875801762991e-03
5.980069825311109394e-02,2.465554559383573499e-02,7.646084857209032096e-03,8.460543372351663882e-04,2.072218509705202327e-03,1.345686274766878625e-02,1.068453404969697401e-01,1.939204692333954677e-02,1.264089000166708325e-02,1.439340106910185239e-03
6.665200827263226269e-02,2.347360551236086362e-02,4.615489039374154508e-03,1.004650208543172041e-03,2.199401131842570415e-03,1.406386466788849335e-02,9.274096443080764862e-02,2.150545666808615503e-02,1.376261931697555542e-02,8.023111390032398177e-03
4.407788150891659568e-02,8.867150777048219898e-03,2.779210313466873826e-03,1.055445160283306934e-03,2.261574087664476075e-03,1.424619178436156708e-02,6.069265837130205510e-02,2.252688487155050587e-02,1.457075324894691049e-02,1.653648173875691199e-02
1.283079793893187985e-02,2.134615400955845038e-02,4.354729074948093630e-03,9.503920994602786535e-04,2.347907198232329195e-03,1.151344083432989142e-02,4.349275864884871029e-02,1.834875453404808190e-02,1.519125560309778598e-02,1.930900452784002977e-02
1.318792731811845725e-02,5.471947257670205234e-02,1.008745828245195125e-02,1.078292581759275094e-03,2.559032184767348703e-03,7.632648778575138945e-03,2.197487644184062741e-02,2.031729031940630176e-02,1.669316100282058207e-02,2.120832649421839494e-02
2.891372083865471898e-02,7.259876978653068136e-02,1.786015778677119831e-02,1.565390876728009906e-03,2.716960874626475446e-03,5.451047386426534531e-03,1.856297926552086253e-02,3.245775845891269579e-02,1.882081418482358867e-02,2.992056085151695299e-02
3.555971877480101906e-02,6.836382430150406142e-02,2.273807904950755215e-02,1.552571754482937050e-03,2.584175665993550426e-03,4.169797634300539436e-03,4.256768318075183910e-02,3.719591420111711955e-02,1.858304970617998333e-02,3.925622405821634769e-02
3.284003933912631179e-02,4.854745761333264381e-02,2.093090656365970831e-02,4.548585867192808403e-04,2.539171806047534063e-03,7.873856611597730183e-04,1.788790171808576912e-02,1.723236398989373697e-02,1.379573210946976464e-02,3.180851858786997582e-02
8.857667240856178376e-03,1.846243615907229574e-02,1.545853052995741113e-02,4.763815480563442901e-04,3.146879243444425638e-03,5.022602788115179163e-03,3.220311076321844684e-02,1.935896368536149659e-02,6.657687399336697197e-03,1.730251451135455306e-03
4.484107724002726197e-02,2.101131283242910555e-02,1.372504010688024162e-02,4.589526125124406084e-05,3.538033493223350940e-03,1.039916953480081452e-02,6.827908590922796006e-02,4.950346412549017083e-02,6.233987185124557472e-04,3.406319874160567557e-02
1.048205968090861057e-01,6.103007982059845127e-02,1.682240872330324072e-02,6.202096372483569854e-04,1.607468061059043156e-03,1.346864335784611622e-02,9.042201889244375068e-02,6.362991716061001946e-02,3.849957980548148091e-03,5.459316214561277941e-02
1.313155950456119658e-01,8.349812466343461970e-02,1.724133217384961336e-02,7.356628128141191707e-04,2.951992629606093460e-03,1.507197167881711188e-02,1.172052499373940904e-01,6.855519117572353438e-02,7.033927857639014208e-03,5.623022581271067827e-02
1.178133611317205703e-01,7.991128270534537947e-02,1.068689165832382298e-02,2.577577115230707521e-03,7.016601556005511511e-03,1.569355505558242894e-02,1.288822105785215055e-01,6.626040088161207209e-02,7.877084126350004586e-03,4.890629378107180097e-02
9.464131859845831274e-02,6.266974557265238277e-02,3.278885182625058785e-03,1.900637740729773685e-03,6.945688227111741081e-03,1.397341506224122724e-02,8.356945481204584858e-02,5.007526885093988717e-02,8.315231569708605996e-03,4.240782281965145561e-02
7.799957761312532878e-02,4.897864359064402900e-02,3.249981535977075099e-03,8.669767153069516796e-04,2.681597529175963439e-03,9.826391507881827164e-03,1.030750513125108792e-03,2.407129365445488320e-02,1.343938896653669966e-02,4.331967130947900202e-02
4.658612566670985999e-02,3.973525497826324582e-02,1.123365583597824534e-02,2.712369805591627759e-03,2.162052450152154078e-03,5.804254746976315882e-03,3.167258984579493508e-02,5.364646396020539103e-03,2.262812854146054736e-02,5.298042004856335502e-02
1.638873093635925815e-02,2.891188922547762233e-02,2.056954209971562780e-02,2.873384404447401445e-03,4.328420186504828432e-03,3.616066652279393938e-03,2.506267918383868129e-02,1.723313805480250829e-03,2.767620243844335498e-02,6.202213817883031610e-02
7.909616326222961014e-02,3.096202598022093633e-02,2.259182052575383140e-02,2.851242330953369236e-03,4.012917978013369469e-03,2.500594188582571948e-03,1.071245920376523997e-01,6.451580225164353470e-03,2.484589692202056332e-02,5.874542932002154577e-02
8.621282515661367329e-02,7.153530238525912521e-02,1.247784359585708477e-02,2.538711832243511872e-03,3.303612419512951329e-03,2.145948051623936415e-03,1.450194943596952724e-01,1.792136509582137674e-02,2.156979518229737089e-02,4.637679822322961221e-02
2.947688519069261229e-02,1.422476097452193000e-01,5.624211520077356669e-03,2.498206277234780049e-04,2.660516759229235827e-03,3.731428881955378696e-03,1.452221379928082257e-01,4.119127712837113153e-02,2.592712003651164929e-02,3.982983900979586434e-02
3.189431646428183414e-02,1.948993131265829293e-01,2.080567906866230901e-02,3.672968379719650667e-03,7.063646800569081544e-04,7.542469093921170750e-03,1.349795676488676488e-01,6.871519839947119734e-02,3.565410702018868838e-02,4.459167235584877986e-02
3.448694840687699381e-02,1.939104728713452186e-01,2.571771714605021464e-02,6.463302005394978497e-03,2.609237480920237589e-03,1.235368275423301930e-02,1.063941696795532854e-01,8.346604857557481105e-02,4.230936508383936756e-02,5.134353164014480303e-02
2.402298912129370578e-02,1.480515728622130434e-01,2.233112606637196670e-02,6.292011957732798581e-03,4.672809975692444363e-03,1.677633377609571291e-02,6.332079811963065019e-02,8.282957006305351200e-02,4.124208713504482621e-02,5.099687743136565449e-02
9.420397601006784416e-02,8.473402203380690778e-02,1.595521924131809710e-02,3.856879862485208810e-03,3.208568522735009542e-03,1.948794383508445013e-02,5.587334389006246016e-02,7.823704081167247304e-02,3.351322259503497492e-02,4.325389097890000589e-02
1.305776821237436547e-01,2.298883736750772719e-02,7.670289484876972180e-03,7.349966809827427651e-04,5.011720638297902271e-04,1.930371093722013306e-02,1.146726234879795192e-01,7.159973045679111914e-02,2.207026789055736155e-02,3.054139246800398333e-02
1.239552689728359858e-01,2.367691712158843595e-02,4.573386201432248083e-03,2.012034440430447539e-03,2.869848901175215978e-03,1.634540129826716343e-02,1.989752261816029877e-01,5.429119651289050080e-02,9.543309047647642596e-03,1.437990700487314782e-02
9.299813682201396592e-02,4.584692687835829894e-02,1.978099811925317433e-02,3.789966371938698238e-03,2.320902741843187695e-03,1.248555318849905831e-02,2.525153487967815580e-01,3.057109673181684223e-02,2.100909907430255699e-03,4.808938777367912677e-04
6.573155948333797571e-02,4.601924923898083331e-02,3.104241383965225878e-02,4.611470733438075356e-03,1.056109033351868964e-03,9.743295938108681789e-03,2.627537302268682651e-01,1.699360204210223491e-02,1.154880954032805329e-02,7.909538803462373702e-03
6.992046128357229384e-02,3.274713164456831416e-02,2.965942988583036150e-02,5.059616515110599427e-03,1.894150127414007123e-03,7.996799783198808506e-03,2.308634858771287934e-01,1.289572087821369908e-02,1.763487139748756358e-02,1.030745789847437553e-02
1.175884071037487794e-01,1.059939364366151333e-02,1.386163096209914666e-02,5.137576497394529679e-03,4.618364900450208123e-03,4.709112114389516629e-03,1.402370980642812515e-01,2.731755895948278015e-03,1.954657522564800382e-02,1.905571766276090845e-02
1.823455043142172827e-01,1.374796078195577101e-02,7.487593857793271163e-03,3.993989186914348455e-03,6.817029549582295095e-03,2.052649287350057083e-03,3.139662873249905208e-03,3.598844635852246204e-02,1.800979511180499093e-02,3.997567293232892616e-02
2.112496192865525868e-01,2.600201739264521028e-02,2.256709159859398781e-02,1.652534281211090863e-03,7.128147915678060761e-03,1.027657028227264499e-02,1.428609951388748744e-01,6.428822469718444010e-02,1.508273397385218040e-02,6.389528784807213535e-02
1.838045854613741537e-01,1.509951569221102893e-02,2.602085801329917167e-02,8.570299529599319233e-05,6.279108678484051319e-03,1.580513502050422472e-02,2.261630455095433034e-01,6.937917369016621816e-02,1.264782988494226462e-02,7.758916200621554515e-02
1.435157176104635557e-01,1.809626910296639746e-02,1.903451985227805343e-02,6.278340968367692549e-04,6.097961623023307257e-03,1.817921866303439174e-02,2.577664976501989891e-01,6.270658688737201780e-02,1.229574851354301238e-02,8.012990538493115766e-02
1.450403281441074999e-01,6.526175981849091645e-02,5.416675184752674233e-03,3.513286020724698446e-03,7.650997665783461008e-03,2.032434150578093027e-02,2.616838902085038554e-01,6.242358322427134232e-02,1.531280559291784207e-02,8.070142533517964123e-02
1.888536679473058755e-01,1.137870324613432793e-01,9.168168617732317532e-03,6.038543012938225527e-03,8.678976456718346874e-03,2.019976215754874793e-02,2.193405996315844486e-01,6.129595589998970695e-02,2.026268446742309978e-02,8.288443607713158467e-02
2.351675588677197004e-01,1.473097527088214342e-01,1.909598036836990601e-02,5.787399868277408668e-03,4.751996928885298191e-03,1.019847764266439659e-02,1.051518558080319771e-01,3.867396455482504519e-02,2.254234280014224406e-02,8.144882123257146667e-02
2.576703853692651203e-01,1.556234080539090070e-01,2.277831526505250809e-02,3.363129415521538476e-03,4.043528159615241389e-03,9.734100696008734024e-03,3.291737554000848803e-02,2.192285483076776911e-03,2.005275105435597519e-02,7.450918242996902585e-02
2.538092491427682007e-01,1.434201505103664953e-01,2.207829683312968055e-02,1.816537754034002351e-03,1.104322057147865722e-02,2.674958608283661832e-02,9.894517934871101261e-02,3.166738458866034944e-02,1.728636829643398487e-02,6.875579239260140585e-02
2.271178567537483484e-01,1.212221163089687026e-01,1.771945966013305229e-02,2.017090418855496323e-03,1.183826262856674423e-02,3.044941774985448352e-02,5.954322332552750702e-02,3.203193082635651806e-02,1.885636321594105422e-02,7.103635386004965302e-02
1.867162393124301434e-01,9.254360307506746819e-02,7.751879851570976643e-03,5.499465590714255978e-04,1.083862106410993231e-02,2.619236261367530877e-02,2.347563169733590110e-02,1.940007398785386847e-02,2.043304679959786693e-02,8.042222239660686001e-02
1.460941087827243856e-01,5.867285429637818239e-02,8.690144090166459709e-03,5.352530261307456884e-03,1.410703647109462673e-02,2.531301678810068956e-02,7.465977209637188194e-02,1.742900211607472868e-02,1.264722202745473603e-02,8.807503158818967559e-02
1.092067962009199700e-01,3.148996107101816738e-02,2.643735703571259074e-02,1.263408603577898318e-02,2.009004843248952954e-02,2.860773755253120942e-02,7.805718874782553718e-02,2.364317318823661029e-02,5.074875663346927260e-03,8.310055046884598506e-02
7.468698344307161952e-02,3.000817389739445645e-02,3.557039011726489258e-02,1.544242266090441011e-02,2.259875135409499664e-02,2.795364526450957662e-02,5.961262435319519826e-02,1.750607985562194560e-02,2.080232829184830434e-02,6.216714506991297823e-02
5.681642463996949138e-02,5.977167137194636104e-02,3.009388292352560904e-02,1.225454051226230676e-02,1.943152902470557733e-02,2.020617532288483675e-02,2.804351571244138516e-02,6.749534732092624112e-03,2.307345736282100795e-02,3.379669228827744676e-02
8.351893562190126907e-02,1.005992767667138604e-01,1.279085211725161826e-02,6.695522057572049317e-03,1.350684314566250044e-02,1.101802169461245373e-02,3.508526646562772772e-02,3.319403572104115407e-02,1.323171579924765397e-02,9.861222119207401979e-03
1.664143163085476107e-01,1.216790109957034544e-01,8.916105669209150458e-03,1.919540604548569803e-03,7.692267311351157558e-03,5.382572295198624623e-03,1.237579134738949482e-01,4.679973602708003416e-02,1.858117892250390601e-03,5.125719935293254238e-03
2.823567328726055425e-01,1.097275468986673580e-01,2.595507855461520047e-02,2.214543270213323745e-03,2.210739563577310447e-03,1.060440012010059781e-03,1.788538657815289812e-01,4.660540473581586962e-02,3.946461806540698010e-03,1.423270067500182270e-02
3.919551539548363217e-01,7.863165727323624676e-02,2.815148087777927938e-02,6.085314302306429543e-03,3.177644477849650775e-03,6.305777510026699083e-03,1.431345336926789225e-01,3.643888239116595956e-02,6.034596335178147100e-03,2.146356676042756456e-02
4.692153707807924512e-01,5.060197140808359723e-02,1.236505702404271448e-02,7.926486209183502066e-03,6.921752186377231122e-03,1.537770051059247564e-02,3.428647746170469801e-02,1.795136887199347275e-02,8.874161590238493699e-03,2.682876285520219631e-02
4.941161317735448533e-01,3.091550150658009880e-02,9.717387501658862961e-03,6.200474988248242010e-03,7.174552851306314344e-03,2.000740725075751333e-02,6.516627639713211406e-02,3.560996527834868561e-03,1.200238987162082632e-02,2.746521020713517738e-02
4.173684927807247425e-01,5.933390013136554536e-03,2.102935134912576817e-02,2.461168212362545207e-03,4.772426482156996372e-03,1.704431556523067562e-02,9.160335856076963490e-02,1.887910747436496312e-02,1.146012493151763942e-02,2.395735281794684340e-02
1.779242884851688078e-01,3.207138612697688768e-02,1.620631333323510267e-02,9.414785344925331737e-05,2.590103408151503764e-03,1.003719798678283370e-02,5.674597842511878987e-02,2.563244665777324877e-02,6.347769658483520816e-03,2.274388519778318060e-02
2.103828068798334616e-01,6.706260879113407070e-02,4.093287090683876348e-03,4.632472133808241506e-04,1.898843204045207915e-03,4.343152043241116714e-03,1.621776628943377013e-02,3.267941250760189598e-02,2.865171889519595692e-04,2.961628722640566660e-02
6.209980659979505990e-01,7.612948892393364697e-02,3.368054237016176317e-03,6.271084936450115055e-04,1.676648780446983933e-03,1.372945818362998009e-03,7.961967853557282496e-04,4.989469734445575039e-02,3.052529275789220460e-03,4.312793479606549102e-02
8.977487866420631457e-01,5.724409036918601951e-02,6.256197284842690033e-04,2.382303270818164013e-03,1.635673131448602251e-03,2.833211593608106330e-04,1.186088085972406350e-03,7.403403510578973612e-02,3.732553175642993638e-03,5.593117896540437950e-02
9.617728508946080668e-01,2.924605101914239808e-02,9.503303005334130110e-03,4.862346638450428839e-03,2.982103847070821743e-03,6.016337120101974013e-04,8.539846840075285619e-03,8.774999568563605912e-02,5.277944106436207629e-03,6.173384457010471643e-02
8.380430383478378875e-01,1.039101818620792421e-02,1.999830304269091877e-02,5.772044501114481987e-03,5.482157379890595199e-03,1.639034322903000929e-03,3.222643177545665011e-02,7.844822461866950147e-02,1.077743133671762651e-02,6.064548208380390881e-02
6.164094080379078910e-01,6.640403464895808933e-03,2.607446115667189784e-02,4.098221004358830119e-03,6.817546116439415251e-03,5.687470758400347756e-03,6.933369175312213695e-02,5.555341937277250702e-02,1.857554535324310724e-02,5.700266909734037074e-02
3.934664952122294834e-01,1.363739910644607214e-02,2.677428080812483541e-02,8.956523822956382165e-04,6.011936756369272612e-03,8.987009670638666792e-03,8.578799505429687833e-02,3.897552423572302194e-02,2.339250149431684397e-02,5.296389475151316167e-02
2.173392010090125781e-01,1.775862753046550391e-02,2.127351861962000282e-02,2.295785695486367555e-03,4.911296076870540206e-03,1.024213425998007042e-02,5.118098128524008195e-02,3.249517285290846186e-02,2.227617069807823896e-02,4.725690361815968604e-02
7.741801618257460049e-02,3.956200864673534157e-03,8.725136420765002357e-03,4.962447991153107543e-03,5.243068438852337317e-03,1.069268163620927872e-02,1.578032738040307040e-02,2.191471548275803968e-02,1.684940234588229793e-02,3.899998766694556113e-02
3.394429201514918837e-02,1.870751523583152193e-02,7.268413615603063795e-03,7.009807036883411099e-03,6.355679582657787832e-03,1.230219396695286273e-02,6.084695705236219110e-02,8.549164322518056905e-04,1.013601640979081182e-02,2.904207022824070381e-02
6.583661315115788004e-02,1.115691064647196182e-02,1.926214350834156222e-02,7.593776124821195912e-03,6.659951764778161698e-03,1.511867857663178397e-02,5.310733152044333494e-02,1.651434301767227067e-02,4.781484550815061872e-03,1.886039479653188466e-02
3.445497458564961840e-02,4.707814704049385901e-02,2.210922856470685927e-02,6.063260712078608755e-03,5.896595980516112882e-03,1.723120430214558976e-02,5.129367240410820719e-03,1.682360643012812546e-02,3.177108889169947409e-03,1.096559993995935636e-02
2.159059003653855391e-01,1.161933941374823365e-01,1.464858925928500498e-02,3.511542587214349503e-03,5.462231077918223640e-03,1.798949263105562718e-02,6.035416511969322884e-02,1.026860134179724895e-02,5.155342919798094718e-03,8.365612240821992257e-03
3.469024728173910610e-01,1.398921222208580617e-01,2.446257497145851254e-03,1.557942238032345881e-03,6.459997771155220718e-03,1.898863808302844389e-02,1.258230630221907620e-01,1.707002937650496308e-02,6.990876201507145206e-03,1.233860077700913056e-02
3.536002673277856556e-01,1.174952099183102228e-01,2.451516335018669168e-02,8.078294445581941919e-05,7.113606878540515259e-03,1.968355622856128237e-02,1.617483698685358295e-01,3.496995211136948167e-02,6.213895515135152078e-03,2.347071070646071164e-02
2.657244403749200456e-01,9.016877033178642697e-02,4.110824141558936523e-02,2.734511406280927537e-03,3.877115790321339177e-03,1.578367825708692704e-02,1.409867775750452135e-01,3.913671913999908214e-02,4.854438042959638433e-03,4.242720609475960497e-02
1.276358580386275088e-01,6.986617128256170095e-02,4.296649770748762337e-02,5.484052315856267033e-03,3.105622675379015457e-03,6.064954550758277531e-03,8.382402347205407389e-02,1.926624864341540747e-02,4.810047244535195499e-03,6.364208962149224547e-02
3.955590134387045043e-02,3.643907042906651544e-02,3.076356262641924411e-02,5.290840752365171679e-03,8.472155438388105642e-03,3.388033854024298692e-03,4.712562812299439519e-02,3.491663493009795199e-03,3.862031307465535381e-03,7.310974873022393905e-02
1.735480846232272667e-01,1.487307268851776991e-03,1.429928141492833871e-02,1.745283651691031251e-03,8.398605219650120968e-03,6.455848937089612646e-03,5.391018807401087853e-02,8.437073908889095725e-03,3.191301931414957326e-04,6.173071632951619009e-02
1.782836145586173537e-01,1.224330706648205785e-02,3.218147084288894202e-03,8.018669050839368709e-04,5.528581438620349536e-03,4.368309480510436035e-03,7.543439922892979099e-02,4.020391535105017483e-03,5.880154118910553562e-03,3.659784333423216074e-02
4.056240743440331364e-02,7.657760295149922125e-02,1.301446380331399344e-03,1.429609680981008650e-03,4.184859684193201201e-03,2.083287772272236684e-03,9.046553585728515923e-02,8.134657902875441077e-03,9.440000100645011896e-03,1.158829373368632995e-02
1.405180449230761242e-01,1.374807815329317506e-01,4.945101686370799964e-03,6.277295184808959379e-03,4.748235556680064848e-03,2.008791136097164143e-03,1.078238730339160650e-01,1.773471261169384111e-02,1.028126739511435635e-02,7.043354734376131021e-03
2.657656359452849615e-01,1.429187086191554268e-01,9.749725446471676354e-03,8.977712595716232091e-03,5.789889040536136400e-03,4.230696427265019308e-03,1.216887548623617615e-01,1.679122093368810506e-02,9.776109747081190154e-03,1.959381144199984909e-02
3.070091678857780892e-01,1.006312776705467066e-01,9.487451707538138365e-03,8.756901188264448396e-03,7.274232721075002926e-03,8.298298067161945235e-03,1.031609082459862964e-01,2.575346770703680621e-03,8.602854184181912833e-03,2.476928931304350073e-02
2.699411460085971437e-01,4.923792556743590565e-02,7.875441370022381610e-04,8.267581521181259149e-03,8.575279973035490610e-03,1.232672585811389956e-02,4.716259165217114024e-02,1.103800604747333033e-02,6.625785434116809695e-03,1.934165665532072351e-02
1.679299180450407880e-01,1.090236571429300388e-02,1.552717254043050991e-02,8.286922202665037915e-03,7.299783810419862955e-03,1.350506569148960528e-02,1.889877962916503701e-02,1.092581665572178555e-02,4.747902954065698865e-03,3.356486049108086192e-03
3.926123210761160720e-02,1.230476192563033019e-02,2.445441114616826381e-02,6.905655404011042629e-03,2.751129125915467016e-03,1.094475907586024872e-02,7.423675609402238806e-02,2.763606890296641146e-03,4.548667384124125031e-03,1.705084976278686826e-02
6.403360509921499077e-02,2.174803151482213037e-02,2.454801507330392485e-02,3.394162748011165208e-03,2.230077250797785331e-03,6.509094128465895898e-03,1.147203274611830470e-01,1.993428789907835189e-02,5.476606488130378314e-03,3.213285571679188463e-02
1.111226413318916056e-01,1.883883721812456072e-02,2.142691863443124331e-02,2.609327467876915423e-04,4.593458979412492864e-03,2.361492332348532133e-03,1.294046334541019139e-01,3.211528818970788013e-02,4.562953251745187865e-03,3.460202169036552533e-02
9.692277218931490135e-02,7.163216450095044596e-03,1.980408746563140643e-02,2.306149654455826297e-03,4.422495584877960545e-03,1.550686834490245906e-03,9.874741890879706885e-02,3.672342166429756055e-02,5.241059561930762941e-04,2.331945406163024245e-02
2.471916102917037783e-02,1.006028410854212587e-02,1.738251554659915252e-02,3.472043167059969335e-03,3.906515708859289136e-03,6.613648934859872423e-03,2.016402998976508237e-02,3.124771300930227064e-02,3.788470862105449474e-03,1.751571268945245358e-03
9.484662094556403633e-02,3.018302209583249504e-02,1.069034777015304485e-02,4.728391814017520248e-03,4.106898402075626585e-03,1.192847672691501638e-02,7.325300195784240076e-02,1.303584464842064486e-02,5.432172692777704863e-03,2.339876811648708768e-02
2.288846857357753894e-01,4.750610954999275742e-02,3.005277262697747444e-03,4.633585439113098274e-03,3.956130169872121120e-03,1.392787914721775426e-02,1.268009083282970462e-01,1.186780161074034098e-02,6.042423343475195226e-03,4.171802816700951461e-02
3.221270485679590401e-01,5.175546883022662248e-02,3.843599382520238418e-04,1.563017698759301168e-03,2.565474738343095744e-03,1.161088689859492325e-02,1.137189497375870884e-01,3.035689705415994116e-02,9.185857120117043445e-03,4.396152243278288879e-02
3.280104104205887605e-01,3.428777186958112400e-02,1.455978850256059269e-03,2.501135521789282171e-03,1.182305869632168174e-03,8.914720965125652249e-03,6.557118781731069435e-02,3.754031598176379297e-02,1.451675795318002268e-02,3.083246514211208239e-02
2.449285203567551639e-01,2.982695173381795951e-03,7.980024698287388691e-04,3.524056993410092271e-03,1.263320726640818547e-03,8.465528801610323201e-03,2.288082009155109620e-02,4.037027653195441462e-02,1.821517602355928259e-02,1.213738416198121770e-02
1.157110649515095124e-01,1.541125434461152258e-02,6.427265955918323379e-03,6.474537989927732929e-04,1.635151067273821548e-03,6.928002941074100536e-03,2.684970450978962225e-02,4.309680684521347699e-02,1.820678075548160663e-02,4.275322947719540669e-03
1.046273718484897960e-02,4.842333417529555949e-03,6.846758988486128551e-03,2.844410505244789923e-03,1.881576321763392119e-04,9.749875193568080696e-04,1.108360417684267213e-01,4.113600444306384635e-02,1.571781054095439806e-02,1.709925053783001650e-02
1.125958827798890505e-01,1.420535416006491608e-02,1.091428288205464024e-03,4.036926595826516306e-03,2.257050267434333821e-03,6.173267015712530746e-03,1.954826705729620084e-01,3.330194792618988708e-02,1.237917344239657623e-02,2.497035190076991179e-02
1.957332639336322455e-01,1.032310834564033851e-02,8.627703662459093245e-03,3.416345174056618396e-03,2.789046816994697909e-03,8.805777298917780160e-03,2.151665935126483575e-01,2.866614085364769735e-02,8.336569985512274489e-03,2.324373943866962430e-02
2.582866080263529485e-01,1.331952850999012367e-02,7.756973315624939719e-03,2.860309484134927575e-03,7.865451406990956428e-04,6.004855344886249682e-03,1.582611115237247401e-01,3.498596295420572377e-02,3.261812615220256034e-03,1.066046248135372326e-02
2.742415193038482690e-01,2.442180340617615755e-02,1.840193673209309429e-03,2.874976291144357328e-03,1.369556062973932564e-03,1.245809346852328175e-03,7.044519328573398131e-02,4.736228198926818039e-02,2.227002942656387471e-03,5.816216823006120640e-03
2.266217464944836335e-01,8.514140365082511000e-03,2.141947683763026182e-03,2.866815438222871607e-03,1.865569266233804181e-03,2.342541636886121600e-03,2.875310170136448611e-03,5.435266389921938890e-02,6.953765341329670030e-03,1.684349784527806523e-02
1.491253506021716912e-01,1.690284208279826256e-02,4.111847602289440615e-03,2.615505549102661951e-03,1.325501839459732609e-03,3.257445572275887574e-03,3.524495502966257937e-02,5.052251140468606155e-02,1.057633105559893649e-02,1.961008834778668955e-02
1.020906035376709375e-01,3.290265301178967039e-02,7.808886146636331675e-03,2.385288106536647725e-03,9.974412139437064534e-04,5.223655084379086409e-04,1.384264202699505078e-02,3.804177350869361596e-02,1.352520015559107412e-02,1.852830532176763523e-02
1.095479784583869992e-01,3.596822428342142525e-02,1.363029051265344030e-02,2.280983408937276285e-03,1.028333698133108813e-03,5.459616045442463629e-03,4.311852694309881856e-02,2.242360779264283496e-02,1.565815253089332393e-02,1.883359328238392791e-02
1.491177883857134900e-01,2.596035188877192021e-02,1.942622767447938978e-02,2.180456446131304963e-03,9.850043951846092563e-04,1.165534393839677378e-02,8.550603019694787144e-02,1.209737314842911429e-02,1.624726331087515685e-02,2.213167071144667153e-02
1.950039751970521207e-01,2.401741315025269531e-03,2.351273288614368767e-02,2.032881097020886388e-03,8.031061608556926351e-04,1.434670738541099326e-02,7.378010937135491554e-02,1.446668141134496190e-02,1.531677990740307194e-02,2.702843209498374810e-02
2.387382669101156263e-01,2.787161454640791833e-02,2.420919749560020151e-02,1.894227437212821566e-03,6.782313323571004509e-04,1.251337307524003420e-02,1.298271629513298234e-02,2.734233163522201832e-02,1.392328412724312334e-02,3.186476145227085111e-02
2.743262072925531925e-01,5.504458442767888593e-02,2.074404454378023233e-02,1.788182797866919591e-03,6.414405980393070522e-04,8.171843576905837153e-03,5.514286396454127354e-02,4.019155528381159609e-02,1.308029796065828844e-02,3.693117648748667908e-02
2.926800132624292616e-01,7.469203112943460787e-02,1.567876500294613021e-02,1.687862410425835721e-03,6.006613166582169556e-04,3.589023195434244088e-03,8.397705078610320784e-02,4.521464786949939280e-02,1.276632309323106132e-02,4.383599739968546682e-02
2.913224379016146059e-01,8.552052643150745426e-02,1.290523539590063620e-02,1.580736146161900628e-03,5.387561680040497351e-04,4.995117036690869834e-04,6.071752642887966178e-02,4.269303300555009340e-02,1.186861766725882429e-02,5.190131992863085408e-02
2.727411923601070209e-01,8.782594555924909396e-02,1.354813772296384333e-02,1.478021448303447252e-03,4.967305041735376857e-04,3.641447563574660810e-03,2.012458453835212421e-02,3.725061138569379232e-02,9.654144053540534773e-03,5.697034478433186250e-02
2.372109550001291478e-01,8.788340023133972556e-02,1.637865629816478291e-02,1.384434835492271212e-03,4.808977599848349247e-04,4.349644811526120342e-03,3.491545680298021453e-03,3.323368224596772585e-02,7.443835803573136192e-03,5.576467782972140824e-02
1.912214950816473191e-01,9.425301012678533041e-02,2.053034737133772533e-02,1.293463630521347061e-03,4.696693151051370028e-04,1.760253736095263120e-03,1.390111634417347773e-02,3.262828256138149835e-02,7.080943389838998889e-03,4.941851090914915062e-02
1.559833836071050361e-01,1.068975102816196177e-01,2.517852082037044803e-02,1.201511712291286008e-03,4.571677179771911235e-04,2.175823713571486961e-03,3.156244998821725739e-02,3.460892787596119013e-02,7.514562032393429757e-03,4.056305279867374047e-02
1.499479591800601530e-01,1.176917523269587068e-01,2.842949030134668542e-02,1.110325397735431943e-03,4.506391761288680749e-04,4.175327520175764820e-03,4.572121555833869033e-02,3.657605001696950797e-02,5.851731546515193984e-03,2.957859977732188797e-02
1.640302229924312793e-01,1.233636071692544162e-01,2.916737424175647186e-02,1.020436717129883470e-03,4.500732680786549765e-04,3.011262870029668762e-03,4.544009990513643571e-02,3.636323273252036609e-02,2.280687587859697545e-03,1.663359376725973005e-02
1.694445730943941464e-01,1.291986700459162030e-01,2.846216228836018214e-02,9.299820694948725177e-04,4.492589827814052073e-04,3.233450561226131233e-04,1.358769101134208943e-02,3.311264940621110042e-02,3.157930680569979477e-04,4.892432206004220137e-03
1.515610613263551343e-01,1.348988222312583474e-01,2.704061827100647658e-02,8.377890995975095182e-04,4.454092658079411050e-04,4.932092344706316342e-03,4.135405095424932176e-02,2.462175905772224366e-02,1.450328746589377204e-03,2.107028707313032302e-03
1.211738047621839925e-01,1.256936755424035435e-01,2.345402786677400556e-02,7.439944071488799240e-04,4.388071803394206312e-04,9.665535366539784040e-03,7.905171530654341028e-02,6.703043592330110850e-03,3.202515323138728845e-03,5.136746676570357224e-03
9.002685164194917933e-02,8.897441728811460171e-02,1.727193350399114022e-02,6.486275186820658666e-04,4.283631143168089130e-04,1.119831369865263888e-02,7.519109520035195671e-02,1.940987064727422995e-02,3.200451194229599842e-03,7.876059467912107856e-03
5.516998249142424787e-02,3.614190452655076380e-02,1.194076302847336610e-02,5.513206545741043381e-04,4.118809782740913937e-04,6.672637623717720193e-03,4.676433618582358925e-02,4.161488460225862968e-02,1.995324738284932464e-03,1.135426071788272866e-02
1.680375900941350961e-02,3.986654027840571060e-03,1.132132995864487679e-02,4.519786002182458887e-04,3.881855026106673708e-04,1.424829139236208136e-03,1.510183992070573966e-02,4.546986689090994072e-02,1.081231067224677420e-03,1.331539356200238042e-02
8.314522320341893175e-03,1.444606139652638427e-02,1.459986367963879081e-02,3.509269631068003600e-04,3.568579609339588444e-04,7.235320179113734207e-03,2.383644937013455062e-02,2.845863136378275898e-02,6.517678895491441256e-04,1.260762541046835279e-02
7.546653958501466086e-03,5.689333845566392489e-03,1.742811127775260177e-02,2.485981977004297514e-04,3.172774831898290005e-04,8.596319832419836021e-03,7.280982283894575635e-02,5.472099882315390254e-03,1.651678350550668962e-04,1.021544551219038741e-02
4.795065918914445668e-03,7.923042948049449641e-04,1.738336827448558330e-02,1.454499894683402661e-04,2.691973577885542544e-04,8.267343755625320909e-03,1.039838810687384457e-01,6.607328097631963047e-04,4.618647933955582173e-04,7.266830937201965504e-03
5.083134770284825077e-04,9.435811513987356694e-03,1.569653625089106538e-02,4.209689737314441889e-05,2.132043422302603935e-04,8.674287675517458954e-03,8.289959023051618470e-02,2.760602360061521765e-02,9.794463479236943312e-04,6.490594142373039277e-03
2.778033662851890281e-02,2.042193820641169388e-02,1.406482090083433639e-02,6.066983842775868266e-05,1.495077827668485218e-04,9.189674613387701849e-03,1.292379886370420908e-02,7.353339726429319878e-02,1.343948306517456356e-03,1.225731779551580622e-02
5.449930323422224471e-02,1.936247884646333586e-02,1.271401289691581615e-02,1.619688370918625337e-04,7.768837944320348000e-05,8.149790261468137578e-03,6.153968921932215230e-02,1.096887353647950369e-01,1.670461715745173671e-03,2.349749384196861066e-02
4.932016232133017153e-02,5.702227543411316629e-03,1.172293359097195328e-02,2.608685522646922396e-04,7.406295173824620342e-07,5.010987899975383880e-03,9.550183440103567067e-02,1.189478234654540445e-01,1.980884731988365351e-03,3.106283510952340121e-02
1.226171128991985007e-02,1.144479177628686395e-02,1.114453684505796460e-02,3.563806294338632118e-04,8.214426431255730603e-05,7.873907262323514991e-04,7.965335410888652046e-02,1.045879637066258194e-01,2.222967709140373765e-03,2.776549917599271597e-02
2.689364926004118861e-02,2.205386951362540288e-02,9.024655329953229152e-03,4.474773510865984313e-04,1.663166502633775252e-04,2.818433048219729387e-03,3.628056061004625299e-02,7.463446187872457838e-02,2.388410171463589519e-03,1.640952344804144647e-02
3.808697750929922188e-02,1.292727412289126562e-02,2.038859152129778030e-03,5.331331248759846406e-04,2.569562507843504507e-04,4.956729966040724841e-03,1.270461627122082895e-02,3.464155659747111815e-02,2.505332671061280634e-03,4.396154896749201145e-03
1.235801969473284724e-02,2.624449870996612907e-02,1.061312750915927028e-02,6.123560251497168257e-04,3.499282984496813109e-04,5.906887989486487960e-03,6.055205447579765921e-02,2.226085934972145755e-03,2.582808263013596818e-03,3.966164351307429649e-03
3.539283104061814733e-02,8.278792730547387957e-02,2.527505704162601174e-02,6.842080148645646089e-04,4.321479139652322941e-04,6.035508575360237944e-03,9.638338518720139525e-02,1.946094635131240258e-02,2.613605560283398417e-03,7.815203149346919981e-03
7.490826869995667603e-02,1.229111741440380434e-01,3.627519464460474130e-02,7.478285485287474582e-04,5.067586028198150638e-04,5.800346992010305125e-03,9.346122925816131854e-02,2.181842599412482653e-02,2.600069632287953323e-03,8.357193947156444161e-03
8.336294969813680400e-02,1.253805062984316709e-01,3.993285561808508632e-02,8.024613530362494042e-04,5.962814312735030672e-04,6.100015356852884346e-03,3.970076143088935305e-02,3.457426931025841393e-02,2.553009589197453161e-03,8.705637053039363277e-03
7.045249262714407823e-02,1.008364245746151272e-01,3.655105567971135561e-02,8.474769960006782021e-04,6.890693957212483574e-04,6.838085713630085404e-03,3.158857579528607379e-02,6.142166036691545927e-02,2.479407532968927116e-03,1.093403615179771964e-02
7.065260622028370074e-02,7.169066927680244061e-02,2.888260507402885466e-02,8.823905116542723765e-04,7.313433374060300573e-04,6.332974788533746006e-03,6.921782724507258289e-02,6.539790907061771019e-02,2.382620767301561922e-03,1.298461614464903498e-02
1.010531361985665677e-01,4.739785877876888376e-02,1.946018690240393367e-02,9.068758794971887478e-04,7.414895101367601068e-04,4.171340257807334452e-03,5.918228562388265501e-02,1.712732874783863546e-02,2.267963539275615059e-03,1.156607183367520768e-02
1.361601029400424934e-01,2.579078547948033054e-02,1.035885022287657241e-02,9.207767967335135769e-04,8.303118297461177608e-04,2.991277394212616195e-03,2.789599320866293156e-02,5.641795015979405442e-02,2.142498390686631976e-03,7.677866714083260609e-03
1.342425696239846478e-01,5.462974427724420767e-03,3.864319647382113802e-03,9.241142892631813016e-04,9.575973556788944588e-04,4.983919215002114052e-03,5.006417061537879812e-03,9.835660728756237536e-02,2.012239258700852709e-03,6.282035671460746429e-03
8.432465752846943219e-02,1.242607548532605882e-02,1.115908367717726368e-03,9.170916960090595010e-04,8.797193527127931609e-04,7.907165305762162838e-03,4.562841251546750215e-02,8.417850476916911850e-02,1.882045792792966851e-03,1.010585479202671423e-02
1.865713196718522468e-02,2.759646022745208122e-02,1.474181709132950033e-03,9.000924959804224371e-04,6.643534250957215496e-04,6.975488146017267028e-03,9.058936970921092902e-02,3.730171084211221511e-02,1.756770524763213081e-03,1.593590294113913022e-02
2.624732621073732480e-02,3.884512110458263751e-02,4.483924507341551825e-03,8.736691337444425906e-04,8.744629797595338157e-04,4.768078801529550118e-04,1.058642459574452438e-01,6.861276084611202079e-03,1.641159900704642922e-03,1.832595734499475881e-02
5.339449664242985200e-02,4.366366997721247978e-02,9.967203831789723037e-03,8.385336686554509169e-04,1.633214348450006065e-03,7.886187235675006652e-03,6.734208447895224936e-02,3.482160546033472026e-02,1.539171002598382649e-03,1.588994325060502644e-02
8.687615588658734178e-02,4.444990503847191798e-02,1.559214324474881772e-02,7.955548683812170519e-04,2.071198703246750986e-03,1.257219188299363820e-02,2.637160366315728123e-03,5.279676260700029433e-02,1.453913405607106316e-03,1.175874628913906039e-02
1.124035863983392780e-01,4.833344211011268710e-02,1.778604675527820436e-02,7.457387905096350949e-04,1.550805650241000736e-03,1.156747864325853234e-02,3.890058048000916147e-02,6.298007636205123216e-02,1.387891312146360013e-03,7.975346135312980783e-03
8.519160844556444845e-02,5.428366571680897507e-02,1.558335685936233610e-02,6.901832694166869057e-04,7.112728112310938997e-04,7.535409705692958787e-03,4.336248930589967771e-02,5.947701868083631049e-02,1.342916624448620404e-03,3.185003860852104497e-03
1.011483185127812906e-02,4.854730388728146356e-02,1.102397444661446999e-02,6.300565914763604433e-04,4.235999650158240671e-04,3.959919042783426220e-03,2.898072472695869400e-02,4.905683640436232784e-02,1.319906234010754164e-03,2.786619293744975988e-03
4.756866540283766209e-02,2.366399394938071069e-02,6.520852743526523929e-03,5.666236647601989671e-04,5.661398859163774841e-04,1.828736608503805147e-03,7.435921940363256731e-03,5.044907602761666138e-02,1.318993955669269273e-03,6.867756848984132162e-03
5.317405053257147352e-02,5.120752835849787937e-03,3.642217744144915070e-03,5.012145028413659198e-04,5.773425631653416202e-04,7.220914205984622089e-04,1.317012618965469894e-02,6.207157757004515969e-02,1.339722390755434091e-03,7.872920097727142616e-03
4.147579830990185540e-02,1.708525090481821662e-02,2.793889460212372906e-03,4.350843963136559077e-04,3.908092695586403743e-04,1.165224056149059871e-03,1.095726024436230982e-02,5.660602497909331121e-02,1.380823946546641621e-03,8.985517833593300446e-03
4.701501364074053835e-02,1.514278835619352510e-02,2.834296705500215577e-03,3.693911786117723460e-04,2.512801487943785040e-04,4.051591922763895896e-03,2.047074568236085038e-02,2.088527714463475626e-02,1.439986427526545286e-03,1.255939399564294512e-02
5.846629714637292113e-02,2.061241712259802988e-02,2.438560669576555432e-03,3.054057215417043357e-04,1.998946375450091570e-04,8.417636856738366924e-03,4.755156757955981972e-02,2.369066413159484283e-02,1.514454905088524674e-03,1.708415883071592867e-02
5.843577972466511977e-02,4.025344381728782062e-02,1.971707988673954397e-03,2.444794366433060136e-04,1.265689170215777580e-04,1.144463402379742624e-02,4.000098451291474871e-02,5.192073026339323605e-02,1.601684789177963350e-03,2.124206518199843116e-02
5.515986205810939624e-02,5.676685846911724148e-02,2.493328968871137349e-03,1.875104648465665926e-04,1.341761826194386251e-05,1.101212007886814663e-02,1.420101757257257943e-02,6.214181905027675590e-02,1.698298360993961715e-03,2.607319249882601025e-02
6.161330804091826041e-02,5.472657865357583723e-02,3.402456752084729013e-03,1.349209220180658893e-04,8.550383755219137711e-05,7.471742916076242608e-03,1.995710840912000121e-03,6.310340767105176996e-02,1.798952376548521026e-03,3.134371832908976890e-02
7.940945343530735057e-02,3.941785105148721408e-02,3.044433926273365770e-03,8.772521977199997383e-05,1.584994199162529076e-04,2.736622069870750431e-03,3.393953857661731899e-03,5.550140837347732753e-02,1.898839477195843426e-03,3.431246201940559709e-02
1.054292514835823841e-01,2.406444316476632692e-02,1.361792247606541514e-03,4.754430618780753444e-05,2.282691763642157859e-04,1.536872519266922320e-03,1.500424460263902714e-04,3.866269064429692093e-02,1.996487916711147878e-03,3.351586500054743595e-02
1.309557169764051232e-01,1.110412819689502416e-02,6.225699754494823726e-05,1.427268071877538951e-05,2.983524394999258113e-04,4.423325127053665852e-03,7.447206245315019651e-03,2.194019693057014733e-02,2.088835762877612901e-03,3.008475421009006862e-02
1.420260406967945588e-01,4.284069984876957490e-03,4.329915196529929202e-04,1.405302895364146849e-05,3.562517704422135819e-04,5.320344247964302158e-03,1.999948038903746200e-03,1.532688856473184320e-02,2.165482066805636801e-03,2.513985636647583441e-02
1.339138865783049692e-01,1.809062266224345863e-02,4.426239403351763229e-04,3.630256999892695659e-05,3.985942938956112428e-04,4.520076515891405591e-03,1.620838733397242035e-02,1.144604391375587255e-02,2.219412735523805091e-03,1.937169362977198342e-02
1.135473842027833052e-01,1.721094676229981482e-02,7.459501654865903584e-04,4.785630496268665187e-05,4.300119499939689615e-04,3.986769351953743309e-03,3.122168436748552073e-02,6.598931507173560682e-03,2.259904497400246938e-03,1.439354420646262248e-02
8.686713131305030811e-02,2.146002331768452273e-03,1.188952501269647600e-03,5.116986685105228100e-05,4.513697262957612933e-04,5.515744619671744849e-03,4.046023790243861995e-02,3.246050596569756419e-02,2.290289010345116730e-03,1.123339396940437052e-02
5.978535752620278698e-02,2.510859409412379006e-02,1.443940598820671545e-03,5.688177947148894081e-05,4.601627486088437683e-04,7.816849738827095703e-03,5.499729783213277295e-02,3.308436772654688857e-02,2.280127218588269729e-03,8.319535060882839866e-03
4.557179584106843540e-02,3.263296673539321791e-02,1.494516822606554475e-03,6.125356337893492523e-05,4.560443542815996757e-04,7.841143099823338902e-03,6.888223159253624439e-02,5.445651771710438745e-03,2.212252971594440808e-03,2.721953943259470578e-03
5.161118942497469608e-02,2.088609494452055987e-02,1.542265966147879494e-03,4.317612080634218537e-05,4.407014798441880868e-04,5.438342209120360440e-03,5.967788050463916638e-02,5.074665231977760343e-02,2.143671565102645872e-03,6.868078277405443785e-03
6.052512060329046095e-02,4.235489578911889180e-03,1.753309388136897393e-03,1.222086461003589843e-05,4.152368515905145024e-04,3.916176774307085842e-03,2.905498830869528495e-02,6.211622905796906902e-02,2.106884314560853334e-03,1.711242982267510010e-02
4.351399218876289554e-02,1.149035378506600702e-03,1.932621895749341923e-03,1.623116392453498487e-05,3.801714202901230739e-04,5.261121325881977333e-03,1.337929830910700342e-02,3.709437683558802074e-02,1.977402688988395482e-03,2.024152475103171631e-02
1.330913581528678918e-03,1.616587986645675462e-02,1.619247073540317156e-03,3.882366863164102527e-05,3.366607437585687496e-04,7.625392799975492901e-03,3.555165468931797274e-02,6.368073687911571593e-03,1.681136245242357630e-03,1.195320754213289108e-02
2.552930368272282591e-02,3.533682741676000966e-02,8.621034690900117575e-04,1.970975109207519682e-05,2.864615423988059440e-04,8.576373223158944431e-03,6.936244227519346162e-02,3.403682429036259532e-03,1.483076619346300647e-03,1.247772694617390807e-03
7.181386652769978368e-03,4.056336595932429762e-02,3.524430124333143878e-04,1.240936401886984187e-04,2.312552345488717875e-04,8.246445965568397624e-03,7.464879146341171778e-02,6.998014501672956966e-03,1.552210976213407468e-03,8.650975296054866370e-03
3.308195694295013034e-02,2.731625335891652712e-02,4.192680131731478868e-04,5.476356499740161077e-05,1.726037185058835479e-04,7.970603662076754248e-03,4.812855002386640102e-02,1.717863908914647741e-02,1.327915116590242493e-03,7.581955578013443130e-03
5.237165827295400811e-02,8.686448861608556463e-03,8.068203375243015616e-04,1.310059979977039378e-04,1.123217144619698897e-04,7.741103371066632328e-03,1.406082521116597955e-02,1.248533260796225522e-02,4.191569485290279557e-04,2.963402498178068206e-03
4.162623855089260527e-02,2.812953566733871619e-03,1.337298146738478792e-03,7.688925362939353096e-05,5.242768014873691010e-05,6.266631260400955944e-03,1.574540659876045093e-02,4.599227612209232964e-03,8.814456669846047147e-05,7.623788369671251341e-04
1.532085548806420318e-02,1.419044130642227279e-02,1.311263864402667945e-03,8.205696579214571658e-04,5.350376241720404221e-06,2.708913670422953557e-03,4.329512739251301090e-02,2.544598700750824033e-02,1.795663345103662737e-03,3.205553329085697803e-04
2.358888904599673250e-02,2.936259334419071693e-02,7.776318900440113476e-04,1.341626107168290795e-03,5.961138339613079054e-05,2.116345068410982119e-03,6.061859921044280425e-02,4.145937934923795559e-02,4.041048551004385557e-03,7.610749358616273816e-03
6.899676651527564264e-02,3.342337037013920487e-02,4.616295121131485345e-03,9.620511226710433622e-04,1.085750533808038968e-04,6.077452318429189815e-03,5.474097931117224980e-02,3.905276037427100888e-02,3.631530125547048019e-03,2.057584801272753158e-02
8.741314862290358589e-02,2.379467491013443486e-02,6.781921339481851267e-03,7.689336324210929437e-05,1.501310273729354779e-04,7.513504135795412084e-03,3.219908239827001806e-02,1.055117025380982246e-02,6.455879350707402226e-04,2.860734960405644442e-02
5.532554409796251738e-02,5.934168913379162316e-03,4.957915221768832703e-03,3.761027758613288627e-04,1.833794576258383541e-04,6.636185624182297169e-03,1.427357798573869636e-02,2.634053113225239343e-02,1.394978640942647541e-03,2.498493127670982361e-02
2.717222041699765209e-03,1.223009287252789339e-02,1.519821857567179788e-03,4.309866636797411927e-05,2.086773938616229708e-04,4.763432878293365723e-03,5.562743197974754847e-03,4.348519592129442696e-02,9.100761446353819104e-04,1.481481752534082388e-02
2.772491454874401878e-02,1.923619905903664606e-02,3.928225487942502110e-05,8.945155912258212537e-04,2.244974316874158101e-04,2.788154684155794670e-03,1.101551947818853704e-02,4.054351902286220527e-02,1.054146279811371610e-04,8.035849293019205544e-03
4.265733951737056551e-02,8.158109332048369897e-03,4.708295982609834248e-04,1.240459705303403968e-03,2.273351792509803557e-04,1.300300015723699146e-03,4.067319059552570309e-02,4.260561124112489245e-02,8.277031944991060028e-04,7.303503633616505869e-03
6.760567607557255165e-02,1.026115329925095070e-02,7.164485698629230806e-04,6.859350350021239592e-04,2.184608429219573233e-04,1.270867983363073222e-03,6.042122512581117599e-02,5.589644735616221272e-02,2.101048787690698583e-03,7.457536759019949175e-03
8.593917160588208926e-02,1.470539191955016860e-02,6.789636178029598160e-04,9.100199262234744124e-05,2.043371198922600929e-04,2.931565166287965294e-03,4.882735853744057941e-02,5.613404245428778305e-02,2.552088241319993168e-03,4.345824575948101579e-03
7.039736754525331708e-02,1.538809295512002379e-03,1.719925494654012815e-03,3.318845128209592637e-04,1.822452504428369747e-04,4.728574068029861403e-03,1.267647394877977930e-02,3.058626840603530239e-02,2.426377063419454545e-03,1.290302924987781798e-03
4.420485378495748324e-02,1.991167788813339584e-02,3.814812669624897522e-03,1.787674668437112357e-04,1.390202860987659690e-04,5.194449342371920166e-03,2.800614805601997839e-02,2.702669860738791431e-03,2.429990777793040839e-03,7.359023678480519290e-03
4.841552655294327490e-02,1.723684958148813742e-02,5.722669725490216186e-03,1.417092311588182777e-04,8.169054305297899457e-05,4.851991180029963970e-03,6.319310864748588219e-02,2.573133553160059550e-04,2.599940462890370802e-03,1.241472192419357939e-02
7.449866277910531520e-02,5.964531186679739722e-03,6.501253950286082703e-03,2.779550711086575137e-04,4.093579602184966654e-05,4.622829630055457634e-03,8.961041456754995083e-02,1.695845266225948222e-02,2.815950315400079975e-03,1.504212465041620053e-02
7.948889903253691935e-02,2.662462534314436607e-02,5.479021537369747376e-03,3.678699993052506338e-04,5.681971360487052687e-06,3.906514588436289966e-03,9.961684357513364563e-02,2.733018861664752996e-02,3.009952404964238125e-03,1.559852208174868429e-02
4.611750620343940676e-02,2.813507608381177194e-02,2.670420795754150679e-03,3.760715486040120022e-04,8.607792638579139723e-05,1.825704720122992529e-03,8.547727268410065804e-02,1.371819264556392581e-02,2.783811916052908626e-03,1.611674235526158391e-02
5.657233551668227819e-03,1.466231698719362361e-02,2.373466811727660477e-04,4.022485962447891255e-04,2.079340649201666597e-04,1.029412265440274527e-03,4.894566049408673875e-02,1.513967154195839347e-02,1.998684161229585809e-03,1.480743209380483774e-02
4.786771537386590863e-02,4.683837781378447779e-03,1.471247579887130248e-03,4.628456040387493890e-04,2.217994856197658170e-04,3.080876700097399945e-03,2.716360455624388607e-03,3.328575765400746539e-02,1.456922251823646822e-03,5.872387191875561192e-03
6.430225091939835436e-02,2.580953949797240229e-02,1.532865514308520260e-03,5.098951485009843056e-04,1.750168880274168253e-04,2.990149867685298717e-03,3.480023442529250194e-02,2.354583489422505671e-02,1.847317609610618942e-03,1.079557806032533686e-02
5.230768262073225150e-02,3.843765553238168847e-02,1.939320214842330794e-03,5.335254945018373446e-04,3.608330713774548560e-04,4.773993430006869226e-04,4.923688791203161691e-02,3.339094298428510119e-03,2.552322623673087230e-03,2.593996431885596185e-02
1.626087452730618638e-02,2.909688228236437593e-02,2.494803457874082264e-03,5.549363384091021874e-04,6.894947065127132648e-04,2.889598577347868465e-03,3.984314726752453961e-02,2.425166483600257536e-02,2.596093173309877572e-03,3.078242997152531163e-02
3.613178535072927855e-02,4.645345213434322676e-03,2.043920748471142121e-03,5.783432112136823290e-04,4.841114709244743433e-04,4.243858616865355329e-03,1.868633431274963758e-02,3.359996169494099127e-02,2.127050492894178718e-03,2.485518862229424072e-02
8.569372312374641532e-02,1.134243178646641634e-02,1.115252771743488296e-03,5.927593471089769722e-04,3.407405790836930191e-04,2.194547322917058795e-03,1.707516824144481027e-04,4.031861638671646597e-02,1.954905339056195283e-03,1.332398099408537567e-02
1.013902438225755404e-01,1.326071063818479515e-02,1.412722955173163807e-03,5.945330878216064947e-04,6.737781391726194863e-04,1.546685123793661420e-03,8.528283058671414299e-03,4.211688294009753586e-02,2.094122753128951041e-03,2.531195959726298406e-03
6.668842936940572175e-02,1.837883416250861088e-02,3.026851015962505730e-03,5.888269508513193154e-04,5.394844662617761643e-05,4.444102935382784371e-03,1.055549058262348662e-02,2.646680385040600311e-02,1.743276433997812715e-03,2.990415218995950454e-03
2.759231840282774795e-03,3.239173998362986778e-02,4.346771339513922326e-03,5.791677781018220216e-04,6.400504086176615976e-04,5.545931120795740202e-03,1.308510422524320448e-02,5.198301339896098903e-03,7.378825520785208458e-04,4.238968308457281495e-03
4.691929197346459551e-02,3.870248791035803271e-02,4.570863506473566741e-03,5.623204220832480693e-04,9.098084920386215039e-05,4.458343818546615933e-03,1.457133875036772420e-02,3.430930712715924563e-02,6.651824860453539774e-05,6.810380313711885021e-03
5.523592298518051336e-02,2.715286529012855485e-02,4.422909894133299560e-03,5.328489547691112570e-04,6.007892496516129780e-04,6.330925653228277510e-04,4.071574734571247259e-03,4.676452217448147375e-02,4.011041291033427087e-04,1.349375548391130129e-02
3.416886509646206715e-02,7.679339324307223741e-03,4.552193299535741214e-03,4.947669697991130848e-04,2.339196560496208457e-04,4.479029852334052118e-03,2.010771868972265411e-02,4.660904919966280674e-02,1.051190963185201109e-03,2.051755853036931268e-02
2.145771346903685081e-02,9.855820527104857537e-03,4.760556237300383325e-03,4.603442085013311185e-04,6.216458809376578789e-04,7.389635295719001670e-03,4.084492831854152906e-02,4.900771173771976963e-02,1.124413275072964295e-03,2.307395484587839232e-02
4.218974674964352106e-02,2.854777593974156327e-02,4.753404532288803448e-03,4.249876555005583896e-04,8.537098624758316604e-04,6.413575901164507084e-03,4.201500287483560248e-02,6.453334979837856145e-02,7.809292614939418193e-04,2.159411608255367571e-02
8.502798866255996402e-02,5.032128160400617389e-02,4.612566099755047340e-03,3.652184490621413122e-04,5.468848468866904181e-04,3.230825610942998985e-03,2.877014528713801866e-02,8.876055370736506134e-02,6.261856275765963990e-04,2.001789850041782101e-02
1.245603479308461936e-01,6.454911614581389234e-02,4.476156730947564860e-03,2.922424603000334524e-04,3.773736933808849014e-04,1.720871966427623160e-04,1.603844503435416374e-02,1.078353136644458893e-01,7.002648562403173934e-04,1.966133122354462096e-02
1.594269155523768688e-01,6.160784708026311590e-02,4.310938639320331320e-03,2.594209867083497982e-04,4.343854529823323852e-04,1.549719649035928050e-03,4.426977109805758578e-03,1.154640554679565445e-01,6.862016363324864848e-04,1.800197408459558446e-02
2.007150149120215665e-01,4.754065601553934123e-02,4.057932695815252844e-03,2.479826952544093811e-04,4.242864137348515644e-04,1.241300010918910393e-03,1.746044484207989050e-02,1.140332834733858297e-01,5.899570467678221485e-04,1.400927219961579928e-02
2.227461473649525736e-01,3.264344355803953934e-02,3.738930372869646735e-03,1.470226725616311327e-04,2.995121148824094002e-04,9.238301593928310157e-04,4.901710400957217523e-02,9.527838720283746121e-02,6.822717982733737547e-04,1.186865403289272952e-02
1.764697875047977760e-01,1.628691866632972149e-02,3.389705620577442534e-03,3.051868080784076159e-06,1.980999634569716487e-04,3.118952407038706048e-03,7.330079850091893168e-02,4.449459940044595690e-02,9.006347556668137201e-04,1.636854194465638471e-02
7.387481217714685078e-02,2.103734465204391401e-03,3.013018496236900216e-03,4.176248739295718149e-05,1.465907605248127675e-04,3.402835128165040968e-03,8.083835762498214894e-02,2.341949230815408567e-02,8.521632872748335528e-04,2.550127641159028596e-02
6.536025553838080426e-05,1.098820860738922850e-02,2.608759116428232931e-03,2.143392544329600206e-04,8.328589976257618540e-05,1.876743462212499772e-03,7.919093400339302646e-02,6.410935554682070658e-02,6.900420284338144167e-04,3.231750630943609065e-02
4.590349158984104172e-03,1.830961081107190282e-03,2.187674704131524050e-03,4.752196012520142456e-05,2.422232541677379512e-06,2.088889487721641959e-04,7.093833198640614457e-02,5.760302527661033400e-02,1.190468451557617552e-03,3.528654311623598272e-02
3.870254243049852522e-02,1.837312578889906123e-02,1.757492445098054155e-03,8.660243160185712979e-04,7.923799238492576849e-05,5.460227712210282943e-04,4.445949661516002127e-02,3.158432439612414433e-02,1.985486128760955305e-03,4.043157472455550377e-02
3.200051937231597476e-02,4.067935661742452802e-02,1.333790389232053118e-03,1.370641288183076711e-03,1.393543890377892417e-04,8.570062778279426184e-04,5.264663619822810203e-04,1.886869448449435271e-02,8.148960081725018043e-04,4.936256966215900321e-02
1.641765889467351747e-02,6.135334548322029374e-02,9.458419478323309591e-04,9.225169101878166788e-04,1.950160121146484273e-04,1.610936854550001603e-03,3.285343816005577983e-02,2.100695867841213121e-02,3.389387050738826117e-03,5.300134536908907706e-02
5.641168414651031443e-02,6.819432274337489108e-02,5.931120436935154085e-04,1.595324703047488297e-04,2.479600115617149958e-04,2.687208364333528148e-03,3.064701096656244003e-02,2.182455710088779255e-02,7.540227166023214314e-03,4.414826325412595648e-02
5.493373119389027143e-02,4.450156786422133220e-02,2.414675381846254293e-04,4.874879397500766283e-05,2.906991702071023216e-04,3.209520964050419783e-03,4.278108002298675223e-03,1.145327173290051903e-02,7.343826553348246911e-03,2.961643122473902115e-02
1.783255659307162594e-02,2.308296800115104859e-03,7.552050271542889125e-05,1.745478965526259436e-04,3.207945032848833920e-04,3.036608324833690864e-03,1.100301489001088290e-02,1.125461604902008340e-02,2.836722935174172764e-03,2.273043043779772454e-02
3.308979977737318279e-02,3.823638083616392319e-02,2.515153432178766522e-04,2.663880016771242578e-04,3.404724158994656123e-04,2.884506808426068932e-03,9.018222726053981477e-04,4.311944535898392522e-02,1.820332550787554481e-03,2.781689337415661073e-02
8.479400315198226679e-02,4.030031210404524944e-02,3.289370859352892243e-04,1.589138722442807376e-04,3.501723959871521881e-04,2.810078365828321770e-03,2.105086488355354876e-02,7.554473658104964018e-02,3.640696848379120550e-03,3.584149920774624964e-02
1.395307919340281200e-01,1.913918477734344661e-02,5.142924580627908923e-04,9.546613812730882285e-05,3.486575051774735761e-04,1.959857933167984470e-03,2.660456144342085438e-02,9.870750423835207565e-02,3.118405310209490348e-03,3.351142134301000886e-02
1.958591463537291966e-01,4.118780599497324016e-03,7.013600853233213726e-04,1.158778944702856426e-04,3.356030796278493635e-04,3.057315825203961272e-04,1.912059348200201639e-02,1.110665221743746822e-01,1.730483285069972510e-03,1.686966520752624168e-02
2.243030362627611574e-01,2.561777712268038451e-02,4.179498167212123403e-04,1.088824290726298757e-04,3.115825461034600597e-04,7.184457911938440123e-04,8.199171423044236684e-03,1.155088251419705003e-01,1.171795323626496747e-04,4.142484146139683784e-03
1.880691911176709252e-01,5.031935594149507945e-02,1.105652899711162605e-04,5.556128251834408573e-05,2.777897990296436309e-04,1.009106887141558901e-04,1.034354343851263264e-02,1.056035493160270428e-01,2.373361111225958178e-03,1.618278384990348012e-02
9.866252707807565692e-02,6.827177787042473800e-02,4.464836043608481106e-04,9.109844019070268285e-06,2.360310082680700027e-04,1.254488603913557834e-03,3.812423757195852747e-02,7.047392573718580522e-02,4.077803005783175658e-03,1.454955376252304103e-02
1.669753288700184454e-02,5.923249055342166142e-02,2.555614155324057325e-03,1.944333016537895057e-05,1.868044516326086127e-04,1.811343392159825427e-03,5.804280614736339466e-02,1.617415093199898665e-02,3.660518231378964357e-03,3.662267813625731325e-03
1.927738415336762573e-02,2.188686348774361926e-02,4.185718110394514441e-03,5.325921144850099452e-05,1.291692123462605528e-04,1.434310830413865331e-03,5.752437818216233484e-02,3.299694750258204412e-02,8.253256372046935407e-04,8.116375208320262408e-03
3.038179756469198273e-02,1.809785471045361610e-02,3.052475896716385848e-03,9.612349872636119464e-05,6.590841010586829813e-05,1.142008206072895639e-03,4.778514946208414771e-02,5.888054351398651354e-02,2.472308969644392441e-03,1.259823740081863173e-02
4.761861968332989359e-02,3.553859105431472071e-02,1.066968369823533078e-04,1.355669345546430058e-04,3.869916831780854011e-06,1.253499551831871580e-03,4.099664593405100144e-02,6.259018750359945926e-02,4.011084212131313213e-03,7.190680306721385778e-03
5.923895723961095094e-02,2.822048311240638735e-02,2.511034299104675585e-03,1.680270304744276781e-04,5.770590521152287641e-05,9.842832198716205527e-04,2.984201296121127833e-02,5.209024835403328058e-02,3.700575328224126048e-03,2.317841760979719081e-03
3.364317147041496342e-02,7.131978139552119615e-03,2.951837552207047573e-03,1.977361078540871577e-04,1.283628152254453927e-04,4.412455184030434144e-05,7.789063471312853044e-03,3.256067395446908541e-02,3.032417544229096176e-03,8.614662462047513458e-03
2.470214828576766317e-02,1.886214155947259913e-02,2.691809066528696049e-03,2.249655840205133585e-04,2.014108580520991110e-04,5.988902331790061945e-04,1.121957694478844386e-02,1.078181137298530115e-02,3.034141230344093807e-03,1.189033216075757390e-02
7.205601337929323780e-02,3.917124208915784278e-02,3.352894157131560728e-03,2.464399149998093086e-04,2.508830973949859868e-04,2.262963928676113708e-04,1.244487628897289824e-02,7.410792956605890235e-03,3.442231230768191472e-03,1.763211363912955965e-02
7.675518732131308974e-02,3.842158065170682424e-02,4.891426773669590132e-03,2.608793697737332197e-04,2.851384610751930468e-04,4.800755560542514181e-04,3.560624009996133776e-03,2.215024712220930309e-02,2.928252561200403968e-03,2.645470208796961431e-02
4.786515752435986648e-02,1.126964170034603155e-02,5.416187322696271005e-03,2.689024676059259935e-04,3.549040147255941324e-04,6.133593064169061242e-04,5.001893042304028647e-04,2.736112132084187257e-02,3.401401516805915414e-05,3.222621979535118808e-02
8.078099058296518697e-03,2.854054141646523296e-02,3.422815516527212554e-03,2.704526150769591647e-04,4.390713773361362119e-04,3.171188338185232012e-04,4.924253387482500910e-03,7.955364964227940039e-03,4.978716036612891756e-03,3.179094665958386023e-02
3.298549164168899234e-02,6.210564222613167151e-02,6.385512540121597276e-05,2.648296426401089963e-04,4.245185590312992017e-04,1.722135233590844764e-04,2.642979524911160880e-02,3.239237720658747627e-02,9.399726185783566224e-03,3.076487408852495234e-02
6.912705516561971908e-02,7.913626105996721116e-02,2.615920492062119660e-03,2.519060894016584770e-04,3.495979170143468295e-04,2.370620612856590712e-04,5.746577851017574401e-02,6.430815687386944035e-02,1.034921480919522019e-02,3.648119466959336837e-02
9.006343673910127690e-02,7.540834968022017137e-02,4.768235829053260079e-03,2.321315771486769173e-04,4.565801744982780734e-04,2.597308994912156778e-04,5.948170375097452250e-02,7.297919215504911072e-02,7.625086510945526010e-03,4.939414836965247413e-02
9.457237141033221495e-02,5.213810039622175652e-02,6.898077746827276958e-03,2.059608510088202840e-04,6.769775208336714862e-04,2.045035447669738579e-04,6.747178068506412725e-03,7.655215688664368523e-02,3.533754967211498888e-03,6.364602176276007439e-02
9.114850290488110685e-02,2.304817472708599671e-02,6.675978937362731652e-03,1.738355286271233086e-04,4.475812486723536603e-04,1.861399468503451330e-04,7.446923073785649549e-02,8.898254223765764137e-02,3.846664191043120524e-04,7.221729707471956361e-02
8.375152776993735615e-02,6.828645333283082930e-03,1.944274506565084109e-03,1.364359753330199321e-04,3.544469048352871148e-04,2.207698037105547059e-04,1.300034835421253199e-01,9.722537271300446537e-02,1.087357047809054409e-03,7.092053229131846381e-02
7.477366084769519750e-02,7.305595761273524918e-03,4.644254806427459970e-03,9.467108285884860935e-05,8.588035626029847042e-04,2.530062004323134972e-04,1.349976115154637446e-01,8.884593758404280006e-02,1.368208206619930464e-03,6.187124903019365629e-02
7.598444704567457186e-02,1.366150274295990785e-02,8.294706682718288801e-03,4.953277038838141053e-05,4.264373295578067135e-04,2.728899972686083062e-04,1.089546639569308195e-01,7.146652123118835132e-02,1.211593182264227974e-03,5.296056750734316060e-02
9.156639631796885392e-02,1.917523104726573044e-02,8.197814373047842065e-03,2.066645117694079035e-06,3.053673762720155718e-04,3.032616501336315366e-04,8.115371438211743671e-02,5.249334159649178544e-02,1.063423420992034825e-03,4.934056585421315450e-02
9.765740432233933899e-02,2.428109787166262551e-02,7.050738162022535116e-03,4.659668704443229744e-05,4.680285481407468209e-04,3.450560169619039386e-04,6.070906476181708172e-02,2.679667163783915756e-02,9.865163353321645956e-04,4.630270512567948027e-02
7.375223013657415672e-02,2.653981790571360161e-02,5.182576371775536941e-03,9.526716762658095871e-05,1.860166945580863133e-04,3.857713620361176410e-04,3.738120293024984470e-02,2.919190220763884930e-03,9.495037617706479508e-04,3.513994178221684778e-02
4.594550314857090423e-02,2.407116196810632838e-02,1.963417187275369544e-04,1.427521439458277015e-04,2.404169338637730243e-05,4.250258131496972521e-04,2.014967744389901168e-03,1.812117585193119551e-02,1.005296368782257043e-03,1.473508960602494013e-02
5.370476970207364170e-02,2.146095334613078165e-02,8.654920813930513240e-03,1.878881590838339026e-04,5.192132532801911496e-05,4.642033545985658973e-04,5.402416144740718185e-02,1.016256215280958441e-02,1.087052822735318051e-03,6.576052291895295027e-03
8.594465808788970262e-02,2.178487055305537712e-02,1.425836845905176405e-02,2.295578677413433232e-04,2.850968110716639554e-05,4.947274097903271413e-04,8.840106981798787067e-02,7.796518341897568094e-03,1.010708875496839874e-03,1.904171905820161922e-02
1.019154937412086043e-01,2.371144983794647859e-02,1.279090103296518649e-02,2.667175195247870967e-04,8.365160820600578439e-05,5.172763972985670910e-04,6.968942552105680810e-02,2.426281221361662951e-02,9.673696812010516627e-04,1.867272369165916615e-02
9.724673095783717414e-02,2.800782691719745643e-02,7.257320325473739370e-03,2.984294862225129476e-04,1.708011220952776476e-04,5.472862408925631850e-04,2.490440724031968076e-03,4.167923058374248257e-02,1.397956861909334814e-03,8.512633958642799176e-03
9.352683923776554387e-02,3.205000008951248286e-02,2.927492348245003002e-03,3.238868405451556225e-04,2.114693806545681054e-04,5.751928914270042388e-04,8.773338228082450119e-02,5.758730512169180776e-02,1.854695437941830108e-03,4.234919348971855069e-03
8.179698563964299396e-02,2.398725188774853204e-02,7.540701583494882751e-04,3.424314760019061057e-04,2.563090238712327105e-04,5.631932421208674360e-04,1.434545284746169824e-01,5.633305567477069065e-02,1.032938437377497456e-03,1.293981570874564238e-02
3.360680497254814325e-02,1.378554590313165254e-04,1.272046179510157374e-03,3.535710297600594409e-04,3.138781345196655541e-04,5.297888936098088747e-04,1.543689529387010095e-01,2.784923847148217807e-02,1.013961696268956192e-03,1.622614844801476691e-02
4.015978105407000398e-02,2.116543745446596708e-02,3.576030509544800024e-03,3.569932543032281087e-04,3.586799037648736883e-04,5.545458575024913607e-04,1.272349862688372801e-01,1.930852708462242606e-02,2.049759734392686376e-03,1.795453846951861401e-02
8.946961049019176715e-02,2.167199599791485090e-02,4.735324948651215698e-03,3.525747740128415885e-04,3.847865371774983096e-04,5.976887581103279600e-04,7.758513894056981441e-02,6.425439498186323595e-02,5.833897449338670002e-04,1.973144382429489058e-02
8.735152627224057609e-02,1.124932435806203640e-02,4.339136407333173649e-03,3.403843922398048713e-04,4.027730605296672576e-04,4.870473390192377595e-04,2.145275076102752185e-02,8.422536897103460873e-02,1.850842433206578361e-03,1.613728502330542824e-02
5.688160854621331780e-02,1.584817552439027680e-02,4.076450551423166369e-03,3.206821180137842142e-04,4.146033999350442708e-04,3.055882762534230528e-04,3.272254837018442886e-02,6.767762505264884876e-02,3.000960273614784474e-03,3.666906259911888177e-03
2.617529146936067169e-02,3.928909328259318212e-02,5.072339509635349908e-03,2.939137522953724573e-04,4.147827523186228046e-04,4.378581785434041904e-04,8.006116354669413904e-02,2.694421983886059746e-02,2.897667518745414283e-03,9.483324249472463094e-03
1.215915759092753637e-02,5.325975528825639682e-02,4.842534192338364754e-03,2.607005610389736281e-04,4.021452973218763946e-04,6.982827921113835858e-04,1.045734147280300563e-01,1.052123704552604400e-02,2.890328048663340019e-03,1.167026697215724912e-02
7.145162522970169294e-02,3.295659360101226010e-02,2.469935207657312495e-04,2.218243529782251765e-04,3.794629833783183981e-04,5.394064056545808681e-05,8.694213335548692245e-02,2.673377366095373853e-02,3.212752756179779092e-03,3.072398618329520888e-03
1.243996006012734745e-01,8.642468411742364534e-03,8.800686109399203511e-03,1.782086023664114559e-04,3.479156472443705318e-04,2.351001085567442153e-03,3.657203637344069724e-02,2.189177972465982183e-02,3.281150167863670052e-03,5.708719548500526368e-03
1.262713651589815189e-01,3.489825382438077606e-02,1.440268909046718213e-02,1.308960469415766312e-04,3.071913381175560959e-04,4.600574078349368295e-03,3.932815907931915510e-03,5.402919338081394428e-03,3.345119343356578977e-03,7.597714932770035026e-03
7.693376171751829806e-02,2.622247193569392232e-02,1.309996218040757575e-02,8.102318032366810684e-05,2.580522384675534723e-04,4.626422979450962869e-03,1.738416288469817918e-03,1.277530104359500540e-02,3.918421565222910199e-03,3.735991964064410038e-03
2.183149254758754224e-02,4.713195258924383554e-03,7.209789592506178103e-03,2.979228117570937928e-05,2.022856545771455712e-04,2.538938251100046704e-03,3.218017769163548231e-02,2.881617619125436888e-02,4.056281943516582694e-03,3.121388256892704272e-03
4.613870515275376137e-03,3.016882245094774581e-02,1.000646848058641758e-03,2.155826633885408067e-05,1.414606642185888127e-04,4.917208613398631103e-04,6.463304749344554734e-02,4.399235175534699227e-02,2.389698112286307418e-03,1.161198846923432344e-02
2.450926872653124214e-03,3.186481249638142832e-02,3.531040728513765853e-03,7.178462839479803200e-05,7.688776177352087474e-05,2.210587195772130518e-04,8.302995270745189282e-02,5.106259246692256004e-02,1.164926021403751540e-04,1.954351435709363038e-02
1.950687304291151905e-02,1.568909785873387128e-02,6.153310243339812219e-03,1.196684184539396781e-04,1.014682186498137205e-05,7.625642980088796438e-05,9.905324942997723037e-02,3.542134059332056190e-02,9.124423607788575974e-04,2.605769264148275269e-02
5.594820973087993865e-02,4.057983407011644256e-03,7.233842351267685822e-03,1.640470610111537943e-04,5.694556392286580584e-05,3.700851708139677116e-04,1.142719752967318592e-01,6.288761456737439019e-04,3.561465217306281571e-04,3.458984556550144529e-02
9.281205858962478239e-02,1.093242749563013913e-02,7.750393993041572102e-03,2.038428475541233242e-04,1.226445223289777183e-04,1.058003365518206699e-03,1.056401448350059447e-01,2.819368593297373604e-02,1.405499853864453259e-03,4.649300539750453320e-02
1.119582380183945652e-01,3.104205722056293040e-02,8.372453964074825367e-03,2.380899551183021331e-04,1.853274681571704155e-04,1.489115477584730283e-03,5.852400196238931318e-02,3.783502744534689155e-02,1.042590173255935563e-03,5.377542420083175623e-02
1.090112552896117804e-01,5.335258729276033673e-02,8.690769484640547410e-03,2.659587522890811311e-04,2.434121071903796530e-04,1.104403230253973769e-03,2.304703853387430126e-03,3.984329631330001814e-02,8.958920406415805081e-04,4.753737382790500232e-02
9.011347387904028450e-02,7.139494530797310667e-02,8.770463537034780405e-03,2.867767767832648607e-04,2.953917217096191958e-04,3.741072566928498521e-04,3.609191336673718553e-02,4.211851145605951391e-02,2.507571921148183877e-03,3.345449767966878624e-02
5.594592994239357825e-02,7.944914446799054841e-02,9.932638060751487752e-03,3.000458475823992088e-04,3.399306122698232810e-04,1.285926060792211170e-04,3.174499314955153695e-02,3.351320839946120289e-02,4.101350833909617709e-03,2.768176227892074973e-02
2.546461464080012130e-03,7.211326060034155272e-02,1.157708312846911398e-02,3.054548728446860478e-04,3.759005832052396108e-04,3.224192592896862972e-04,1.002386436695762092e-02,5.127560345108484949e-03,1.836568451574090198e-03,3.427993638257983283e-02
6.262292833856931973e-02,5.074822504341363477e-02,9.345633074511795063e-03,3.028880225138669280e-04,4.023824630576921906e-04,4.119398136968684034e-04,9.223076684512738349e-03,3.153661777020479173e-02,5.111606780963563225e-03,3.848823954546046200e-02
1.141839295297889662e-01,2.433175482435793666e-02,3.983650458560388267e-04,2.924280480850367792e-04,4.186875778086985634e-04,2.926634001531849740e-04,1.773184703401237475e-02,5.408017393202219081e-02,1.218740318118607946e-02,2.864556644055716444e-02
1.270780599494308605e-01,2.853023742566903470e-03,1.120925673505956260e-02,2.743546520924421465e-04,4.243876470368509383e-04,1.977897937676198839e-04,6.775749837835738469e-03,4.895812807751224321e-02,1.427273144737748259e-02,1.317622051947654749e-02
1.025705836744802424e-01,1.082421489151839250e-02,1.872700531203402505e-02,2.491379340445379733e-04,4.193264863573217425e-04,1.853187035847179292e-04,2.649918113448519047e-02,2.212002009315229556e-02,1.163516191376371377e-02,6.746219505820531641e-03
6.685842508836430109e-02,2.269824307800600433e-02,2.035154401993006373e-02,2.174270630062179362e-04,4.036180545528814828e-04,1.507886351141325167e-04,6.398218150830525808e-02,6.154233644829974412e-03,8.260020678207228087e-03,9.880013891083408439e-03
4.227900886718673895e-02,3.662919052382001411e-02,1.848064830909927278e-02,1.800344464876925800e-04,3.776430675956933005e-04,6.536240266351578670e-05,8.078053466598617005e-02,2.009607441799181674e-02,5.852894465780668354e-03,1.297060657234186398e-02
3.199238288003058289e-02,4.605612684972401616e-02,1.407305806574182978e-02,1.379157785175549303e-04,3.420421535772293054e-04,2.375779922569834122e-05,7.185719866570720871e-02,2.193041057527676460e-02,3.236966145052167301e-03,1.202960532719818572e-02
3.285526276721830591e-02,4.697468772422821320e-02,6.718535481229633705e-03,9.214645403110081055e-05,2.976999979349280630e-04,9.621219502871243806e-05,5.199473391589760907e-02,2.182505573659487136e-02,3.807639863377655859e-04,9.216023721000551200e-03
4.641650512816082597e-02,4.917272497272613674e-02,1.574524238754889446e-03,4.389492900559709696e-05,2.457217992418789655e-04,1.644125218660409519e-04,3.835238104978574980e-02,2.028910392996840020e-02,1.060948164238737336e-03,3.706499794188984793e-03
7.342332054721366352e-02,5.905946581798681566e-02,7.427723714696535251e-03,5.606316279392084225e-06,1.874053213039213477e-04,2.440800329746956000e-04,4.014240816173789833e-02,9.261939565029983154e-03,7.600654031023047720e-04,7.154181471427264322e-03
1.073883675241439906e-01,6.446056958386622848e-02,1.011695291493753049e-02,5.509149170661844705e-05,1.242088483728370156e-04,3.423326696510543225e-04,5.279683151141787573e-02,1.426141162576189357e-02,1.535053004689212975e-04,2.014310890912092769e-02
1.306123745932115943e-01,5.371962841086013601e-02,1.070166285159468954e-02,1.032931263210001572e-04,5.771458563038244156e-05,4.314853550839271119e-04,5.827160379569518156e-02,3.931069631567310485e-02,1.213375167233335622e-04,2.758837391754829713e-02
1.143298667079350878e-01,3.542360275962012917e-02,8.085659169198821869e-03,1.489738235957640958e-04,1.041140263620663855e-05,4.721928562067868071e-04,4.305637206951094115e-02,4.111552804743993927e-02,2.752161692147712122e-04,2.607266806901801376e-02
4.387018624778431936e-02,2.220789541363909353e-02,5.154449470951457920e-04,1.909573492730204532e-04,7.846111440052067933e-05,5.117658676993195850e-04,1.618989030140282476e-02,2.279822566353384688e-04,2.228007778176359778e-04,1.921779665485377070e-02
4.741134992664537001e-02,1.031333304291447497e-02,9.107077364771917413e-03,2.281582724755373923e-04,1.447274084673822988e-04,6.387694795338365447e-04,1.811815538695168374e-03,6.872994581394462066e-02,1.303649880978743013e-04,1.211510722565894288e-02
9.715764754924491320e-02,5.212283921332428599e-03,1.448242802539451667e-02,2.596094146762145368e-04,2.075468820049867005e-04,7.523765240667597363e-04,5.493927440562301062e-03,1.151700474920045875e-01,1.810881476187393199e-04,6.440276922368655399e-03
8.273301976244343270e-02,8.040805612128072016e-03,1.354937421366957800e-02,2.844864137291360472e-04,2.653417177152543539e-04,6.522822995746926488e-04,7.906081710013316069e-03,1.084511355317187009e-01,2.977387719361051805e-04,1.940799500515883944e-03
4.698971344258641436e-02,2.206869331376399082e-02,1.040548325583064496e-02,3.021287802549366477e-04,3.166593183316413797e-04,5.455875590567373654e-04,2.009182040581563439e-02,6.974802899915391596e-02,3.905720523588314635e-04,6.433325975101278956e-04
4.039129755374229469e-02,7.439886617867888519e-02,8.530088663286682429e-03,3.120569095256480016e-04,3.602087445616994495e-04,8.781850394342743905e-04,3.880858400831304483e-02,3.913330308945346669e-02,4.904768062090473276e-04,1.164335740369149951e-03
6.086830058357119849e-02,1.129648999144901023e-01,6.595624769261748503e-03,3.139846115096202382e-04,3.948930988549619243e-04,1.195620225080999514e-03,5.258663968628113361e-02,2.576676724757438752e-02,6.347439016768704340e-04,2.035346249689561505e-03
7.008598827517593943e-02,1.166721849220888063e-01,2.682943539110362388e-03,3.078268324739536800e-04,4.198370353241110396e-04,2.029950747108066639e-04,5.056733905386361777e-02,1.210494087923202552e-02,8.034427774305603811e-04,5.027652171306872843e-03
4.742045478127959041e-02,9.534701777703973036e-02,1.478083154417876533e-03,2.937023607692081963e-04,4.344086818309277152e-04,2.033998339251259866e-03,2.826977669756387118e-02,8.766510027471139874e-03,9.722664210481856339e-04,8.247723073655835110e-03
6.102698121338290260e-04,6.746302281634375397e-02,3.082235284720215730e-03,2.719314341843050414e-04,4.382354263570014969e-04,3.294950076198410478e-03,7.398885777204450981e-03,2.853505481615655620e-02,1.143124388525999053e-03,9.056593786533288087e-03
5.996327012969424053e-02,4.031464682805906141e-02,2.323846679433656977e-03,2.430282934570578395e-04,4.312131711786063438e-04,2.096560023446312083e-03,4.150270616197163781e-02,4.803639119747064867e-02,1.319941498973249477e-03,7.257620287101401897e-03
1.221078950672104674e-01,1.414422805002708491e-02,1.420837542723626338e-03,2.076888529902485648e-04,4.135088196483576893e-04,7.966909165091492443e-05,6.510471133146449041e-02,7.610780856614404732e-02,1.494215311063997603e-03,3.929720836277953398e-03
1.565864030820146302e-01,9.023339563752740683e-03,1.325997170501697596e-03,1.667737823983370875e-04,3.855559561993138922e-04,1.014933154637040350e-03,8.157607439988523446e-02,1.045873500672213491e-01,1.656354976583461957e-03,1.016148727680156504e-03
1.390157505471439903e-01,2.692126064765710397e-02,1.417835283248495290e-03,1.212874081211227456e-04,3.480438346983279001e-04,6.452810966831896023e-04,9.397434782968150380e-02,1.098627362452167244e-01,1.802766202680270054e-03,2.268374723833711804e-03
8.466409729923973781e-02,4.030325280569947710e-02,1.281534875118589545e-03,7.235295007234204812e-05,3.018998942019501201e-04,2.674744483023095212e-04,9.480062474383035842e-02,8.233791911966931165e-02,1.930808470704357222e-03,9.357133753065190185e-03
3.344494575389378443e-02,5.011191318389691257e-02,1.185605965841868455e-03,2.118470147754349781e-05,2.482662290675572109e-04,3.371011797541632383e-04,7.705922257548686316e-02,3.779209433890463876e-02,2.035587943684878665e-03,1.752360872918964918e-02
8.508672591938746393e-03,5.500503898519774892e-02,1.320471232619013606e-03,3.094216165105409733e-05,1.884707356965148743e-04,4.087002026714754818e-04,4.688038759646814130e-02,3.916844431952148475e-04,2.112439470526745414e-03,2.031706161184321235e-02
