1.858162993736836924e-02,1.013305767050367082e-02,3.485479462807210965e-02,1.350187046566243831e-02,1.868571835508648499e-02,5.664854680890170184e-03,1.031488905834702756e-02,7.214063864590529451e-02,4.676437238045509821e-03,9.637747374898175678e-02
1.818746158080748743e-02,2.055251253431590510e-03,1.834221347423240292e-02,1.351793225682574977e-02,1.913375725904353786e-02,5.389540576256268353e-03,1.722763523715828068e-02,9.614318565772160541e-02,2.515235647111767163e-03,1.090548979127633072e-01
1.729727422569268466e-02,1.314492581119034191e-03,1.074677049164069267e-02,1.057526504368614013e-02,1.543389132977198049e-02,5.098762052465304409e-03,2.399113516065946861e-02,1.061638427692509629e-01,1.011966854761985361e-03,9.060480596940137521e-02
1.743521120595884280e-02,5.532046162476820725e-03,1.097094848970114368e-02,7.004649117324785249e-03,9.131626405667185933e-03,4.798419114420898052e-03,2.648298958438337347e-02,1.105740162377828600e-01,9.455562405272618020e-04,6.043056803399345089e-02
1.873593695577354876e-02,1.687098455510043643e-02,9.636969109750597937e-03,5.446097639292786681e-03,4.355473168801022102e-03,4.492145953904890313e-03,2.289068123398245447e-02,1.154270246840105041e-01,1.626396645394797939e-03,4.291300451889810963e-02
1.858841790991410531e-02,2.237002812849525277e-02,4.634993940839517851e-03,6.312200197217570849e-03,3.002400658009193261e-03,4.181427386059873019e-03,1.532112697668194454e-02,1.136792976843754438e-01,1.812359193817355326e-03,3.861356035004270132e-02
1.450148111515352917e-02,1.874391496917861277e-02,8.745817705475462250e-03,7.601654825717789506e-03,2.935993464456325853e-03,3.870994761460385628e-03,7.449090630778225017e-03,9.197014690893466626e-02,9.533045904714556717e-04,2.951111637748040153e-02
7.723286822122718207e-03,1.086559572865442198e-02,2.923807708497572211e-02,7.293413075325194325e-03,1.579094399881167095e-03,3.568321233021748331e-03,9.962757833525592768e-04,5.098177934343943452e-02,7.224794520170072041e-04,1.061961539348226652e-02
2.303810823009136421e-03,3.830145946000145483e-03,5.154894241518671177e-02,5.628421417320235431e-03,6.982346142835356559e-04,3.271740216398460327e-03,2.795014233110213169e-03,1.421014621510319730e-02,2.655096297702766537e-03,9.851931229137422114e-04
2.118981379767923955e-04,1.524855520941383437e-03,5.730574130371569180e-02,4.399201137867212591e-03,2.019714607900311831e-03,2.970930053690980580e-03,1.371245794914547267e-03,4.808522627244530591e-03,4.194391566273332483e-03,1.548337770951825967e-02
1.086513427078349787e-03,5.941886161674078161e-03,4.726333286735196620e-02,4.416832339053148281e-03,2.116328604902969080e-03,2.672087326709699732e-03,4.577046616071608204e-03,1.904275076108196893e-02,4.894819625377551733e-03,3.994628312816092541e-02
4.629614069234652511e-03,8.628915751913053545e-03,3.437186354811663097e-02,4.697346182966723183e-03,2.461289312353925895e-03,2.397410356185159918e-03,8.465027741469404940e-03,3.476184295075986780e-02,5.023212896834168550e-03,4.901833438589529857e-02
9.789429534844691638e-03,8.634445561128184857e-03,2.405334301976435121e-02,4.176697612441849887e-03,4.136862981641673161e-03,2.131265294821599234e-03,4.249275761998589501e-03,3.510655954344833046e-02,5.604477238300044697e-03,3.841622481845455295e-02
1.476909981810617910e-02,7.661148460156553923e-03,1.233379749751571317e-02,3.491878840363990544e-03,6.586060958934060981e-03,1.819901522116758753e-03,7.127712342000602774e-03,1.607374533101660341e-02,7.018242324640718878e-03,2.480571551929510246e-02
1.984989838788526334e-02,8.422935262495805792e-03,1.617132296295615505e-03,4.267475866463147499e-03,8.170373917361228519e-03,1.486525241429145598e-03,1.941858523488844065e-02,9.898528375346393043e-03,7.351006683314085209e-03,2.229470441526145569e-02
2.433786590835838870e-02,9.483680579121316415e-03,1.128159020381397544e-02,6.382069506639830546e-03,7.944690240825948505e-03,1.235228112506764429e-03,2.708701311926899058e-02,1.509134021402921098e-02,4.102713089176323463e-03,3.206797517788176344e-02
2.397495133901737102e-02,5.452307402405718109e-03,1.330373525227411188e-02,7.285352056846502479e-03,7.407731684774863413e-03,1.005605513192826903e-03,2.954766465846637991e-02,1.500284600073464175e-02,1.549256742503177589e-03,4.784549206253396747e-02
1.598380721634976021e-02,4.955632067094388818e-03,1.455588727389509063e-02,5.394621362424113775e-03,9.287804907509690858e-03,5.553857344105169206e-04,3.047787234342215837e-02,5.728202820213613988e-02,5.180963941961441374e-03,5.933321817872690834e-02
4.340053166972145278e-03,1.512147539303831771e-02,2.041697125058965917e-02,2.683992169640409854e-03,1.301309414121768968e-02,1.948445393185046029e-05,3.325449590913064774e-02,7.658325268003149389e-02,5.684507792650853042e-03,5.536999957780169151e-02
3.798212550502594927e-03,1.863045672584773271e-02,2.142008720884421014e-02,1.909019192900951152e-03,1.349023779179507089e-02,1.751576348037371406e-04,3.816568241225734570e-02,6.517163487828125934e-02,7.709222230235610908e-03,3.456402887783301819e-02
5.596179214303114054e-03,1.679821623643769704e-02,4.935242748454436723e-03,2.762026495820849546e-03,7.418555413477229306e-03,1.320510392726651980e-04,4.414946441149776579e-02,3.890400464889991888e-02,1.453356930109688666e-02,9.285984332885112436e-03
3.728352571687723951e-03,1.416624644807255515e-02,2.282889104592441057e-02,2.982736280012130824e-03,1.242837738336477786e-03,5.196861342898230745e-05,5.081927601753876561e-02,1.077756415256952288e-02,2.219349044785243197e-02,9.149271758560255027e-03
1.107313725826246072e-03,1.129200318917284590e-02,4.190345144544453670e-02,1.865725055813558138e-03,5.795838154389495317e-03,9.022424071208731862e-04,5.726226175107753530e-02,1.375382780481559410e-02,2.471772539911189920e-02,2.363028111173215429e-02
2.661238715211605016e-03,6.207273236881144171e-03,4.348057177092774089e-02,4.398842741342246843e-04,4.843783576019317257e-03,2.152369427742111159e-03,6.079026043054779754e-02,2.957040928516596612e-02,2.216633489521783670e-02,4.169937847429288497e-02
8.668410341589296436e-03,5.613214637968646711e-04,3.521665813509972098e-02,7.872353249057085188e-04,2.037688751674863585e-03,3.194386124712590095e-03,5.919738672250218076e-02,3.435972268727281731e-02,1.915671065874586035e-02,6.109519934470128422e-02
1.436136982193863230e-02,5.827564866005128207e-03,2.549964915884682382e-02,2.188331578783777372e-03,1.150207804806670404e-04,4.002124980804426524e-03,5.276510005470590875e-02,2.904068936855364741e-02,1.793079548134566409e-02,7.486820944915241471e-02
1.479223113822483553e-02,6.937425043976977110e-03,1.637339399041741819e-02,3.520814368438244905e-03,1.968995183903672966e-03,3.796122316908255578e-03,4.202966766749644673e-02,1.199725143897705307e-02,1.716272988459667873e-02,8.299430427279680389e-02
8.437177962814842308e-03,3.989816703430595218e-03,8.631201506145229699e-03,3.893015756708289882e-03,3.608756042481096188e-03,1.372106201095197892e-03,2.656460636841714504e-02,1.494801134767323979e-02,1.558130195237674744e-02,8.789172314532202324e-02
1.976315354844190245e-03,3.639688366915494813e-05,2.637968080061249380e-03,3.758253111903600997e-03,4.128693939477197546e-03,2.343040288027649267e-03,8.800149243786676775e-03,3.779603689312775738e-02,1.286477506614313281e-02,8.625190059213340421e-02
1.479341263211584115e-02,1.192112644522021854e-03,4.195202378785808581e-03,5.437881618722930840e-03,4.183131019352902616e-03,3.912414928317278426e-03,4.599839007599620250e-03,4.358574391684320176e-02,8.427180161818091306e-03,7.797103828949572546e-02
3.012841927594258479e-02,1.239112530466916816e-03,1.431097888530860271e-02,1.006796398185280488e-02,6.384049449446645846e-03,1.174488165282275721e-03,8.510183410699829337e-03,3.740543144735265085e-02,2.517442616593759935e-03,7.426930447008520120e-02
4.477986732961635602e-02,4.928063562183668429e-03,2.583660916050098746e-02,1.513242645110867909e-02,1.214745799846513562e-02,3.948880065581391978e-03,4.142505621718863343e-03,3.311149024603687874e-02,2.457510708338637301e-03,7.956254062620592149e-02
5.260660606534701272e-02,7.339333006795037591e-03,3.459634880822783781e-02,1.729605651604717437e-02,1.968568438038687668e-02,8.134603149067198488e-03,3.533880920952268967e-03,3.467540961887602413e-02,4.371228595600492109e-03,7.434799894677718290e-02
5.077354901374520751e-02,8.249635809008006374e-03,3.882397129177382611e-02,1.682827774857481584e-02,2.631338280297150847e-02,1.064076705065369888e-02,1.122878444667329070e-02,3.509334314668541288e-02,4.637436920506196429e-03,3.981809926669655636e-02
4.144138544682787056e-02,8.759072356230680062e-03,4.014145469184170895e-02,1.691823855550645544e-02,3.155666825709340512e-02,1.270814848828667742e-02,1.893463619099694864e-02,2.701364988400693085e-02,6.793678657324365121e-03,8.265184259593964453e-03
2.791064289981780300e-02,9.388541956908831934e-03,4.099457993315010207e-02,1.961985979528381788e-02,3.637624056955161139e-02,1.475923103818053451e-02,2.670508586779567553e-02,1.016481873084079321e-02,1.235433362013669059e-02,3.809811235899865367e-02
1.250166487296633031e-02,1.004634614200137013e-02,4.258486786991443063e-02,2.457226808873309160e-02,4.060458425551956296e-02,1.637817298805775701e-02,3.224720510269896839e-02,1.076073646600643648e-02,2.004814443962198156e-02,4.653743336191960844e-02
1.887024833505331328e-03,1.091046012002947797e-02,4.448212811824443086e-02,3.025609737924054091e-02,4.326781396641794092e-02,1.771597503021166142e-02,3.422942884705934552e-02,3.236552006511741325e-02,2.775374299586166882e-02,5.593477060167624526e-02
1.104457891989960895e-02,1.205945575997399016e-02,4.489239660485719319e-02,3.422640895512276543e-02,4.425586431331518522e-02,1.914682485293174238e-02,3.564688584098818502e-02,4.954890532455353408e-02,3.276254606443048528e-02,7.419021458428554094e-02
1.308191893761857100e-02,1.269977862094323444e-02,4.238750851508162748e-02,3.389995822936035103e-02,4.403706369009467020e-02,2.052305423982598437e-02,4.010835230600726109e-02,5.270977008691455495e-02,3.242588196682105045e-02,8.545644303743601955e-02
1.202125326955056153e-02,1.211730855804605059e-02,3.841999243594302477e-02,2.985669641456542914e-02,4.326800594718879789e-02,2.187909358162435161e-02,4.739990612794008767e-02,4.262229896789969386e-02,2.781817498917908693e-02,7.526751049640562075e-02
1.377364608465319121e-02,1.089310803332030342e-02,3.625362680187089320e-02,2.640493857977101871e-02,4.313883104778125366e-02,2.370949084454655048e-02,5.601429668447414217e-02,3.858427171079405193e-02,2.446170101892222379e-02,4.606350180626940516e-02
1.888757721326496039e-02,9.936981746958060621e-03,3.647770519921764848e-02,2.590666653757063911e-02,4.341367808975955811e-02,2.550012483533951879e-02,6.604949358727607578e-02,5.609492606296524742e-02,2.602057037178452659e-02,1.137000545326650666e-02
2.368331691575378817e-02,9.496118442917035954e-03,3.592343740647130357e-02,2.508565934880356216e-02,4.069937309796473057e-02,2.545403950003882407e-02,7.631544687103453128e-02,8.769385909191189377e-02,2.941828822531767848e-02,1.693039118573558266e-02
2.725450234139687941e-02,1.018564012062237421e-02,3.237494846311869678e-02,2.056700373244754743e-02,3.287379979911370792e-02,2.324794078047332999e-02,8.277566706841156530e-02,1.149646501342898031e-01,2.955923929301480096e-02,3.689920329562775686e-02
3.231525138901970851e-02,1.285805083807301831e-02,2.856227282556580982e-02,1.552303590743112777e-02,2.460074663537284087e-02,2.165297490999394323e-02,8.299335654274514473e-02,1.261929796585649632e-01,2.706927611205108344e-02,5.157496897596590413e-02
4.030488857615260184e-02,1.650536968053162995e-02,2.936492627654124776e-02,1.671876507469153075e-02,2.386074552298232676e-02,2.349632632508279889e-02,7.959132992944070728e-02,1.215560089225924401e-01,2.765333817704383398e-02,5.822055611242561712e-02
4.978077249767595691e-02,1.879549462879855776e-02,3.537122175802664970e-02,2.627577534838080806e-02,3.333797806675553588e-02,2.816037736017075466e-02,7.829315771913770983e-02,1.151753595691729359e-01,3.438394815603736804e-02,5.248141932443332880e-02
5.864207413148180698e-02,1.914961576612541835e-02,4.162828443635108178e-02,3.934211047333167205e-02,4.807411282196799585e-02,3.265635684817407014e-02,8.386718192780200087e-02,1.270298576899643039e-01,4.393862673393023749e-02,4.153748929670806472e-02
6.525754558699851937e-02,1.901237625709707377e-02,4.364614166163142267e-02,4.940936366642931926e-02,6.007515620794581790e-02,3.476172565833317296e-02,9.504816355031052433e-02,1.614700995746256029e-01,5.091247614126293008e-02,4.042242155502540762e-02
6.864641496703886847e-02,1.933910558140119335e-02,4.221897872989081868e-02,5.427988625564118125e-02,6.380983191418897194e-02,3.412509103119829718e-02,1.004902636849808045e-01,2.022779663771183123e-01,5.336528371510663310e-02,5.504493412309971467e-02
6.960640978606416618e-02,1.980863615884314102e-02,4.084547288590054115e-02,5.660529318518184305e-02,5.996942680509360218e-02,3.235437247395527016e-02,8.567941716179547362e-02,2.327370398966463749e-01,5.294425237567396830e-02,7.701186783058151797e-02
7.028520442727918816e-02,2.002114589287398022e-02,4.072980587563328897e-02,5.929578288620713372e-02,5.476094612773827613e-02,3.241888576377004172e-02,4.899213666731707523e-02,2.453745227847400345e-01,5.136718380353948177e-02,9.358843701919390690e-02
7.080284338257948618e-02,1.997719517720511831e-02,4.037480236353381546e-02,6.179003341652147818e-02,5.298347711329496473e-02,3.520549826926788750e-02,3.639240677655387283e-03,2.346738542044247422e-01,4.915102705738599170e-02,9.946364732206722237e-02
6.847945955311598998e-02,1.980659600065415304e-02,3.856574274516215428e-02,6.153879283504837955e-02,5.220693068456426500e-02,3.693495425367510077e-02,3.924734271097027327e-02,2.044558726010608785e-01,4.698829579010781188e-02,1.013130728348797110e-01
6.273849864372099683e-02,1.981244455349832206e-02,3.541553701942894150e-02,5.740826772929129990e-02,4.651597692335666945e-02,3.326355875773868986e-02,7.746001631700570600e-02,1.775822570703206593e-01,4.505665756721093790e-02,1.077054298418823747e-01
5.737112045291584833e-02,2.010477509167798993e-02,3.077798079576786819e-02,4.985418247046842499e-02,3.464034578482000359e-02,2.495049317710076181e-02,1.072009675206989365e-01,1.700584405203741101e-01,4.099289712324268031e-02,1.127967461206510758e-01
5.463545420509881984e-02,1.986032609790584422e-02,2.401409661040981164e-02,3.952605736411914095e-02,2.107844617519064739e-02,1.599761160154306375e-02,1.221433997246079706e-01,1.656826838681073055e-01,3.244944696123935185e-02,1.027696025684430997e-01
5.140184348287947513e-02,1.815634393099656296e-02,1.627020338793777957e-02,2.845946972549210502e-02,1.056808576634016457e-02,8.062664585828020411e-03,1.232259348934128529e-01,1.455347089656210124e-01,2.203572285906111108e-02,8.100885726004319887e-02
4.500458100048941590e-02,1.588142219164934490e-02,1.103782481712990357e-02,2.114295923600579066e-02,4.777451218330967288e-03,4.888503394429425958e-04,1.160513877565525487e-01,1.226299574312402496e-01,1.567242188056375621e-02,6.605329718142886886e-02
3.794027811754941554e-02,1.523014590219549415e-02,1.078862377128799246e-02,2.057101458098721178e-02,3.037509785895095397e-03,6.270513859284088456e-03,1.022884396577890265e-01,1.158888216313449654e-01,1.540593561259582557e-02,6.080997290948731565e-02
3.240952601295277874e-02,1.648240382658591741e-02,1.371046642739504051e-02,2.334538981741943187e-02,2.484191021567387810e-03,1.107506984961049816e-02,8.312379628050389768e-02,1.150837464105546326e-01,1.708249327437948856e-02,4.862575452831287975e-02
2.538115247579821043e-02,1.653034297310461420e-02,1.474435916083574605e-02,2.219894681960974531e-02,2.020036815567581578e-03,1.460348678951211253e-02,6.439712059975521985e-02,1.015772872715667713e-01,1.532758105590519351e-02,2.408893665759517105e-02
1.439484950699970733e-02,1.199945214005592418e-02,1.032486667279799292e-02,1.428103402306207109e-02,1.397279702175040217e-02,1.868914711145976473e-02,5.100379869413193545e-02,7.816359689611626638e-02,8.565224128027919617e-03,3.048685370347135534e-03
3.674286633687275528e-03,3.665356688949074262e-03,2.239185081776875509e-03,3.918173566252783867e-03,3.043870083184106387e-02,2.368160731525521812e-02,4.148138373933241141e-02,5.376838684664134865e-02,5.279369464129407552e-04,3.121489529220412146e-03
1.839255949155578496e-03,3.572486031878696448e-03,4.322120428231689300e-03,4.246557338710308695e-03,4.417700807469487900e-02,2.763384990157001855e-02,3.158818951741660525e-02,2.237853741057920648e-02,7.767762796102193820e-03,2.852769725528015061e-03
4.733523164899481120e-03,5.475570439021359981e-03,6.816355397832806265e-03,1.104526020944628616e-02,5.053438016180257508e-02,2.785017502363120248e-02,1.938698954984719586e-02,2.239786446562237396e-02,1.058391610762620186e-02,7.715115674622397696e-03
1.108989124608039667e-02,2.368211411349207575e-03,7.487445846898824198e-03,1.923303868947642131e-02,5.062347436977347043e-02,2.405508534662036818e-02,7.765970246105003208e-03,7.102548292135139885e-02,9.535937393132781076e-03,1.557525888914158482e-02
2.223003808444565937e-02,1.205211968779568588e-03,9.757204865103948771e-03,2.895282964757239091e-02,5.085503103692113475e-02,2.143706472644519787e-02,6.481887471974416559e-03,1.118679117925007738e-01,7.783820793661309738e-03,1.921244369299177079e-02
3.563452319398655033e-02,2.353489623504174781e-04,1.533463799269691764e-02,4.008302458127399603e-02,6.018645949555870289e-02,2.804789880824903534e-02,2.686240494620278571e-02,1.445834960055171203e-01,9.142193241944781765e-03,2.214796317836956185e-02
4.876344541582342679e-02,8.589952401564182605e-03,2.404594034526357296e-02,5.345967959737443764e-02,8.095981657813533516e-02,4.512966577805078289e-02,6.730242008916068053e-02,1.700410951663759163e-01,1.548002508760906205e-02,3.586725385030024166e-02
5.861576272346589317e-02,1.988254964411905260e-02,3.343695161191877208e-02,6.627630542982063111e-02,1.016420807829970380e-01,6.238929419509822022e-02,1.089751782276591197e-01,1.860688475218330029e-01,2.532418835850423419e-02,6.566886050514653128e-02
6.381722585868651598e-02,2.846646360552571725e-02,4.002993861912770845e-02,7.268882201152930544e-02,1.076262673810984560e-01,6.849794452952739920e-02,1.322593075420786524e-01,1.990290364363224984e-01,3.595082418044689282e-02,1.049349093843628816e-01
6.811790472544963781e-02,3.347699897817033032e-02,4.341425496742309237e-02,7.231526830533659134e-02,9.964226091748509817e-02,6.420947395465896601e-02,1.327197172244730938e-01,2.187682853637375746e-01,4.706738514437235066e-02,1.393787042766289341e-01
7.531062906692759240e-02,3.773021009572912615e-02,4.629351801141205064e-02,7.137446521913022590e-02,9.177067914132570892e-02,5.889978730652070671e-02,1.183191934926766803e-01,2.398934503983614630e-01,6.012587906914353825e-02,1.559640895072386679e-01
8.234894843939720432e-02,4.119490155757548483e-02,4.906649661875201601e-02,7.305079661696145532e-02,9.193394086734257842e-02,5.686001058208912939e-02,9.913892617203054480e-02,2.474213118646133303e-01,7.325535672712818469e-02,1.527039790473501413e-01
8.396580334350041419e-02,4.122471839447404418e-02,4.927014699730444119e-02,7.423170117018822178e-02,9.507750262005773556e-02,5.460915683054494429e-02,8.394442632508031243e-02,2.398476459190279908e-01,8.084819449599271735e-02,1.386030843210087904e-01
8.083954051147058950e-02,3.872669901274854859e-02,4.725143646303212736e-02,7.325645189416218894e-02,9.492197193147068612e-02,4.964962267086075326e-02,7.886931500083456392e-02,2.318106875128234934e-01,8.047105185142837402e-02,1.221388822130948931e-01
7.780578282955330494e-02,3.753067410140308036e-02,4.630110562185038581e-02,7.325829483111440110e-02,9.147416587057598247e-02,4.392855318047997337e-02,8.309749677591228567e-02,2.373700939803382870e-01,7.655339869500889238e-02,1.061199358934643705e-01
7.824308999782250695e-02,3.820537558458624028e-02,4.732149506822766472e-02,7.692926713157631491e-02,8.661747156619259425e-02,3.926846048855386906e-02,8.907144390707327775e-02,2.586189475133401361e-01,7.503667380602467574e-02,9.458402813738826798e-02
8.335575403186451515e-02,3.849939776615039777e-02,4.908476212120990723e-02,8.366187266788328858e-02,8.116199799295342743e-02,3.547734768039434439e-02,8.925872322984450269e-02,2.847051840066075479e-01,7.694209760657448605e-02,9.327640949938977022e-02
9.151213517982421941e-02,3.807999724678087783e-02,5.160260455503043464e-02,9.117844798365629111e-02,7.639146139197207364e-02,3.260588667133131058e-02,7.984095163283119745e-02,2.986429586176976847e-01,7.843075895296051925e-02,9.934861029900191043e-02
9.688393015550902931e-02,3.759347999910268162e-02,5.442272708258870384e-02,9.655745800961908210e-02,7.254900098836375433e-02,3.085213809170714999e-02,6.100536326845329427e-02,2.914528168799869201e-01,7.592489637628402344e-02,1.008867245933632584e-01
9.441270705692481058e-02,3.576624559766930500e-02,5.507954843467686989e-02,9.759832501117991777e-02,6.688039323420179316e-02,2.883542658157801225e-02,4.152450904297465967e-02,2.707340130770806153e-01,7.015133052132632718e-02,9.058439589882300025e-02
8.635666167722891307e-02,3.153122499352959546e-02,5.220537587945651981e-02,9.450913051177745050e-02,5.675906995814990891e-02,2.479743200188717217e-02,3.797560397375797370e-02,2.512047834948421543e-01,6.424892312762547908e-02,7.193874746782528973e-02
7.895480581537123177e-02,2.621674277082917601e-02,4.664603813585539022e-02,8.809839226697892267e-02,4.296381536556082709e-02,1.885893395751216464e-02,5.703723756333099748e-02,2.390633144431316415e-01,5.903639555461842603e-02,5.242380708277407514e-02
7.298384483150592572e-02,2.116639864002704471e-02,3.965249788193756647e-02,7.750806387751871251e-02,2.889596127681299392e-02,1.285090667064321679e-02,8.318353967621347489e-02,2.307718271372148078e-01,5.318237657378534211e-02,4.146117470864794236e-02
6.268927170858804021e-02,1.593727813504377394e-02,3.323172141111153943e-02,6.264355292689431642e-02,1.862543121002539423e-02,8.828241798729857120e-03,9.578132567079693238e-02,2.219949810920577304e-01,4.653306072717201120e-02,5.165618324262231248e-02
4.576565226597400365e-02,1.026643491699449559e-02,2.939652773222922039e-02,4.664621901992811043e-02,1.416869077026491203e-02,7.567911495541545380e-03,9.112937082184988102e-02,2.068139312353436121e-01,3.903336409035345483e-02,8.440891813155437795e-02
3.017799749713612895e-02,5.593724151289794499e-03,2.675474066871625506e-02,3.306580603964020398e-02,1.251384371735599424e-02,7.461121100375385333e-03,7.757872457590497817e-02,1.738623309264489825e-01,2.924986396865295740e-02,1.161744866899577233e-01
2.614960452750925840e-02,3.663029793801521414e-03,2.223117090309374710e-02,2.273468855274077272e-02,8.185183632275796345e-03,5.736904209008953509e-03,6.000183483450471922e-02,1.204977961341255621e-01,1.895973580648160212e-02,1.196727883303306678e-01
3.302126011332483235e-02,4.791602827477117917e-03,1.632273258489804618e-02,1.551323879566176428e-02,6.872505427803791631e-04,1.644865112490869179e-03,3.927429462648500402e-02,6.573948213804946261e-02,1.464600589478886467e-02,9.685056176593254129e-02
3.958272825633286224e-02,7.508561200755679843e-03,1.128590663684473153e-02,1.310872943940556874e-02,3.327171236522074790e-03,2.174720491928039314e-03,1.763414026009773108e-02,2.998481708685231048e-02,1.951744890838925592e-02,7.087439977255224899e-02
3.684280021606803346e-02,8.900312386462884764e-03,7.198521938832865008e-03,1.769769800078430100e-02,2.759401798021741438e-03,2.157720431020287728e-03,2.589209288536180494e-03,1.059917497092185967e-02,2.947844344277027184e-02,5.343733574077762227e-02
2.658521198623207960e-02,6.815083322532850679e-03,7.220024543919535513e-03,2.750650741390028853e-02,1.714894466024180150e-02,2.067171404576733252e-03,1.956035068091668133e-02,2.524037273303018913e-03,3.965024229407719536e-02,4.263681681174476268e-02
1.849151376690121029e-02,3.746445943797144761e-03,2.052216723014125416e-02,3.565809032380183596e-02,3.011048906465806085e-02,6.734415532344520568e-03,3.008379913563877239e-02,4.426526746045690575e-03,4.793002431986050776e-02,4.096957803181162927e-02
1.957453844131869930e-02,5.478515333967648449e-03,4.862125239684700340e-02,3.554753479904167179e-02,3.316822479151693842e-02,7.758749596893771937e-03,3.323377599476487476e-02,5.733599656281347656e-03,5.109878657343840808e-02,4.866136062237991916e-02
2.462970942001411340e-02,1.238448985983055251e-02,7.483070526304991255e-02,2.636900925538357074e-02,2.551449163940553572e-02,3.994857368798803224e-03,3.474628287276471106e-02,3.172073133294272401e-03,4.481874119795083156e-02,4.895187025732428143e-02
2.077675779836665043e-02,1.627376493553253298e-02,8.002639011155779358e-02,1.193417314551121176e-02,1.113509711239311743e-02,3.533293885717044697e-03,4.193088352642352495e-02,3.281001138080739260e-02,2.916226429555159733e-02,2.555286839093263290e-02
4.260885307271774711e-03,1.063482040379578469e-02,6.452845026597606171e-02,2.929532876550613660e-03,5.093809526990191426e-03,1.246516569781312700e-02,5.477684780022407107e-02,8.179747240629350880e-02,1.031789956575671595e-02,1.083929311827238132e-02
1.389779692085981247e-02,2.407567364334008164e-04,4.436870923962159957e-02,1.334229551976891422e-02,1.716442040014745998e-02,1.880222615632534677e-02,6.594570815528959240e-02,1.034586796848728230e-01,4.032874920845098618e-03,3.275412110244269731e-02
2.253911516759389208e-02,7.263348074366245133e-03,3.083720814828809845e-02,1.657186453387619191e-02,2.065630995533385139e-02,1.961569929686185487e-02,6.934443734683760907e-02,8.748137894857387076e-02,1.051953874004400019e-02,2.838321280229289326e-02
2.347344740589961398e-02,7.758880381756743522e-03,2.264078948422635490e-02,1.500922948038523747e-02,1.784716626897554087e-02,1.665900806519609798e-02,6.640923170863433089e-02,6.205236127536285784e-02,1.167968227816611887e-02,1.056434516153686477e-02
2.584816847621682068e-02,5.918996247764585911e-03,1.466947314918347518e-02,1.311059469794901081e-02,1.498746190344025196e-02,1.440070115457378272e-02,6.348401765644463846e-02,5.840842559453282568e-02,1.179371173433917119e-02,1.853504007980979335e-03
3.336921866103467749e-02,5.234619118692898643e-03,5.770326198983787014e-03,1.235728185550502567e-02,1.478837227906990709e-02,1.471588143235692640e-02,6.471344802020939646e-02,8.214341050621644380e-02,1.260397480364619689e-02,5.814302414866758927e-04
4.250105412352602613e-02,5.361677371449687438e-03,2.766150500954251811e-03,1.290203462728005748e-02,1.626427847654494940e-02,1.588426619280677160e-02,6.956714338176275825e-02,1.170832765118002133e-01,1.463691642061161133e-02,1.189329198570860009e-02
5.018090677643348430e-02,5.131315051996735918e-03,1.073312348147219611e-02,1.665252077915126486e-02,1.992624079688677316e-02,1.608946899247401183e-02,7.630823411367713971e-02,1.449663007868883802e-01,1.946929516041271194e-02,2.972047853292150710e-02
5.708335233719093876e-02,4.722911481366273874e-03,1.843397687863684853e-02,2.425350383490016901e-02,2.765589349387939655e-02,1.553062416373365319e-02,8.408519559504466778e-02,1.584839158698047867e-01,2.706350868283747060e-02,4.908022886418889758e-02
6.359983629312246367e-02,4.679446582459456834e-03,2.490140592393238345e-02,3.218397298408397222e-02,3.794557249356637213e-02,1.517678657376314924e-02,9.113799863026747494e-02,1.620388168115812211e-01,3.364885960064977616e-02,6.932682382648207298e-02
6.835627010624151234e-02,4.925726484983136179e-03,2.876150447209581407e-02,3.646941703885676900e-02,4.581831938075923982e-02,1.524833607801401487e-02,9.478663766570055715e-02,1.630069271979682211e-01,3.590197709810068194e-02,9.012478151236813506e-02
7.108947480145154374e-02,5.211743284532641823e-03,3.022431620906137692e-02,3.714052495791816261e-02,4.864238423113795284e-02,1.543516294118648172e-02,9.454947298149228574e-02,1.612768237307315999e-01,3.507524255219582332e-02,1.079242018868146746e-01
7.229725570494281717e-02,5.584558845858440465e-03,3.092401918395746435e-02,3.693712431329972123e-02,4.871350009732847153e-02,1.565078632769694236e-02,9.280105725421516905e-02,1.522424046879131687e-01,3.445357796002089523e-02,1.183437051790736660e-01
7.165405032565538845e-02,6.166084635150005135e-03,3.200350106240711784e-02,3.750182319254600355e-02,4.853255092867014148e-02,1.603532205038236264e-02,9.179499415689039432e-02,1.414888006944649834e-01,3.504851600808290418e-02,1.224880430093598926e-01
7.110434248848258865e-02,6.907379489736542068e-03,3.335088123691342527e-02,3.858030421352157124e-02,4.726981070087222375e-02,1.662363132855319489e-02,9.182950824307464788e-02,1.426640640120412917e-01,3.589342197782496163e-02,1.254913981278509838e-01
7.467399075247131701e-02,7.733786050864588021e-03,3.455022153210223629e-02,3.968677577951554292e-02,4.446405187249519858e-02,1.734627331699957475e-02,9.213555792318281479e-02,1.557030531359074599e-01,3.655655917722967774e-02,1.274999780804314808e-01
8.036200902864118478e-02,8.710607777635147667e-03,3.560486832253848682e-02,4.089835596691082653e-02,4.327745769212555660e-02,1.819045802860870878e-02,9.211062020414245710e-02,1.664715948604116036e-01,3.743973037925610314e-02,1.233730779023046453e-01
7.963027935525660017e-02,9.884766184138886122e-03,3.665871619433600653e-02,4.237698132577372157e-02,4.639571351356665263e-02,1.918166355159200281e-02,9.197357064460978671e-02,1.733697843647471204e-01,3.869587204266412839e-02,1.147074369194690802e-01
6.995689049447750829e-02,1.109908994019255524e-02,3.767547856537616785e-02,4.413036193503707544e-02,5.167416319354625059e-02,2.029344452606050148e-02,9.273158033277459356e-02,1.883413807693845310e-01,4.015405219821337190e-02,1.141085176423619757e-01
5.933584958821336991e-02,1.225952049193461922e-02,3.856563684486298549e-02,4.613820034601121001e-02,5.527449489982603353e-02,2.149783113602873191e-02,9.488856199222733823e-02,2.053579734399104684e-01,4.180670130889767994e-02,1.287608596256735738e-01
5.479893651881900113e-02,1.366113537009873945e-02,3.932286716678885796e-02,4.823813054801478345e-02,5.681194122837489313e-02,2.284122997639581598e-02,9.750212617673596760e-02,1.994584019652247409e-01,4.365120196921983692e-02,1.443142996776771159e-01
5.526166542133967990e-02,1.546392590368287495e-02,3.995422195246017133e-02,5.024282436104200028e-02,5.861671052629181117e-02,2.433158198804438038e-02,9.949056368516850934e-02,1.681017250997752233e-01,4.548536806183801906e-02,1.390278454636602323e-01
5.654078977151990454e-02,1.696755037749338169e-02,4.044804149443934072e-02,5.249050160593059233e-02,6.161325794586725718e-02,2.583159368667527558e-02,1.012431326242795721e-01,1.438635584038830961e-01,4.741542255416071605e-02,1.143985619195798248e-01
5.540440125054780368e-02,1.748139715649749820e-02,4.083512251282701150e-02,5.545732340519506781e-02,6.402730697206791832e-02,2.731059666238603093e-02,1.039654125882780722e-01,1.508172407116609159e-01,4.994335095280831582e-02,9.501664791207656280e-02
5.057867940752957397e-02,1.785520861082947122e-02,4.113687445609555404e-02,5.829471191507696465e-02,6.336564016487868101e-02,2.901638904616155382e-02,1.077046916598603937e-01,1.711685876723015864e-01,5.267894244058302783e-02,9.549524399989513246e-02
4.564521199961122516e-02,1.956164623140180248e-02,4.127322351501482717e-02,5.898636501224960305e-02,5.865866226708970482e-02,3.070155927568691406e-02,1.104038061201296633e-01,1.717836944698431789e-01,5.356002493732065634e-02,1.058754847151610196e-01
4.662967443019665897e-02,2.233814962596218298e-02,4.122839828386657551e-02,5.686562897619924783e-02,5.099241697913861615e-02,3.082551211644274369e-02,1.094545930726718574e-01,1.471883783686095126e-01,5.059990175538892770e-02,1.112283058687845994e-01
5.311400614901520822e-02,2.470996947861667237e-02,4.123333003831017307e-02,5.391328379432973328e-02,4.244639978519585549e-02,2.812557149031543607e-02,1.046113975868836615e-01,1.197117599623098855e-01,4.433685116212599669e-02,1.061728383715316720e-01
5.692240328160075996e-02,2.647392292145376094e-02,4.139055182056154691e-02,5.297973822923208315e-02,3.553270808193078473e-02,2.442826407390485260e-02,9.770002416786956190e-02,1.079643723442196834e-01,3.774525779224979088e-02,8.998127592333476921e-02
5.154665278621029662e-02,2.823060369803587905e-02,4.128474287774085844e-02,5.544859137669667926e-02,3.339984115826702404e-02,2.347787312532079521e-02,8.880752843980178890e-02,1.091014088664146453e-01,3.387141459878618283e-02,6.641745875758460482e-02
3.881944646988246678e-02,2.905809278149011979e-02,4.073134530239212736e-02,6.025299581890648792e-02,3.773617873638395598e-02,2.579918557999403075e-02,7.658201681110909931e-02,1.068848482151528445e-01,3.401376754402645614e-02,4.718208515041324991e-02
2.543167095511292622e-02,2.743704788252522911e-02,4.048161222282740945e-02,6.433114191566066675e-02,4.545731890496267080e-02,2.771774131453510343e-02,6.386829852166572841e-02,8.897926283374962830e-02,3.733808343128460633e-02,3.834852888623985212e-02
1.528450591029949929e-02,2.398738851538869885e-02,4.067813027943112392e-02,6.476336618931652356e-02,5.037514899775388799e-02,2.686991990260316487e-02,5.738582966009395103e-02,5.711493985728176292e-02,4.112858585379657039e-02,2.748040641809620238e-02
6.978228794688724930e-03,2.094844250618984813e-02,3.953841446989694169e-02,6.140128384402901429e-02,4.961409800828318201e-02,2.495739331888096463e-02,5.748382772295262261e-02,2.365489697680952033e-02,4.256679364680044514e-02,1.562830617552499884e-03
1.130240953328873546e-03,1.990610354182393085e-02,3.626086199722244885e-02,5.735463218331566387e-02,4.649275120675069178e-02,2.387181748092871356e-02,5.272143102733938685e-02,2.871846835786284746e-03,4.191921523698240171e-02,2.861275597875839738e-02
6.782481148813503113e-03,2.172630939364475836e-02,3.385963116683734370e-02,5.642997603588509326e-02,4.612816453486812823e-02,2.371234809232850363e-02,3.157687513798829171e-02,4.647319207584460488e-03,4.256955660661837504e-02,4.079021157527174674e-02
7.668876557002745828e-03,2.667389703582762756e-02,3.548349048165205799e-02,5.961829836291915319e-02,4.969727509407191601e-02,2.548299731755968023e-02,1.319628947857267275e-03,2.471989620591486664e-02,4.644866905868953039e-02,3.109520856435265407e-02
6.036289545549550217e-03,3.276373247715633902e-02,3.971126417563480837e-02,6.444507528876300406e-02,5.446194404852068571e-02,3.058276048114428811e-02,2.698204957749288785e-02,4.014138408138266667e-02,5.159594307333894431e-02,1.337671429719358880e-02
5.427772708270093595e-03,3.629163046211349858e-02,4.309131379507911280e-02,6.821270672617674169e-02,5.850082020310296699e-02,3.704598231118491625e-02,3.087818757988140816e-02,3.096838271847657600e-02,5.542225402217457186e-02,3.275869902925734878e-03
5.105375786597802189e-03,3.584398825018806495e-02,4.475400035480519428e-02,7.043851629625698385e-02,6.278577187581269037e-02,4.109842727116744254e-02,1.627844541517228447e-02,6.741393138600112328e-03,5.760517461839308184e-02,1.983044205197307536e-02
9.583093875209325145e-04,3.401645988463045112e-02,4.555061144735868955e-02,7.123733269480424235e-02,6.810741779665051288e-02,4.231001949340106039e-02,9.670207421197223041e-05,6.560972807614955798e-03,5.897367058867330342e-02,3.751887100718012680e-02
9.207919287760699123e-03,3.388301014922204257e-02,4.589422368867419194e-02,6.973768949403059969e-02,7.228123175199149819e-02,4.280624613619431196e-02,2.885806590712287553e-03,2.853221896528195401e-03,6.054670671211297844e-02,5.438517127970240311e-02
2.321555642884134268e-02,3.527478945079653982e-02,4.610660194127221695e-02,6.517010261058781007e-02,7.132456247468316191e-02,4.209095499495574960e-02,1.004727042853438557e-02,5.114819199061836075e-04,6.336656437130300246e-02,6.593315526863122167e-02
3.672271306516151912e-02,3.577248623446312864e-02,4.535872396310983851e-02,5.718447101260994841e-02,6.271318425142284603e-02,3.728870551012129081e-02,2.813691935243167741e-02,6.779047270986792752e-03,6.582447350708439671e-02,6.611794731067066611e-02
4.577426421089607345e-02,3.451008884972375096e-02,4.108060632328188605e-02,4.600839080097777339e-02,4.873408570306302090e-02,2.883338212138517390e-02,3.875478854520943151e-02,1.310656590682811665e-02,6.331550311867714664e-02,5.438159904661882954e-02
4.617320399288159238e-02,3.342795074256867116e-02,3.364764374275090036e-02,3.522746974517371177e-02,3.721380334475978685e-02,2.190129028761260074e-02,3.634245376018110929e-02,4.237019890673410748e-03,5.502891769128760019e-02,3.945217510646383680e-02
3.361054585339029455e-02,3.391086612180222587e-02,2.839639044024461906e-02,3.086488210995275150e-02,3.551664185727737566e-02,2.008842159977852412e-02,2.494492980958534084e-02,1.558516102731783738e-02,4.723995287841772223e-02,3.011983670660726628e-02
9.157540704403626178e-03,3.344716312880729320e-02,2.830310079822018557e-02,3.387320264685998034e-02,4.247938509798342838e-02,1.988239784698849280e-02,1.636157516862580402e-02,3.055784778449934305e-02,4.472908112242211798e-02,2.694080613918856462e-02
1.640919652284477878e-02,2.868198402575499600e-02,2.951720421780446024e-02,3.841479770625647050e-02,5.011649202199342651e-02,1.493360238098449984e-02,2.181755969817970181e-02,3.532486794929194651e-02,4.395308498248225171e-02,2.549699449387932484e-02
2.841120259496815806e-02,2.207420564054505749e-02,2.836992299174320720e-02,4.040899593467008055e-02,5.353239142891483976e-02,5.564359092502502678e-03,4.055039283713517129e-02,3.943515534220307095e-02,3.983348996146952176e-02,2.074189989183453792e-02
2.055677179376672395e-02,2.109882129531567840e-02,2.717757261948288566e-02,4.155626700587834732e-02,5.386169570573667159e-02,5.449132823988829836e-04,6.081117859342718285e-02,5.001147896441157648e-02,3.373881586327560911e-02,8.457028200602021220e-03
2.622661612465979064e-03,2.818661989691465322e-02,2.934350322946581435e-02,4.285514283570351218e-02,5.134992904683038234e-02,1.126390499635004493e-03,7.356515685248624092e-02,5.835755641547353545e-02,2.946556054541174530e-02,1.007797067401395262e-02
5.292474490280276583e-03,3.521375853270730660e-02,3.300743695738390937e-02,3.976577257453895592e-02,4.174962111598948949e-02,4.947178424309920525e-03,7.875224617989934339e-02,4.774701101351902510e-02,2.569413297728617360e-02,2.732640364749271827e-02
8.400734054976599641e-03,3.190633846842716448e-02,3.229816862111786063e-02,2.576439031300848184e-02,2.148997962970784076e-02,1.434495005055153602e-03,8.009437330259952526e-02,1.329014692058843282e-02,1.728434543438445506e-02,3.916052664480360046e-02
3.412779701754872774e-02,1.753138091797817183e-02,2.359069998795143910e-02,2.242745115109540371e-04,6.545879028005792237e-03,1.148674281932482444e-02,8.208766916789402013e-02,3.114551139076817202e-02,1.951425096596324377e-03,5.026808279988888989e-02
5.372518171683436650e-02,9.416587450906151310e-04,1.014432909611998578e-02,2.914080879943205249e-02,3.316135559974980190e-02,2.555304488963645870e-02,8.906289083402382789e-02,7.218352505654995754e-02,1.718688706644254383e-02,6.509614876274585904e-02
6.127692883302720411e-02,9.446277120415314324e-03,2.714426303329696248e-04,4.777689555145504113e-02,4.909280392143944294e-02,3.093723156730353654e-02,1.003726065588297078e-01,1.150382573837696043e-01,3.425663584917008203e-02,7.997928152306325866e-02
6.246455463798340074e-02,1.380851260574884019e-02,4.479263178799017080e-03,5.336442543715345238e-02,5.351742368761878282e-02,2.721643113835650260e-02,1.095961445656889743e-01,1.672898089201106386e-01,4.480771290685504893e-02,9.095221811356135611e-02
6.132913279741412926e-02,2.029237496854719228e-02,8.959826645108383975e-03,5.674720190014753696e-02,5.471208931326796560e-02,2.289736132242693387e-02,1.115521802597399803e-01,2.142909115204894854e-01,4.918867349724031363e-02,1.032300112742200876e-01
5.993695427341096116e-02,3.558372347595734758e-02,2.083183792493109240e-02,6.586324113338905273e-02,5.819123335678744874e-02,2.381472663249779506e-02,1.070757281170024861e-01,2.319644987866432140e-01,5.127370632498393088e-02,1.223781794109519983e-01
6.431851258801558890e-02,5.518173423713105402e-02,3.531382257458385437e-02,7.477903586761813770e-02,5.898793155294946439e-02,2.747022509432792484e-02,1.030534397462507384e-01,2.175734927062096258e-01,5.277325323524376111e-02,1.419691752880617719e-01
7.940862589474897981e-02,6.770943581206977091e-02,4.092557801069290208e-02,7.713134617012788741e-02,5.361352921053176568e-02,3.149023900845673851e-02,1.117774120962940348e-01,1.912919594226246411e-01,5.298592719845898746e-02,1.542537005363568969e-01
1.010037350508847243e-01,7.040240705446686176e-02,3.733209522518816936e-02,7.946849013242143767e-02,5.343822472375497207e-02,4.101286977364809738e-02,1.425330501800090299e-01,1.758720031087352142e-01,5.517946658035590562e-02,1.641906051373903108e-01
1.181819564582297644e-01,7.207725826826150151e-02,3.698230886271945683e-02,8.958781939015794671e-02,7.359187084689861047e-02,6.150228862349908093e-02,1.864044203541695699e-01,1.855177889971973693e-01,6.516995776567088838e-02,1.758865322285020905e-01
1.219896547143745208e-01,7.792484061733739864e-02,4.728289375234109859e-02,1.024223053607244693e-01,1.107666366150573817e-01,8.770712859043874876e-02,2.177980163950767878e-01,2.193819670938458311e-01,8.156099911169892303e-02,1.788632222417101958e-01
1.120575347744085376e-01,8.221536437961834975e-02,6.297658845290307617e-02,1.107507829521714449e-01,1.444065855429644829e-01,1.062915100465336160e-01,2.186201242740957174e-01,2.554104905895975830e-01,9.689499134192333663e-02,1.667773943348180299e-01
9.780603593645985361e-02,8.105573449747624504e-02,7.884067578531958609e-02,1.200102995815445078e-01,1.617159338139325664e-01,1.099354553305652016e-01,1.946618764789331824e-01,2.700225923496501479e-01,1.103600902280763019e-01,1.554609085478176611e-01
9.038639498238082437e-02,8.027852814831833161e-02,9.684947199086547942e-02,1.384374497539501703e-01,1.699597053207747843e-01,1.041254439000434823e-01,1.653801282700902153e-01,2.716575252584754741e-01,1.276282688157099887e-01,1.652008879666832242e-01
9.131591066603188256e-02,8.372809597097290168e-02,1.162002320956982276e-01,1.605536383202461614e-01,1.792842679299600506e-01,9.803687476732692030e-02,1.466123166522944055e-01,2.912201748806598212e-01,1.454571331537082290e-01,1.950615557305535042e-01
9.443880838604029604e-02,8.582924170877259673e-02,1.299193006530948158e-01,1.750543421981633485e-01,1.874662446190833442e-01,9.442960194764032922e-02,1.459767000130439696e-01,3.363497253193039049e-01,1.519112484495009352e-01,2.254945082346174190e-01
9.760209416921528103e-02,8.289174653073413945e-02,1.369999876369791814e-01,1.832751873238350204e-01,1.911985381879421353e-01,9.273985126325041961e-02,1.634531293152875764e-01,3.811883984915850343e-01,1.474403013118954497e-01,2.404950531119287027e-01
1.022233135895912054e-01,7.993820554958903923e-02,1.444056306182435190e-01,1.943124675979501226e-01,1.964327153511648549e-01,9.451402808992490079e-02,1.877769365692443793e-01,3.998416131148673780e-01,1.480639168946075168e-01,2.400950002582313558e-01
1.039283147444275412e-01,8.031661317615899909e-02,1.529861304983259340e-01,2.054679066267968424e-01,2.043542186536161931e-01,9.839089710528868549e-02,1.992624984433642166e-01,3.838745854978015681e-01,1.602742261095508880e-01,2.297634131852405170e-01
9.556000198003133939e-02,7.956878554998925157e-02,1.552660118783215915e-01,2.038028914467024388e-01,2.026670976541610214e-01,9.677603359012901252e-02,1.860755766893325835e-01,3.308839213477943186e-01,1.709814886340030593e-01,2.046238220627998872e-01
7.805267235136445492e-02,7.394700349107780069e-02,1.488954077565250722e-01,1.854584485120557846e-01,1.835486666022002611e-01,8.524639076869915122e-02,1.555753712011946344e-01,2.454196847292117734e-01,1.691369160698857621e-01,1.585940317591053306e-01
5.950861431090544162e-02,6.566213149922860148e-02,1.394459162167356603e-01,1.595820111682631492e-01,1.571340776180064902e-01,6.957420009648990211e-02,1.247758724276232384e-01,1.547829550834179113e-01,1.596472724089712802e-01,1.064691522032961413e-01
4.451456930735871176e-02,5.734004158693544601e-02,1.308135327506185774e-01,1.364135234529114671e-01,1.390541232690779838e-01,5.811084081836137560e-02,1.050223896573992954e-01,9.749612330417878336e-02,1.503427984800284611e-01,7.576322070028783384e-02
3.047448299014932777e-02,4.866575380150597874e-02,1.225839128004709011e-01,1.215129723218359853e-01,1.341921117880414960e-01,5.224294735243765336e-02,9.877539380085194332e-02,8.735378862616755002e-02,1.402342797102249794e-01,7.580464968514676050e-02
1.504667104881801318e-02,3.924601615064914756e-02,1.131483865766286928e-01,1.142123717915259629e-01,1.341468275514075270e-01,4.716808219043662487e-02,1.007853029887172402e-01,1.045917523981610281e-01,1.247949351198631984e-01,9.161574924451372504e-02
1.960700455997744021e-03,2.960074319361691297e-02,9.929219528718888355e-02,1.049278140809053461e-01,1.243954796640453220e-01,3.786661615577659873e-02,9.766558473012691699e-02,1.203966033886603171e-01,1.028618809582345917e-01,1.034879368871849392e-01
4.298263471604182873e-03,1.958559531300474443e-02,7.797454832007705283e-02,8.362932066243697338e-02,9.750942630199579964e-02,2.309685031126667426e-02,7.666506976195422429e-02,1.169940782419756353e-01,7.678908264835522524e-02,9.922079758733587385e-02
5.373179957299110271e-03,8.892835560155168753e-03,5.151089156032722521e-02,5.336351670311015316e-02,6.191229891031695132e-02,6.140968528953393360e-03,3.950161179604821937e-02,9.513416409995444079e-02,5.074411664393817939e-02,7.563202115197649456e-02
5.743804548939327945e-03,1.570659582644504983e-03,2.599812691683145091e-02,2.548253857963099847e-02,3.169829004015971979e-02,8.361892253938935093e-03,5.830593855166502082e-04,7.228544668015501884e-02,2.776518026420629615e-02,3.916816151354439446e-02
7.262327434343621678e-03,1.063486369440357765e-02,4.232607572793627843e-03,3.509983339108789166e-03,9.564070221418669027e-03,1.922939759605141533e-02,2.991625390754000524e-02,6.160519858279522171e-02,7.021119497877729640e-03,1.172182694862168584e-03
1.161962480147411998e-02,1.890035268581490013e-02,1.582023278174098796e-02,1.825791554034740874e-02,1.227328169511094497e-02,2.915211286734121360e-02,5.488604094597978461e-02,5.349868069268688686e-02,1.400891107411171045e-02,3.056910105661117191e-02
2.220846254370613740e-02,2.824853040940572893e-02,3.639313435072974445e-02,4.291764150819492307e-02,3.783935736170571107e-02,4.019925995401581881e-02,8.093065130145371544e-02,3.009346277844284628e-02,3.551451965080595907e-02,5.475543719619804794e-02
3.849769853040024836e-02,3.857382778382714705e-02,5.591122656326198009e-02,6.587000530584422031e-02,6.269978068124038018e-02,5.094889201132508927e-02,1.066176480948817229e-01,1.217187925468117549e-02,5.512414410545517229e-02,7.491238100160979574e-02
5.404246938587625726e-02,4.649179701530644498e-02,6.922458239461679042e-02,8.089372761993567085e-02,8.106080075720473177e-02,5.831064375965044899e-02,1.251208593345071174e-01,6.594024493461532466e-02,6.973772587777617160e-02,9.687491976052516052e-02
6.530949032545689537e-02,4.889918769997121661e-02,7.385484966174692134e-02,8.744477724934361651e-02,9.105915859268619295e-02,6.051846064732985253e-02,1.353640836226604471e-01,1.259771016105794283e-01,7.713102372205786483e-02,1.241534881816747371e-01
7.828272007424734447e-02,4.685761342338844171e-02,7.577003826755332461e-02,9.078670569804996038e-02,9.409995704374174430e-02,5.843310817913018040e-02,1.438413034694363268e-01,1.890533334686227696e-01,7.809693037586579178e-02,1.539308704617343981e-01
9.921962131520221939e-02,4.456443195796264828e-02,8.076589964980318559e-02,9.514594105506123112e-02,9.308275470933427553e-02,5.524567819942471231e-02,1.557286456964047938e-01,2.492555476345618137e-01,7.688233881011648230e-02,1.793321655891870481e-01
1.208032925651647410e-01,4.509094567239736728e-02,8.008170420078589147e-02,9.931693785383992334e-02,9.153248532680291483e-02,5.434822782345794662e-02,1.703312393642497924e-01,2.982871198232912580e-01,7.771863036323972684e-02,1.956081855498278677e-01
1.277708862037975068e-01,4.789730760512132812e-02,5.939614120424310806e-02,1.011341756589144020e-01,9.241963322665128211e-02,5.618998213600761432e-02,1.851280790366628681e-01,3.283551352146097946e-01,8.143786684318352065e-02,2.023711985427517901e-01
1.174266231101514929e-01,5.013711350554207746e-02,2.432462360729818057e-02,1.029408733335779313e-01,9.676613934974444275e-02,5.793752194545150752e-02,1.978621844099463511e-01,3.375377523618724451e-01,8.629954754462557109e-02,2.008663626685408266e-01
1.030499915789032245e-01,4.993689707447934722e-02,6.036060508442056029e-04,1.087806195370880497e-01,1.034908732438989398e-01,5.715329645700793076e-02,2.048902544301879347e-01,3.337305854814097139e-01,9.050240400294741472e-02,1.927714344272702107e-01
9.551336276185089236e-02,4.806728080320269575e-02,1.560906279661574639e-03,1.180503590102096462e-01,1.103101058462749029e-01,5.450401671122342279e-02,2.039831902169473021e-01,3.283496956431280478e-01,9.274064850534910476e-02,1.816688156921955066e-01
9.355743867815628778e-02,4.634308731842286949e-02,1.235434527862947461e-02,1.254018559706189806e-01,1.145317130215947887e-01,5.195840091906343133e-02,1.988888796274277948e-01,3.251575634297601547e-01,9.209832050654991054e-02,1.713250863614493025e-01
9.335575982928653871e-02,4.527901585012829994e-02,2.770208968961983959e-02,1.267739362031642114e-01,1.143185943112532826e-01,5.004570568437607947e-02,1.965577695734397057e-01,3.204479006073471803e-01,8.894200579584868316e-02,1.625580651669472909e-01
9.665476249208811155e-02,4.407917740829917636e-02,4.180341912145649902e-02,1.233672595400162886e-01,1.102807304868134580e-01,4.810357194508925460e-02,2.006717056922368292e-01,3.149817632563848835e-01,8.490440349274792908e-02,1.560891409259293483e-01
1.061189531031341837e-01,4.241309934842524970e-02,5.697086121217758564e-02,1.189792737027836056e-01,1.049007550181279974e-01,4.590269258123361173e-02,2.101201379765760269e-01,3.191485839895282783e-01,8.120237139471665755e-02,1.568051546057418200e-01
1.177955909297232345e-01,4.111853815537287044e-02,7.143376055742886588e-02,1.151647828247187588e-01,9.991971157636381218e-02,4.380310422254696939e-02,2.212599872648719213e-01,3.412676058399111700e-01,7.777896619417794255e-02,1.699087761584726908e-01
1.225532659230689214e-01,4.054541376266633523e-02,8.050110659333521712e-02,1.110061819854783888e-01,9.530786108274641455e-02,4.187953004406081564e-02,2.306310447539354769e-01,3.742904271957805951e-01,7.421266398050713198e-02,1.934195988116092779e-01
1.161288493958813201e-01,3.924960201064321003e-02,8.239709267182736274e-02,1.066129880362760296e-01,9.064114378191229227e-02,3.980220233626233922e-02,2.380039854003926370e-01,4.022309831011339765e-01,7.051199047083998861e-02,2.182938193122460069e-01
1.040246711667581758e-01,3.655465179737656806e-02,8.014473214453000927e-02,1.033729147585381036e-01,8.596058626980471185e-02,3.758133206696432499e-02,2.454420670228878720e-01,4.200922160219997537e-01,6.685737373227496061e-02,2.368046046322187514e-01
9.144485822468383096e-02,3.513022388252380612e-02,7.788149337693540952e-02,1.000115320280632047e-01,8.120779213763981708e-02,3.571087594849581964e-02,2.505243126872211401e-01,4.340526879369441815e-01,6.323834793924039410e-02,2.480115945973364877e-01
7.065249441232959726e-02,3.577581148605716438e-02,7.628208635052589892e-02,9.227177484511354943e-02,7.626463884823936334e-02,3.406610840985485611e-02,2.441713840442716610e-01,4.336312219450006444e-01,5.956400123602992314e-02,2.515540918568109907e-01
2.734627185540533523e-02,3.080303686245566830e-02,7.328969596238077422e-02,7.818238644590301545e-02,7.166158957893555004e-02,3.133572820094214506e-02,2.203716375582656650e-01,3.837546202142610441e-01,5.583374201111510754e-02,2.396171757795176327e-01
3.584207805916463097e-02,1.222012691225052294e-02,6.950137747665499632e-02,5.935788079363611691e-02,6.765553096640920805e-02,2.658339650832130391e-02,1.858589054020746978e-01,2.688147188036205670e-01,5.208832912814429644e-02,2.044148267963970811e-01
9.094901019779071116e-02,1.285308238775281602e-02,6.856153411843322887e-02,3.620566663086587783e-02,6.254411984098699751e-02,2.079947135042724618e-02,1.530759969201090365e-01,1.278953612996666100e-01,4.832970536149486240e-02,1.522352705373603565e-01
1.108863665982986052e-01,2.684037428860122990e-02,6.864117715892696647e-02,8.431450306150433185e-03,5.422447092017754905e-02,1.577600534986823427e-02,1.219884891573611019e-01,1.469678793507961378e-02,4.454313192800428423e-02,9.805580755260996650e-02
9.830356114239759135e-02,2.339174690378668237e-02,5.905541198312632550e-02,1.905943982953894542e-02,4.403540417329483703e-02,1.225192716741874827e-02,7.938096210650655293e-02,6.196864914582217443e-02,4.073508761049441512e-02,4.858833258415044820e-02
7.679218310383603696e-02,1.284768946385876458e-02,3.345519469304305410e-02,3.875993425998920661e-02,3.641342132953219457e-02,1.012315728639869364e-02,2.525313480761135626e-02,1.248769993032526893e-01,3.692348103668887521e-02,5.278406872504030206e-03
6.119199443978354247e-02,5.908928080427078983e-03,2.662927673284836566e-03,4.915772949515599677e-02,3.369371347854643872e-02,9.193274956307902201e-03,1.412668514122137134e-02,1.755229693570405647e-01,3.311980911985668019e-02,2.294300252147823266e-02
5.005063673670139685e-02,3.385147146177278424e-03,1.472116780940949457e-02,5.344646223390844830e-02,3.360920873979564294e-02,8.850011933973335812e-03,1.878855520538988411e-02,1.925791325455515346e-01,2.933319720941007097e-02,3.103788434063092100e-02
3.985478942971708294e-02,2.224621302486088671e-03,1.245656050765834091e-02,5.179877310154414050e-02,3.265184842339437232e-02,8.255231452622599150e-03,6.818659505204258120e-03,1.705818547002620200e-01,2.557835688003461810e-02,3.339163086298193445e-02
3.206453322821997687e-02,1.504573616243150627e-03,2.617155859644445387e-04,4.225938166976662275e-02,2.960202109351402211e-02,7.307334656540432662e-03,8.408870809083823089e-03,1.312372914742786223e-01,2.187379501406495896e-02,4.474920384499682380e-02
2.788854811643824011e-02,6.203209489456019445e-04,1.061787274903951660e-02,2.709743281507080020e-02,2.524449732195556406e-02,6.465311498088090365e-03,2.276296461432934792e-02,1.044390374672961030e-01,1.823806447232950712e-02,5.746903362938311777e-02
2.466732107552072756e-02,2.255319071337845340e-03,1.798280634909155129e-02,1.221315306896080671e-02,2.070019992507809992e-02,5.712656576950186395e-03,2.961382361081386916e-02,1.097813273268468254e-01,1.468934576664947950e-02,5.987205666914227620e-02
1.868490732113021677e-02,7.436692044725605119e-03,2.285531436570591504e-02,1.181402097206546431e-03,1.658254593961786677e-02,4.507875613985862749e-03,2.779780138073017354e-02,1.421609438921027091e-01,1.124574679469078804e-02,5.937695328468970551e-02
1.030144936558140961e-02,1.182688984625493780e-02,2.016992671929513162e-02,6.645155684737485274e-03,1.252155938014056294e-02,2.593525124829681484e-03,2.914741344164159531e-02,1.695703128790307102e-01,7.926447654982644170e-03,6.436155204398430474e-02
4.268826737058711678e-03,1.191818068126005055e-02,4.679856415721874927e-03,1.253899122496827598e-02,7.522176099951519493e-03,3.810898935024415596e-04,2.664606953090153246e-02,1.603191395346978132e-01,4.752953953386644670e-03,6.340592099766755030e-02
1.299541970780403091e-03,8.426876038163805260e-03,1.609697392715322278e-02,1.498111944198205620e-02,1.551375943927211370e-03,1.349043528163429949e-03,5.088441958536236466e-03,1.171219283002659928e-01,1.744755215444411187e-03,4.750650962415806089e-02
6.556943894532729980e-03,5.818855894649803406e-03,2.622099610217198951e-02,1.037120234064999730e-02,4.040830894269060308e-03,2.137166809070922043e-03,1.837471490536607063e-02,7.415987904035729883e-02,1.086246584705591149e-03,3.477000004823395385e-02
2.305278153166023455e-02,6.256756336499032234e-03,1.950308311267094294e-02,3.014540697680498892e-03,8.397122762366723489e-03,2.418812734825066899e-03,4.284852891945326210e-03,6.063716989921610900e-02,3.727625048254853274e-03,4.696944312285929873e-02
3.475373610207228153e-02,6.077659098038265019e-03,4.889861852984968803e-03,2.146159308059519821e-02,1.200284151665603066e-02,3.095616836443861909e-03,9.853166846833263937e-02,7.718430723953824402e-02,6.154863314699632673e-03,7.579817122029626486e-02
2.444667903922884480e-02,4.472531108249671455e-04,6.424654668858468740e-03,3.664145007295151885e-02,1.495739373593486798e-02,4.414477249298954728e-03,2.288897898912419515e-01,1.048977215658488532e-01,8.349645300667599482e-03,9.745809168303037895e-02
4.496046505854788683e-03,9.593689761102183744e-03,1.354472184719474927e-02,4.150357337833599641e-02,1.644302691396825472e-02,5.799346186403200529e-03,3.253362715527932103e-01,1.249854189485261058e-01,1.032639023953115312e-02,1.080017695433179714e-01
3.066930473839708793e-02,1.729402373102768842e-02,2.474883425973619169e-02,3.594456410107073341e-02,1.673815953755350763e-02,6.806565822808553594e-03,3.458719961705715717e-01,1.301939271184138769e-01,1.209471768954612642e-02,1.208625946744435325e-01
3.959969867145209099e-02,1.730272371769796258e-02,4.431752557451160146e-02,2.630904856678342035e-02,1.755057115728513722e-02,7.609307070360127497e-03,3.060668585362389393e-01,1.243818797444307678e-01,1.360237023917093731e-02,1.405575263589136925e-01
3.289617758293730820e-02,1.062279017144534231e-02,6.149024833880670921e-02,1.929260998641387295e-02,1.961314067428868158e-02,8.452043471742840333e-03,2.490941046544239978e-01,1.122269645572327446e-01,1.481444691325060209e-02,1.571814545084002646e-01
1.577180949507987415e-02,2.558837069265958424e-03,5.956458615165758502e-02,1.597403792253889593e-02,2.188339470367155551e-02,9.157832028144789749e-03,1.982589076925626304e-01,9.503159210830408599e-02,1.583778062753679258e-02,1.579080123671335878e-01
8.773491904098705205e-03,2.416565889803250471e-03,3.882066512281824588e-02,1.168740528100778095e-02,2.343548996030860726e-02,9.493566712159857285e-03,1.433573685556525090e-01,7.955545442880457285e-02,1.675508792176871181e-02,1.340508400786605270e-01
3.388176072623652613e-02,3.438926318231647333e-03,2.018911334059767318e-02,2.969036735047922686e-03,2.448348153377358574e-02,9.751116939009223453e-03,6.770741667113103213e-02,7.566884908558010880e-02,1.735487283261983454e-02,8.637486373322604549e-02
5.208670263526731653e-02,2.565231026611736534e-03,2.106205823102278232e-02,6.069018949587071110e-03,2.543860507664458953e-02,1.034655057215835665e-02,1.594978270279158450e-02,7.734115458783669128e-02,1.747841846832196705e-02,3.142534508061592402e-02
6.577654040027965110e-02,2.553825093305784558e-03,3.740192292206902247e-02,8.058422822012153638e-03,2.622479852896212812e-02,1.094562246151326197e-02,6.172784080421470088e-02,6.351079376373346130e-02,1.760614039132758421e-02,1.805052629997062896e-03
8.003749626550792085e-02,4.331000152496473563e-03,5.328069394695938987e-02,2.678928073657815649e-03,2.666397115055236383e-02,1.111582177377539414e-02,3.249640803608336292e-02,2.769008847323120234e-02,1.812966100743943973e-02,1.022998060823043440e-02
8.339817503529162179e-02,5.339153534201086272e-03,5.767179644378828129e-02,3.431139022387358177e-03,2.680707302806287565e-02,1.180947724655966036e-02,5.444782323158570136e-02,8.444613247059657574e-03,1.805724861467836520e-02,6.413318642373289080e-02
5.294562467840639719e-02,1.769497122511227375e-03,4.732439054338703766e-02,7.135073270168448833e-03,2.675994302127717231e-02,1.427796040849281523e-02,1.361290251251315864e-01,2.103491017149533224e-02,1.653807133642841085e-02,1.262319954122780308e-01
1.366349605516386026e-02,6.288976466928136722e-03,2.114169757345434400e-02,1.132320474908859662e-02,2.652563053716086583e-02,1.717019554481792956e-02,1.617261218090763342e-01,1.387814986053104507e-02,1.616223278430301696e-02,1.581363678109350412e-01
8.500078254120985166e-02,1.406915357949179574e-02,1.972727185127374008e-02,1.630757842959442219e-02,2.608338585165014337e-02,1.711643572669139385e-02,1.303434610386199066e-01,1.391356872704973754e-02,2.126450543713641686e-02,1.472300818177930404e-01
1.238318943150546747e-01,1.740663698451470204e-02,6.694507946511726870e-02,1.726368189416172330e-02,2.546283127589524936e-02,1.327806845279500859e-02,7.142991438739756949e-02,3.962499378608495826e-02,3.118761570924728083e-02,1.075143136907472929e-01
1.197270737397124057e-01,1.599443325722945536e-02,1.080645413485631090e-01,1.221004487402493899e-02,2.470727570043885699e-02,9.205196332918816338e-03,9.065477079779137026e-03,7.749933712852574708e-02,3.883745351755164832e-02,5.619986581102018319e-02
8.916333184103324150e-02,1.105182748794937032e-02,1.359580651275320851e-01,5.244644060788600411e-03,2.383800534803158858e-02,8.442245494505139225e-03,4.512147303909185003e-02,9.349411236591792518e-02,3.806889656978128950e-02,2.288810862410213184e-03
5.326653832922208232e-02,3.377796791881784721e-03,1.489519114913295805e-01,5.910951903194839457e-04,2.287033183054112961e-02,9.838044229630714399e-03,8.366424129110165697e-02,7.174483150526968223e-02,2.978012059370929721e-02,4.404734724976135107e-02
2.348952697373735826e-02,5.293179597241660060e-03,1.442750574388469154e-01,7.303868953241039741e-03,2.182955627886746380e-02,9.609907147748019546e-03,1.039735647968088178e-01,3.401061694646348443e-02,1.978361432899159930e-02,6.902523431187634895e-02
4.972441911570488551e-03,1.178721098424913988e-02,1.197564229710860739e-01,1.559442187127233620e-02,2.074300024250444463e-02,7.211956039573464566e-03,1.088602790541464554e-01,7.624303429467788398e-03,1.309883761817560652e-02,7.077269949615164202e-02
3.551707163268241242e-03,1.342633536386973574e-02,8.070161863328678686e-02,2.039385960939578413e-02,1.963235809106274668e-02,6.214027569867084516e-03,9.881087207687282159e-02,1.475948098556097154e-02,1.075209786936521389e-02,6.561474427973705559e-02
2.148401887046904116e-02,9.345757687194890945e-03,4.095114267736729013e-02,1.736264277599309722e-02,1.851668970994730518e-02,9.168367288322062589e-03,7.245112976359874279e-02,5.575960515665882855e-02,1.056355833344248263e-02,6.963366828445931300e-02
4.867423421466959832e-02,5.540901937994592574e-04,1.627942951063621191e-02,9.761060490190143907e-03,1.741425944790371896e-02,1.432507532794559217e-02,3.731726347113326764e-02,1.026939412016968228e-01,1.026119999117259055e-02,8.126665777928039625e-02
6.840399233492461262e-02,1.001233881289795985e-02,1.268666924485844193e-02,4.743714150243638281e-03,1.634072018050012481e-02,1.829853461582404972e-02,7.393506705184285308e-03,1.190521529863823452e-01,9.451937475818548290e-03,8.718105992863860176e-02
7.339825545756975544e-02,1.863651420134289013e-02,2.013421368665148717e-02,5.444730861206165465e-03,1.531044151953340690e-02,1.974577469977504413e-02,1.072353646325239183e-02,1.032399183735976111e-01,8.761840616054169389e-03,8.027740209024392115e-02
6.812393977006105106e-02,2.296595660638955233e-02,2.292694723942163837e-02,9.511478880240177916e-03,1.433702079883830693e-02,1.922296340745242513e-02,1.452965774371790461e-02,8.716303995357482792e-02,8.366325940199611719e-03,7.007974824666703129e-02
5.633782597949903159e-02,2.220985712248535124e-02,1.481622454244251735e-02,1.368812184655211067e-02,1.342684688161768086e-02,1.721034002927172846e-02,4.086681553553818229e-03,8.036768672905129918e-02,7.993836133756333090e-03,7.252103247357424842e-02
3.640321596474035276e-02,1.623451725135012860e-02,9.959253029633045526e-04,1.742594040301625666e-02,1.257858283415731748e-02,1.385020149098719830e-02,4.179391325871936735e-02,6.584089466557767334e-02,7.556420178174827647e-03,8.419442227460503803e-02
8.982286836584595785e-03,6.593432969030026125e-03,2.038052188784884172e-02,2.192659741535823298e-02,1.179808928721302538e-02,9.859074808241869922e-03,6.762532644581999153e-02,4.402807615499089444e-02,7.174119894717798616e-03,7.789851661606429778e-02
1.890079715184918296e-02,2.804526857742174924e-03,3.792007987865078644e-02,2.710110599159997607e-02,1.109938291753346032e-02,6.494645323487439371e-03,5.505059837120704347e-02,3.358637871686039056e-02,6.885301364414389211e-03,3.788773711384243320e-02
3.963412504949263837e-02,8.723223705991420274e-03,4.386779692758682736e-02,3.105167787160754284e-02,1.047233093373926491e-02,4.630485090488616756e-03,2.207950805482166573e-02,3.636140176148975472e-02,6.622922720969896468e-03,1.411862152457349015e-02
5.197861717767614242e-02,1.183805594038239879e-02,3.318195502452044726e-02,3.281482075321399267e-02,9.880412527020342173e-03,4.228024371899010217e-03,7.771002338988513419e-03,3.917828786735767788e-02,6.346644165053508431e-03,4.523056438528950951e-02
5.968861756685796965e-02,1.514361353327260164e-02,1.531263647196856072e-02,3.385187116354897163e-02,9.330570771697202503e-03,4.538158146245828417e-03,1.712088542807830432e-02,4.000281147397512227e-02,6.074603130432034565e-03,4.939237799858316874e-02
6.187362840262047858e-02,1.918724067685963902e-02,4.827343157291782462e-03,3.521593272593224327e-02,8.880483638038692840e-03,4.669022046016171011e-03,1.999558273439719022e-02,4.535240188779608717e-02,5.830437962804363959e-03,4.402739325251991964e-02
4.980419871181000074e-02,2.017041823393132469e-02,5.432377272882456601e-03,3.473459900123861133e-02,8.490344192592855221e-03,4.373099915159561930e-03,4.984835769305636516e-03,5.621246929382375801e-02,5.588893506937988274e-03,4.523235710288081579e-02
2.027679579690776918e-02,1.409772428305340088e-02,1.210537776155317519e-02,2.985981587254093322e-02,8.004555952627865484e-03,4.415256805403507991e-03,5.364482928771936721e-02,7.592767032761547907e-02,5.282452178004893792e-03,5.997504000113812461e-02
1.314475893718867680e-02,2.572344250745911293e-03,2.109652198959880570e-02,2.311120769614364093e-02,7.469282346872837576e-03,5.496329762889256426e-03,1.097204949840261401e-01,1.134071931093258712e-01,4.911080614645358874e-03,8.735921065811014241e-02
3.199649713455795380e-02,7.965331741728875342e-03,2.706903415923075235e-02,2.149916875324257501e-02,7.181705691962662549e-03,6.806058137223543539e-03,1.521332354620199834e-01,1.622528392791959539e-01,4.581666619335011091e-03,1.183043446928735698e-01
3.181752209746033927e-02,1.292608961160657960e-02,2.151879307403823868e-02,2.819395887878989662e-02,7.009645980557591832e-03,6.819983784650046274e-03,1.662190285904308895e-01,1.959887551780102322e-01,4.279902477541085160e-03,1.452075218142402924e-01
2.118449747345756834e-02,1.263690075622396318e-02,6.840092137792330371e-03,3.595176990419271523e-02,6.249184454144646877e-03,5.545787074046310688e-03,1.601320828874734647e-01,1.977051923290532309e-01,3.757942871102868451e-03,1.688703274626050244e-01
7.823056624159465539e-03,9.725184413651695794e-03,7.763252812901608874e-04,3.281394238543893643e-02,5.152437481275411180e-03,4.484544487899401466e-03,1.486099311217748131e-01,1.766306725197267502e-01,3.017727611506105297e-03,1.842265164413377787e-01
5.599696396421730005e-03,6.644230195649978091e-03,1.429967637471361332e-02,1.520306077140551500e-02,5.822741754551734664e-03,4.393639068993017427e-03,1.224732100020930609e-01,1.453092871754258220e-01,2.573614966634057630e-03,1.742839853663652461e-01
1.615892685821983948e-02,4.171560998271747756e-03,3.446713086478332688e-02,1.020117358289509418e-02,9.834045190034723660e-03,4.594245520095387170e-03,6.557114183666393203e-02,1.006744379722865623e-01,2.415418819691214115e-03,1.350414026500899312e-01
1.984386481773329353e-02,1.323239252674475019e-03,3.967759452272130727e-02,3.934366088286340296e-02,1.559801409379090245e-02,4.396212297300420430e-03,1.094445356407549620e-03,4.041021201967752441e-02,1.429628502681307665e-03,8.934068370765314848e-02
1.624443730590341070e-02,2.444303846489339228e-04,2.229848813274788732e-02,7.588873841356941208e-02,2.012694337180076509e-02,3.941688383801782505e-03,2.632564951836240119e-02,2.187683718863207144e-02,9.287858393128073028e-05,5.917653201525951978e-02
9.515343802040924018e-03,5.794670364435245899e-03,1.381154059093808034e-02,1.174945551594798326e-01,2.258076102242084424e-02,3.641482553983972116e-03,1.389912974606596560e-02,7.267702627130703807e-02,1.877186402147435016e-03,4.051103890490968112e-02
3.353718665382866317e-03,2.218661544485518028e-02,6.359114998729663293e-02,1.478270936007127778e-01,2.389814836133049084e-02,3.496026196405062521e-03,8.722537188459023039e-02,1.109504065752376784e-01,1.096172660630959084e-02,1.936884092124352419e-02
3.252833786481080462e-03,4.081281433455018898e-02,1.123014898721471228e-01,1.530647350321747979e-01,2.409836594339547639e-02,3.095190228488378225e-03,1.369500841524385337e-01,1.320674251814013822e-01,2.354719124451641263e-02,4.572706593179141389e-03
1.381508512662379777e-02,4.987753881446980314e-02,1.343476254384216861e-01,1.391665918698347104e-01,2.229033404379995864e-02,2.300670414586426273e-03,1.321079648069700962e-01,1.233777886912656441e-01,3.089256979487730453e-02,2.450211315242297253e-02
2.802871966325770625e-02,4.600985165411926314e-02,1.223879632622542207e-01,1.225082665231445184e-01,1.828041051766617076e-02,1.810078632628363661e-03,9.088398937763493557e-02,9.177144211481809422e-02,2.895302413183876641e-02,4.165416416176995207e-02
3.943352690679527428e-02,3.477314577809525326e-02,1.006681195405777079e-01,1.093094891803499114e-01,1.244307597365164851e-02,2.300947886754397143e-03,6.144966609676542207e-02,7.188752821730187703e-02,2.135223270175457683e-02,6.119019690577678222e-02
4.084947109610773813e-02,2.191285281571073856e-02,9.056038229016329100e-02,9.361655335147743562e-02,5.344166844630113267e-03,3.004409162205146869e-03,7.136105791555050204e-02,8.729193887514291594e-02,1.262453560688727577e-02,8.081376888281183168e-02
3.135767022568919371e-02,8.922438712976958272e-03,8.266398856426791786e-02,7.080613848917101383e-02,1.419232166643322711e-03,2.426271917792805974e-03,9.826431507322921921e-02,1.192349126724210895e-01,4.116872071823302233e-03,9.004926092828308137e-02
1.639005114657176784e-02,3.525550703815362452e-03,5.872450949538415149e-02,4.474720789177717012e-02,5.760870159872637231e-03,5.878123273496678285e-04,1.002273078373373122e-01,1.289942891041849782e-01,3.295410623102170908e-03,7.970551282686934302e-02
1.199492368163827902e-03,1.258438196834255757e-02,2.108778440733657944e-02,2.341774568418239499e-02,7.372470845397097704e-03,9.977283476192283507e-04,6.178975253783333677e-02,1.006271533789333955e-01,7.739138793893529482e-03,5.315598326580074640e-02
1.328176200542033163e-02,1.525501920088780453e-02,1.281103834185309646e-02,1.168198367938067840e-02,7.960199261354923214e-03,1.581365800993881840e-03,8.642057097892107478e-04,5.225071147450705694e-02,8.589950759375816411e-03,2.635557877820387390e-02
2.695564104865977306e-02,1.046834259558737656e-02,3.037520739763934635e-02,7.295199848606506721e-03,8.915386992486189557e-03,1.839753649745844762e-03,4.921156668779098214e-02,1.366273833377126302e-02,7.453526649821124242e-03,1.254580717879189358e-02
3.755282244160153271e-02,7.650521074966543794e-04,2.999341685662511303e-02,3.748718424603310687e-03,1.012957633655652522e-02,2.394543049242475827e-03,5.893733952265183679e-02,7.970447985798500418e-04,6.586527187265787953e-03,1.047572134162599519e-02
4.457953090858466499e-02,1.371670828893035987e-02,1.678578992426926764e-02,1.051287187004810650e-03,1.109235694258362513e-02,3.065097881222391633e-03,2.941243043146542224e-02,9.039641481689543456e-03,7.153083027722691514e-03,1.206619973668968462e-02
5.042597925825626631e-02,2.046079465349636209e-02,1.668657650059464197e-03,2.173192843523005791e-03,1.182474797935856303e-02,3.562240023523297831e-03,9.375570455606046551e-04,2.569728773292510524e-02,8.587040662628374690e-03,1.624825245906359045e-02
5.453214575681138848e-02,1.698462043926766279e-02,1.689286858756659793e-02,2.410282283987074010e-03,1.253844872672447465e-02,3.951726051102467767e-03,9.316229505149825271e-03,4.495258607622897029e-02,9.523651934983789341e-03,2.667144472523319543e-02
5.392523227099570160e-02,7.632280701687511014e-03,2.075798209440457912e-02,5.190921403238076860e-03,1.320798212659617978e-02,4.364954733248606680e-03,4.072760266820785180e-02,6.862131537989028807e-02,9.471984444963209640e-03,3.774315733797847100e-02
4.994149927212472584e-02,1.267630823382106262e-03,1.042109495798180553e-02,7.518303473653033947e-04,1.371882602933280522e-02,4.769537553738503743e-03,5.742885020842233845e-02,9.211279356681538466e-02,9.053558264791481888e-03,3.482454927751051782e-02
4.548947074623117814e-02,8.497706184434041660e-03,8.949710662720433696e-03,1.089457800852853230e-02,1.406897935877474658e-02,5.091946865827173818e-03,5.311332908740365455e-02,9.465617531529649242e-02,8.782285082168715326e-03,1.205038461662514757e-02
3.861620862135328736e-02,1.521069607008635610e-02,3.127540768524952192e-02,1.641230002182341580e-02,1.430263091192699766e-02,5.338956850686905203e-03,5.052554828697428113e-02,5.849641967959066935e-02,8.518465116867716264e-03,1.909217864543634804e-02
2.823138116463238048e-02,1.958885822560939988e-02,5.445558546001166844e-02,1.712606118303729510e-02,1.441527133109498510e-02,5.560961202858360000e-03,6.120181541269018727e-02,3.208514307630399437e-03,8.044693815805739265e-03,4.189164957527095196e-02
1.997970806685393785e-02,1.855091261610536738e-02,7.208089253830488041e-02,1.971850167026184888e-02,1.438375049768874855e-02,5.768839724498345430e-03,8.036585222041103815e-02,2.257862389911775153e-02,7.430450848388638757e-03,4.826452114526971066e-02
1.672084849353225669e-02,1.193029126211568418e-02,7.079429938860651306e-02,2.699149429763807867e-02,1.421114965569508955e-02,5.908554536684583816e-03,1.046303865608418648e-01,1.349259867603857035e-03,6.792225620988665696e-03,4.073350982647480634e-02
1.128829279434848294e-02,2.053765151060278366e-03,4.744843122664609003e-02,3.572308355509333511e-02,1.391324386693274136e-02,5.953791718846511774e-03,1.265497377970351556e-01,4.240263768195656757e-02,6.116353824694504247e-03,2.746559218039835992e-02
9.748153040505104332e-04,8.046989528092001603e-03,1.992074535655227394e-02,4.273630493875405639e-02,1.349723310411576720e-02,6.008986998436007497e-03,1.304342372933585126e-01,6.472122106941878561e-02,5.367433300203588130e-03,1.554521425086697120e-02
1.016733914247059702e-02,1.416397308096888942e-02,9.624082612485459001e-03,4.779482571974198041e-02,1.296764798168901014e-02,6.153848825021225773e-03,1.149619396464561932e-01,7.539679459571392572e-02,4.572242043334760059e-03,5.874092765240955701e-03
3.926920001127571537e-03,1.229180929213164256e-02,1.976951411709864173e-02,5.166833588718879045e-02,1.233611495305494965e-02,6.197332910327836390e-03,9.881093088130099567e-02,9.950156578698506060e-02,3.769597779698105090e-03,3.670847440373148189e-03
1.225749270060266793e-02,3.066504017561402264e-03,3.721992182746736155e-02,5.438387339328568798e-02,1.161836322894621056e-02,5.983546692463454809e-03,9.123327465026521976e-02,1.318117604150454980e-01,2.969960801927750554e-03,1.064944985669645343e-02
1.848857966644221543e-02,7.613054963006828969e-03,4.941004888379015719e-02,5.450731673367124885e-02,1.082923111648804483e-02,5.939919868971560608e-03,8.245180161448466272e-02,1.393999545563596454e-01,2.177912317549307326e-03,1.054363949327335320e-02
5.398926240159651786e-03,1.445206485265897352e-02,5.551075585522485117e-02,4.950092413192345997e-02,9.983584030548465008e-03,6.459969130647462768e-03,6.962199430772775255e-02,1.033614232361841218e-01,1.410842229275719980e-03,6.605543083028430663e-03
1.429290322201135291e-02,1.747142705676425420e-02,6.245890110443010762e-02,3.868434465072793232e-02,9.098139278485647616e-03,6.607170358803971660e-03,6.579092250814864984e-02,4.051848572081569871e-02,6.881632706507978797e-04,8.813485699857077915e-03
2.316978277695403224e-02,1.943081115434386330e-02,7.036731188702974316e-02,2.537005872678718688e-02,8.190463657739552317e-03,4.971249120516999659e-03,8.250293571596437059e-02,1.300853173400540706e-02,2.196523959803247869e-05,2.350473890711334002e-02
1.952403424936054871e-02,2.062794229093850920e-02,6.840686648105623324e-02,1.393300895527115751e-02,7.277616388981875128e-03,2.354557932765975747e-03,1.236472726131498945e-01,3.147112182491319798e-02,5.784759260364568875e-04,4.971706071746757188e-02
1.485555322222021669e-02,1.869602287863918536e-02,5.163033482342779812e-02,6.292871710740583803e-03,6.376191083093705331e-03,1.607156188220996724e-03,1.810506668475450054e-01,1.649814937455214639e-02,1.102646359192879094e-03,8.003182732682335987e-02
1.689849443982371566e-02,1.300722560086524891e-02,3.189375528326882092e-02,2.893971644200853642e-03,5.502287491042571858e-03,3.836456498796825265e-03,2.182137750434804402e-01,1.137319875332478379e-02,1.541177212358256759e-03,9.911033993660513242e-02
2.054876048336917380e-02,7.078511759678912663e-03,2.358397683795223840e-02,4.074863966542038862e-03,4.670659725666381767e-03,6.725937004487841063e-03,1.944755233914659542e-01,3.914139162438907277e-02,1.888027844266739006e-03,9.262355777291006453e-02
1.485095418562587533e-02,5.419268825636043563e-03,2.992014657288739193e-02,8.629120077696679492e-03,3.894473829073487672e-03,7.643365451731387594e-03,1.288030209302174489e-01,7.192762818545961334e-02,2.139586027562548343e-03,6.772759721270381339e-02
1.952234389296009882e-03,8.213905792137961639e-03,4.692285424372489439e-02,1.397517441570716307e-02,3.185920815661679329e-03,6.810826586884840932e-03,8.883891335044938331e-02,1.057626771821295747e-01,2.293748432377822749e-03,5.172051656409301645e-02
1.655609946848248318e-02,1.054911476353483958e-02,6.449656087478755628e-02,1.889513000238229878e-02,2.555440622394759831e-03,6.398356645182174188e-03,8.874855559481563405e-02,1.028674280043432726e-01,2.350360397648837592e-03,5.765053829995371582e-02
1.448024500890918512e-02,8.631145022351547486e-03,6.420921310966262729e-02,2.362423528352375693e-02,2.009672035389627100e-03,7.553111711542741767e-03,6.087178476685189965e-02,2.721941875477197972e-02,2.311605273066269246e-03,6.616599468908938853e-02
2.762008207897820311e-03,5.070371667713600289e-03,3.633298993870864163e-02,2.698732946150741302e-02,1.552584590434696009e-03,9.305554690176714994e-03,3.683360788185473245e-02,9.499260191292703548e-02,2.181695502740868021e-03,5.550025735044804287e-02
2.247236520983883490e-02,4.126009374773361577e-03,3.532352019089449093e-03,2.602322320968098596e-02,1.189356335228768276e-03,1.004238259728163982e-02,1.499332126302868329e-01,1.894902452103631174e-01,1.966504356568251049e-03,3.195565568431595060e-02
3.860924383250269321e-02,4.389972630893077161e-03,3.236752662715528667e-02,1.954842154781374908e-02,9.236450239586409088e-04,9.462011109057942571e-03,1.997027548413515263e-01,2.157873862145300858e-01,1.673425868777117173e-03,1.573235761166287897e-02
5.309821953709986664e-02,2.325739373320946917e-03,4.539977735845038970e-02,1.082015996058916830e-02,7.490995460578643225e-04,8.942883210738970107e-03,1.715830152098233585e-01,1.988180302031474778e-01,1.311209897643195914e-03,1.447281961329238004e-02
6.321698666212813289e-02,3.514757398605024719e-04,4.907331918062676768e-02,5.260958800699197524e-03,6.550344530500051485e-04,9.858163223283542345e-03,1.055986025473257539e-01,1.763475884146277484e-01,8.897062870300220198e-04,2.481817047078734018e-02
6.096259502683652048e-02,4.277340649227509128e-04,4.344410869194986757e-02,5.819786427303868907e-03,6.449047469261179246e-04,1.187996833897955566e-02,4.106512306309154092e-02,1.544582362812419174e-01,4.195718804511354861e-04,4.418682232459861248e-02
4.460320769842156252e-02,4.608976267336859986e-03,2.847863766902786198e-02,1.137240688850054554e-02,7.250255835123029478e-04,1.370790700272823438e-02,1.027088789559779496e-02,1.229059256534994343e-01,8.815360971419698537e-05,6.950028599299364063e-02
2.264852443358306849e-02,9.506025543101372446e-03,1.692529957956251038e-02,1.863768273888743651e-02,8.653607195584368372e-04,1.485617012965746546e-02,5.786235693906084665e-02,8.140253908742610400e-02,6.224632124670534655e-04,9.575959054757879341e-02
6.822138954166064029e-03,1.334688796836132341e-02,2.492037533914749983e-02,2.455612068543362378e-02,1.023280571317023747e-03,1.551470485064674470e-02,1.100492723687204882e-01,3.669045819080215404e-02,1.172436327415296922e-03,1.214411669703268498e-01
3.833114455973718297e-03,1.452478588581398826e-02,5.064921361182503357e-02,2.803860802251789339e-02,1.228738904687933994e-03,1.535918741843847989e-02,1.563401349323555456e-01,8.587979522009524941e-03,1.727301019868260996e-03,1.449292797051884851e-01
1.086596938860189335e-02,1.203014665342853375e-02,7.153212268789825579e-02,3.021989360850133380e-02,1.536674761434651685e-03,1.369129643004165543e-02,1.728516278378625370e-01,5.417729201722406435e-02,2.277302760274415184e-03,1.554033308877270092e-01
1.836905901331106067e-02,7.438022625193363956e-03,6.768532982060446179e-02,3.226379554433866925e-02,1.844725590316224472e-03,1.040199739120852181e-02,1.467079250259399614e-01,9.654341271137079072e-02,2.814533809889129424e-03,1.414195279027659069e-01
1.984106087653638925e-02,2.621945621336797642e-03,4.505048152672852524e-02,3.382031371106371948e-02,1.990912045164554885e-03,6.467967433749742534e-03,9.544224469847575887e-02,1.260577275884032789e-01,3.331944957476355891e-03,1.102033855360490394e-01
1.575535865267090746e-02,2.581134235377341001e-03,2.867091257586043551e-02,3.437079211528899086e-02,2.149325420328519060e-03,3.490186724862142688e-03,5.447532390429138394e-02,1.280257432488113301e-01,3.822300228989711137e-03,8.420929124478952754e-02
6.244549373818577068e-03,7.122662585329404827e-03,3.363687794680705889e-02,3.305801025170922863e-02,2.642386093083775971e-03,2.067081925632983583e-03,3.779349275802258712e-02,9.626480799378571429e-02,4.280912143306024598e-03,7.514341033802422742e-02
1.122123598413667621e-02,7.603051860287928995e-03,5.066181260254416785e-02,2.579502439284683812e-02,3.043936638119273258e-03,1.188364936094921977e-03,2.631826464794830012e-02,4.985862169466322852e-02,4.708470345028382791e-03,7.461490023915330616e-02
3.279917739451613384e-02,4.096368180364741776e-03,6.189632097418281548e-02,7.576398464879379596e-03,2.290498645104760596e-03,5.908095434446734590e-04,1.000593980471774572e-02,2.263049034598654113e-02,5.105651999652810295e-03,7.501034047900101420e-02
4.751057866470686369e-02,1.878837312980765391e-03,6.106025046555578484e-02,1.891426131231736113e-02,3.691614394355505679e-04,1.942304709486334865e-03,1.667873625200304646e-02,2.903834613705738241e-02,5.467166802917675789e-03,8.362809943167388849e-02
5.134657257325483254e-02,3.642119570799490658e-03,5.226301558644950995e-02,4.179877457656124701e-02,1.069242755123428392e-03,5.403891428627967397e-03,6.836906704886611119e-02,5.093663142825791829e-02,5.793184337482963284e-03,1.049406563664154468e-01
5.218708384618960666e-02,5.468481314760368674e-03,3.793197195604933181e-02,5.111832629648977583e-02,6.684199325611565098e-04,7.726611028127049717e-03,1.307487807498992349e-01,6.201407981913909656e-02,6.102264792570998020e-03,1.251079061255264413e-01
5.534549306576017763e-02,3.913501274014906037e-03,1.708916714702366293e-02,4.739641174808635615e-02,9.527127712950799777e-04,6.747520838809968440e-03,1.494424106235347494e-01,5.650832973044812163e-02,6.407050231408962376e-03,1.305041873555769782e-01
5.522221099302425384e-02,1.117381905564250946e-03,8.324358689744288178e-03,3.674563117824461433e-02,2.206374487328291965e-03,4.824121105831673077e-03,1.239590709562097409e-01,5.037248154452553250e-02,6.685624677179081293e-03,1.243832719116449576e-01
4.683136070638763138e-02,4.010494545487690147e-04,3.250435024824643859e-02,2.326923583032268830e-02,2.395714484823281091e-03,5.113582687971395327e-03,9.820859514865373785e-02,6.042687791605944742e-02,6.932154214855346455e-03,1.086564647351448698e-01
3.379616968360276558e-02,1.954305179391145099e-03,5.101154780611886347e-02,9.285003584375600000e-03,1.959598065847497923e-03,7.470203390794496502e-03,8.770378382677330997e-02,8.672987928260568469e-02,7.218728053748505423e-03,7.292481426283711765e-02
1.984870899166488525e-02,4.618005433712432835e-03,6.470179862257822989e-02,2.475399194127805066e-03,1.467900566513154811e-03,9.809189930841019991e-03,6.675343845978454205e-02,1.129474595535772258e-01,7.588065063089092718e-03,1.829357548463149061e-02
4.445528309090125696e-03,6.466438946232339578e-03,7.781371992357188905e-02,1.035580842194978694e-02,1.021069280682209129e-03,1.038100035374055902e-02,2.306457129257054664e-02,1.224213247644685698e-01,7.917660616609874247e-03,3.561818365501734363e-02
9.111305777915461312e-03,6.595632745435034590e-03,9.072836959647204158e-02,1.445696535868326062e-02,5.140655251849857426e-04,7.571206911019942240e-03,2.101562658025743144e-02,1.138682942698868855e-01,8.144330778555104039e-03,7.949681039287756490e-02
1.215254339093679511e-02,7.571193426963552554e-03,9.571399767487792642e-02,1.439149261574587668e-02,3.612895306342234810e-05,4.929708734802249089e-04,4.691969407337216735e-02,9.758944347890173565e-02,8.562156271405739483e-03,1.207790744794359772e-01
1.322423148694169479e-03,1.111724412636761958e-02,8.441081284837120835e-02,8.681822353739753265e-03,6.120000364825925769e-04,9.081190551349869675e-03,7.022350485396260111e-02,7.985158687134621958e-02,9.356559597848214047e-03,1.580385145356008880e-01
1.556352482541038459e-02,1.387717700228164631e-02,5.845567110887509021e-02,2.567674356564087108e-03,1.288618758765010947e-03,1.747352197348653324e-02,1.182101300338697231e-01,6.066203387029359823e-02,9.900217582449553216e-03,1.812578317799104499e-01
2.751881297600959619e-02,1.071814104731320591e-02,2.732480034373867273e-02,1.565879277880593418e-02,1.967204139410887089e-03,2.252306761551573638e-02,1.849733544423605436e-01,4.077251027664716143e-02,9.510931946592164274e-03,1.950487601235003920e-01
3.255150227365108395e-02,2.099021278377686747e-03,1.006952562306155825e-03,2.529536580007472890e-02,2.398882517099385631e-03,2.510121297369676679e-02,2.313218662039996931e-01,2.222062632066900550e-02,8.950406730912905881e-03,2.103220506693405933e-01
3.841623549212060118e-02,5.193402481558343289e-03,2.071812354557869135e-02,2.886469577716370416e-02,2.813757599140964769e-03,2.732801447422224250e-02,2.401918605803103623e-01,9.851084898189237798e-03,9.737750664264840927e-03,2.206598293540937561e-01
4.835857822856282767e-02,6.145089600637413350e-03,2.539119003389975898e-02,2.786341373015505454e-02,4.039721396608324765e-03,3.026249760772443606e-02,2.417572731918053441e-01,9.660942097117883667e-03,1.185568566784882955e-02,2.138130179085681870e-01
5.102499757781261275e-02,3.286257205400721065e-03,1.466874562557373904e-02,2.505040199377148863e-02,6.436559300430817927e-03,3.340021127804905510e-02,2.616773033278858573e-01,1.113922072820652982e-02,1.378117834886196172e-02,1.967780498094885977e-01
3.330681362674287049e-02,2.421903601858885636e-03,6.574724438871007784e-04,2.204148476200946255e-02,9.065479066815977649e-03,3.601458444700426920e-02,2.805743894824288542e-01,1.631761048703400663e-02,1.480727724084223741e-02,1.897261996863579270e-01
2.660280026473004237e-04,5.650755393464541691e-03,1.904175875907399050e-03,1.979944607794750788e-02,1.040069603812191802e-02,3.796751194098489657e-02,2.680059354274049177e-01,8.618205157855073073e-02,1.565039824460972076e-02,1.997516429565086016e-01
3.139885240586250820e-02,1.069673106527119395e-02,7.908314902028522678e-03,1.850255973050785735e-02,9.720827934073944521e-03,3.847454224499255448e-02,2.240197154600126472e-01,1.631255763026785710e-01,1.684865223199887366e-02,2.105459784387522515e-01
4.800308418379066466e-02,1.425683012040066672e-02,1.683409794057580053e-02,1.606385964427733959e-02,7.732416408388225783e-03,3.601169657413137715e-02,1.728678784608670971e-01,1.908319296086612438e-01,1.814515083143347293e-02,2.019558822641289997e-01
5.096134114385174330e-02,1.413427414751545867e-02,1.380475640173984067e-02,9.771599827429160515e-03,5.944365631042912435e-03,3.100431210259684683e-02,1.361009312328583520e-01,1.517366394798773110e-01,1.943619126279604731e-02,1.773185981157201774e-01
4.591280324041172034e-02,1.043666482477711988e-02,9.058312048140085889e-04,9.072615220264445592e-04,5.283190789547944494e-03,2.605813778162667516e-02,1.158192782499095075e-01,8.634972891057869637e-02,2.095705938527437501e-02,1.595753306103491198e-01
3.686285588811685776e-02,5.522979651993682043e-03,1.490872144167076918e-02,4.430129227736325122e-03,5.381938045562922532e-03,2.202785904394147579e-02,9.866144912656008015e-02,4.710840359570778180e-02,2.239085216119608354e-02,1.576603327447677616e-01
2.495436903779715138e-02,9.010216306457708530e-04,3.457744460846651213e-02,8.739572432012350511e-04,5.396956319240281408e-03,1.708358858679797851e-02,7.497306341284967757e-02,4.245092310412852676e-02,2.306825062509166441e-02,1.526917506626454257e-01
1.076254541552876254e-02,4.686936172716982263e-03,6.014482073798485540e-02,1.073689107189194740e-02,5.075788654013970932e-03,1.081872265514320988e-02,4.876224169123928587e-02,4.499696113786211260e-02,2.346600425791416089e-02,1.266186559435387438e-01
4.128749878321060765e-04,1.142666415912271805e-02,7.731073611468473883e-02,2.416972549045773300e-02,4.668922119709629191e-03,5.497599264351353890e-03,3.225048734452860832e-02,4.676894201545017671e-02,2.498665098949238300e-02,8.922463887849019226e-02
9.480774469159318572e-04,1.498421419837703793e-02,6.434032266267836198e-02,3.278914195427517358e-02,4.296936992678875196e-03,2.214130021695272232e-03,3.450640543448258574e-02,6.649106540994417780e-02,2.711726677269638702e-02,5.912359794399860147e-02
7.394693055130737575e-03,1.114477611879848701e-02,2.518792938287628055e-02,3.336767171191489662e-02,3.861763754467634029e-03,3.504715315239942917e-04,4.700935599295059247e-02,9.862835939073914815e-02,2.734927950136057870e-02,3.241851227221467097e-02
1.367617415091881318e-02,2.495745337952933601e-03,6.494984778812309435e-03,2.717526203169453453e-02,3.320392171997963316e-03,2.446773198958695616e-03,4.755158519805809114e-02,1.077063669584871902e-01,2.708254020585491167e-02,8.496049133195696101e-04
1.432406273748779851e-02,3.933329708016422566e-03,7.278270179032641889e-03,1.860808508291885918e-02,2.733791591663680895e-03,2.364840618171329661e-03,2.839563802381139118e-02,9.063504248909608207e-02,3.234601855869533027e-02,2.236837634745397763e-02
1.726187990726186366e-02,5.054962100706614572e-03,8.513618304524170344e-03,1.135914147683340751e-02,2.140187550752194277e-03,2.328482528586952628e-04,9.143133951938255122e-04,9.104460906473592352e-02,3.957573306710168715e-02,6.978513860047500655e-03
2.484169502482518749e-02,3.713267121168252645e-03,9.685219442588039254e-03,5.347826047856107934e-03,1.530058400276904009e-03,6.754173778321576928e-04,3.976629272598841691e-02,1.269462810772750416e-01,2.785744424270061512e-02,3.072208265635893720e-02
2.667657108035776520e-02,2.890880911007530883e-03,1.669133976171372283e-02,1.362718356157813053e-03,9.046593846855549353e-04,2.072985591075536017e-03,8.479011583889338455e-02,1.569015292475508527e-01,1.710248003060791874e-02,5.076562668102805459e-02
1.549173049353952912e-02,2.226449375870918727e-03,5.735614140240771763e-02,8.297951216941329075e-03,2.879847602716383145e-04,6.990102409606849081e-03,9.759351566530226341e-02,1.478982581976236998e-01,7.587779952367940117e-02,4.141084709821141185e-02
1.725233351875099866e-03,6.628913916788195656e-04,9.005105951272970866e-02,1.267096559109131236e-02,3.009579253578383408e-04,1.019476823977274148e-02,3.370646810531764681e-02,1.264584734347079242e-01,1.120446945592869503e-01,2.634274117328956263e-02
1.355743300253672325e-02,9.354389373011576117e-04,1.011123216607682646e-01,1.341383803363203550e-02,8.545461595747962753e-04,8.849737012295702532e-03,9.794333617105427381e-02,1.295770174266243357e-01,1.122290875976783148e-01,2.570931053226954005e-02
1.697746333855694803e-02,9.211342101418920538e-04,8.909567652879726851e-02,1.244794600596139077e-02,1.364069235623174489e-03,3.977110998520419841e-03,2.326337263809321876e-01,1.487625073105750539e-01,9.206560655044955521e-02,3.237273511318758401e-02
1.685443475648481723e-02,1.139780108500689729e-03,5.889641642520255377e-02,1.178552885291726804e-02,1.816993091608445476e-03,2.373554390486518929e-04,3.015843252810997965e-01,1.521069122428398146e-01,6.897827970763702188e-02,2.402451070672017436e-02
1.624343293772863295e-02,4.501363664392186645e-03,1.982411670150926661e-02,1.154124577840313914e-02,2.203160887688930189e-03,9.894631616813168769e-04,2.858914634825214796e-01,1.275591118341854735e-01,4.725228587359089905e-02,1.029098426416328975e-02
1.009721020607287634e-02,8.787914389570435775e-03,1.143383104846198636e-02,1.106859600660760508e-02,2.516470642626381180e-03,4.337384878296515062e-03,2.289111461188770014e-01,8.560814588472966113e-02,2.680341920711187126e-02,5.635433478595420348e-02
8.076527345965060431e-03,1.443879136512845121e-02,1.908672302934592835e-02,1.032549758115560400e-02,2.752215438469888566e-03,6.468385005772566559e-03,1.825553729518664681e-01,4.602525944047874268e-02,1.069838098623926599e-02,8.939264230547878942e-02
3.375999585483491910e-02,2.063999788809286681e-02,6.938390372141193738e-03,9.612143321262176660e-03,2.906476754635501942e-03,6.866149297194581655e-03,1.445835270955521390e-01,2.891939550992697616e-02,4.735108134916177214e-04,1.018203413513209393e-01
5.280958351210005702e-02,2.424881376661960214e-02,2.386500886378072235e-03,8.963121912556919896e-03,2.977598294693821566e-03,7.312988564087664900e-03,7.719653925504720016e-02,3.606121057126068785e-02,7.317038248993238889e-03,1.084867516095861795e-01
5.653974695386451699e-02,2.319020475909951487e-02,5.280486700873741890e-03,8.252840966072833712e-03,2.966548470808306245e-03,8.077150348306945740e-03,2.149444111271299127e-02,4.358493673374119748e-02,1.511820766774311237e-02,1.219764488376202799e-01
4.828699283715649770e-02,1.941230235281680983e-02,2.015508923281923367e-02,7.478934868469879794e-03,2.876025939120655742e-03,8.391630900167652840e-03,1.046691970177063280e-01,3.410081883795847840e-02,2.061663327313918020e-02,1.336705563471292102e-01
3.527751629037071540e-02,1.547367216864160497e-02,2.639984264066523242e-02,6.716290594498390380e-03,2.710219143378523720e-03,9.048795751295355891e-03,1.394044102521271866e-01,2.371973498876243230e-02,2.422384154225406747e-02,1.297731727859058881e-01
2.153242106126319541e-02,1.019644480246349044e-02,2.215288267384135992e-02,5.983493721141971110e-03,2.475521924337304239e-03,1.117981507456367735e-02,1.485921724784025344e-01,3.175345326715652700e-02,3.227369370718263797e-02,1.167543901255992528e-01
8.444684731828645471e-03,1.694224826530981278e-03,1.238643211184014756e-02,5.262303602423114290e-03,2.180431229226477245e-03,1.343605992740245191e-02,1.731712244986452764e-01,4.103615066309002080e-02,4.177250088195744171e-02,1.120229314117991981e-01
3.395580804922890966e-03,6.813132176502889083e-03,5.096961054427237570e-03,4.560011070613775343e-03,1.834001122366983984e-03,1.371543601823870494e-02,2.132098039090619956e-01,2.183752419874946532e-02,3.127598846465866333e-02,1.143837498905257433e-01
1.269519705692830763e-02,9.162455093834403694e-03,3.126794195635764634e-02,3.900682738802007787e-03,1.445564430718840245e-03,1.288798930197695633e-02,2.306654643008156924e-01,1.950032669867811028e-02,1.376988902604459400e-02,1.063023938754302233e-01
1.597403009237501753e-02,4.351791760289230697e-03,5.226325648538066027e-02,3.295479113495618749e-03,1.027105118121861846e-03,1.330451451541649760e-02,2.033778688501561294e-01,5.253343184765595780e-02,7.257623864473500275e-02,8.263063572945848756e-02
1.109506196885060199e-02,2.001917810998837723e-03,5.155376263881981252e-02,2.746046621284401780e-03,5.930471586934487650e-04,1.466548753361853093e-02,1.562324770239739147e-01,7.308967794300112730e-02,1.075314670057315736e-01,5.586648035615385255e-02
3.529195437451845743e-03,4.982880391476113974e-03,3.176447676195677527e-02,2.258151949036485591e-03,1.544143192154400130e-04,1.518293471514739999e-02,1.380341514506851497e-01,1.046224092337543349e-01,1.067176417827980506e-01,3.832404486225440832e-02
2.285958813942584600e-03,5.208853602273320026e-03,1.172526774743991480e-02,1.840001753785681839e-03,2.817533282804928342e-04,1.534192478098690172e-02,1.748410854763154110e-01,1.514250965250623082e-01,8.852576837560408030e-02,3.729367352850087441e-02
5.660308407842437085e-03,5.900575971916345933e-03,6.114725407181438414e-03,1.495632435424488777e-03,7.009294725867503155e-04,1.635961986881017544e-02,2.451990141814883450e-01,1.839814057958374938e-01,7.090178085509150907e-02,5.809286336446037313e-02
6.726001280273925928e-04,8.752819047342739328e-03,1.633319519860821842e-02,1.225468596237649487e-03,1.080515827317942660e-03,1.670143835734680046e-02,3.029151110558533366e-01,1.796633908854614603e-01,5.586743485206822901e-02,9.483275546654597321e-02
2.393307291773575859e-02,1.323139307029613798e-02,3.520673453836400957e-02,1.029338739828897231e-03,1.415223043038377941e-03,1.433193623932391310e-02,3.233081829081168035e-01,1.530745980484965463e-01,4.019137627854527106e-02,1.252054934061999081e-01
5.054133480980398108e-02,1.710976832350253121e-02,5.199297402235830701e-02,9.062272893297984100e-04,1.719854463897225148e-03,1.071922653590002758e-02,3.155375733434283569e-01,1.309291463075779316e-01,2.423453229890451185e-02,1.270284187847488255e-01
6.159259564362040695e-02,1.712078597772337049e-02,5.530399069963741476e-02,8.528993531560496045e-04,1.975996986890332305e-03,9.117632137133041548e-03,2.974828000495215452e-01,1.169368702127479287e-01,9.344183753006964771e-03,1.006124612804687873e-01
5.514282160051015708e-02,1.142018913741250745e-02,3.899422202724123210e-02,8.641017778737230485e-04,2.125411359558470464e-03,1.039146521017964356e-02,2.829369494847484012e-01,1.006409326723838871e-01,4.191104714983236862e-03,6.964815380724498350e-02
4.359709137285510544e-02,2.623585204232160590e-03,1.035454367696069661e-02,9.333702477293748722e-04,2.184336745596722647e-03,1.263333809524824769e-02,2.807626705468901918e-01,8.169108585595305505e-02,1.552745088878241392e-02,5.436957956321450403e-02
3.552060298318380355e-02,3.290310848017228770e-03,9.453803975696388473e-03,1.053160302818457843e-03,2.261229774085645860e-03,1.333668432191347647e-02,2.804760563929659667e-01,6.269134522997329984e-02,2.364969684715755027e-02,4.818701878628328661e-02
