3.422156328797062584e-05,1.403513360386054142e-02,1.597971656928958914e-02,1.213754384269039488e-04,1.153861644954653272e-04,2.835567782265408909e-03,1.070865184401139682e-02,3.470407886615665873e-03,1.519566577145886783e-02,1.959526725761073090e-02
1.758356391082959347e-04,2.569544813641759518e-02,6.608469161047243745e-03,9.421056791362868871e-06,1.791455551897291171e-04,1.868245653357979629e-03,7.876846316289771782e-04,2.288778673980887152e-03,1.244132908856429923e-02,2.024319700307442363e-02
5.015330298384650700e-05,2.355638691759574799e-02,1.235044312238863266e-04,1.028410634031375173e-04,2.467749880413833076e-04,4.685761027318322176e-04,1.648172142626022976e-02,9.089559342152775390e-03,1.074300634200576858e-02,1.818410521659566056e-02
1.488298187988168150e-04,7.637674681102792767e-03,6.118373044881224472e-03,2.125835173695346590e-04,2.649180642979161670e-04,2.399978585391019607e-03,2.914525584956355331e-02,1.317699452883207452e-02,9.221902036731961794e-03,2.053172759665561689e-02
5.195398268323188129e-05,1.540711902463247872e-02,1.112067753541897894e-02,3.170388744509509494e-04,2.524010267795607446e-04,2.736058433332923777e-03,3.442914738610870773e-02,2.120146801030555611e-02,7.163419812042545916e-03,2.200714049205418701e-02
2.439048476824279892e-06,3.191207433880612065e-02,9.979514788236987927e-03,4.135683398447280511e-04,3.204620022173906412e-04,2.147858897571885625e-03,3.682011447453344133e-02,3.561848305051111552e-02,4.715984156826578955e-03,2.243716661755255914e-02
3.957124223768784631e-05,3.595955587809696041e-02,4.043765769426107843e-04,4.997277533253518004e-04,4.293026765910757043e-04,1.722288764302341239e-03,3.591751075207258448e-02,4.292604382887865722e-02,2.170145116246578396e-03,3.175238912944829822e-02
5.143151382606028885e-05,3.240233445482947755e-02,1.179126054264825925e-02,5.733280261527688715e-04,3.356833716725286690e-04,1.601777212528848662e-03,2.650268178312962380e-02,3.173649839221497071e-02,2.643660940755391707e-04,4.826716157933991225e-02
1.844532175557949300e-05,2.222641687339741920e-02,1.796707392169665657e-02,6.324881296875329087e-04,1.076285648906800431e-04,1.430151907838861109e-03,1.100583749075311965e-02,1.332084807372026919e-02,2.036352098058094584e-03,5.437207462435898753e-02
6.837705659485245771e-06,2.119404749414036549e-03,1.435459001908199680e-02,6.756820181061128951e-04,3.084011166158473266e-04,1.151499019341507618e-03,8.986596603072728381e-04,9.147211336759440356e-03,2.681020918613168276e-03,4.123190527277039580e-02
1.414348875101216736e-05,4.231620661493475100e-02,3.667209209143235549e-03,7.017792304271459284e-04,1.061408862015263870e-03,9.315642431751941337e-04,3.930440205339660528e-03,2.585833223972138981e-02,2.564744815015273030e-03,1.814926646829675624e-02
2.747114868480498228e-05,8.171961175427691626e-02,8.248267843310527411e-03,7.100724394899717191e-04,1.497419783967712413e-03,8.025997371794392141e-04,1.760300527130077841e-02,5.430331847065974354e-02,2.447807137869586602e-03,4.296797812678070441e-03
5.123804297553213600e-05,9.443246124015848564e-02,1.665353494079468630e-02,7.002891823981502841e-04,9.789314173013767724e-04,6.911512940812093459e-04,3.331286032692318266e-02,8.286465129893502701e-02,2.574320742446859801e-03,2.182666784203021043e-02
7.339039698750332282e-05,7.102962988817627943e-02,2.009884614099506292e-02,6.725996610398222346e-04,1.452200658749439770e-04,5.834503317204368239e-04,4.044208804481365382e-02,1.006045185582243040e-01,2.740207389040912045e-03,2.878193098195932359e-02
9.111796157940830413e-05,3.046896853544254005e-02,1.912838321648714646e-02,6.276251885526153975e-04,1.327463915885998904e-04,5.149415491528103444e-04,3.074355680870634322e-02,9.822569422994102684e-02,2.876330548313990425e-03,1.986952840528037265e-02
1.097221876555750026e-04,9.353702158379766530e-05,1.465780402904100915e-02,5.664211882526986978e-04,2.327776706160919115e-05,4.927398641455782956e-04,6.194368191771767312e-03,7.710278736961738433e-02,3.052756411824417235e-03,2.786136310141199002e-04
1.296335850082163592e-04,9.132563926348119532e-03,8.775384498270710071e-03,4.904243060440519096e-04,5.156426401371598262e-05,4.986454204782081673e-04,1.946778941326052226e-02,4.959074630341950979e-02,3.211627122678992717e-03,1.986898047497667394e-02
1.467913562222816911e-04,1.876897867145191356e-03,4.262429309460275852e-03,4.014199411983836890e-04,1.145179426124287461e-04,5.255165115697130922e-04,3.260444456526118834e-02,2.452374445149957047e-02,3.347642648810341889e-03,3.172792107283837343e-02
1.607643016165730067e-04,1.483526853584611269e-02,1.513077758367102447e-03,3.015556258864946588e-04,2.305107404785390135e-04,5.783925328680334993e-04,3.163442768656243853e-02,1.930172785433838592e-03,3.672736594492907389e-03,3.601321330051647507e-02
1.747616977197891466e-04,3.540796394854894141e-02,1.416787385464168261e-03,1.932831130515768746e-04,2.556261050447195134e-04,6.576494266568094424e-04,2.363789326960357220e-02,1.549887032180285659e-02,4.133157520120043539e-03,3.379717140285713045e-02
1.875340409651995457e-04,5.519070968115511594e-02,5.034065714008252590e-03,7.917496291936837113e-05,3.003571628698716261e-04,7.540834759116322701e-04,1.433709470533826164e-02,1.872496643624704804e-02,4.176803691071935554e-03,2.503887685527635826e-02
1.930137488828393842e-04,7.128681700020600420e-02,7.437353621160216859e-03,3.813182503266368577e-05,3.829893001770276321e-04,8.566214594280550714e-04,7.721788400428986239e-03,4.952465736863766697e-03,3.671630666053487049e-03,1.169832001267724804e-02
1.933158630921385590e-04,7.643895550094607916e-02,7.277223556778225286e-03,1.557384372223951079e-04,4.498529824848897653e-04,9.640900663812923023e-04,9.383313515780446895e-03,1.405145751324803766e-02,3.474093398949737975e-03,2.688703465107803586e-03
1.998876006984738921e-04,5.403145858728997108e-02,5.754002868058329459e-03,2.705643965834894030e-04,4.897377410969900539e-04,1.082751109458770242e-03,2.211966657694158789e-02,1.985466052185292513e-02,4.215580522637530497e-03,1.432766429925481748e-02
2.078115580664367237e-04,5.782336386958027152e-03,5.466198482504474113e-03,3.799845908430885791e-04,5.259114242034228226e-04,1.201330627662937486e-03,4.124076090155004426e-02,3.232492826418659204e-03,5.265433800435726300e-03,1.704153013468230615e-02
1.927070902984714419e-04,8.211932414454736762e-02,7.535829891586966547e-03,4.818905961498357233e-04,5.622888058151731408e-04,1.289824585705070126e-03,5.700747364303565545e-02,2.598758323588094485e-02,5.765844881394477373e-03,5.649896823798288871e-03
1.645890848529635829e-04,1.310690137706597425e-01,9.593175652620340374e-03,5.735448088713226197e-04,5.865549973681729494e-04,1.353248512385565004e-03,5.882144100102142809e-02,4.640374608890664165e-02,5.819929951498044145e-03,1.477071974816316670e-02
1.758778139303375813e-04,1.260074840352991832e-01,7.249865596687473171e-03,6.516244096375308804e-04,5.958838640906373267e-04,1.438961255618017090e-03,4.148876899889848008e-02,4.571739919976447464e-02,5.953889317409849675e-03,3.132647684820817624e-02
2.070149016625558104e-04,8.176736748416157941e-02,1.110216017648000273e-03,7.148612577355110053e-04,5.958065576991925395e-04,1.522525138733006253e-03,1.482974485347762078e-02,3.188930476135038578e-02,6.268887757237354315e-03,3.809881948376008659e-02
1.462408673461990224e-04,3.303032880422453188e-02,1.089002863641016887e-02,7.641905141224426302e-04,5.872249201413602552e-04,1.487998576322514376e-03,6.303331971755929755e-04,2.027437096741102965e-02,6.598510811224689993e-03,3.971240013901133903e-02
3.311439992082466856e-05,3.296020704334872743e-03,1.467161134194848102e-02,7.972680490810847478e-04,5.667802342895376586e-04,1.371522250090002762e-03,9.679251161097121581e-03,1.358710239276565354e-02,6.832915524455205995e-03,3.865397356770974152e-02
1.109303936286253241e-04,3.502692725731312157e-02,1.042057290049411798e-02,8.081353166174710381e-04,5.349568834925672511e-04,1.413651873501440160e-03,2.748318529738847521e-02,3.643421182964913171e-03,6.916439639528718965e-03,3.005825364830272753e-02
3.119870541874899508e-04,6.744302897052752155e-02,4.112634654589781245e-03,7.990155958303188193e-04,4.960712740628284764e-04,1.544725312343920957e-03,3.306003103399641346e-02,8.066254624387446392e-03,7.016938419984586513e-03,1.277481525634413875e-02
7.360196880364322730e-05,8.589455779427551674e-02,2.647765599692960929e-03,7.814022100975363165e-04,4.501464116001377717e-04,1.201025308421508914e-03,2.581811650795599183e-02,7.398318271257079380e-03,7.459921695200416765e-03,4.809626725721102142e-03
7.267935859019184451e-04,7.673563476187966748e-02,6.614836508437919177e-03,7.509260937253861351e-04,3.925222726628155778e-04,2.599024180363400881e-04,2.205094980592071235e-02,8.894755690499344183e-03,7.912495756661246105e-03,1.549434133239714802e-02
1.218887488177716229e-03,5.181282678022022803e-02,1.144600136768348167e-02,6.843734182210677508e-04,3.268224688591642711e-04,4.074845577547601874e-04,2.925961487860072666e-02,2.396082994535471064e-02,7.273268369315124757e-03,2.159452192415360974e-02
7.638896622359705058e-04,3.594647508010830050e-02,1.359066288877019101e-02,5.932457527739028397e-04,2.660670673445233352e-04,1.605719631906025850e-04,3.769544762882559574e-02,2.433921691228097331e-02,5.324650752067570762e-03,2.777591049765047726e-02
3.883346720841100979e-07,4.121551839557394820e-02,1.426501297032357896e-02,5.314634353282473309e-04,2.069379377113064180e-04,3.655225869666431653e-04,3.727904805487614048e-02,1.579043098768511191e-02,3.611270363073814695e-03,3.332713425266656954e-02
2.045946994000464767e-04,6.541375559027443054e-02,1.767992736273134649e-02,4.810743533954580883e-04,1.266420982560212914e-04,3.050003050829019078e-04,2.926593640744969832e-02,7.157619769728570426e-03,3.353350676442976019e-03,3.600454388072656803e-02
2.778753230234138900e-05,9.880760539152375066e-02,2.526058545398689875e-02,3.325572161982280834e-04,3.673167857934640481e-05,2.143366818198711539e-04,1.827205267657862689e-02,3.593788212326747000e-03,3.582685996261589234e-03,3.644412693054651514e-02
1.332434646800911295e-04,1.207728279334692040e-01,3.159103007833741206e-02,1.282264566599103275e-04,8.925224664683124669e-06,6.239651651783195696e-04,6.328138741243409179e-03,1.669235666795806927e-02,3.036404660298624731e-03,3.545998372429509660e-02
4.333864642951685289e-05,1.106271781569811291e-01,2.901647762423835430e-02,1.133802046636463569e-04,2.856356271415832110e-05,8.498362754445319559e-04,1.135789730785698127e-03,2.064421530182123515e-02,2.638205007662638990e-03,3.336537558785653002e-02
7.265659072446250766e-07,7.493338464907334240e-02,1.782383381660736926e-02,2.215154882013970698e-04,1.327729766231807861e-04,1.128540542239107490e-03,2.398311710225348344e-03,9.011533011752646122e-03,3.952347775112839516e-03,3.305584268511460588e-02
4.443538851269402540e-05,4.596144954757476475e-02,7.325564126166689630e-03,1.071248625017188219e-04,2.810081238638152180e-04,1.492782297539574365e-03,1.131846090801718642e-02,5.008671809516276191e-03,6.086389353714087742e-03,3.725279328537406398e-02
6.235697505986914700e-05,4.499847289736125244e-02,4.012826910787702789e-03,9.904146731636151359e-04,2.292021397142364014e-04,1.823944175300481899e-03,1.052203760545530366e-02,4.955897386525623047e-03,6.316845053665745210e-03,4.176398434132932297e-02
3.477016391513682893e-05,6.409638098660937200e-02,4.244459529180229923e-03,1.557156668596806686e-03,4.451739638805906197e-05,2.095650596748317978e-03,3.806873763391492929e-03,6.450847109110242547e-03,3.770935622168900166e-03,3.666461857260167045e-02
1.399961630333352614e-05,8.451129640623643302e-02,2.121022083760944980e-03,1.171918522644413299e-03,2.893280821518341554e-04,2.353720505999243925e-03,1.825084238054147656e-02,1.324647986164945515e-02,1.051172285972615987e-03,1.758544978467970962e-02
1.004108385935735588e-05,9.392218632484028440e-02,1.715448094759273621e-03,4.683750499743252835e-04,1.086136696231688754e-03,2.602174332835624146e-03,2.098230046743490562e-02,8.092183075665343103e-03,1.286354173135544933e-03,5.357506255494448241e-03
1.165411645197099157e-06,8.946883562821592029e-02,3.187236727096644587e-03,3.031576160147811481e-04,1.564841347874027736e-03,2.811346901378218750e-03,1.541238648887145388e-02,1.844464418247543022e-03,3.972265469626725526e-03,1.550279821196886426e-02
2.389193141324232197e-05,8.141135733762994153e-02,9.603125941570547774e-04,5.566516382215809652e-04,1.087129223826346393e-03,2.971354578202886447e-03,1.142814741658406200e-02,7.334299729928365867e-03,5.426625832247366533e-03,8.876385008792238296e-03
4.629828241363965032e-05,8.294271462588800881e-02,4.094565406432722210e-03,6.889023854076388800e-04,2.914761584266325838e-04,3.089168040536147131e-03,1.133013481211405521e-02,7.600479451741787469e-03,3.852519871603557119e-03,1.130085854642313807e-03
6.613758650139132435e-05,8.409394781350314207e-02,1.057596389739812702e-02,6.211407809962345410e-04,4.807822194352938752e-05,3.164109508702855900e-03,7.688080704735294341e-03,7.691172320355234987e-03,1.942774330677139944e-03,1.909007090057889423e-03
8.841151130165299872e-05,5.921021637291236372e-02,1.520936808994904910e-02,5.438249391962743980e-04,2.346039248125134926e-04,3.188964224443476686e-03,7.086760247668377234e-03,9.629001852036708428e-03,3.252023415561577056e-03,2.787059915168858381e-03
1.123665293557549102e-04,1.058091027100799102e-02,1.488794451465595865e-02,5.162065138048030225e-04,2.889547173225707121e-04,3.160662963112637232e-03,2.954108429400820537e-02,1.096083870048071215e-02,7.401170612578140441e-03,4.930574985987385556e-04
1.344614863888890163e-04,2.710891655762832225e-02,1.150305253889745589e-02,5.389604389716329182e-04,1.440275398228696413e-04,3.080106109319444979e-03,4.677347100991133960e-02,1.242754328851033811e-02,1.052935427545495344e-02,1.145153445047477313e-02
1.566047448901213392e-04,3.356094559983114484e-02,9.759329750980800730e-03,5.541684731546145121e-04,4.371288591631151976e-05,2.949108234841165809e-03,5.093051791944866458e-02,2.018919795442352533e-02,1.031660395465029169e-02,2.093716354384220907e-02
1.806458623533999000e-04,2.272738417777300096e-02,1.014293682630824228e-02,3.726569248200779587e-04,2.882512338818147689e-05,2.770160811591545081e-03,4.534385223728677056e-02,3.585463293926670347e-02,8.696438862837128914e-03,1.608471218441279160e-02
1.998902013628617541e-04,1.529056225398763708e-02,8.724000663822520374e-03,7.439890620631517588e-05,1.048432219001073102e-05,2.543709840104981142e-03,3.479210886550776483e-02,4.991465384269469507e-02,8.488625628591966316e-03,2.077378961005082320e-03
2.105261007514014945e-04,1.943170467791992956e-02,2.577823169544530679e-03,2.004433534551964180e-04,9.269986966589691504e-05,2.268641942416820857e-03,1.953294498347671326e-02,5.096886949269284484e-02,9.179281041016463735e-03,3.270276999680707050e-03
2.257703377565658815e-04,3.610164365653163038e-02,7.625254628738246943e-03,8.713625691331152931e-04,1.652838965241697992e-04,1.952248900046396965e-03,1.013499265368549354e-03,3.850206325525120515e-02,8.189472804171734135e-03,8.412823110400587806e-03
2.518902409279722907e-04,6.319120757623541973e-02,1.721324196770096168e-02,1.231323110108395154e-03,2.159812296931717273e-04,1.609187403872849864e-03,1.604568416051994559e-02,2.206773332910023921e-02,5.159715705229720589e-03,2.645852005354310324e-02
2.594218963490582046e-04,9.474771489270869540e-02,1.938032244854912337e-02,6.472686002304140884e-04,2.645869663215527547e-04,1.237849291803109738e-03,2.928091559387107842e-02,9.747516712322466109e-03,2.286466593610190969e-03,3.669517454667209355e-02
2.336717098233693731e-04,1.217499546805196481e-01,1.332312330509778826e-02,2.449450718370102379e-04,3.157791104694279575e-04,8.215966463937741850e-04,4.007292206658168848e-02,2.042269827700362878e-03,2.873984516193468612e-04,3.740769084069968387e-02
2.365861427926655510e-04,1.353122544604828947e-01,8.878022674296919686e-03,5.739020532453642217e-04,3.629914905284316838e-04,3.798054632858032073e-04,4.941645433342810312e-02,2.587559689808009017e-03,3.310054796102589875e-03,3.496271555329682340e-02
3.005119183940820797e-04,1.353614125117953704e-01,1.508265073433414337e-02,4.574675400397481390e-04,3.999665577977662271e-04,3.385495213753972831e-05,5.652015387102651139e-02,1.949524109129054973e-03,1.027119653983884183e-02,3.275136862765495177e-02
2.936071816020777050e-04,1.328781144726986219e-01,2.671850955727016891e-02,4.556010473087782910e-04,4.177071203566773872e-04,4.413833197097513476e-04,6.070969484504495223e-02,5.153890948275100317e-03,1.776100325250911868e-02,2.995642899018750166e-02
1.430948046191492717e-04,1.332857094891124194e-01,3.097403076959226106e-02,6.352151524681676036e-04,4.217521159788769573e-04,9.401298998064750410e-04,6.305789619057246276e-02,1.181558494874355297e-02,2.044937362661675487e-02,2.422360598925652961e-02
1.312103322430764878e-04,1.262699078442648948e-01,2.393933573827751460e-02,7.516173629831137239e-04,4.374975024127639688e-04,1.468078197689903774e-03,6.607412300291926055e-02,7.135607506924579110e-03,1.650992259503452839e-02,1.342530716781834520e-02
4.329271199272301989e-04,1.030811892518506967e-01,1.146530641709064303e-02,7.632780406308613524e-04,4.538594611254171264e-04,1.798560286958158019e-03,7.017675708798142009e-02,1.210636450679936256e-02,1.087025680435703585e-02,1.861665052634766532e-04
4.172583024518806472e-04,6.977481189953373131e-02,1.943513478153476460e-03,7.806664739191595138e-04,4.109450093748622315e-04,2.044550670811487968e-03,7.167862958885043434e-02,3.620369351677420883e-02,1.151765061434869772e-02,1.036431346702197318e-02
6.016253645428386787e-04,3.352932779931191293e-02,1.471919047568010126e-02,8.228280898661404115e-04,3.292753611677639572e-04,2.693098249614155407e-03,6.818412997442212242e-02,4.949425254716063177e-02,2.115318976659482514e-02,1.456297624147675357e-02
1.876523758483007471e-03,6.100072091322317550e-03,2.148839474243852132e-02,8.370485687763475936e-04,3.421263763178052563e-04,3.484312507341431712e-03,6.285974188895246395e-02,4.447791991253389338e-02,3.331881170532551006e-02,1.498558884856528856e-02
1.898834031479967139e-03,4.235827565216562091e-02,1.587896261370652998e-02,8.131050940235907271e-04,4.199706911652069689e-04,3.042400503327908224e-03,5.843234103133401747e-02,2.969688344894838225e-02,3.890814874326069955e-02,1.128109416150545503e-02
6.680129097673479909e-04,5.430325637079752576e-02,1.439065657585330161e-03,7.755450566874504039e-04,2.385450318663279634e-04,9.688230892685125622e-04,5.176584569930554880e-02,2.044391017394728977e-02,3.539774592164128542e-02,1.238435098751573295e-03
3.084363230922241845e-04,2.691348921906126096e-02,9.205123776659000084e-03,7.301171506452952455e-04,3.895323888284498489e-04,6.034136140733457930e-04,3.891227749824718862e-02,2.234431557493069334e-02,2.756924574439791401e-02,1.035205945648159757e-02
2.843947581530738376e-04,2.743228286073347288e-02,9.591973424554089966e-03,6.666933367690250963e-04,1.144882725332937437e-03,4.794841480251277105e-04,2.174652770382555153e-02,2.782601018001603504e-02,2.094505176486644027e-02,1.260025898235067089e-02
5.334095937357328761e-05,7.492616517047138991e-02,6.827628463240961731e-03,5.843174883477104649e-04,1.515614156529054238e-03,3.278669901822326566e-03,8.503568020216305604e-03,2.636338305018574857e-02,1.680915311234601819e-02,8.996773611670485105e-04
7.293921613260630622e-05,9.081975711965725728e-02,9.895426652543662036e-03,4.901431442725411383e-04,1.292663926422865824e-03,5.318803887564746077e-03,8.209206124779872341e-03,1.484406130696622195e-02,1.256377022710849709e-02,1.797193762566683811e-02
5.145495343498310346e-05,8.475856172471689376e-02,1.727831262449070621e-02,3.877185225364940041e-04,6.955603560727050818e-04,5.886190738583582660e-03,1.934596202651607186e-02,2.055244539707716523e-04,5.756209622113969693e-03,3.482893903307686390e-02
3.836516311522962557e-05,8.985022333037484543e-02,2.079155312866178690e-02,2.771748247441884025e-04,1.852865093641115459e-04,5.586448969339272846e-03,2.625924582094379955e-02,6.926315720288429324e-03,2.103462034720113456e-03,4.564197448818983760e-02
3.902260781844629734e-05,1.214685236028888032e-01,1.593072170394514708e-02,1.604451607423674955e-04,8.650991857477789530e-05,4.460939818030806858e-03,1.721195244138800859e-02,2.971287385043380833e-03,6.760464615936758945e-03,4.866207321371041755e-02
4.875377455048590897e-05,1.576908220677575856e-01,5.021777316260656390e-03,4.134556632010665244e-05,3.182627071944088104e-04,2.618615075878179092e-03,1.769758809161550879e-03,4.668439047714337611e-03,6.851444894063528010e-03,4.170742181214883576e-02
2.280331765738364478e-05,1.705908439505122165e-01,4.019033155384114410e-03,7.656168594015469388e-05,5.187603889392812268e-04,8.674701468879948913e-04,2.330638140133479801e-03,4.962579089027389576e-03,5.800240856347805077e-03,2.611786573092702776e-02
2.261948504844768740e-05,1.601140033188291623e-01,1.000906511669463067e-03,1.905424703464846667e-04,4.140134208110579509e-04,6.940266083780097933e-04,6.814901746328923954e-03,6.951986284888929564e-03,6.373526563337096607e-03,9.021169517475211008e-03
3.408866113403524343e-05,1.390929538238264707e-01,1.654338603537579624e-02,2.986725055325795998e-04,2.022833161271074163e-04,2.836161675203871784e-03,1.764430426216682599e-02,2.638848382338354615e-02,6.581124712806942639e-03,1.822077566222134355e-03
2.915768354306167974e-05,1.046981832918517097e-01,3.622418634715449809e-02,3.988193767421051414e-04,4.656295698527804249e-04,5.203116995395911347e-03,2.361566235200501448e-02,4.211224136671203044e-02,3.931054520619114458e-03,5.893085880184002236e-03
1.374872239024745335e-05,5.295933542486665896e-02,4.242813995275086097e-02,4.868517954913088972e-04,1.264301428770083034e-03,6.102046786126747759e-03,2.565959626552737419e-02,4.341322142916803628e-02,3.961555264310231538e-04,1.135153546072217509e-02
5.828312684043515912e-07,6.507186304325241963e-03,3.480338134116608972e-02,5.589540291945896324e-04,1.715760691510770288e-03,4.911033978255390300e-03,2.319580963270132662e-02,2.897989289898652773e-02,5.309118811274494455e-04,2.354623923109420286e-02
1.512492840086818794e-05,5.283101608204845978e-03,2.598477659754955954e-02,6.166486445865063722e-04,1.212848122347777403e-03,2.959806511066640118e-03,1.538932929296249821e-02,9.493502116968522558e-03,1.335773017252248843e-03,3.232380299709487759e-02
3.070444765219482262e-05,1.242668319358651748e-02,2.242059470476481103e-02,6.621794341114697977e-04,4.028864428635757586e-04,1.306983382785298527e-03,7.134629074990644741e-03,2.450951971584190963e-03,4.331012303370907791e-03,2.238635963940905499e-02
4.808650138380487604e-05,2.623325463111404743e-02,1.812183393772439158e-02,6.873724331121719997e-04,1.346394244620830588e-04,8.709679125400763243e-04,5.160156028900236315e-03,4.673588595555357855e-03,8.040878329731838622e-03,2.388407166440074773e-03
7.503727276559574795e-05,1.694115971968868095e-02,7.146664980567386458e-03,6.833140562312574676e-04,2.734000221175584677e-04,4.680732499201917599e-03,1.088894604162517904e-02,3.588394774622180594e-03,1.170167909465968589e-02,2.243524465563180581e-02
1.066108909629851631e-04,8.204068809841022492e-03,7.273574055399812874e-03,6.646930310323422237e-04,2.796410732044316266e-04,9.173920998313947472e-03,2.146989356118479686e-02,2.140761877407013070e-03,1.221213771120417332e-02,3.203586955364080141e-02
1.193702790043902061e-04,3.937226972245923273e-02,1.725863662073522098e-02,6.498369682923724883e-04,1.079561736170176888e-04,1.163336425989968184e-02,3.443117344627843329e-02,3.629713168808990347e-03,7.272378184255461932e-03,4.329518595735361991e-02
1.224299769454648904e-04,7.454832587149282097e-02,1.874579255707343670e-02,6.081303405849054593e-04,3.622366666168146110e-05,1.024335421827458556e-02,4.690433550303037963e-02,1.569924864144533333e-02,4.938230273675616724e-04,5.826463345604910443e-02
1.667093316009484068e-04,1.054465657756996771e-01,1.501964508231760573e-02,5.012645646896464599e-04,1.580024175555505431e-04,6.127122582577144115e-03,5.258124282894623136e-02,2.772961739499128428e-02,5.322921633075132671e-03,6.114432616990858604e-02
2.319095382065294788e-04,1.157273083714183415e-01,1.288770431285013104e-02,3.967484729962143428e-04,2.913126707691874868e-04,2.387133319783435893e-03,4.643172174063694979e-02,3.049098266748529254e-02,4.287415956723319641e-03,4.451283272078351838e-02
2.057548877505818903e-04,1.035968800492544639e-01,1.473640137919294754e-02,3.828539370740495430e-04,3.553314838782346981e-04,1.067748964962465710e-03,3.298165221173880030e-02,2.216581181279925553e-02,1.873589470818329793e-04,2.398809060635113261e-02
1.268957708011113307e-04,9.241783688388521822e-02,1.644853436790458603e-02,3.210875629416063727e-04,4.565515440721141030e-04,1.618398695754361951e-03,2.031376267667034038e-02,1.107481468715099289e-02,3.653655119302706179e-03,1.728113928572175967e-02
2.376000131076179390e-04,1.049885556330720782e-01,1.459909890498965919e-02,1.444264359426816212e-05,8.113970638810243281e-04,2.449849982382612361e-03,3.884674283720478821e-03,6.727606888430982986e-03,4.173621485694460967e-03,2.127359019107690624e-02
4.693492404523025275e-04,1.350820646061001995e-01,1.162712946962961118e-02,2.079647275021202757e-04,1.085745642528215035e-03,2.754938544223987668e-03,2.914427826698243532e-02,1.034937616640287453e-02,3.709041734406939069e-03,2.093470672231612095e-02
2.587657169151326127e-04,1.570674884919264769e-01,1.111592954850940118e-02,3.788415355147430508e-04,4.706252960747694795e-04,2.268202374085375502e-03,7.344829026060398225e-02,1.664969610250377832e-02,5.551917958393541574e-03,1.080935885663443681e-02
5.174310253354015825e-04,1.556665365703886195e-01,1.198635805688564281e-02,1.726065739290404653e-03,1.195927379793360881e-03,7.982358465098036635e-04,1.004798850018442796e-01,2.017798369636235323e-02,1.005288543514818063e-02,5.955285148376340126e-03
9.895973066061146753e-04,1.338032574516659357e-01,1.184125163467478897e-02,2.524354742644746834e-03,3.045095719312817042e-03,1.296691786589994951e-03,9.188687526689176543e-02,1.665459530134609858e-02,1.355734139043990837e-02,2.797519135433074178e-02
5.194522096728850652e-04,1.008798512983255097e-01,1.351143323027147701e-02,1.624774546527247990e-03,4.066203356701287436e-03,3.436018080629851638e-03,6.395931634789951692e-02,5.439504278598918628e-03,1.263076691226452421e-02,4.773599142931156392e-02
2.548558506432279606e-04,6.819987332959898119e-02,2.082511996301263449e-02,2.746726482917706915e-04,3.682911117264080041e-03,5.363098812276961141e-03,4.494278982951565443e-02,5.743683330819711330e-03,8.272825201415008947e-03,4.737117913014779469e-02
4.637193908953088210e-04,4.751866930043281700e-02,2.722403037721243466e-02,1.155419163865744735e-03,1.849741827211870849e-03,6.078988926363833312e-03,4.118563984471430850e-02,6.730883371466318647e-03,4.441570213487977016e-03,2.054978231941212083e-02
2.304132348387389543e-04,4.049513406682415939e-02,1.963706714731081743e-02,1.460602153417322872e-04,5.665971296949210995e-04,3.852756114480328144e-03,4.101377302964490101e-02,2.191447192516245146e-03,3.244909150536223925e-03,1.511967708273111166e-02
1.184580355456097057e-04,3.950678785664847592e-02,1.090742711095676930e-03,1.254471068720241795e-03,2.183366359289004750e-03,7.465740959373629373e-04,3.956949136779026183e-02,1.106910034083655528e-02,3.342161195663951364e-03,3.916324084462943778e-02
1.966174181788446116e-04,4.720377389635743021e-02,1.617649751442072972e-02,1.152134355203418949e-03,2.460774196757930469e-03,3.851797050980785685e-03,4.486299787613244605e-02,1.402797351356781762e-02,2.935214933518984562e-03,4.632157147186768270e-02
2.225676838422732933e-04,7.550682640130727818e-02,1.290312687771072962e-02,2.390765600089556162e-04,2.018877155938931557e-03,2.789760347374601376e-03,6.538848209242612008e-02,1.420070949528323516e-02,2.182987671474699576e-03,4.017545411925130261e-02
1.573550589036640376e-04,1.144072841871155988e-01,5.289676149678552639e-05,1.242983894496441782e-03,1.800117924107932270e-03,2.077477798024306242e-04,9.487071354675957746e-02,1.513554539409136569e-02,1.361038714937702100e-03,2.687817668695768880e-02
1.135609112389258859e-04,1.254339237942041219e-01,7.850863808863130580e-03,1.203718018118847457e-03,2.390410574833041774e-03,8.584400517971345346e-04,1.098248710285142371e-01,1.592722187607836792e-02,1.216698221113436586e-03,1.695293434356733714e-02
1.123188702872647977e-04,8.483854417340949694e-02,8.597530417688379473e-03,8.823788018626567463e-04,3.125321929942608511e-03,3.919165265631009872e-03,9.892085201167233333e-02,1.658719391070721805e-02,6.404783811080296506e-03,1.912283852587430902e-02
1.022417789968373993e-04,2.083541715585182294e-02,6.924983016894702657e-03,8.724941099935051066e-04,1.781462147362102271e-03,2.050111278159794537e-03,8.999343250289837393e-02,1.928819311984598592e-02,1.080177985278096137e-02,2.993685259044742003e-02
7.255832145778652912e-05,1.133107091686482402e-02,3.279872693264760351e-03,9.740872617659078860e-04,2.910959434461035580e-03,8.607060245155060893e-03,1.129399863630404788e-01,2.025719886460977670e-02,1.027866099412914208e-02,3.582168128834981036e-02
4.777188365326460193e-05,7.977299695118546252e-03,2.604427889249754866e-03,9.185817884512582953e-04,8.425736829817462650e-03,2.096967432290330197e-02,1.439008608372959186e-01,1.016897717737525256e-02,6.546564713297333034e-03,2.764516118138413830e-02
3.647860094355184340e-05,4.160246139175699520e-02,4.946605747957832575e-03,7.745083809153531116e-04,1.032150388087600852e-02,2.507563062264130116e-02,1.354696958802965867e-01,1.056977846504668882e-02,5.849793227906316048e-03,1.104596518104203166e-02
2.878733946984793037e-05,4.391008315158103498e-02,1.782154820291270009e-03,6.825953332884437518e-04,7.122258169393240121e-03,2.057188951506935815e-02,9.522057020770607894e-02,2.647849702296996288e-02,1.052995496603433521e-02,1.855861493358640932e-03
1.610930806347499596e-05,1.026450069618313650e-02,1.298428795788940555e-02,6.567760841590729141e-04,1.687516720313075261e-03,1.496732980726967269e-02,7.678042161165941903e-02,2.620955635937664494e-02,1.585780380227330699e-02,8.513208001503683869e-03
1.948410951808561846e-06,3.328572590352080196e-02,1.790272577168521700e-02,6.102677707776046684e-04,2.193553327188784308e-03,1.252709039669898557e-02,9.534528321090367242e-02,1.871403442416634880e-02,1.624074037241244814e-02,1.513597829501740766e-02
1.804967167894168308e-06,6.471555102619719335e-02,1.345192768219499735e-02,4.518390129677618962e-04,3.297549302394925386e-03,1.156275811597181312e-02,1.115725210381608712e-01,1.920325657320693172e-02,1.063745803361213285e-02,2.390815498339583442e-02
1.836063512466018082e-05,7.442171524226201540e-02,7.751264857739319572e-03,2.757449601744230649e-04,2.998083740800670284e-03,1.028781756470964481e-02,1.002108123374144261e-01,2.747262308464893873e-02,8.477054309717171107e-04,3.322370520945756162e-02
2.136022296372947540e-05,6.281029325592128731e-02,7.680136778592086370e-03,3.209834372033062728e-04,2.889001354669224093e-03,8.932077572481223957e-03,7.758636387949656432e-02,3.408618789332099747e-02,1.077291597155800341e-02,4.490472389500529959e-02
6.376499604038970824e-07,4.740447908151307344e-02,9.412034458155478511e-03,4.563950133788381410e-04,3.215257614776852266e-03,7.182008929473746375e-03,5.907131033721307878e-02,3.916416991666334113e-02,2.025180178880269313e-02,5.783014639121784178e-02
1.966777557795973131e-05,5.666914783205424105e-02,5.941772547966964885e-03,1.204639202309678312e-04,3.413132686342794375e-03,3.962143068942960283e-03,3.753792835942482142e-02,4.899108642524245549e-02,2.345956248089210022e-02,6.180868142922412573e-02
1.035583326906149932e-04,1.004341051758159964e-01,1.793284172909994723e-03,6.886626438272492592e-04,3.327415031670414788e-03,1.013433187816483502e-03,4.477651151192443141e-03,6.263653746843791947e-02,2.069726108430747571e-02,5.020670158404009348e-02
1.173090320028067609e-04,1.521187498391897430e-01,7.284059046565536863e-03,1.087775099577938153e-03,3.439590253042588367e-03,7.319464333689312645e-03,3.993761287812702676e-02,7.501567530413705276e-02,1.632266570428013083e-02,3.119570906010983233e-02
1.729902583476146758e-06,1.727595684347577321e-01,7.656015837165961076e-03,6.803439049386594091e-04,3.957132868558402641e-03,1.367678942394955251e-02,9.088034801809410923e-02,8.234752897152038120e-02,1.302796521555628362e-02,1.861639039198116283e-02
4.452699328517782272e-05,1.517865510628947923e-01,4.661619913708429756e-03,1.371822470596524015e-04,4.136303047768393436e-03,1.734674620562852779e-02,1.334248275679455198e-01,7.709075947793196659e-02,9.785699605875611967e-03,1.933445469299838876e-02
3.903869248545909138e-04,1.133777133152746863e-01,2.745849099665385613e-04,1.918566757714491216e-04,3.288847995120008222e-03,1.651968148093683683e-02,1.486585774517386049e-01,5.306266982564050716e-02,5.221667282879999955e-03,3.126374998691316270e-02
3.936564707217836412e-04,8.428780174109357093e-02,2.017941303688027075e-03,5.379549831757086996e-04,2.256239397390242835e-03,1.355189149907716148e-02,1.392780592144373386e-01,2.084296865836672910e-02,7.504458517804213444e-04,4.426708288361042021e-02
5.701306588788135604e-04,6.903988912575355352e-02,4.794346639182657001e-03,2.863553768589060253e-04,2.516330186073440292e-03,1.305811596938726005e-02,1.306686508271354130e-01,1.985559886507719685e-03,8.018447871318504921e-03,4.425542020446408126e-02
1.723976583497674551e-03,5.680777999541911094e-02,2.295946211845914867e-02,1.296871405711457490e-03,3.929671022661588783e-03,1.670897384216092976e-02,1.382558324606925626e-01,3.848688748629581352e-03,1.490477759491157760e-02,2.652404241284423564e-02
1.692913251625308580e-03,3.931337828052071381e-02,4.190715224138849559e-02,2.862015696558180364e-03,5.061764629343898890e-03,2.186281888485986508e-02,1.539974526339600303e-01,1.257863254278336791e-02,1.699927260149661223e-02,2.834983487241432218e-03
5.474139571103723602e-04,1.661849812666300191e-02,4.803125094086263536e-02,2.334057419835793793e-03,5.431873023705678302e-03,2.470579533603925459e-02,1.671154772205033501e-01,1.278224031055001479e-02,1.175586487282159406e-02,1.278281721968573675e-02
4.871117991796910986e-04,1.074784882983866041e-02,4.054489770328299075e-02,2.401275311008380315e-04,5.570797239606308481e-03,2.348916043123542088e-02,1.768774272710700035e-01,4.038054066780397307e-03,2.706405264482966179e-03,1.920702992063101633e-02
8.315698280507716070e-04,4.801662393243295857e-02,2.888208750111118106e-02,1.104990344631868971e-03,5.502443228187802945e-03,1.983848413825924778e-02,1.859097456109116142e-01,5.212255800092211941e-03,4.090969069837040520e-03,2.091843198425880415e-02
5.375246463912397403e-04,9.613700592561855163e-02,1.853947565368091813e-02,1.070925640127542685e-03,5.112855189744962281e-03,1.711113265998180297e-02,1.941076269457872039e-01,1.306650104552196934e-02,5.524557477148544019e-03,1.562783538489789445e-02
4.366008524168593077e-04,1.392979862509649003e-01,9.223574935958923221e-03,8.508128992777370730e-04,5.087460815189195906e-03,1.580049180752940430e-02,1.922793692555933576e-01,2.558768111214014887e-02,2.352835052323521553e-03,1.474235919437988374e-03
1.512757772592294167e-03,1.549969418271981703e-01,2.141276022876245286e-03,1.049554788591325121e-03,5.717959573030218651e-03,1.188346312245217376e-02,1.612772943858400143e-01,4.254432407171764713e-02,2.015057247435330691e-03,1.186124988041279034e-02
1.494429745466410633e-03,1.352463126882203215e-01,1.393933931463909887e-03,1.303171043717481995e-03,5.972442065854652142e-03,2.561097687552317190e-03,9.435922065230911704e-02,5.070416027306824669e-02,4.182452274606369459e-03,1.373447143166540985e-02
3.232984355221126980e-04,9.275901911306561054e-02,5.224309633952117261e-03,1.523143123795458933e-03,4.929296273529416676e-03,8.481427511075707512e-03,1.548534589517678271e-02,3.900803800216812167e-02,4.761155470924835140e-03,1.000369966781646143e-02
6.864692129598731415e-04,5.513613332850247906e-02,1.355661211706136494e-02,1.810493859250021436e-03,2.583414723171311052e-03,1.516059490449854497e-02,4.345910352562350892e-02,1.462355908556344647e-02,6.947889611760143039e-03,1.524966859695485455e-02
7.881611353840066361e-04,5.177218484970619317e-02,2.339595377184001956e-02,1.749434773416630234e-03,1.005291958441528787e-03,1.619923540011662319e-02,7.430808470075969674e-02,6.646810319185438888e-03,9.736831706279027929e-03,2.903708125507786786e-02
4.741236207966983496e-04,8.677836697141302902e-02,2.780322919161622511e-02,1.144951588287493761e-03,5.248929211592636909e-03,1.482809257642485681e-02,8.648744182714900031e-02,2.174982979552068929e-02,7.707974321514273787e-03,3.552014055620147243e-02
3.173962251185572132e-04,1.237821039799487099e-01,2.434186184586136642e-02,8.029419204569229708e-04,8.128048253379307683e-03,1.325319334868257579e-02,8.484910229916499402e-02,3.873131869803547039e-02,8.378381582927123088e-04,2.661294552243447312e-02
4.548758146493564751e-04,1.197086851111067024e-01,1.639342844695802770e-02,1.370986641317954073e-03,7.933931584904798176e-03,1.060128864237704083e-02,6.940563412635464280e-02,5.573427694747755401e-02,1.078470712893171528e-02,9.033807244989642757e-03
7.732005544467497257e-04,7.874633866818948891e-02,9.002923580023039496e-03,2.215986468395378124e-03,5.325658968366196733e-03,5.875188170254393855e-03,4.772028940841972072e-02,5.881301709490684149e-02,1.698035671918201109e-02,1.101940644176445210e-02
7.005768220297721146e-04,5.242146680872356718e-02,6.461177599830093821e-03,2.503363722869565624e-03,2.458333630992503085e-03,1.010981030478325798e-03,3.779160867276212810e-02,4.460303433555845576e-02,2.006302827287186410e-02,3.158977920743454709e-02
3.140094733629614806e-04,7.532867031313375539e-02,1.064288517206490522e-02,2.399583147390632522e-03,1.059600876162304769e-03,1.950100927580512584e-04,5.612901654859425715e-02,2.843456383407053784e-02,2.354380713089367083e-02,4.309919706485838831e-02
1.549130828711481507e-03,1.182643772004311061e-01,1.876394696056141523e-02,2.361586737421791753e-03,1.650087011725271313e-03,3.756294452180326902e-03,9.857795929061277662e-02,2.221244510423852139e-02,2.798959641001658172e-02,3.255810096647068774e-02
1.559463525310780850e-03,1.250873150135568546e-01,2.578296276563681044e-02,2.331085463008326225e-03,3.476614513866745429e-03,1.040223095056082986e-02,1.376318652635493134e-01,1.948419844035811227e-02,3.139356648752315154e-02,5.047471444620409489e-03
3.330534740980102375e-04,8.580135655470411127e-02,3.050574513198545112e-02,2.302227899424794198e-03,4.960866047943637315e-03,1.627364360516868336e-02,1.455741782552247565e-01,1.190458486799653159e-02,3.396581464976509285e-02,1.508795393975932708e-02
6.524803211140446299e-04,4.477512528351024895e-02,3.470878808180086206e-02,2.539107073965243301e-03,4.740370593023878962e-03,1.972646884672461104e-02,1.137704623966525608e-01,6.604762304456880846e-03,3.799716412927659631e-02,1.412409792323565845e-02
6.460993843582434970e-04,3.275133361105067586e-02,3.537691261637257445e-02,2.628342055811060726e-03,2.801088715291433044e-03,2.028459872835670225e-02,5.086833429899208225e-02,1.454308464813715632e-02,4.284024091546718288e-02,6.681685102323053384e-03
3.205799176070761331e-04,1.864454485900534503e-02,2.523661822457031259e-02,1.600551392746145255e-03,7.309489562040112978e-04,1.728041073777450767e-02,2.075666136558997413e-02,2.991147997642470274e-02,4.480217466034640966e-02,9.693410713736300491e-03
3.100036225889917472e-04,4.689831381194983773e-02,4.317636469543082930e-03,3.416931374493621231e-04,8.056736275652482716e-05,1.061703767217397551e-02,6.906900131231920315e-02,3.495213115809565202e-02,4.237241551549052881e-02,1.312730015149522582e-02
4.469436913194163108e-04,1.492875035980038845e-01,1.544335373814732099e-02,1.687692222890232064e-03,5.595447854013578092e-04,2.114492937715464239e-03,7.500268864903927857e-02,2.382783179861412345e-02,3.705669274363686955e-02,1.649207592758154600e-03
4.488405933604795576e-04,2.103478112439692849e-01,2.194634178161591551e-02,1.896135134921947277e-03,1.059649075590912617e-03,5.080203070023906961e-03,5.256598196519953609e-02,9.399337078206358720e-03,2.951672696329608880e-02,2.679138420768585258e-02
3.855250946872237796e-04,1.906499576833845799e-01,1.689428748375390241e-02,2.207315416033275596e-03,1.666743480714259242e-03,8.692680108758900695e-03,3.023844106328658216e-02,5.098914473838219059e-03,1.908051259516374207e-02,3.723662658336848730e-02
3.896607197268007875e-04,1.498886923305326191e-01,1.410406627450132636e-02,3.575117548580131893e-03,2.944998708250963840e-03,8.871505943292341823e-03,1.469760288800575111e-02,1.245505342914029860e-02,6.075098405953159239e-03,2.759348015869557066e-02
4.312185792116166342e-04,1.612926480678361918e-01,2.209740883194274627e-02,5.305986107813168498e-03,4.321325304198175322e-03,7.696072916273626399e-03,1.085570546952513080e-02,2.579841444536565623e-02,7.897632985441382925e-03,1.670060043558135171e-02
4.478048511532818046e-04,2.031303489017494412e-01,3.220555687963734537e-02,6.229998479170970743e-03,5.011999206289659455e-03,7.024642695907454271e-03,5.225233636528044817e-02,3.334460413512423116e-02,2.001301495151849852e-02,1.897812491251292186e-02
4.516137389286069563e-04,1.943882190821858980e-01,3.109030907028306756e-02,6.086352331985249789e-03,5.598712636149122575e-03,6.732146326064222981e-03,8.380484656291598000e-02,1.818520709126223919e-02,2.640126749729743844e-02,2.874578515646148899e-02
4.721884472373663491e-04,1.130577730971578515e-01,2.108797731433718209e-02,5.406199520991008568e-03,6.990134703495773198e-03,5.646192079653862897e-03,7.216084203819120302e-02,2.104018001190374049e-02,2.628938172119113514e-02,3.261170303934155662e-02
5.063523401419298738e-04,1.991367252687134201e-02,1.576058578793254963e-02,4.576115043100432468e-03,8.358212764842614870e-03,4.022156600978377995e-03,1.576539582780813950e-02,5.836910551112239193e-02,2.514567003751809471e-02,2.645570854548959586e-02
5.392609911892693982e-04,2.415571101450274261e-02,1.868373456777014038e-02,3.302924202648024714e-03,7.708894290756791896e-03,3.520033206846267214e-03,5.024481708640203548e-02,7.139507125707302004e-02,2.902143526265337295e-02,1.866066559851964346e-02
5.664651244561788070e-04,1.915060386362345962e-02,2.174619755084561748e-02,1.275072746443566170e-03,4.720793171142093590e-03,4.573773047780944727e-03,8.941768965153078230e-02,7.145977908187202410e-02,3.724006499989993696e-02,2.025709474604368843e-02
5.952705334303782765e-04,6.133237730535291699e-03,2.144853139016857438e-02,7.034109222401481974e-04,1.682852200897883704e-03,5.697281437794585526e-03,9.525573386044719482e-02,8.177452066196654046e-02,4.396549193108895831e-02,3.103604560760319167e-02
6.382486452460791205e-04,1.343799384242481271e-02,2.150166855757837392e-02,1.230891425158471379e-03,8.338300129143883400e-04,5.858172365276367345e-03,8.445091873136348348e-02,1.018311380291495594e-01,4.383669576664925988e-02,3.638147975867124517e-02
6.892829166980943235e-04,2.701368896297634201e-02,2.194064402306227304e-02,3.049441186086189926e-04,1.816889213203910390e-03,5.678518237008015231e-03,6.878548257345698524e-02,1.148736776975641527e-01,3.506101635853541704e-02,2.414927130984222819e-02
7.174664641919714734e-04,8.994688538304158876e-03,1.878587913632839834e-02,4.249361116034407345e-04,2.420059752689560865e-03,5.765954381089745916e-03,4.528244786369627767e-02,1.154295446281421444e-01,2.247478574822654729e-02,3.104254246565999256e-03
7.275546678689531147e-04,5.489924839619006458e-02,1.143533756690298317e-02,9.900022386008896147e-05,8.403947590422912103e-04,5.814892586457860897e-03,1.311399188326873438e-02,1.097471222894317727e-01,1.674533061575436688e-02,7.693367400374253283e-03
7.863799530625936078e-04,1.351629848428522740e-01,1.295824782699182918e-03,1.088388468822635907e-03,2.694804853440456623e-03,5.907742222497327535e-03,1.488877430196059413e-02,1.001941023098081862e-01,2.325621286649778158e-02,8.745303380428764289e-03
8.966396202476466107e-04,1.892650103486232527e-01,1.127988978552766849e-02,1.366956508408675086e-03,5.612620128278615617e-03,6.565533428117668185e-03,2.572632605789331589e-02,8.535849549539833991e-02,3.364510940174076509e-02,2.082796993418439824e-02
8.837766368472191282e-04,1.955914549893175980e-01,2.209438541054785377e-02,9.762527484553192502e-04,5.381650671602059531e-03,7.163061398864576865e-03,1.968713363931412497e-02,6.912877868094019496e-02,3.587987831160201896e-02,4.812908619341876859e-02
4.600563961749528437e-04,1.534124820277843193e-01,2.357131123094421618e-02,8.658352793991806783e-04,2.778678404764547537e-03,6.546399868662114083e-03,3.752778631035112201e-03,5.914476098655368358e-02,2.915821655392593359e-02,6.261619308449244137e-02
6.581691433398789270e-04,7.760565615988081201e-02,1.610784760216481259e-02,1.462551500389831435e-03,8.608392249209714580e-04,4.939610828365604937e-03,1.560418680361550306e-02,5.906540504331936337e-02,2.115146755454720695e-02,4.169294749942200479e-02
2.414568330145190015e-03,5.035594445476724093e-03,9.692330460320636512e-03,1.799294438118264868e-03,8.146543826476183945e-04,2.977183220105239156e-03,2.833625920218990277e-02,6.532068700274522299e-02,1.569644228460036553e-02,2.031688038104968209e-03
3.835057200992725724e-03,2.290920837847365901e-02,9.722883497502707306e-03,6.301522715185187487e-04,1.285065591964872252e-03,9.587304712587634350e-05,2.298939834456168244e-02,6.777031341973077661e-02,1.137016158014570420e-02,2.226156332712298999e-02
3.512360942658124263e-03,3.838451374906596755e-03,1.152503652640347875e-02,1.312527075556761116e-03,1.246122096517902943e-03,5.041240944943795738e-03,1.278060201377480363e-03,5.492876634492680626e-02,7.294340750632207285e-03,1.744129879345734241e-02
1.479888021776917893e-03,1.836997069917904041e-02,1.215717104579333574e-02,1.683493018737839070e-03,9.806275530253474957e-04,1.051324370045181832e-02,3.002247152777052022e-02,2.498066868148759306e-02,3.594908259431000078e-03,7.738405042553265015e-03
4.491982707200341089e-04,6.149559422583397716e-03,1.596945528660675614e-02,1.135037722805115682e-04,7.333472493903269362e-04,1.381935407485357023e-02,4.148367433009896021e-02,9.099670137793176850e-03,1.121511079885738164e-04,3.744398219597601385e-02
1.137555259111991358e-03,2.955351788712298061e-02,2.435093001875246813e-02,1.960983700616708222e-03,5.316128828146150223e-04,1.340615285724920322e-02,2.236029671892347109e-02,3.007097184868106482e-02,1.929430651711507017e-03,5.425307297525438360e-02
1.305060927538506318e-03,5.703111305082916166e-02,3.062988337023121038e-02,2.203174578776775222e-03,1.004249686116239805e-03,1.050117012170705133e-02,1.510605996562672942e-02,3.038720901364205806e-02,1.124597932413772461e-03,4.773390244329651227e-02
1.268976949888387350e-03,7.024228863991999194e-02,2.990993881080853192e-02,1.616759545486981054e-03,2.730761095449366245e-03,8.085967832492763421e-03,3.534699900122442034e-02,1.542096501007237871e-02,7.721312315698463172e-05,2.778855670174880388e-02
1.553352668185641397e-04,7.719351094843962535e-02,2.556023142809394841e-02,1.572091874159188898e-03,4.864854361778370336e-03,7.426860920076128539e-03,1.443816750800828476e-02,1.241291241371696337e-03,2.952689726153579202e-03,1.699020992662063009e-02
2.960382025449636006e-03,6.630138886118853991e-02,2.149057277936141860e-02,2.033647915661977636e-03,5.595284915844813030e-03,6.877957019188446486e-03,2.664376881033057171e-02,7.921477150894189190e-03,9.462469805405035461e-03,2.420545651185613406e-02
4.563395790764451787e-03,2.894590248084105699e-02,1.517734870815901603e-02,2.005346022800173073e-03,4.212103951105107894e-03,5.523154618659934650e-03,4.233537524063222396e-02,7.584777848202003438e-03,1.089152925250388114e-02,3.477533712794813464e-02
3.101783978926049047e-03,2.053911259393340853e-03,4.085635509541855545e-03,1.059900626782891769e-03,1.993452454628528558e-03,5.227779471244560841e-03,2.199998665678584708e-02,1.517393169645674111e-02,3.233172144926970901e-05,2.950378668891299669e-02
2.165942581397100404e-04,1.503052988331510242e-02,6.690735331828913911e-03,1.560479156549177517e-04,5.829895097667864116e-04,6.862420746147165039e-03,6.972024986625515938e-03,3.608826966918013412e-02,1.890974241278441451e-02,6.244422030492547196e-03
1.305686195938817818e-03,7.030311048675987051e-02,1.045889775671121971e-02,9.222361198350839109e-04,1.079802661557410890e-04,8.353630938519842480e-03,3.331684617171304374e-02,5.516365819632818024e-02,3.443791660066002763e-02,1.935578658246524600e-02
1.075537219924317580e-03,1.155978391167187952e-01,7.891966165233021968e-03,1.277389242810788271e-03,3.307931859855386177e-04,9.146735725281802953e-03,8.205423591967384023e-02,5.242525089957889711e-02,4.041896218382375755e-02,2.973383866925398064e-02
6.058128341603645408e-04,1.259359716050285349e-01,3.423565496291439310e-03,1.299212915231572280e-03,1.083564914526222080e-03,1.190615859859137440e-02,1.104851126792086302e-01,2.486147126476467156e-02,3.896450580730515673e-02,2.146685875396538157e-02
6.735147563117819224e-04,1.108812419386054904e-01,6.204447747130302157e-04,5.681701284273190213e-04,1.838660086983660066e-03,1.680908344672264743e-02,1.089216228397739544e-01,9.297175867604742794e-03,3.337928283081263714e-02,7.353999094037676904e-03
8.449326599192555874e-04,8.207347085158955835e-02,1.265430612398918148e-03,6.644265686306091495e-04,2.184179151186545990e-03,1.921374963023373197e-02,9.710652113980525191e-02,2.750230255538662488e-02,2.512506726105364491e-02,5.027057268868592894e-04
7.800496508809857173e-04,4.602192291399932050e-02,4.283530449772660759e-03,1.059914726648756916e-03,1.600733981841525634e-03,1.622815940294362186e-02,8.535037526831908139e-02,2.637695833114542948e-02,1.608765632945124285e-02,4.501157895769928273e-04
6.675952146330477654e-04,1.392567303031778253e-02,1.149518407389993509e-02,1.402979662603317319e-04,4.381803253638877783e-05,1.089878205718199100e-02,6.806100255957470146e-02,2.532922374909646335e-02,8.082189756349267978e-03,2.848701641308911282e-03
6.686376073818425499e-04,7.337580567325571734e-03,1.217029544090880017e-02,7.377030890210174805e-04,1.767306142721495601e-03,6.960743517750530955e-03,4.209243837514478614e-02,4.172544673373843743e-02,6.938723487080233942e-04,4.066733591190886503e-03
6.990115129903310201e-04,1.969262350339061676e-02,6.961615963741960358e-03,4.710238731022240843e-04,2.342090409804111449e-03,3.850034391888394140e-03,1.161048984094533408e-02,6.831420109885506797e-02,7.282986273428304277e-03,1.677744363947207985e-03
6.812862752485187700e-04,2.078836894953222172e-02,4.859150810537483933e-03,2.182721677227140403e-04,1.820642428577429108e-03,4.187576995989309402e-04,1.712206296664223540e-02,8.421455833984382855e-02,1.529260735027295967e-02,7.357024893239821721e-03
6.514868341345182419e-04,5.642315002466395321e-03,9.100351525455257010e-03,2.612683720029970844e-04,1.310561923522632300e-03,5.347135575822517528e-03,3.861977063702930896e-02,8.380988791548110717e-02,2.152010114429140156e-02,1.906670942611077149e-03
6.497431219744628002e-04,1.880822520255513025e-02,1.214929603572284175e-02,1.824643361512846168e-04,1.398777972769192591e-03,9.158291195026259726e-03,5.284816211718837420e-02,8.238867143956354888e-02,2.453236162325895392e-02,8.889129357821549254e-03
6.656693631060313799e-04,4.017786097162215353e-02,7.129003917579238361e-03,4.515738627345367863e-04,1.435027765433166463e-03,1.080542335397001279e-02,6.485986178342614816e-02,9.060388153226579810e-02,2.370040676310438549e-02,8.298460519673353519e-03
6.734044138668351769e-04,5.838666733440942003e-02,2.333122776139036694e-03,4.886715134031112406e-04,4.531595595664888098e-04,9.572290115791286941e-03,7.348355454280647292e-02,9.470646631578896746e-02,1.987102928845084493e-02,5.448535351166775356e-03
6.642836711178743770e-04,7.935248785592487197e-02,7.313866118329303417e-03,5.793756809279746248e-04,1.550517224392454008e-03,5.363624142039670820e-03,6.870999350472269118e-02,7.375324809011295224e-02,1.592771867641626024e-02,1.717621124293026991e-02
6.640979976042326151e-04,9.432693761312062330e-02,5.031519009764202389e-03,7.547825319918663152e-04,3.637223814950721248e-03,1.120418065433482829e-04,4.668086317338052127e-02,3.260658302244950901e-02,1.446144011945190572e-02,2.189928787749755718e-02
7.046517935245376774e-04,8.378411853463867132e-02,1.491768035146819353e-03,8.768436436704821289e-04,4.893430347131693010e-03,2.996168791376396714e-03,1.602472592001663240e-02,2.706434213518691193e-03,1.503172614342546121e-02,3.475995680215017425e-02
7.438431301724704589e-04,4.273954051891575012e-02,2.437970738430684896e-03,9.253702952055152097e-04,4.754124509834658195e-03,2.513026590169051017e-03,1.718060546967310753e-02,5.750857468370231332e-03,1.593759660031943831e-02,6.485100268607545126e-02
7.045498690745766873e-04,1.357482746844809393e-02,3.783260934630416992e-03,9.676172908174560973e-04,3.065839709057800212e-03,4.693635067273536931e-04,5.599594566933308037e-02,2.981791570319983903e-02,1.729927686058578551e-02,9.765382558764909571e-02
6.685244119003178748e-04,6.842129834436519453e-02,4.106951231454181520e-03,1.014578759582421622e-03,7.274264796409620230e-04,9.486929194534564087e-05,9.428633474718255136e-02,4.936821344686293661e-02,1.978867750086114527e-02,1.145980809630065683e-01
8.145417842643754534e-04,1.097057161458535046e-01,2.148381302147476732e-02,1.023333202937110227e-03,6.975121148372976157e-04,1.190007789767179693e-03,1.085152566550130898e-01,5.509565002201663453e-02,2.259567809464309643e-02,1.120451932974805831e-01
9.445894520855715798e-04,1.209422369272313003e-01,3.593096447728930803e-02,9.833042625181419392e-04,7.635921969272773313e-04,2.885261293385468122e-04,8.353779087611523657e-02,5.179830277028180802e-02,2.530038103570271882e-02,9.246253817772590033e-02
3.916286275283480632e-04,9.100971451892930775e-02,3.750905754313479945e-02,9.383004945158119649e-04,4.563713361310013541e-04,6.055642537522827433e-03,3.561380453267302959e-02,4.183655669813941824e-02,2.906743981438415433e-02,5.763536890973087329e-02
1.098678919533362932e-03,3.428584498697986871e-02,2.935845022349248962e-02,9.065113209163483269e-04,5.047411037910071044e-04,1.150513901278430069e-02,3.548053624865462989e-03,2.839077348028164194e-02,3.369943766977780836e-02,1.923291692622422847e-02
2.616078085466503212e-03,1.936417741578310564e-02,1.914233660655623517e-02,8.209520768749378489e-04,6.842742090676957878e-04,1.133186323238331503e-02,1.927383050893849079e-02,2.263067337707007007e-02,3.624853364609254697e-02,3.984610600477013140e-03
2.970924272598202479e-03,5.459074893919166338e-02,7.883086529283779217e-03,6.500042381540141207e-04,7.952460096017632818e-04,6.903173702009077033e-03,2.140922531009888108e-02,3.025944151747593514e-02,3.446912049843851161e-02,8.716751022953835026e-03
2.291531518538716169e-03,7.654105691534686395e-02,7.042670472100292893e-03,5.319952955682038685e-04,1.007120861521787524e-03,4.025552501634280939e-03,2.334164513006739203e-02,4.087999021806026922e-02,2.935117178240909119e-02,1.135947138801054329e-02
1.747761556480086206e-03,9.176668817335610628e-02,2.312800773804325749e-02,5.440959892840464742e-04,1.128862432926034439e-03,5.132179006526012104e-03,2.381533419240879773e-02,4.277249650349322641e-02,2.306579009520868043e-02,2.267962562571288962e-02
1.641023327593678881e-03,9.582190312604950411e-02,3.287569591503657074e-02,4.040748104325247807e-04,6.172974382714353607e-04,7.577945029165656862e-03,1.280924372821562116e-02,3.856097170287821341e-02,1.703836211321631267e-02,3.193654888599929687e-02
1.113333657494639884e-03,7.767483405746915259e-02,3.081719196156371132e-02,6.167559621725247053e-05,4.877705652902723289e-04,8.432900066740389375e-03,1.206627109704938583e-02,3.892809420097464307e-02,1.324358696214834354e-02,2.487823841177679712e-02
7.978458805101232439e-05,3.042447207589457289e-02,1.730198238524631449e-02,2.138701699333648079e-04,1.356598068008024217e-03,7.571447425916079561e-03,4.129357101647877087e-02,4.754435717042166526e-02,1.368981311929337238e-02,7.364767312444972167e-03
1.000486434881168269e-03,3.786215554964797447e-02,1.734395716068511031e-03,6.411738067855559872e-04,1.215003821573996208e-03,6.418700643790736272e-03,6.311859262505291335e-02,5.474905523416835618e-02,1.573685235118114575e-02,7.598427251589673186e-04
9.985388676726583181e-04,1.007175956849166443e-01,1.630081253976245134e-02,1.750997900326647450e-03,6.367765684428105394e-05,6.024126663360440670e-03,7.324539109667034531e-02,4.570821656648953873e-02,1.184314262138970106e-02,8.989945350971331045e-03
5.679935010056954073e-04,1.295711227315048952e-01,1.854769118200351452e-02,1.601407417054420733e-03,1.345960495330802845e-03,6.808843068739341663e-03,7.249468749294103731e-02,1.862585576853205416e-02,1.222337452800005813e-03,2.669371115641463316e-02
5.278605686367605129e-04,1.181665503087603181e-01,1.060786649343164849e-02,2.131461952619917650e-04,2.178866458680697379e-03,9.009965842679334286e-03,5.759307718544843385e-02,9.104491311354448446e-03,1.583292528329805979e-02,4.029719247283727879e-02
9.282235409467687630e-04,8.237584664317794403e-02,1.400156725002620279e-03,8.838639265543329643e-04,2.297201088948073750e-03,1.234222039024965127e-02,2.366113396837695587e-02,1.976149994324801623e-02,2.145051672008305155e-02,4.524814489222273028e-02
9.002210099359749884e-04,3.651153962962486177e-02,5.501268980617020007e-03,9.790429484042631730e-04,2.241303567862971101e-03,1.537359566088713179e-02,2.321980151607030973e-02,1.269918664436723438e-02,1.684771326406772629e-02,3.875089596262642350e-02
1.914604331498670617e-04,1.593823259728767427e-02,1.423129599943514720e-02,7.999900860761197455e-04,2.420572031855258623e-03,1.652041246620680401e-02,6.799129485661714600e-02,4.335068753805806918e-03,8.778868161214339189e-03,2.012129572898527577e-02
1.488407070434307226e-03,6.583567496029384125e-02,2.677026807391959598e-02,8.970944289040857231e-04,2.670744123726606720e-03,1.613138446413812585e-02,1.034943425222206864e-01,2.834147869918016149e-02,4.320946953893151955e-04,1.230408319956838043e-03
1.503980075263328152e-03,8.880423203284450173e-02,3.838917815211097956e-02,1.001507418494203272e-03,2.705475270532713573e-03,1.629065981421972190e-02,1.336369718744515878e-01,5.417142483624742821e-02,1.072598271129432401e-02,1.142491920544208041e-02
2.897314783562603591e-04,6.863798062728730665e-02,4.315905426822612412e-02,1.001842316417823984e-03,2.699235263684876367e-03,1.812119290490198445e-02,1.595569208702591057e-01,6.855191270319926922e-02,2.231515615250099019e-02,7.195693114251056066e-03
6.567817860819885091e-04,2.765572951515846839e-02,3.736198669141758272e-02,1.187672820924268093e-03,3.035085641483517213e-03,2.049002760247958452e-02,1.749741696624556309e-01,6.457580468170437404e-02,2.362818063875200131e-02,3.021509080239799094e-03
6.141518949696608354e-04,9.800923074751652364e-03,1.886505641406491934e-02,1.302387667291032445e-03,3.399894664396863574e-03,2.115532840590552549e-02,1.745332869850711455e-01,4.829994528422273947e-02,8.811352091178416973e-03,7.813531076617964005e-03
2.647577346717236435e-04,2.446792152143174165e-02,9.888097325880983862e-03,5.560830841233020422e-04,2.771564830144544484e-03,1.822459217525011776e-02,1.578864254440953407e-01,2.182113673661847941e-02,1.329266395310718663e-02,4.440370948800226661e-03
2.289263892365951680e-04,3.490472671984289066e-02,3.985099763495809910e-02,9.254460710675964851e-04,8.788515740150372631e-04,1.176119282494006435e-02,1.295786310430616373e-01,1.914175230960237992e-02,2.877869864315455925e-02,3.764706510849516463e-02
3.350796110206311269e-04,1.663085466988784358e-02,6.182472749224065395e-02,1.730181417597804984e-03,1.003855408516683484e-03,4.678127034534094141e-03,9.819280410287808958e-02,6.371535657823765297e-02,3.269026868046293055e-02,7.316169370643220426e-02
3.073679199647468647e-04,5.956596065969665260e-03,7.271374345633585534e-02,9.609627164627182472e-04,1.556207991284665236e-03,1.681159444266537833e-04,6.751397096358022210e-02,8.944235396621580403e-02,2.861712665460789187e-02,8.041445638471157731e-02
2.168726554729397127e-04,2.097916098386407111e-04,7.287273095679273893e-02,4.871640646332403286e-04,1.080123109337989941e-03,1.969736573320854910e-03,3.233607171227295685e-02,9.403419832681905732e-02,2.098668130963324968e-02,5.216453048876931037e-02
1.927367893224656980e-04,3.092919556471417433e-02,6.218384913058451480e-02,1.228004421556870562e-03,7.796636235136292833e-04,4.559168492570061723e-03,5.625744627411973300e-03,9.620916363570559959e-02,1.341662431533162912e-02,1.236858512936819116e-02
2.062553157876961460e-04,6.470150894715596956e-02,4.223917130361837247e-02,1.131181417578672362e-03,8.968379133449921317e-04,8.872838104261163150e-03,2.968679049747646043e-02,1.032025312953021579e-01,9.390512994441897049e-03,1.542361956020777032e-02
1.978936828626087817e-04,8.865452626825508220e-02,1.950305771618067799e-02,9.421545775637976293e-04,5.870735025226403838e-04,1.303593117541948510e-02,3.193520147197091708e-02,1.053891963897636841e-01,9.490684624507739892e-03,2.953406270216050664e-02
1.754195600430426033e-04,9.757246534844560282e-02,3.108771344200245753e-03,9.503597267221221626e-04,4.350360058502888137e-04,1.477416870782539277e-02,2.892809927435608178e-02,1.015033697564734494e-01,1.094328411104248874e-02,3.874417890502686312e-02
1.646225417278864369e-04,8.247481100223261197e-02,1.641594490607919433e-03,9.791697358628936258e-04,1.217303846139408847e-03,1.422648693318817430e-02,3.532373459015637762e-02,9.954824233742930184e-02,1.167903429743495473e-02,4.690318358080843714e-02
1.727793769854522887e-04,4.241721820890282518e-02,1.886332897450629983e-03,1.081320914748690187e-03,1.016827745031651919e-03,1.304104304733988418e-02,4.172502227530800606e-02,9.312134702217868265e-02,1.164661491440668536e-02,5.212710820254330690e-02
1.924691176616967817e-04,1.626292482194400396e-03,4.297210504636962518e-03,1.288938170633419610e-03,4.780387583457112793e-04,1.212192116194526527e-02,4.017298676152592646e-02,6.850243666891991934e-02,1.043344099345705489e-02,5.199490673951151498e-02
1.968560642139837672e-04,2.479011745651979459e-02,7.937143235086929760e-04,1.170811975758089029e-03,5.839749316312970806e-04,1.175591796037291255e-02,4.609220917597212780e-02,4.012262989671942781e-02,7.719476331189707892e-03,4.769303291963938873e-02
1.774713913080901606e-04,2.992247590987373584e-02,1.102289011044404153e-02,5.561674745386708260e-04,9.963399565321026056e-04,1.253560822336832921e-02,6.794030633990032209e-02,4.521094835989344918e-02,5.553065769258224219e-03,4.403630492400487095e-02
1.946650097682455459e-04,4.139161750387518324e-02,1.957839474244970485e-02,1.704576438582187188e-04,2.234064824158068954e-04,1.480109588214434738e-02,8.368450276764546891e-02,8.962437564143840851e-02,6.289989398931592791e-03,4.373544483733732280e-02
2.771940032553334241e-04,6.846412920222290366e-02,2.337335328185569105e-02,6.828904442072546545e-04,2.237968788596299274e-03,1.785822114476808345e-02,7.504078514626198737e-02,1.300932999122410838e-01,8.752298919774963160e-03,4.410827117105599326e-02
2.930677027524356622e-04,9.827320864540785295e-02,2.454741616690600883e-02,1.706177630275470397e-03,4.341229438353477049e-03,1.986164930362049885e-02,5.512319620743291737e-02,1.279317728124449438e-01,9.660871882871468336e-03,4.181521899082635274e-02
1.701584501815244974e-04,1.219293025580810153e-01,2.451210712510482406e-02,2.353567171915367344e-03,3.541722583070039052e-03,1.868859043936441089e-02,3.973212653776016928e-02,9.389641632195966370e-02,8.499059743128348568e-03,3.691576038643858831e-02
1.895983449350169335e-04,1.407224720804852169e-01,2.065409080620662224e-02,2.197984875487403976e-03,5.468908599522264704e-04,1.421280213898639191e-02,2.222510691183341575e-02,6.290221423319056204e-02,7.760437910045388243e-03,3.067276863846174137e-02
5.247418707164123921e-04,1.494602738200282166e-01,1.241370285831026876e-02,1.552887134584696226e-03,1.169680942679400017e-03,9.166267031120976100e-03,4.898591894007075717e-03,4.705660199056822118e-02,7.831204263090883744e-03,2.410714429700212824e-02
5.437094769111175526e-04,1.389345725247648766e-01,6.507908451707784640e-03,1.306205485540953099e-03,1.564136120379677189e-04,6.514249899645531416e-03,3.102253680272934813e-02,3.294623756673796533e-02,5.261890497039008879e-03,2.042528556143525381e-02
4.400294602287032220e-04,1.121529017607464651e-01,8.967215719138874053e-03,2.125580445844561968e-03,2.966649071055573773e-03,7.092168110963220640e-03,4.461008895206063779e-02,1.195885701181198524e-02,1.339390625639762201e-03,2.403953662856596341e-02
1.680337232006336081e-03,8.047925800283677045e-02,1.555106276435813152e-02,3.458317304614858759e-03,5.175721082396663592e-03,1.012291059078685405e-02,4.778341384527984292e-02,7.960858013190181062e-03,7.045059526281831699e-03,3.329071144034244367e-02
1.669744634949195785e-03,4.952571055886859086e-02,1.922760238680545561e-02,3.922716325376710521e-03,6.250449940560630184e-03,1.377217088474790019e-02,4.369343625645091822e-02,1.954145815381639478e-02,6.377481154870068975e-03,3.796826519957231805e-02
4.086155441642157259e-04,1.935561280438570855e-02,2.338382122708314304e-02,3.071012169821803889e-03,6.481757020753192884e-03,1.514760255094928232e-02,2.864349900421786846e-02,2.691513485976108205e-02,8.859778943173897067e-04,3.136811377049213145e-02
5.947465252425920964e-04,6.963052659247948722e-03,3.556593734783573130e-02,2.148876133360522796e-03,5.974614954228602871e-03,1.237040618934939253e-02,7.349707103360980827e-03,3.461563059248397994e-02,3.272031692498059662e-03,2.247935111488781959e-02
5.934198600711840634e-04,1.998432347214285087e-02,4.970491484622464873e-02,2.478204690802361405e-03,4.782809831457487774e-03,6.403977925058734408e-03,3.171515919394166452e-04,4.045165668058225972e-02,2.906528163661638298e-03,2.630200778405886175e-02
2.735258885626737379e-04,1.303736040269879576e-02,4.877632303334029223e-02,3.574480569019781485e-03,3.253194090539996558e-03,8.943405960773575906e-04,1.579229728599506125e-02,4.289898616309840290e-02,9.517185095540719487e-04,4.364434120529216143e-02
2.664296372933241713e-04,1.892592905762735880e-03,2.796142971874866073e-02,3.763135331764977387e-03,1.875422567565280434e-03,8.373296225926250488e-03,3.145354939435037606e-02,4.282729649874514322e-02,6.548236128612067858e-03,6.047782202173858368e-02
3.975904723656010814e-04,3.089155998497334840e-03,2.321621439231201164e-03,2.382439683384143195e-03,9.679995886267079089e-04,1.366318653882369824e-02,9.381568864076770056e-03,3.767293104478382920e-02,1.238768611795167986e-02,6.449333082946888396e-02
3.851759490058774874e-04,8.300327549732464116e-03,1.238481961851642388e-02,4.727840813391927244e-04,4.225894385699798818e-04,1.367358726653878156e-02,4.922374620255902389e-02,2.656671130108094123e-02,1.677141544887044908e-02,5.350255691244227424e-02
3.023419650341506513e-04,9.883069461027502167e-03,1.431804731451214070e-02,7.563366818965414334e-04,3.351486007809877403e-04,9.185260773630726100e-03,9.567709113086637907e-02,2.004983787632804923e-02,1.864806259045750925e-02,3.223191866696854813e-02
2.813862658980220851e-04,3.308293670897522777e-03,8.529248968790400023e-03,1.361772982756354619e-03,1.736474957589959154e-03,5.229325243046223717e-03,8.961921518710426471e-02,3.209545527887490424e-02,1.792442362529189301e-02,9.180452973548774986e-03
2.904667709059940094e-04,1.297887730861826093e-02,3.113585864632545559e-04,1.957693884036883127e-03,3.567335720014825143e-03,5.607370226126129516e-03,4.334235193700428784e-02,6.185305762747113356e-02,1.512125130496559493e-02,6.366468832804174707e-03
2.679619068848203235e-04,7.628315154761679262e-03,4.280056553713062345e-03,2.367771058189180756e-03,5.551519484415191538e-03,9.782317518704253603e-03,5.866877607902856034e-03,9.247141842642829512e-02,1.167098150678736422e-02,8.819048190414336547e-03
2.287267475546112092e-04,1.154154678421843300e-02,4.139420507701600804e-03,2.336580477431567365e-03,7.693669360081771026e-03,1.474955675209208873e-02,4.638758351101694016e-02,1.089519721260161778e-01,9.225249508369292445e-03,2.451758121022550550e-03
2.026704714480017408e-04,4.130466256620441562e-02,1.956435028999913353e-02,2.625261675877392942e-03,9.552798788759404511e-03,1.751919292906520612e-02,9.121007005391962297e-02,1.134836702565979460e-01,8.049001211204573000e-03,2.344324511831087990e-02
1.842055435636419077e-04,6.614755011346769298e-02,2.760753086125060374e-02,3.754620529654906051e-03,1.021683002829592429e-02,1.660205593363256807e-02,1.379754942277986729e-01,1.243123761320603926e-01,7.541823103884254947e-03,4.453362796009260188e-02
1.600523379482789719e-04,6.136207673742834906e-02,2.433279497381865553e-02,5.015293977317663958e-03,9.234750897219678664e-03,1.283771784150834414e-02,1.585187216507281671e-01,1.546532777867271891e-01,8.309767486373471901e-03,5.345233990329135987e-02
1.332733827389810752e-04,3.216029245839788914e-02,1.944288389395733979e-02,5.988725210521358457e-03,6.886356749600531547e-03,8.521723964846740842e-03,1.337925224602281027e-01,1.858579385576173693e-01,1.175956601829652656e-02,4.233894466235257892e-02
1.111958868144069241e-04,1.926882331192523307e-02,1.972650390945527785e-02,7.093255483157133792e-03,3.976983902261478111e-03,5.322145055125290097e-03,8.110091797708070260e-02,1.772250919848856188e-01,1.673751194298034317e-02,1.139611063881229916e-02
9.390517727545710715e-05,4.213201491922642650e-02,2.184449146429486358e-02,7.887903887930404478e-03,1.634463416600076980e-03,3.199540232583023870e-03,3.849995215973533308e-02,1.200864825124113161e-01,1.864173804880529806e-02,3.040836385589234039e-02
7.830399789718605220e-05,7.131181762202792873e-02,2.145729861471857430e-02,7.174554301809750456e-03,4.127221477081842492e-04,1.121569107392853936e-03,3.097612480178149955e-02,6.032569097359943844e-02,1.484888460546664180e-02,6.573003396715518254e-02
6.367107847027683341e-05,7.685016705564756689e-02,1.898676922579457804e-02,5.179726051635295814e-03,3.474143687738505859e-04,1.523441189580847710e-03,5.010451440547295660e-02,4.106708496493883392e-02,9.603321957954468954e-03,7.887052590467796831e-02
5.287884686918954545e-05,6.721998879806607985e-02,1.470730534679556660e-02,3.169916164071677738e-03,1.285196861880789562e-03,4.166500033061816370e-03,6.029728298834185346e-02,4.692839221112413139e-02,9.013289122606252257e-03,7.269460760326348914e-02
4.957204735682389893e-05,6.399138257598559199e-02,4.747529017615909931e-03,7.797021209829389007e-04,1.537262388308089853e-03,5.228407773018990852e-03,3.803194181362067744e-02,3.582282807287671955e-02,1.181777800378220646e-02,6.700860433801106297e-02
5.099511042004637926e-05,6.907930082841255703e-02,1.320321069141308992e-02,3.143620859251014272e-03,1.400180321695136893e-05,3.425724155886178748e-03,4.868209424279141412e-03,2.211584869693571445e-03,1.005179982654488130e-02,7.234640939806795401e-02
4.951446149235474130e-05,6.664594828234046697e-02,3.150959603939060966e-02,6.608295678996322850e-03,2.016373591306028570e-03,8.928516451177240590e-05,5.949353522363863209e-03,2.540508018822585506e-02,3.273367509540172976e-04,7.692801966097174982e-02
5.000113803260733495e-05,3.838727245619118905e-02,3.722514497948135187e-02,5.504647910013700345e-03,2.071634837591213116e-03,1.220324903946447921e-03,3.440628387740616786e-03,3.104784817250462459e-02,1.296864103295876890e-02,6.949690750567248665e-02
6.906038535807862411e-05,1.608823768378110641e-02,2.867877324392916968e-02,3.663161349162032034e-05,5.381768775352085803e-04,3.335671649278391265e-04,1.642860701148837754e-02,2.313701731514986037e-02,1.788996480125455701e-02,5.915765136828254889e-02
9.695730984386951516e-05,6.039444276254407606e-02,1.922133181962598289e-02,4.567435756232356148e-03,3.512188551489001890e-04,9.181220568553619468e-04,4.046880240310283400e-02,1.311936995763111902e-02,1.418594685852001686e-02,5.811598706636388056e-02
9.731132201035547723e-05,4.625751967530747355e-02,1.922823513182602209e-02,4.284518984411352961e-03,2.067959709822809761e-03,2.133377720403223723e-03,5.722883004683163716e-02,7.969053635228916591e-03,1.172435047251805043e-02,6.076059041863714899e-02
8.884546163770491744e-05,2.625671308516256547e-02,2.470408119250898371e-02,1.001571185271481028e-03,2.979938272762112494e-03,6.170020389163530412e-03,7.613125406277089502e-02,1.566205946941891594e-02,1.770856390229273367e-02,5.506827655443622543e-02
1.486550314482036118e-04,1.007900661037698237e-01,2.897510974396365346e-02,2.057484224849640258e-03,1.585227734295440675e-03,7.668729417898863948e-03,1.095029778663192538e-01,4.028541776506922023e-02,2.674349776768549306e-02,4.093908648062923733e-02
2.374053860669740113e-04,1.288260799472041862e-01,3.237615426550388004e-02,4.252289387821676057e-03,4.073681293779491297e-04,7.073355556645775401e-03,1.381559975714647670e-01,7.427054155801759983e-02,2.849551014534022417e-02,2.462759801175900751e-02
1.873268481808705382e-04,1.129788761245731771e-01,3.462964986212468954e-02,5.988186180753016230e-03,6.540256721891868266e-04,7.247069588991053926e-03,1.392128686833432327e-01,1.030009907946697750e-01,2.041173188927886128e-02,6.119481641445396330e-03
7.795959991945369035e-05,8.557761932442152497e-02,3.149490149803400862e-02,6.776851648821796172e-03,1.568884689569295752e-03,9.966468651913825902e-03,1.195407968924702968e-01,1.167051007598723933e-01,8.651066581471073338e-03,1.713474186293493379e-02
2.811853011287831897e-04,7.878471710572307329e-02,2.496936611845460702e-02,6.516646651873370458e-03,5.081429048110524399e-03,1.398445326545776080e-02,9.538722281292819072e-02,1.166183900501180093e-01,2.330612452882531525e-04,3.982905634524371019e-02
6.147035413238646122e-04,1.094501959763970467e-01,2.479927194213568317e-02,6.437135151123520027e-03,7.185896917093499009e-03,1.469762279319739712e-02,6.592035603904383700e-02,1.086998498544372305e-01,5.169116514284873010e-03,5.010811029105027153e-02
3.980415021607250500e-05,1.570100560669494827e-01,3.349436542811033007e-02,7.097653432781390360e-03,5.558633277933886299e-03,8.251002261962609927e-03,2.955472811098572988e-02,9.415458359813473621e-02,8.653894283804921053e-03,4.053906313001470751e-02
2.226380803563812738e-03,1.687145426483576405e-01,3.917719791792706463e-02,6.730724074852477944e-03,9.928862174126747847e-04,2.484034556447344780e-03,2.952321546246849775e-03,7.461659067903081421e-02,1.040811683565004246e-02,1.559347285904677353e-02
4.406910762745947993e-03,1.186402069986082497e-01,3.069156510171860280e-02,3.391354496482620710e-03,3.200984247654916574e-03,1.010915489366175958e-02,3.970374258160181205e-04,6.206670789229419560e-02,5.730162263163737779e-03,1.048818834778305481e-02
4.387416593853660576e-03,4.188380162783899435e-02,1.286003602132337192e-02,1.812035564608923018e-03,5.118491272919321010e-03,1.171068635334908230e-02,1.134975432482205303e-02,6.662225074403037295e-02,7.405909710231156455e-03,2.397792864312566288e-02
2.168315063072833501e-03,1.368874395435200342e-02,8.134930375871167810e-04,5.456536998835862656e-03,5.546666405326360592e-03,1.091822262185822984e-02,1.878921421216539836e-02,7.722784272210089784e-02,2.271117548134623035e-02,2.363058908986130288e-02
5.558907762949943975e-05,4.196626701035582885e-02,3.726316696507326557e-03,5.486031124984076628e-03,5.091665796050100397e-03,1.112178092286725435e-02,2.491252702149928874e-02,7.113012525718348522e-02,3.152068595660852818e-02,2.172518957065340539e-02
7.453806870950921079e-04,6.403510087991670652e-02,2.318062180676276098e-03,2.723073261440803368e-03,2.967508387250672279e-03,1.179759893134544983e-02,4.054671619032904767e-02,4.146807229849009541e-02,3.191951898059312148e-02,2.886369877861257385e-02
4.443601106324830815e-04,8.669580881330127275e-02,1.173490039084450036e-02,4.903525907828875600e-04,1.588161772232853282e-04,1.169864254899172229e-02,6.137209116280513410e-02,7.372209829719441818e-03,2.749680297866199247e-02,4.060441638483026222e-02
2.701711782395635020e-04,9.698760354938150419e-02,1.444508351150704598e-02,1.769573848472936421e-03,8.840891691902841906e-04,1.163418223237431236e-02,7.127875498025008916e-02,2.998082444594496639e-03,1.985150291243734447e-02,4.593258599217717175e-02
4.045054878028481269e-04,8.290372970174819667e-02,1.367583802461854684e-03,1.777572708308556117e-04,3.169709103648541294e-03,1.338286687632144097e-02,6.570741372725211193e-02,1.719991444112074774e-02,7.971430200669432295e-03,4.419453382459544166e-02
4.749676895603517114e-04,4.792968746460327806e-02,2.329852398149757572e-02,4.632091069839102890e-03,1.005279929202844424e-02,1.759381383700969054e-02,6.095034638724769471e-02,4.079775436247212728e-02,5.496937125936318148e-03,4.349955909731783449e-02
4.016494251930179636e-04,1.413461928428955995e-02,4.466585852795409983e-02,9.523748562824025515e-03,1.591752401485625051e-02,2.283001279135547443e-02,7.334575737232588988e-02,3.655334511118760177e-02,1.299137509849146964e-02,4.641893285004424635e-02
3.520751836398743366e-04,1.025636917619564270e-02,5.443594337107416498e-02,1.307062000554472941e-02,1.915086856455141054e-02,2.626635004282139654e-02,9.233134262041622908e-02,8.404759393027339334e-03,1.033525682566767585e-02,4.749492310926991395e-02
3.653814170040459489e-04,4.553232868816204509e-02,5.789250603602826006e-02,1.425815747774518416e-02,2.029965682878359656e-02,2.595167012733504489e-02,9.086535952415943085e-02,1.223731676151361414e-02,2.881577569721143275e-03,4.167081145220231930e-02
3.643910940211854107e-04,1.022243489615235201e-01,6.413860255137324162e-02,1.274380185382568975e-02,1.957867717534354790e-02,2.240782539035704457e-02,6.609334602230849953e-02,7.450794358110661951e-03,1.262833069303342676e-03,2.830959064352849691e-02
3.305936297424846241e-04,1.608214339260283787e-01,7.438090303991415353e-02,9.476094627949408628e-03,1.664252261015699424e-02,1.740754882498032202e-02,4.556331428227768793e-02,1.144612533395467438e-02,1.075173952578656594e-03,1.259380719590686738e-02
3.007368130067161640e-04,2.129951847229017703e-01,7.975047820339190019e-02,6.436115853536964262e-03,1.220836791676980712e-02,1.180934461822776872e-02,4.381345201604081030e-02,2.305360122266365483e-02,6.224203428226116009e-04,7.458252717629952275e-03
2.846893008833645267e-04,2.455803279035372322e-01,7.133382521917235042e-02,4.673743903866979695e-03,8.193434304044833888e-03,5.564380212816613137e-03,3.960510797544506550e-02,1.698578385368743754e-02,1.311906442768342659e-03,2.366948394027166419e-02
2.660193231231333276e-04,2.443895207396550862e-01,5.204074686050018383e-02,3.388192582171604267e-03,5.987320665361333706e-03,6.397250119621480198e-04,1.083415960620471435e-02,3.572304480288744644e-04,1.531343282841140163e-03,5.238441778802336440e-02
2.408814128647249382e-04,2.212198904335387906e-01,3.309182311782864205e-02,1.445821311552771774e-03,5.400401779415833943e-03,4.788586308479978598e-03,3.039177418038745138e-02,1.331577296912724376e-02,3.182090842817705974e-05,6.987969895218218430e-02
2.181924047418875483e-04,2.047379948403883487e-01,1.952021117821378660e-02,1.158738444692770757e-03,5.305250606629135883e-03,5.035029548398068169e-03,5.331436009696239459e-02,1.143173230397906935e-02,3.902426043017916124e-03,6.495210941914697500e-02
2.004583960335345365e-04,2.002805521933809785e-01,7.792546135096414112e-03,3.580958682975110899e-03,4.466505628487935260e-03,1.871758217767245918e-03,4.587592350823212206e-02,7.536982620884248758e-04,9.422094491089971421e-03,4.897054037786797986e-02
1.834283723855636484e-04,1.881793724828711156e-01,1.852914334191788602e-03,5.028171961525438813e-03,1.918479454916829528e-03,1.540423509161441273e-03,2.588643866169818356e-02,6.624424159864019876e-03,1.252043619457109992e-02,3.522348870686095590e-02
1.670687120592379417e-04,1.614913759834757656e-01,7.231950325121859133e-04,5.305911624350641460e-03,2.425372527915210102e-03,1.923982691085146220e-03,1.918576275523421748e-02,8.476985487598119248e-03,1.069745794123133989e-02,2.283904561782251069e-02
1.559155236574554925e-04,1.346791882431694343e-01,1.606675158952424257e-02,4.894885705058619856e-03,7.225706220475061094e-03,8.808800457781138394e-04,2.973928591525411280e-02,3.974023235713150526e-02,7.767270853930531918e-03,7.881443296105867385e-03
1.496132020057379212e-04,1.130486212975346377e-01,3.899069464202675056e-02,4.440287655222046985e-03,1.013706406887182783e-02,3.571594289553123650e-03,3.561048585135121597e-02,6.096325054588676989e-02,7.727366118202808054e-03,2.456016750322581078e-03
1.423521820621076537e-04,8.379135875357460184e-02,5.199800604247366287e-02,4.155999391555212363e-03,9.556883835783715198e-03,2.972810969229555331e-03,1.972778905312841738e-02,5.128788622315831602e-02,6.512050341060471662e-03,9.891965478691084994e-04
1.364839033344356968e-04,4.508342369300661484e-02,4.899685410105055622e-02,3.890239111276221941e-03,6.660418087817207046e-03,1.480771189540181160e-04,5.118729363094195149e-03,2.119571712335609551e-02,2.399873151585578575e-03,1.209646460368746408e-02
1.437580081915324284e-04,1.651782674408327350e-02,3.753688411688344689e-02,3.555818102730236296e-03,4.773746175197321646e-03,1.915408526479248173e-03,1.291319452627135746e-02,1.361814058928817375e-03,1.623242140039762166e-02,1.397721036919651050e-02
1.593287234270909943e-04,5.106381017537617306e-03,2.618155196499628856e-02,3.222471338542058292e-03,5.619482098540047946e-03,3.923749841504548636e-05,3.844676870145278744e-03,4.645139206650968425e-03,2.504214366806009617e-02,6.147249616443482226e-04
1.586053115186967469e-04,1.707285073989472240e-02,1.363998769312009876e-02,2.936534270755112534e-03,7.442094292023943881e-03,4.045217323866166781e-03,2.894848977635811754e-02,1.503497795888009917e-03,2.458230012192320901e-02,2.281633738182803697e-02
1.512512475867859585e-04,7.670334198880415788e-02,5.484005676309646436e-03,2.671151904208711025e-03,7.919596943364522884e-03,6.772076993363696125e-03,4.151383678224941642e-02,5.376813684067270963e-03,1.929513048879533815e-02,4.053633178531412806e-02
1.892318691955778901e-04,1.500370387387500171e-01,2.779840106986936760e-02,2.408827168881964940e-03,7.154283088095222953e-03,7.298457712381103274e-03,3.547412273483276784e-02,3.026678641912832878e-03,1.357938106801430053e-02,4.939496442415324678e-02
2.523783858799166584e-04,1.781219345942979260e-01,4.143122160854285224e-02,2.165772642671429798e-03,6.516882695392774497e-03,7.824445238215708628e-03,2.257016833397657712e-02,6.157166902894438409e-03,8.078725635183567344e-03,5.039376180952226392e-02
2.281567796847123845e-04,1.382138517352660134e-01,3.945067631606334613e-02,1.953532588661645916e-03,6.282845081023069773e-03,1.013827093196148499e-02,1.399366399651576394e-02,2.114461811335614783e-02,3.915744171702470466e-03,4.439973721745689439e-02
1.552358031016668339e-04,7.648360244403153152e-02,2.684125979995429651e-02,1.767041290545002781e-03,5.912744432663800780e-03,1.295070494671288208e-02,4.909882478783173659e-03,3.658510489501055202e-02,2.603656078302229050e-03,3.361013942531249771e-02
2.759582288236577517e-04,5.259780236041830537e-02,1.417521586158788233e-02,1.602398189060865591e-03,5.503092620415534278e-03,1.398236885505293320e-02,1.179049692038480063e-02,4.235383313118887272e-02,1.660715026647664435e-03,2.557015217776913152e-02
5.216175970262729731e-04,7.151724038906205616e-02,9.643186098665837425e-03,1.462654452030690303e-03,5.438081635997837719e-03,1.304543530223224550e-02,2.713430306697453553e-02,2.827557456089443283e-02,2.788987159566940106e-03,2.965075822531997723e-02
3.284416373704826812e-04,9.446453423629369572e-02,1.483867012063007189e-02,1.349553649593688166e-03,5.174044848840820589e-03,1.133304732873306221e-02,2.853100037882662712e-02,4.718691697070810480e-03,9.072585455951825972e-03,4.683167717064903174e-02
4.272815596679555386e-04,1.012375908238742350e-01,2.274333199616867390e-02,1.260725904847489988e-03,3.926428793290617260e-03,9.071946958443245779e-03,2.000953459101216178e-02,3.697343511672013250e-02,1.174872021106906569e-02,6.666521110966397434e-02
8.762908086408576717e-04,1.069449047635782496e-01,2.382919103134184882e-02,1.193557268590212609e-03,2.397673507023558893e-03,5.907491233013028968e-03,1.358101530577223576e-02,4.396876592788014071e-02,1.006513955325398849e-02,7.880655066798510078e-02
3.807263135763095719e-04,1.170782459912496493e-01,1.794886167189696860e-02,1.146626211426199663e-03,2.138783491633302215e-03,2.888056823098750572e-03,9.606939326047104349e-03,2.385886885971462423e-02,8.816083198757573500e-03,8.434622438777633624e-02
4.205649413744099634e-04,1.037996773306762155e-01,1.360875707914394744e-02,1.117978959534665639e-03,3.168053864633821673e-03,1.949987860487256783e-03,1.262394152563271060e-03,2.258636763832174224e-03,1.075722057524472648e-02,8.969731127112333391e-02
6.570987694622615425e-04,4.931070939476123877e-02,1.402229608290278019e-02,1.104478752983187404e-03,3.954260271752740342e-03,3.271915697750278802e-03,2.255330518391372718e-02,2.982329403919411950e-03,1.359531895789509691e-02,9.308478913440082492e-02
4.516857078662972719e-04,1.532073783661189875e-02,1.421984257553556702e-02,1.102711976578771118e-03,3.738357512106535874e-03,4.778065286743314599e-03,4.571173390482174276e-02,2.237432102572860237e-02,1.502581369299233263e-02,8.650025192175779531e-02
3.676970770402412654e-04,4.553372645989465367e-02,1.339607645647258177e-02,1.109514472948934603e-03,3.213694930605951253e-03,4.682005733463813490e-03,5.730632917809140581e-02,3.876122884277244385e-02,1.581188464835189128e-02,6.977051220884127047e-02
4.728279177369737007e-04,3.561392470117123732e-02,1.747932755012655132e-02,1.121669124821460077e-03,3.013888017172171828e-03,3.416144598713215588e-03,5.254727412937357234e-02,3.980707682308073231e-02,1.650203511522690264e-02,5.359263545229012160e-02
5.229645062473876546e-04,8.171192454812254563e-03,2.639964266575097612e-02,1.135575975032096724e-03,2.957469960738090976e-03,2.846146180947123523e-03,4.263609414358902200e-02,3.502112458067577899e-02,1.527744025104081291e-02,4.851373666408100027e-02
4.793385392449391177e-04,2.375463134355161599e-02,3.130353138715398498e-02,1.147528308619065289e-03,2.757962589197513782e-03,4.299225007868569780e-03,4.416707509929608533e-02,4.322637003234363479e-02,1.146415188597186760e-02,5.681621909266763165e-02
4.564001610408738676e-04,5.724358465136319268e-02,2.817880404451854337e-02,1.154442135803914219e-03,2.488358105256420309e-03,7.277523779209382933e-03,6.070437184443818607e-02,6.744510213115156860e-02,8.197598759437828980e-03,7.256955683681216851e-02
4.731100498409900068e-04,8.437272684341359796e-02,2.248832927251366923e-02,1.153853378339913475e-03,2.279997099342933806e-03,9.805511436975906242e-03,8.135403671446046758e-02,8.675570628292086917e-02,8.835704429179070535e-03,8.455492367915891372e-02
4.723778347132681849e-04,9.930475947134767556e-02,1.724955922006127587e-02,1.142747729761072698e-03,2.098285989770330012e-03,1.041290878021089786e-02,9.736297053347603425e-02,8.315415520253269244e-02,1.279073362507956481e-02,8.376365726918071075e-02
4.464787757057620920e-04,1.056383543716186008e-01,8.463486583691830212e-03,1.117645386051436922e-03,1.879661599413170060e-03,9.610686688067093114e-03,1.109989527511898999e-01,6.800992551284917864e-02,1.723708159519693126e-02,7.146505923965057461e-02
4.309772048006765572e-04,1.040870437217340794e-01,4.615171575062126767e-03,1.077264317531361100e-03,1.638400511916193823e-03,8.777074672381758938e-03,1.252374915250632492e-01,6.256917338607367873e-02,2.080982790641207336e-02,5.404426788368871248e-02
4.273270040996248516e-04,8.617304746928194925e-02,1.529813671347571118e-02,1.022665510880926398e-03,1.403891140402265328e-03,8.240298696542164292e-03,1.343712809930593943e-01,6.374167799027147252e-02,2.316845104355955143e-02,3.192896849329703718e-02
4.011980291900441161e-04,4.885063041466456563e-02,1.824193217560992827e-02,9.517581306653197411e-04,1.169873361196524823e-03,7.557637355495761163e-03,1.331026959577192026e-01,5.701543619995304291e-02,2.282260246375164905e-02,5.367262639447156064e-03
3.582956029517912625e-04,5.903591188782661078e-03,1.479437057993336462e-02,8.589395360418992063e-04,9.231899323196171656e-04,6.939183619545802491e-03,1.273901250348407621e-01,4.887592293656077558e-02,1.824039144577120630e-02,1.350232013126260663e-02
3.546910022198041705e-04,2.122168045372507458e-02,8.210787589092941735e-03,7.468892995021721246e-04,6.678924551751052978e-04,6.735448689635410192e-03,1.220379893824040940e-01,4.922478766498726566e-02,1.043050928915600570e-02,1.215060923406991941e-02
3.770524050751343048e-04,2.018177128793754993e-02,1.186455827523989325e-03,6.276993403674700029e-04,4.120437284941354705e-04,5.788905752270766085e-03,1.015413785970352561e-01,3.685201092674068868e-02,2.442875018314683705e-03,1.998777390573334284e-03
3.155467289870606483e-04,3.634457596948727220e-03,1.407995004792503800e-02,4.977192909647388305e-04,1.562240593588274241e-04,2.321949353030091073e-03,4.518224818711452651e-02,1.244681469850557332e-02,3.624085695234134999e-03,1.049570192548201879e-02
1.990851553660612661e-04,3.077411113300478410e-02,2.707535705116417141e-02,3.344339015751067543e-04,1.004875535640962700e-04,3.054218344281461450e-03,3.450174451418525773e-02,7.639940288174010274e-02,8.130059541096058828e-03,8.097043125342255621e-03
2.626275919817355818e-04,4.468582299377878153e-02,3.324957030606588010e-02,1.500118767454249285e-04,3.551281362715830669e-04,7.102408266637754569e-03,9.304833022934742848e-02,1.101764904295884917e-01,1.213934175597218210e-02,1.107919460812556260e-03
4.622292140032330850e-04,5.053290069155677577e-02,3.151498493065365419e-02,7.471718329318062426e-07,6.036672279878844364e-04,7.459456755332133371e-03,1.045191380213620624e-01,1.061559339791211809e-01,1.472315960124677067e-02,9.492777239239169260e-03
2.663971325955327837e-04,6.762282688856340040e-02,3.099413595732679327e-02,1.347353773737935945e-04,8.436549387772851807e-04,4.845952808986614402e-03,8.678923006129575513e-02,8.963328041136751911e-02,1.360679357344329182e-02,2.439944322455449288e-02
5.263291207077704613e-04,9.347713484355349434e-02,3.690318643113318225e-02,3.608225773236058143e-04,1.073031006297113120e-03,1.575683904638219184e-03,6.608029648329694083e-02,7.236952456883909146e-02,9.313931999941307827e-03,3.434060561169580139e-02
1.389530552076174855e-03,9.114447282267321149e-02,3.690070578181393890e-02,6.364688904268983984e-04,1.288965785728979048e-03,6.033584577120250933e-04,4.365180875753835177e-02,4.768015669614225627e-02,6.531168980366772528e-03,3.113915813562117760e-02
2.175375576097279048e-03,3.366915190748377695e-02,1.646166432023498175e-02,7.153865288001123521e-04,1.488506574759413791e-03,1.240329859607922037e-03,1.293963278866352810e-02,1.793784735931621896e-02,9.084228999220692047e-03,2.487578735631540069e-02
3.359101396668142531e-03,5.050449733837031330e-02,1.537127784350679829e-02,6.623222245355443651e-04,1.669238560369278512e-03,8.955131693478124823e-04,1.480968406486998616e-02,3.261449919611132502e-03,1.487761647939166501e-02,3.335809151842275555e-02
4.346906842833047485e-03,1.021531992086549129e-01,3.368168348032075238e-02,1.037115084985031077e-03,1.829084628105681750e-03,1.562484004022203304e-04,2.305116584401013108e-02,1.091842824428523179e-02,1.823088543171723017e-02,5.627770632732020939e-02
3.567907554858988119e-03,9.580472196565342768e-02,2.959942926371500124e-02,1.959689628942208346e-03,1.966063123234071050e-03,1.001747096557673630e-03,1.521561755450696538e-02,1.294417211091921857e-02,1.635302819128070517e-02,7.396779597743466383e-02
1.205705289543182674e-03,5.762915088679870790e-02,1.682632279700296135e-02,2.557359094371914297e-03,2.078466062533223559e-03,2.532475100071555386e-03,8.899778697829978380e-03,1.660934122044250422e-02,1.110995550139917340e-02,7.310593333909834457e-02
5.381198301023940381e-04,2.216905417112351173e-02,7.956982767799863215e-03,2.189281273417808312e-03,2.165092482958653943e-03,3.758102425812298326e-03,1.010212830832000856e-02,2.135919265211172133e-02,5.371048146557371936e-03,6.095366316623647418e-02
5.882836763237494918e-04,5.688425205920071351e-03,1.800157499552489148e-03,1.491589156103996245e-03,2.225219073976391921e-03,4.090248293246142100e-03,9.695227420601280205e-03,2.591278365673553921e-02,7.546163035039078239e-04,4.970650477939080741e-02
7.572082206869565476e-05,3.755876250260690996e-02,4.840626067461988036e-03,1.332383210380953462e-03,2.258440057205578829e-03,3.586337859358633938e-03,5.418005292238308249e-03,3.417176083559139016e-02,1.643775274727846038e-03,3.844983938422891212e-02
6.757867687108250806e-05,6.789997077809499515e-02,7.668911217436187588e-03,1.587395466535254564e-03,2.264727657373119280e-03,2.523560292185958367e-03,1.058573799921991992e-02,4.953451784380340228e-02,1.922237671462553345e-03,2.039618180702692726e-02
3.138256025619717794e-04,7.407119671379484849e-02,2.119418052951623638e-03,1.692800090268589859e-03,2.244732123277824731e-03,1.387997298544506580e-03,3.213745456690327018e-02,6.690596385874962582e-02,2.423329783993703399e-03,4.480730319857822996e-05
3.409736690918872045e-04,4.903569216570120848e-02,8.592843518118953305e-03,1.580325247094859159e-03,2.199727071903514238e-03,1.401476455273760338e-03,5.203969730862502419e-02,7.318025188361562683e-02,4.777598822791898937e-03,1.123816501976010115e-02
2.491372520040512767e-04,1.546904195457766279e-02,1.782390710618439109e-02,1.493288612042024217e-03,2.131007773904907907e-03,3.450702692287199291e-03,4.628520245434412927e-02,5.594895404410404199e-02,6.953254000353467981e-03,1.241027357181656056e-02
2.585494947205341861e-04,2.641192646478041778e-03,2.348710589447838837e-02,1.471894650516992987e-03,2.039931327899389534e-03,6.019903255371224227e-03,1.758736130431099581e-02,1.464046486623202248e-02,6.433681754151008257e-03,8.775139298295948215e-03
3.246449111768161450e-04,1.145845530128071499e-02,2.791757251716748753e-02,1.405636749740636366e-03,1.929104210998058063e-03,6.347152398012571688e-03,9.396757555272750029e-03,3.589678057530710370e-02,4.325404477883056618e-03,4.010319498171537912e-03
3.431202180894700753e-04,3.503954475924877382e-02,3.208566454805807100e-02,1.276730766285560838e-03,1.802229032628702935e-03,4.356991425549370210e-03,2.452470732860643349e-02,7.575853472256879884e-02,3.092263280440078754e-03,3.195691691166562681e-02
3.328268729666350565e-04,7.508445449740192013e-02,3.280893298653273643e-02,1.139856422378087873e-03,1.661439706703148490e-03,2.984162510599490045e-03,4.163611801456642419e-02,9.356890884598430269e-02,2.669136674551707798e-03,6.487946784214446150e-02
3.421315244844759995e-04,1.030573323995531837e-01,2.645747266228757819e-02,1.007843496785815630e-03,1.507394350971205232e-03,4.147576314452455434e-03,6.847904989686447175e-02,8.969585835342841484e-02,1.829656389703800731e-03,8.682141971456058815e-02
3.621518642975299308e-04,9.948967643385366044e-02,1.517331466934903131e-02,8.596084261221249856e-04,1.344780959359660787e-03,6.803247449468917928e-03,9.068493433831910366e-02,7.191622529452026957e-02,1.015704333455117771e-03,9.737639691094364391e-02
3.695534587668026540e-04,8.149439198563812603e-02,6.446993850663393713e-03,6.936717616858851338e-04,1.182064470784471117e-03,8.631653666470062714e-03,9.154638068634100845e-02,4.917464841856254709e-02,1.186263690886286883e-03,1.045532028312670531e-01
3.677138882859918895e-04,7.534615494812522962e-02,4.015921014120628699e-03,5.249847875052560337e-04,1.019512226679119031e-03,7.721306310661944783e-03,6.897526765348513389e-02,2.510680350585363027e-02,1.666368760919890134e-03,1.049248444743279135e-01
3.671990660634872196e-04,7.685401372475386683e-02,3.061896498076445254e-03,3.597103417081408514e-04,8.492013009067844644e-04,4.040150607996893448e-03,3.319503324123049964e-02,3.930013383430250654e-04,1.213790942346779566e-03,8.966492369529112383e-02
3.662600818420309076e-04,6.093865645028182648e-02,1.905487080389823250e-03,1.962744646487169344e-04,6.803691424712101808e-04,5.203800547064629670e-04,3.895063319370783983e-03,1.793662124179801892e-02,6.681762470537623566e-05,6.431472609589275469e-02
3.597446094928669872e-04,2.399669070772299587e-02,9.055773430448147213e-03,3.706041275210308623e-05,5.398417222735867483e-04,3.344234293822967875e-04,7.369735714732403992e-04,2.104719189088283954e-02,8.152680221853749170e-04,4.371660604691077201e-02
3.483430802667114991e-04,6.037167199192942924e-03,1.328450202268508656e-02,1.120669155175846700e-04,4.176953992558131348e-04,2.650748490129991794e-03,1.965833542027322495e-02,1.375087907722105998e-02,1.997526658966132431e-03,3.022887860705317578e-02
3.345309706711183909e-04,6.437961656007195471e-03,1.388180978419978687e-02,2.473638024619478123e-04,2.647227736248129238e-04,4.033405690644064831e-03,3.051102697029698177e-02,1.264677205378477755e-02,5.168334867727578281e-03,1.488051492723563990e-02
3.181889991559005504e-04,9.179060688426405462e-03,1.422890108663247763e-02,3.671671203542823162e-04,1.082418628745959082e-04,3.637337855824860234e-03,1.349051127886771381e-02,2.720719936849758103e-02,1.007724397329791931e-02,1.390228719924981038e-03
2.984461701092958530e-04,1.049908458476723865e-02,1.653678782688529358e-02,4.693734753097834281e-04,6.050863273254558162e-05,3.549650343812762662e-03,1.392504556431934173e-02,4.865575924316216383e-02,1.371968177046852498e-02,5.680231573935405273e-03
2.757465690843096773e-04,3.982028462113038243e-03,1.907533846817401416e-02,5.515175190758457406e-04,7.149231580123795605e-05,4.573052822810241141e-03,2.001193967253141540e-02,5.524733487023236744e-02,1.377549895047621917e-02,5.897185573053674926e-03
2.510019934532179016e-04,4.333420551261010951e-03,1.760790861790795248e-02,6.120281405921081889e-04,9.854948101277661481e-05,5.040245918435631856e-03,3.725245993721378046e-04,3.210576483303972245e-02,1.116832986368480191e-02,1.944910161483233771e-02
2.246023568323083730e-04,2.121308462914782422e-02,1.006532573250049425e-02,6.502649069198889126e-04,3.557709867726666607e-04,3.578777951724554200e-03,1.782198880654453990e-02,6.668438452424279954e-03,7.934181176823824899e-03,1.935331469411964364e-02
1.967876337216440882e-04,4.339216490989925012e-02,4.420609608932273785e-04,6.659695594252237894e-04,1.419684603697969377e-04,7.572324110262084471e-04,1.357333640514069711e-02,2.815230386716425365e-02,4.543037796968509186e-03,5.347504535152924031e-03
1.680999703143104041e-04,3.463194979550809210e-02,3.943553011167727149e-03,6.592620505382185527e-04,6.105545661143952935e-04,1.846740286455428315e-03,1.382740159115887491e-05,2.375675810258892628e-02,6.465295877502233446e-04,8.945616276236445161e-03
1.391958544133654419e-04,5.408480618676328282e-03,2.875912775867320477e-04,6.308972051132618252e-04,1.039349716226749092e-03,3.109874838828037731e-03,3.176689201993996951e-03,2.176121019612649310e-02,3.408993885270731640e-03,1.224596676366653675e-02
1.106144879683811783e-04,1.985400761661401670e-02,9.320354700471156217e-03,5.822496830670180566e-04,6.215842440226598299e-04,3.136818605088282415e-03,2.325516211226169583e-02,4.264146404524241096e-02,6.906960938568456644e-03,9.062729651230932298e-03
8.284887409220042511e-05,3.640926724934443609e-02,1.526651399424183361e-02,5.151541982717405864e-04,2.122854962592545468e-05,2.893301256442679624e-03,3.585937896889505871e-02,6.616972545100534286e-02,9.311882429735705846e-03,1.353496576165665738e-02
5.643553041320056851e-05,5.006337301603537571e-02,1.202034140684864714e-02,4.318527996921435984e-04,2.742605356393915312e-04,2.992767414911378168e-03,2.729718741273387886e-02,6.128320873909293837e-02,9.991901235399169856e-03,2.924965648899997134e-02
3.189388841315299523e-05,5.349997001256844020e-02,2.009533204457754092e-04,3.349942962079659496e-04,2.470013402845908177e-04,3.130227963735010815e-03,1.081659283883951855e-02,2.998563133436085368e-02,8.533147925431689221e-03,4.375453126456201047e-02
9.667262888181473227e-06,3.289571190058854233e-02,1.320529258073185191e-02,2.275691163961186575e-04,7.781129351572439799e-05,2.898865472480620202e-03,7.989769802700441570e-03,3.667609070471569612e-03,5.918420622589353960e-03,4.692822225352079324e-02
9.844838106430518169e-06,5.445415976349457336e-03,2.093234971505334580e-02,1.128061342130355052e-04,8.644698250436962106e-04,2.689421677250531263e-03,2.386599187220729557e-02,4.825474152629376755e-03,4.148563508761937170e-03,4.403186633045277215e-02
2.627619349505408295e-05,3.244502687669313656e-02,2.010480590562323602e-02,5.911009225635078764e-06,1.444144564191798168e-03,3.046904522580331457e-03,4.306475005157005265e-02,2.616351755666542628e-02,3.554703657142934455e-03,4.451003933520956968e-02
3.936722108288413449e-05,2.699555232417888764e-02,1.144772107708567910e-02,1.251169978473901784e-04,9.722170049614565308e-04,3.201567267503915935e-03,5.075570063767557982e-02,4.594790840762225104e-02,1.938297599590945754e-03,4.843204298370269029e-02
4.897724580438203877e-05,1.241871343392932873e-03,2.614787861851250016e-03,2.413514013479513200e-04,4.054255790048046478e-05,1.589837729881969294e-03,5.176029688120726419e-02,5.232910872952566128e-02,2.053027147915691651e-03,5.060401640575213494e-02
5.496153510403895080e-05,2.616554259128104146e-02,1.801035546689285644e-02,3.512517252784632250e-04,5.988925883201970954e-05,1.441299888245574368e-03,5.869254760391409698e-02,4.681536138894295401e-02,6.453010428607517876e-03,4.934043580093556980e-02
5.717613319335364735e-05,3.492676417581294657e-02,3.009447597825283538e-02,4.516384694612349433e-04,1.080289717272960113e-03,3.061015764622550869e-03,6.761653181752248776e-02,3.139637309802234544e-02,8.518772563528374114e-03,4.633625435290956995e-02
5.574535108689408368e-05,3.884815613629227782e-02,3.719281914101179448e-02,5.395921997963311519e-04,1.676843157238617869e-03,1.500171846759679965e-03,6.061290270402638902e-02,2.787826781861975529e-03,7.806408346109859446e-03,4.452730910512209261e-02
5.105372346512614557e-05,5.399723015865125902e-02,4.185862153745789627e-02,6.125264510582188347e-04,1.117293032781659654e-03,1.341365376477440330e-03,3.024060314966202714e-02,3.894330466600947477e-02,5.491329513472358037e-03,4.660480974366073420e-02
4.317457269135578104e-05,7.058980850128081241e-02,4.580311289332064661e-02,6.682537380083379813e-04,2.767495721491735412e-04,2.609909699619023405e-03,1.091321012585273753e-02,8.273678970845066427e-02,2.832757583381748274e-03,4.962529700070050093e-02
3.186777786145917582e-05,5.726811943779961528e-02,4.474409053365041578e-02,7.050403517277125873e-04,7.475832841476936976e-05,2.358541279864718229e-03,4.776451197569019091e-02,1.146412226230503623e-01,1.207346738406654598e-03,4.575881396752865676e-02
1.778447006602014348e-05,8.242494710099700778e-03,3.269777005250103230e-02,7.216489875624192921e-04,2.782349352564605807e-04,2.422474087812574468e-03,8.029987041585676111e-02,1.305942250388201498e-01,1.481513065693322150e-03,3.481305878362270234e-02
2.481122699328620112e-06,3.758285581210756704e-02,1.118499962243306792e-02,7.173694219726442544e-04,2.990969397821750374e-04,2.626722337110538874e-03,1.117062139728445674e-01,1.306759373476902020e-01,2.689839678602521690e-03,2.662904054145699695e-02
1.417772941204411451e-05,4.414888043048640492e-02,1.064624048334631215e-02,6.920363167628792046e-04,1.209188587969003709e-04,9.090260688961718152e-04,1.241947241147295378e-01,1.044608302020355317e-01,2.980632719436326905e-03,2.385548073709538308e-02
3.414633147458941630e-05,2.074816027082149877e-02,2.560738354557116903e-02,6.460331253641866554e-04,2.029206066468525866e-07,3.224677487552453283e-03,8.983124131437975057e-02,4.095624048227616831e-02,1.803561578755815374e-03,1.542606992614919958e-02
5.568809394541638025e-05,1.127437532053471390e-03,3.399117599173193810e-02,5.802820885559531504e-04,4.788639765343754434e-05,7.782230062750667733e-03,1.191778128905921635e-02,4.466650644923478297e-02,1.350618666642816948e-04,3.622482911428197457e-03
7.299803793234389251e-05,1.640090369907222338e-03,3.867906657713365837e-02,4.962208591671762219e-04,1.382833844411511179e-04,1.051395184886959669e-02,6.633568855584658086e-02,1.139774342792566758e-01,2.298576383565964672e-03,1.980035732025704071e-02
8.799809909424149989e-05,1.003373345035673235e-02,3.875984327784654654e-02,3.957663172641260273e-04,2.771271822985817796e-04,1.042506666995809614e-02,1.060029768209199974e-01,1.420890808447530518e-01,4.583386247172669542e-03,1.973411295576444832e-02
1.114909510105136842e-04,5.057580314133298255e-03,3.143045494656575983e-02,2.812663545935449160e-04,4.074580559159456756e-04,7.787942441384042118e-03,1.074151239926953300e-01,1.367908990058530616e-01,6.936210110406661189e-03,8.398146894647245606e-03
1.380398410755832958e-04,1.472338023845854750e-02,1.918887962015560292e-02,1.554408492888174301e-04,5.241325965788415191e-04,3.780587782237944307e-03,8.961146259645585976e-02,1.156219929401802182e-01,8.838999318246745091e-03,2.478884779346946995e-03
1.428881476562284761e-04,2.649045490000813408e-02,1.056708571675022031e-02,2.131336857662502506e-05,6.491765611438924267e-04,3.566076935031642337e-04,5.656382771315907054e-02,8.168198357752533278e-02,8.534039641653976688e-03,1.179089853510611671e-02
1.355644841176495787e-04,1.596453340405019558e-02,1.106647302798687352e-02,1.178646999620958888e-04,7.776840870547721942e-04,3.691041717378611749e-03,7.384713133823533199e-03,3.540232639918346191e-02,4.325039167777376334e-03,2.251285663127261874e-02
1.679006583761747740e-04,1.281182392542769624e-03,1.640480996805748770e-02,2.586957244101821519e-04,8.970019948917289229e-04,4.752321768876495781e-03,3.436662613290756424e-02,4.834569799393631517e-03,2.259345759268849025e-03,2.886701873424109277e-02
2.197844523405032382e-04,7.783378360592875522e-03,1.873378595956524950e-02,3.977210757057957134e-04,1.013201685453626183e-03,2.159916079764277654e-03,3.483812502923609722e-02,1.783410433364213121e-02,7.183059287238500665e-03,2.412058508704825396e-02
1.789484845267951864e-04,1.274678219290661420e-02,1.750270963254318968e-02,5.315079080669090662e-04,1.125006115221565588e-03,2.522574354504535619e-03,5.071495689311561472e-03,1.184913340657545687e-02,8.881494174605084058e-03,1.455673954098264666e-02
8.444463521161043663e-05,3.108025628463453871e-02,1.864415596910860493e-02,6.567353118063970875e-04,1.208992903920233465e-03,5.000828157812204841e-03,4.571817387943527544e-02,1.573954762257650034e-02,9.387875648129843584e-03,1.193273391820793075e-02
1.790856084134497721e-04,5.338009869816540826e-02,2.363371747685989385e-02,7.702776996166070360e-04,1.269056298567342251e-03,3.380862189878186194e-03,5.578336220460946432e-02,3.411848231789760960e-02,9.887115703292705463e-03,1.460512269507256190e-02
3.947501228218123722e-04,5.984073055343458458e-02,2.670394653767202420e-02,8.692833501997671800e-04,1.349656442146748760e-03,6.513368869501450290e-04,4.219613512167449954e-02,3.882602422262300401e-02,9.040077137404230884e-03,9.561884789841672630e-03
1.683807063986755945e-04,4.979750532395835899e-02,2.450504352338639738e-02,9.512461514071782372e-04,1.433282623567933315e-03,1.382498291406731228e-05,2.773563760963631067e-02,1.446255892402757183e-02,6.644697536135902791e-03,6.015442181344653021e-03
6.229250756237679661e-04,3.857873195965173807e-02,2.060847083032157218e-02,1.014068757658652094e-03,1.418820231379294954e-03,4.214179949431338425e-04,1.919789519967941491e-02,1.520028461440313047e-02,4.977165979699981271e-03,1.891552158373857595e-02
1.109075773271420802e-03,3.622147817863578118e-02,1.771366675988865491e-02,1.056115591490823166e-03,1.338986662040644003e-03,8.388788433983336351e-04,8.190580972479283989e-03,1.988715942108844337e-02,4.986433212671483907e-03,1.940173642797206333e-02
6.513765754543478616e-04,4.272021074916676486e-02,1.357475575707877032e-02,1.076254370355192490e-03,1.410833644370305603e-03,3.509972508588685147e-03,1.045620938043374630e-02,1.719389427963161857e-03,4.738923386367406738e-03,1.369294976300228228e-02
1.122565253786572903e-04,5.351169115362135881e-02,7.529938659644536819e-03,1.073885124539553917e-03,1.577127575672602035e-03,5.138866090439006724e-03,3.321239065214969671e-02,3.148779620598254891e-02,3.092070356874724365e-03,1.188580717289742378e-02
3.123523470022277946e-04,5.896925238907293337e-02,2.781414659666224705e-03,1.048955983726503104e-03,1.330043722240566552e-03,4.962755871334365888e-03,5.333217600579900908e-02,5.473778430759199815e-02,1.294929224236842204e-03,1.500699391261788723e-02
7.255601659633751895e-05,4.769981281982596522e-02,3.885458323022780019e-04,1.001965338848818856e-03,5.265088935090867818e-04,4.358556462008442330e-03,6.293409603662855623e-02,6.160462019956167157e-02,5.207300609831361400e-05,1.950031451201090713e-02
4.315657665142417333e-05,1.963681527166086238e-02,5.774356932724803229e-03,9.339503241426462240e-04,7.964280085957596957e-05,4.262554334815763651e-03,5.654022042431140066e-02,4.556645654935999323e-02,1.116010648952604073e-03,2.443650916749369809e-02
3.377152129721464979e-05,9.398180279229131906e-03,1.325971386126250512e-02,8.464619040122315675e-04,1.931559216417279724e-04,4.297651152164658032e-03,4.003816846010803399e-02,1.404680612340377874e-02,1.582282507793600097e-03,2.819092758041654226e-02
6.040857314444744475e-05,2.246647060442600111e-02,1.651934967036402732e-02,7.415271822018413596e-04,9.631084293235961597e-04,4.057440498483755840e-03,2.895644363497788809e-02,1.191211757022818396e-02,6.450935211783680526e-04,2.559746629523846143e-02
1.609279680846991415e-06,1.791960729595196491e-02,1.192396340151950958e-02,6.215998682082041378e-04,1.290242546992138037e-03,3.724486214416069044e-03,3.166342448349520472e-02,1.638723111310062819e-02,4.337464625165949467e-05,1.422946254488288535e-02
3.842219745081279947e-05,7.020900920880123082e-03,5.136426893996196008e-03,4.895001299270870191e-04,7.125083405001532899e-04,3.485109815030311160e-03,4.082822046197558119e-02,7.462937195256104037e-04,1.836940708669579847e-03,8.813536285431284364e-04
3.036235246905554449e-05,1.033240642804853556e-03,4.374804528851990344e-03,3.483453250868479706e-04,3.183997679100332759e-04,3.225483480528529637e-03,4.413774761707811578e-02,2.053893843902218283e-02,4.965843884221980524e-03,1.208656254155844600e-02
3.202882720025337579e-05,4.676555160668509521e-03,9.288011153170893167e-03,2.014733305776090155e-04,8.088332191639224832e-04,2.882810297373655621e-03,3.536903871089914358e-02,2.994067087303659697e-02,6.753199855176636630e-03,1.668901325258598245e-02
5.178195377340144177e-05,2.932841708054530639e-03,1.208959903586871200e-02,5.236037264380293400e-05,3.778112545054948361e-04,2.596260647981219003e-03,1.492936545541069179e-02,1.952450671355167658e-02,6.540032629214436941e-03,1.907306859133805002e-02
5.900648432691404769e-05,6.711640623963174151e-03,9.138668511625700971e-03,9.546460250192549994e-05,1.867622092906358864e-04,2.365890679377341110e-03,9.549978341226290912e-03,1.369697198456784008e-03,5.707300625523221115e-03,2.361953464246025966e-02
5.106256382974522852e-05,2.327828230652020242e-02,4.796234336002243304e-03,2.385068921124593546e-04,1.637541865055894600e-04,1.963364206311564181e-03,2.342450654710334992e-02,1.792938390001525689e-02,5.222925841794150668e-03,2.320903453058001734e-02
5.215040646216120433e-05,4.477233036439657449e-02,3.154597551085359074e-03,3.733921756226839901e-04,5.602575893796316736e-05,1.473662616710919460e-03,1.811466834033428550e-02,2.809811326597999592e-02,4.897269282871660225e-03,2.693536862036457688e-03
5.971920324041846796e-05,7.062940312893890848e-02,2.389925389930346034e-03,4.969496902281048166e-04,1.601464617339240796e-05,1.393183880474501779e-03,4.312672030147606667e-03,3.898483442422678857e-02,4.468368705421060447e-03,3.822249797922751269e-02
4.069377596127939409e-05,8.845042613910972240e-02,1.066353003635591747e-03,6.062903783254725096e-04,2.241534201904251181e-04,1.515732264980395802e-03,2.368996176453827193e-03,5.085343386099521606e-02,4.084816454991897251e-03,7.697753383489615298e-02
3.916567364416423947e-06,7.169721057724515179e-02,6.815680804890432258e-03,6.988780664824820622e-04,1.044958551395388895e-03,4.823894444156127687e-04,2.040060107709696507e-02,5.719011027972085992e-02,3.788430289261912783e-03,9.367081619002530501e-02
1.196030142054733928e-05,1.522543700469162001e-02,1.017072875580505957e-02,7.725919084238391799e-04,1.631522604054925487e-03,2.182624464210096340e-03,4.688285192015844566e-02,5.326027288777972213e-02,3.424217189056623454e-03,9.063027208493781850e-02
4.638709183632527561e-05,4.157996167475523641e-02,6.638299269257699753e-03,8.257785412124384657e-04,1.191257338727466685e-03,4.372715750680385149e-03,6.159661535392572246e-02,3.580095752384676588e-02,3.167444018450728087e-03,7.750873608058321540e-02
2.435694065909884694e-05,5.863998692185407036e-02,2.745248068292568261e-03,8.572926589949739912e-04,3.647793426415138745e-04,3.765466500202169914e-03,5.325579977145965260e-02,5.880843164695536904e-03,3.329091828568523856e-03,5.614933940129217260e-02
1.711381074802860241e-04,4.624456593992145453e-02,1.109736683523919985e-02,8.665249960417755609e-04,1.820167721032037330e-04,1.229281927668225693e-03,2.993357231464707433e-02,2.384727792104114272e-02,3.389794268794871137e-03,3.063784970664968840e-02
7.262188892779515071e-05,3.942527281964952612e-02,1.227732741456296663e-02,8.534170232153200520e-04,4.892977037453180708e-04,4.032997121944466214e-04,9.885886018663286173e-03,3.947782539756823639e-02,2.128561589171728066e-03,1.285394502448362029e-02
4.631058569331855494e-04,4.281627927818263540e-02,6.838696927043702231e-03,8.184619917050049362e-04,4.571909072947715445e-04,2.325430388929859314e-04,2.027423525123824618e-03,4.283353551187537439e-02,8.344165256909686626e-04,7.451242853400938740e-03
1.129714253998425353e-03,3.795441546827529877e-02,1.812359625013902707e-04,7.626922966917303558e-04,8.386305509491836672e-05,3.283726487007236237e-04,1.182093330196847892e-03,4.363809955570164406e-02,4.362156633128065446e-03,6.154446169225134822e-03
1.412470287270920681e-03,2.500459451365923125e-02,5.340686944549331849e-03,6.876534731515182748e-04,1.924596169439129437e-04,2.862407768518367081e-04,1.035436601872557691e-04,4.140930193838891771e-02,6.903867730537208147e-03,2.291040386308432555e-03
1.080521087507393127e-03,1.976196883842112548e-02,8.128564554088254027e-03,5.953654678512581037e-04,9.469479947188649610e-04,2.465917320426051339e-05,3.925304328020204001e-03,3.112458922539118253e-02,7.653553068246149622e-03,2.023558529694923728e-03
3.659323118610081200e-04,2.137566369372822378e-02,7.961456752146637075e-03,4.882721475003478631e-04,1.351691345024348418e-03,1.302476646969100908e-05,1.017358170960466594e-02,2.002053142284837550e-02,6.740153246207645013e-03,4.626399316284972828e-03
2.156491253298339352e-04,1.266752284576690667e-02,2.518973757998159771e-03,3.691802951619521569e-04,7.549446442726760222e-04,1.418482299596509049e-05,2.012635353390261964e-02,2.404638105970529141e-02,4.918222977747532115e-03,7.688685809462252226e-03
3.571692512265432122e-04,1.191898534862400640e-02,9.747231320645373398e-03,2.411896081472495162e-04,1.236577632561343734e-04,9.595652092609735723e-05,3.576937828356632765e-02,4.841528676512926732e-02,2.927024121646542958e-03,1.297037091331025745e-02
2.494608303508281488e-04,3.590279653558874073e-02,2.430871021183490452e-02,1.076154342336650222e-04,4.110357511071533322e-04,2.665245991363358923e-04,5.616861932298047172e-02,7.660192616426676759e-02,8.000883381808984469e-04,1.970034804296039860e-02
2.125028334196545706e-04,3.774940125634033972e-02,3.088651217971836310e-02,2.809383638942879522e-05,3.049887879999244413e-04,3.956474678024699942e-04,7.274727665886615569e-02,8.095236512682947583e-02,1.810713170556667133e-03,2.537669178372474119e-02
2.750349588861530524e-04,1.327047161108568969e-02,2.504964713076856739e-02,1.624426730235913670e-04,3.513168506791939792e-04,5.096634693535265735e-04,7.325488591154452611e-02,5.066424622006953510e-02,4.492927891387287626e-03,2.622855359676846965e-02
3.060838084390175157e-04,1.977120891589627741e-02,1.598629219261673423e-02,2.919754676196422089e-04,4.917052013743607045e-04,6.487825443367507871e-04,5.670219871568870501e-02,8.022588173017220978e-03,6.153100154120151426e-03,2.165384150229873045e-02
2.861882814361250472e-04,4.183169851122790078e-02,1.438814361393278562e-02,4.133625973298027715e-04,5.174476190444126083e-04,7.968231618978072238e-04,3.604749770111772417e-02,1.524188454522027586e-02,6.510116791689560950e-03,1.763475850339585316e-02
2.751995702261795401e-04,5.118153547570386541e-02,1.750277907825913831e-02,5.234833489626488593e-04,6.354849692927454219e-04,9.287508533885252071e-04,1.956922934424568106e-02,1.501180555642028791e-02,6.445300844312811667e-03,1.936471810723270487e-02
2.830756058358401364e-04,5.484063210768587437e-02,1.616660488303022988e-02,6.195036452685811698e-04,8.890512891574995627e-04,1.038509990755586690e-03,3.160132644859583659e-03,1.187175501934393390e-02,6.654344768082983037e-03,2.380212680662885383e-02
2.820848167039401448e-04,4.922481971236959686e-02,1.081765434437365232e-02,6.989466415440599408e-04,7.306660757696644554e-04,1.128489218404176569e-03,1.223409908276577689e-02,1.590599226354039164e-02,6.980424625169938217e-03,2.624546957985177120e-02
2.674499242464724400e-04,2.479487923298089036e-02,8.865713832032226863e-03,7.597544375706520928e-04,1.676578083340911341e-05,1.209267677449867885e-03,1.338618931132628392e-02,1.689106892410708119e-02,7.133098185580041828e-03,2.814830828815576697e-02
2.524205316193612160e-04,1.561057765144516045e-02,1.023608858289138182e-02,8.003393700354086279e-04,4.930000973044445069e-04,1.281081325114602227e-03,5.545325086287336905e-03,9.077568907222145767e-03,7.159427231368316324e-03,3.156176765546900992e-02
2.398341835616216264e-04,5.748254487787445022e-02,7.426334303874191148e-03,8.196236088654251014e-04,3.551227881263245437e-05,1.306007376585395985e-03,3.160004005960284634e-02,1.215023408458273252e-03,7.148662519911529699e-03,3.331424983515277743e-02
2.240814476028225616e-04,9.200214798699184182e-02,6.941815287617807660e-04,8.170660709572439596e-04,7.218710806109488115e-04,1.266102995185096726e-03,5.025118575375495805e-02,3.046647765718904499e-03,7.086633572940414898e-03,3.129513277674797478e-02
2.043852013952078182e-04,1.208632723774614587e-01,5.571781138916797813e-03,7.926759794072131635e-04,8.983767962744977197e-04,1.237972564958466672e-03,6.104483414069620389e-02,1.176171342326442701e-02,7.015470726699572258e-03,2.963664025732020216e-02
1.839868462499621375e-04,1.435800398071780670e-01,1.991553197922807990e-03,7.470127277564073522e-04,6.157951666594275054e-04,1.261958821450663874e-03,6.801290404897093744e-02,2.506458516648061088e-02,6.926415025112964662e-03,3.197701952565361327e-02
1.640029860474657986e-04,1.516498468040782255e-01,3.762828520645397634e-03,6.811720487388486399e-04,4.439747530123212545e-04,1.172919511127067452e-03,6.678573331640969002e-02,3.078813655920859677e-02,6.632717925950610237e-03,3.490831413875523231e-02
1.438039573703114101e-04,1.384973862588428084e-01,3.637134460923160083e-03,5.967588271347661370e-04,4.539015882558802492e-04,8.789371790197108300e-04,5.218468693869218050e-02,2.544330865883538337e-02,6.158823725375300526e-03,3.300609534640595866e-02
1.236629402673311410e-04,1.070274587465175065e-01,2.459314683402443131e-04,4.958472281451728903e-04,4.022363139942035110e-04,7.384159066383304618e-04,3.192821088900604093e-02,1.876558508147450899e-02,5.696222723910984893e-03,2.686058965426160738e-02
1.043939348954728334e-04,6.609606942781730277e-02,1.363849490129402002e-04,3.809291279860523233e-04,2.514939525435416420e-04,9.858236013620847327e-04,2.099737152310997973e-02,1.409936124873948510e-02,4.271467200840619455e-03,2.155955796412891215e-02
8.653930275926539103e-05,2.573279665377568165e-02,4.276789604600410993e-03,2.548521243222327576e-04,1.174427721873050155e-04,8.081332827794280704e-04,2.110128924587198473e-02,3.641698888804187871e-03,3.644238447994277907e-04,1.905438228165023951e-02
7.094671443234540418e-05,4.529724822132480747e-03,5.366386191075118300e-03,1.207486634957992264e-04,2.297360675714193773e-05,8.660897183514736910e-04,1.525428283711841720e-02,1.505044390048307715e-02,8.402209944437025874e-03,1.654344733868938488e-02
5.818775705894756509e-05,1.657889993104862819e-02,3.466419237645385672e-04,1.804195719492829195e-05,8.193749419978805159e-05,3.524246859410417373e-03,1.001340140592764383e-02,3.331946525583966146e-02,1.581128837690784147e-02,1.162232783487690026e-02
4.731048060504924001e-05,5.193254077902558982e-03,7.495094838864949614e-03,1.580567761494196157e-04,2.048180870020557365e-04,5.376123436871680338e-03,4.435237498367673725e-02,4.306232919320401864e-02,1.841976631761604866e-02,4.602226138718032780e-03
