3.428006177888967814e-03,2.608798884001705884e-04,1.251024447420000414e-02,9.007930027681663857e-05,1.238282709945177679e-04,2.401597180061512248e-03,3.916212232667114906e-02,8.914460939172359159e-05,8.949864951380368666e-03,3.699122055620352942e-03
4.742213676012993311e-03,1.872296927431643383e-04,1.141711016440304267e-02,9.898214185225442528e-05,6.702781268828166808e-06,1.188527182029762777e-03,4.145703978323312527e-02,1.183522132871422244e-02,1.215840991006023573e-02,3.221303924763390010e-03
7.650642675738200671e-03,1.070551032399235655e-04,4.235783746860177779e-03,1.010866419450951180e-04,1.782775237238059824e-04,1.168735750412759448e-03,4.449453497961639720e-02,1.967939406679198450e-02,1.436293523008928298e-02,4.390475567741192187e-03
1.050405776901799926e-02,9.697642637994627096e-05,2.603355156477045202e-03,9.950436137722973708e-05,1.332777682846296322e-04,2.955421254685940483e-03,4.080843673919687387e-02,2.268641729253017408e-02,1.467769109369968482e-02,7.840632137536695731e-03
1.448808497710305995e-02,1.857386897381734393e-04,4.359852575863361335e-03,9.385985479704366463e-05,8.083129035556137340e-04,3.714323663209831948e-03,2.855982404548568221e-02,2.343257383875131314e-02,1.272765770796803302e-02,1.112667505106499331e-02
2.123838420127524551e-02,2.161776587717453661e-04,3.162283622187485668e-03,8.298500008043951297e-05,1.045304224965357045e-03,4.812560041660751686e-03,1.636038595391690192e-02,2.542605755790524821e-02,1.032482505446812547e-02,1.076313636711631778e-02
2.830828903947733496e-02,1.311325871555777702e-04,3.388699574769467489e-03,6.750324408165677618e-05,7.695031230579019166e-04,6.262094956352043731e-03,7.141348106664196192e-03,2.838365864341739139e-02,1.111879065510786545e-02,6.586564416079886304e-03
3.145423981660833840e-02,2.936758515295268186e-04,4.746171749425447464e-03,4.858723832187450393e-05,7.428329430561632363e-04,5.806673525707257283e-03,8.022138222050514966e-03,2.805719380474532704e-02,1.576043583318794197e-02,1.728585295040264286e-03
2.996579239418584173e-02,8.015504534584974713e-04,3.952038081100278134e-03,2.671751877156467537e-05,9.658878181100270062e-04,2.432794936015689278e-03,3.581257772312605725e-02,2.212821021819457584e-02,1.906455788266793808e-02,1.422224808434522595e-03
2.672801366014627977e-02,2.853350222672656729e-04,1.375586653890125896e-03,2.229657666042094545e-06,6.780566605901456418e-04,1.821495738798254143e-03,7.010663263666690181e-02,1.342520285703845996e-02,1.568377620018637439e-02,3.061767794587160786e-03
2.426761429491544608e-02,3.320198245362867076e-03,4.757285419404340670e-04,2.412007037947564025e-05,4.457348364568572408e-05,4.299500700381628931e-03,9.566876275420463371e-02,6.038497817634406670e-03,8.140076410303540705e-03,3.869866717576360762e-03
2.258315121546420473e-02,9.468587498735091951e-03,1.256704089674984866e-03,5.142853457716475743e-05,3.995123264157777413e-04,4.078722907099591524e-03,9.898894043937692122e-02,1.138652344911699442e-03,4.476785682413190678e-03,3.331397542038016732e-03
2.053526756528006869e-02,1.383756448329099414e-02,1.421173046593588384e-04,7.894020374832243984e-05,2.663089398909376337e-04,1.963424724090290403e-03,8.070898929141274991e-02,1.862156910494337054e-03,5.889290109812319977e-03,1.214614535405138772e-03
1.822543535324653782e-02,1.359337461748579001e-02,3.229983015176916220e-03,1.059497902183890674e-04,1.678451371816995562e-04,4.250167165254641359e-04,5.774827246388215124e-02,2.836204469489887227e-03,1.696906019788449720e-03,7.959852997996279701e-04
1.667756997283984313e-02,1.287516619466328067e-02,4.486517523988548493e-03,1.316908211467263882e-04,2.827313956240418147e-04,1.657285126933198205e-03,4.530884715795018003e-02,1.899593911031573733e-03,1.791816275430407196e-02,8.815783134327314242e-04
1.542387175801854075e-02,1.782963542885067365e-02,1.135139611567312920e-03,1.554071917141547354e-04,3.872140104204063282e-04,1.234390398229686129e-03,3.825358202231671223e-02,9.870548547615948503e-04,4.707151531339458239e-02,8.183607349841818786e-05
1.280298004804899040e-02,2.644377798194546408e-02,3.516791185451933772e-03,1.764325675029464581e-04,3.903554396485426140e-04,3.608204228513921708e-04,2.026592261312283941e-02,2.374174810351351288e-03,6.835985284211333612e-02,1.257810997193929692e-03
8.991195840543773909e-03,2.997244731037381968e-02,4.919319097833193058e-03,1.941825878648554735e-04,3.929431201075169583e-04,1.640181183075597538e-03,1.035762905727806611e-02,6.263899504674975277e-03,7.065886430987995681e-02,4.615898476485406909e-03
6.103552164971935354e-03,2.447041258900076177e-02,2.759853550892374732e-03,2.081401181953389831e-04,4.354351438380033240e-04,7.464608432400765114e-04,3.618795215816680844e-02,1.078225264195286845e-02,5.786213864658684702e-02,6.670164140873122323e-03
5.059022685487832988e-03,1.421596603396162867e-02,3.320521982111425928e-04,2.178784981783925441e-04,4.708704799689678597e-04,2.046997618647089772e-03,4.197056497180541579e-02,1.413437240573880462e-02,4.147273289148925568e-02,4.935497801653787250e-03
5.018261247459400616e-03,4.523187000326540572e-03,3.452833274921564884e-03,2.230852894261493705e-04,4.836742987285163882e-04,3.425269841658844933e-03,2.976560397256263618e-02,1.602978047844251866e-02,2.895092724756075098e-02,1.454417290097873190e-03
5.694096598872966028e-03,2.542569366985719323e-03,7.448761118030460329e-03,2.235646287494263192e-04,4.934364873269776915e-04,1.031279107947137954e-03,1.225359633020048356e-02,1.677281348948946038e-02,1.933957543877442425e-02,1.255734216745445914e-04
7.336833494189978939e-03,6.195712918420991089e-03,1.080997197503406546e-02,2.192351776331574753e-04,4.967588606893023027e-04,2.937645989342744894e-03,1.310886917264263065e-03,1.639392845601036694e-02,8.799830643976640915e-03,9.555869907941810966e-04
8.847556049176398540e-03,6.001237860247892429e-03,9.875384477097683480e-03,2.101339242568015886e-04,4.870180065525331250e-04,4.510662289308774338e-03,1.055434642518585965e-02,1.554789829743818443e-02,8.588846545219044198e-04,3.235553172950597807e-03
8.833609250135938951e-03,3.702724456902558008e-03,4.514646586940707605e-03,1.964179057937113582e-04,4.879588277461924771e-04,2.778659334463140940e-03,1.784603039392773996e-02,1.539860806835863238e-02,2.884597724381713062e-03,6.474373792583270129e-03
8.161324938256015599e-03,2.673831326930074803e-03,3.104426442524949601e-04,1.783589529269429908e-04,4.975240079252132765e-04,1.984444606514128881e-04,2.068634670274244886e-02,1.580329801606461873e-02,4.442344973512868389e-03,1.138595650142182163e-02
8.784084078229652953e-03,3.085781307032802942e-03,3.615368745642856584e-04,1.563352149980918801e-04,4.570122125071424384e-04,2.850351354831825914e-03,1.627402839157294362e-02,1.554318012066690721e-02,1.447305019503688887e-02,1.664751076572159455e-02
1.055793669284359713e-02,6.984996563923965944e-06,3.651059374333184143e-03,1.308220088710231673e-04,3.776745394780228445e-04,5.230894030371499408e-03,1.174638430067743641e-02,1.433493298959394140e-02,2.074530867927800934e-02,1.914197579624034654e-02
1.184061576085967439e-02,9.533978469877546838e-03,8.236971434006694348e-03,1.023805606170794576e-04,3.928286492895435313e-04,7.311833068559663376e-03,1.809076102013689250e-02,1.228936998460720964e-02,2.235357210534398911e-02,1.741378572385701359e-02
1.264419875153818644e-02,1.999303279968907623e-02,1.046944579400256418e-02,7.164381620801247804e-05,4.889682331715672304e-04,8.098810471342867204e-03,3.205459762974905563e-02,7.830843983992611876e-03,1.901277652625864636e-02,1.308820794440604396e-02
1.424701693035413004e-02,2.304219984242281832e-02,9.360108863201117152e-03,3.930044242369267230e-05,3.409625374579757949e-04,6.790317473128623660e-03,3.805252612240110632e-02,5.393649501118831253e-04,8.823629796140724027e-03,8.727940542262179607e-03
1.552903108556685959e-02,1.727343832999641768e-02,6.428484843386650383e-03,6.077943904880993769e-06,2.715882781107149748e-04,3.685325847767869072e-03,3.261440953225311357e-02,9.509283231750259927e-03,4.806022112884040728e-03,5.531413659628982293e-03
1.266244951896103484e-02,7.470965732913012816e-03,4.151083346808143691e-03,2.727503874947255927e-05,1.028989028567373846e-03,3.960288168192374484e-04,3.170082562911597651e-02,1.150012726342885226e-02,1.145783431792535972e-02,3.381512576095674349e-03
4.354446840638593122e-03,2.024639314818286410e-03,2.678643111137770944e-03,6.000706624506370492e-05,1.351353013078743616e-03,4.380771173926775210e-03,4.534845367515575459e-02,3.262649937271143354e-03,5.730633905008454196e-03,1.961187175238228962e-03
4.371899199826944325e-03,8.779541511322819236e-03,7.753483234560030069e-05,9.138226239732478876e-05,1.030858915299600817e-03,6.194088753852148611e-03,5.859965260356351374e-02,8.000968307671040350e-03,4.255635600184557235e-03,8.752007214036252279e-04
6.951751932869276555e-03,1.142266994877032087e-02,4.021210719005055036e-03,1.206981330849243763e-04,4.345122028756613283e-04,3.802547400929246271e-03,4.917093221841971340e-02,1.139194046472430562e-02,6.693590285774094623e-03,6.429563806753522178e-04
3.641271859865624193e-03,1.152723401612314874e-02,7.690232238553451269e-03,1.473024843595239586e-04,2.752975547741624851e-05,1.583245834025697948e-03,1.552776322965252094e-02,4.591489984786843899e-03,7.656087192881132078e-04,3.049957708011603180e-03
1.191304708008422957e-03,1.258405926311323073e-02,8.817911348841099561e-03,1.706090882453088254e-04,1.793879922818441576e-04,5.622145453602883820e-03,2.317552524528994698e-02,4.793466386760180872e-03,1.247428121030022541e-02,5.703722649442693679e-03
3.538084288731333481e-03,1.418399502978060986e-02,5.796840707224831801e-03,1.901116859036363477e-04,2.902562728112129857e-04,5.913488845585844998e-03,4.919901188699636607e-02,9.283837625423929305e-03,2.234739280001005191e-02,7.443729212235967140e-03
7.619134857789153573e-03,1.148847146281335198e-02,1.589369824509980454e-03,2.053959669718024694e-04,4.916751293126964129e-05,4.289382059752117754e-03,5.799790340444856140e-02,7.637363600528213406e-03,2.506946732117056736e-02,7.881703356469147922e-03
9.902438862788177226e-03,3.394374184395232506e-03,1.003981765634405672e-02,2.161492573987067666e-04,8.931826415866047676e-04,2.647432922413227741e-03,5.332312745899023265e-02,2.077528744732729839e-03,1.696890479123642007e-02,7.662595242288532463e-03
1.129788188999595114e-02,3.298896978200203511e-03,1.404788991889497837e-02,2.221677023877783946e-04,1.259535593379385770e-03,4.803000708214551651e-04,4.566231634206719542e-02,3.154103253955998706e-03,1.315661814892669272e-03,7.516217556097210331e-03
1.308301863631363728e-02,1.567053416294849396e-03,1.120902608385925502e-02,2.233607729815348484e-04,5.973042854046303751e-04,1.705509178118904193e-03,5.412656471482952397e-02,9.950944720333674415e-04,1.164685641783080178e-02,7.572399782280372048e-03
1.389081266275152271e-02,7.339648175917075010e-03,5.199048346265480215e-03,2.197529917494845980e-04,4.785764257857643463e-05,1.216150705685587266e-03,9.025728353719200681e-02,1.188481415871324789e-02,1.377389798754213510e-02,7.690508326039294067e-03
1.351558041106216274e-02,1.612860207538475282e-02,2.019320501425926617e-03,2.114828505847057025e-04,5.938983618042596594e-04,2.256108000815820226e-03,1.367451380369251734e-01,2.780230979293207144e-02,5.907468760721973182e-03,7.839115063441520065e-03
1.432001362017886435e-02,1.983025957759944682e-02,2.942378815324667423e-03,1.987989617365868290e-04,1.270737344508503187e-03,4.955640277834210371e-03,1.610936653624799042e-01,3.570371296665186128e-02,5.128125853678929501e-03,7.696180109800568325e-03
1.704517358858649578e-02,1.996363178433512020e-02,3.467159355159225419e-03,1.820535459929029619e-04,8.828188863110716846e-04,4.052660212548129734e-03,1.511857916602019347e-01,3.411489184040525369e-02,1.395514962521861475e-02,6.293450617832732803e-03
2.007397743786012295e-02,2.129261283048784065e-02,9.666171434917897581e-04,1.616934264161890868e-04,1.259044775836758731e-05,1.049013097514046432e-03,1.199209194502505876e-01,2.840354100716276087e-02,1.976292363056845330e-02,3.008502649983470830e-03
2.320405040005201272e-02,2.442646065039985603e-02,4.618162070330285632e-04,1.382487580955944870e-04,3.060820016236728228e-04,1.463693515038749131e-03,8.093181796066054035e-02,2.002735234388540106e-02,2.204224589364888257e-02,8.515071363769046060e-04
2.739059797945608138e-02,2.254345601936661586e-02,3.873271353455620854e-03,1.123197784638531598e-04,7.421195200180475174e-05,3.469605598942074060e-03,3.996571087485983886e-02,7.959321145052645347e-03,1.611297865084332717e-02,2.698008911562557646e-03
3.121629589788776221e-02,9.598979018141403849e-03,1.180549495678204740e-02,8.456190872087345736e-05,1.260893684181329881e-05,5.926694066456870101e-03,4.972061828567384684e-03,3.498051130708251799e-03,1.101866731569157640e-03,1.816563102617409567e-03
3.236420414145507046e-02,8.483316560845095486e-03,1.634184865377383278e-02,5.566957562018487069e-05,1.368530454043888388e-04,8.140911000755091109e-03,1.426482704435574553e-02,7.542540478001848528e-03,2.169531341303779920e-02,4.710333384744490315e-04
3.232926092373973603e-02,1.753516903831323775e-02,1.309807445811828064e-02,2.635915288642051666e-05,2.333472079740398864e-04,9.366286697281180421e-03,1.776944377741426773e-02,4.272681395347860747e-03,3.176684654721701612e-02,5.230141331083943464e-04
3.546052218464421091e-02,1.090223445424139820e-02,3.923429039429511718e-03,2.648558747283984632e-06,2.230343799753780590e-04,1.080822603283539997e-02,1.567787044394798601e-02,6.820395204941486021e-04,2.640933472870844734e-02,6.761185372290575389e-04
4.306458236536970380e-02,4.889186655341302284e-03,5.720407173826959173e-03,3.064588466726325563e-05,2.280647761743537292e-04,1.323575169397172430e-02,1.586876319442939026e-02,8.932943491739228376e-04,1.149892502059447069e-02,1.152294972883743723e-03
5.176050935721412255e-02,1.980935302612906596e-02,1.197899391441300046e-02,5.695543548304252981e-05,2.779082237599270872e-04,1.463652867780496081e-02,2.023172263906219959e-02,2.214259713665248964e-03,8.230208437290302201e-03,4.499577525373460278e-03
5.823881317659528739e-02,2.941677588166156238e-02,1.478941046747339963e-02,8.094645622594721901e-05,3.362175181457151187e-04,1.293680944412983584e-02,3.083395546366245882e-02,2.527086292440728754e-03,3.162263645331108569e-02,7.286992542829677857e-03
6.321271691746171983e-02,3.500262379641923272e-02,1.503005406468203506e-02,1.020499712314967958e-04,3.796006769405940858e-04,9.404808923384435498e-03,4.634259020412024449e-02,4.807115117362240411e-03,5.154706518417394995e-02,8.609546604944184195e-03
6.951716249554254490e-02,3.907160726966373704e-02,1.217818880921229564e-02,1.197723613128686668e-04,3.769349082698305957e-04,7.311023665343769490e-03,5.668890777604795872e-02,1.075101359480344805e-02,5.723775525658866131e-02,9.221995586900970723e-03
7.679001113001611423e-02,4.021037948804188911e-02,6.954296665386595216e-03,1.337070495134978472e-04,3.532237757372096599e-04,8.307598015360725952e-03,5.725500538424967839e-02,1.622898392859124794e-02,5.028702116696862068e-02,1.015348843063780537e-02
7.981664521603529239e-02,3.268891335651756547e-02,3.300338719772657591e-03,1.435440190873982810e-04,4.250040618365508930e-04,1.116306539965387749e-02,6.084394307963190973e-02,1.727078879155232935e-02,4.443069106025807763e-02,1.111424526682499268e-02
7.615382556024857807e-02,1.492973750979626271e-02,4.348035089552035153e-03,1.490769412470314818e-04,5.597731709608969779e-04,1.342157362632340721e-02,7.931876337844112612e-02,1.565673417020594163e-02,4.473405823199138459e-02,1.026730773568521916e-02
7.446544537429646005e-02,3.508813668407349817e-03,8.448160698600741189e-03,1.502077492927640862e-04,4.433407435273656197e-04,1.379681046464653442e-02,1.021928961210615688e-01,1.483536453910131933e-02,4.130861880069497394e-02,6.996673043420607516e-03
8.416392366075219067e-02,1.014181590600414171e-02,1.172292989710084846e-02,1.469485585327530235e-04,1.141068249012121245e-04,1.258033748910456634e-02,1.072983970264062142e-01,1.433158360314727188e-02,2.805549190570010704e-02,4.122898970480682636e-03
9.375254925043405296e-02,3.663090327860035484e-03,1.293101499661140734e-02,1.394208963790248969e-04,8.088534386541869781e-04,9.769508317065142902e-03,8.638154162224305488e-02,1.204480530621966292e-02,1.362823374025158053e-02,4.282533700840071567e-03
7.761042601047762890e-02,7.231521009971861313e-03,1.400879024726575661e-02,1.278522725484881406e-04,1.126269643857604873e-03,4.671279255738025778e-03,5.204882676731224789e-02,9.023714856243616328e-03,9.178964554240462079e-03,5.409408230798173206e-03
3.202546586112079569e-02,1.666674194759048752e-02,1.643068670884401117e-02,1.125701838073864811e-04,8.331781308800135979e-04,1.377219593412455948e-03,2.335276728019132150e-02,7.626705864104739267e-03,1.507511557976108987e-02,4.265438711935513015e-03
1.801326358981042083e-02,2.344067296548914270e-02,1.834752135418811145e-02,9.399370968475141491e-05,1.602084223472508766e-04,4.392258545085445109e-03,8.667122162660637757e-03,6.519821667612945258e-03,2.294312689733415608e-02,2.740496125407381346e-03
5.472364997454347291e-02,2.265858682653495298e-02,1.662454975924898201e-02,7.262291355583031915e-05,3.774982226245418310e-04,2.752876473432249154e-03,1.667514247748895333e-03,1.939913980381662061e-03,2.566596988799077148e-02,4.708342447474539970e-03
8.207435832081799720e-02,8.916543065928886347e-03,1.160255577007989272e-02,4.902631590308209608e-05,4.737722752823461431e-04,9.563431829796738542e-04,7.220572020978554585e-03,5.923057867316604622e-03,2.226355978374138650e-02,8.317133231126908402e-03
9.982425190685209615e-02,1.190751156120340055e-02,7.322606948136771952e-03,2.382675213317654643e-05,3.207172697184636407e-04,4.391116025724203613e-03,1.647452055871950760e-02,1.141890507367862746e-02,1.327491064335561098e-02,8.397795153084929715e-03
9.507666842255735329e-02,2.631937923318254310e-02,6.172524082136460373e-03,2.314034657579638233e-06,2.397558223600204370e-04,1.143422609872712242e-02,1.397692610346677744e-02,9.510331585113792827e-03,3.745867411078932126e-03,4.916960606053841394e-03
6.701290351055003147e-02,2.887683846532112728e-02,6.287081586777823299e-03,2.871168596471070661e-05,2.611825563115766601e-04,1.538054448228330477e-02,5.184423866627872399e-03,1.644980410362408864e-03,2.828124980669057681e-02,2.004274902080464046e-03
3.447327893788607045e-02,2.475093444287135638e-02,5.394437012094225985e-03,5.467600543424681235e-05,2.548045143723748482e-04,1.343369880447971981e-02,2.673057115697728692e-02,5.003434360739427225e-03,4.972649010295978472e-02,7.226376661002311113e-04
1.247898954047376580e-02,1.974912521938072471e-02,3.787267628963592557e-03,7.952781256704506197e-05,2.011460932165771455e-04,8.690274004458655235e-03,3.205399381026530908e-02,4.064697435675584079e-03,5.479619268208990590e-02,6.254140467847198962e-04
4.199330704875280790e-04,1.688900619605883391e-02,2.302953148658124817e-03,1.026154630351945975e-04,1.616371279666544282e-04,4.269940618158395845e-03,2.195857333188204127e-02,3.800462145561045967e-03,4.288291747928238418e-02,1.611330604535188196e-03
2.208145385462188977e-03,1.858553665536619853e-02,1.455378708212356608e-03,1.233306343111086837e-04,1.494563578374791171e-04,9.808882539895445295e-04,1.452206326390021937e-02,1.193420458160545684e-02,2.769122712475523274e-02,8.174077055295648131e-04
1.107615933570010175e-02,2.405709113386640674e-02,3.545238324361645651e-03,1.411229954076563748e-04,1.362881243942027363e-04,1.205423622472954863e-04,2.178738552142859761e-02,1.521358087517848956e-02,2.123033334659158930e-02,5.434416361809567405e-04
3.576573350115679062e-02,2.814460997872444623e-02,1.039626930185453581e-02,1.555134116695203585e-04,1.126382784299986628e-04,2.157590840632519352e-03,4.047402485980369086e-02,1.496506602496085539e-02,2.157173620549443852e-02,5.790078707589219791e-05
4.995329566661901172e-02,2.726656024528262279e-02,1.785271008943136589e-02,1.661053715284030907e-04,9.460362272221346422e-05,6.786399163407747653e-03,6.317238451533485621e-02,1.595796779524138662e-02,1.956262609546383785e-02,3.010279884316685670e-03
3.803071645824984692e-02,2.202188017863941638e-02,1.852595550191574181e-02,1.725943593174444858e-04,9.640385360513685649e-05,1.099397687518027106e-02,8.541888762396611379e-02,1.940759222419682906e-02,1.097227935090957368e-02,7.819028107036191111e-03
9.750881603657786389e-03,1.277900766447925135e-02,1.142125772228124239e-02,1.747749514424454091e-04,1.073019465909695570e-04,1.213531821354290642e-02,1.017083230916215469e-01,2.033644396789424311e-02,2.355312698265931651e-03,1.248494893773952757e-02
1.005895754285583352e-02,3.109361550674713884e-04,3.188348115086956595e-03,1.725454851727045789e-04,1.021351781068855332e-04,8.599301879525808254e-03,1.061722814831384948e-01,1.414782755494007997e-02,1.541847779865117632e-02,1.452297223517268025e-02
1.867406145243248258e-03,8.089378389467232269e-03,1.116281445516449471e-03,1.659102047539569693e-04,9.394222981395592700e-05,1.729208526793892886e-03,9.852289559633489735e-02,4.306798724228826786e-03,1.926488262239531984e-02,1.285562297364692408e-02
3.812810641610265422e-02,2.919891784519597702e-03,3.614818863595929254e-03,1.549788175455487889e-04,1.351040585691974921e-04,3.150120779934568929e-03,8.031849189411416345e-02,1.630580282258810689e-03,6.331766729759003183e-03,8.844289069827796293e-03
9.517948464327734281e-02,1.362340485007177207e-02,9.328945175631604692e-03,1.399634640879426645e-04,2.037884893616656319e-04,1.608954698366097053e-03,4.785932198757378297e-02,2.353879196300874554e-03,1.756069501640282818e-02,4.779791202628332764e-03
1.402227056946920014e-01,2.671249752946418254e-02,1.966005754429183891e-02,1.211732409432792309e-04,1.879743956933110026e-04,3.817168822154480036e-03,8.767066099310476084e-04,3.077106386429973549e-03,3.395787606205185466e-02,2.447983212710826747e-03
1.478661844991167318e-01,2.564892764221702801e-02,3.086467317528576726e-02,9.900645878513530983e-05,1.279721561750232317e-04,6.515347975275799682e-03,4.689056817799693716e-02,6.889399950149891101e-03,2.992706579842773981e-02,2.269113509254698426e-03
1.170191754859297439e-01,1.438760091993647808e-02,3.772386145426872422e-02,7.394071799307955543e-05,2.646966392868869652e-04,4.614667516587845665e-03,8.147324202028315143e-02,1.195049510634831405e-02,1.096912293968741077e-02,2.292015988573505286e-03
6.925016292988672717e-02,3.207972401626386569e-03,3.798958241865651314e-02,4.652096514658630370e-05,5.267846171046733274e-04,2.336266720015229333e-03,1.063213496406194558e-01,1.643587879900380508e-02,7.371073228290725421e-03,4.263769229238241823e-04
2.434309388658999207e-02,2.563361936917936575e-03,3.301186839590293520e-02,1.734607277118925791e-05,3.532858039775199784e-04,2.609114975170681670e-03,1.302816242075354736e-01,2.102609518520121359e-02,1.673057629552759246e-02,5.876682409724234835e-03
1.734060663688169815e-02,3.227462400416675030e-03,2.484892853226505771e-02,1.294553392177483153e-05,3.748529659396308074e-04,3.837966193549633732e-03,1.476256393065533967e-01,2.632235125478219612e-02,2.036310105384511737e-02,1.009316237038198130e-02
6.261483012602955811e-02,9.264298860358404983e-04,1.418489850151561683e-02,4.369136604115895058e-05,7.951978091591373546e-04,4.866291923528816808e-03,1.463676302002416274e-01,3.089933142016097409e-02,2.269086965953208065e-02,9.360895235138336906e-03
9.765062416319923722e-02,1.718918283793995517e-03,1.471362880128070181e-03,7.422151772166178533e-05,2.807885143833673577e-04,7.389440693340697079e-03,1.274110973480475084e-01,3.210944376791682181e-02,2.200848773670751116e-02,4.207338201428182864e-03
8.876466940278684992e-02,3.215450495334942239e-03,1.019357773238560756e-02,1.038749709810143983e-04,5.427194499698472906e-04,1.170575487333455969e-02,1.008783751072761248e-01,2.838770022732017492e-02,1.598577473137995086e-02,1.300055383938073005e-03
2.510639094233702018e-02,4.475792255944590313e-03,1.487783168716833374e-02,1.320142329351773453e-04,8.270706099808897540e-04,1.497824704191462290e-02,7.014994999864260228e-02,2.223276750994388970e-02,7.559404832333758810e-03,3.137348617679640815e-03
5.503842021597722678e-02,5.849012558902005193e-03,9.656911714146211578e-03,1.580402614679499911e-04,6.660644631309505393e-04,1.515717307324651250e-02,3.314628171468302076e-02,1.940326578705187099e-02,5.878664872239157662e-04,6.300657933594154547e-04
1.013625826236464744e-01,5.626581195051509957e-03,2.447215882274652622e-04,1.814093647874977320e-04,5.733027256198067884e-04,1.289234034575341414e-02,3.313652833756004605e-03,2.196795902698584976e-02,6.325178463197724844e-03,2.867746867972036703e-03
1.001214712914972743e-01,4.811995188186458071e-03,3.870744979363908295e-03,2.016467881310881564e-04,6.753895905467948227e-04,9.425819089814536228e-03,2.506749524122478187e-02,2.567171132138643813e-02,1.703478065170842271e-02,3.805211642877970226e-03
6.860627717802567083e-02,7.680499190830894843e-03,1.881657436001804660e-04,2.183521685936813325e-04,8.368835209522573152e-04,5.779388043148881923e-03,2.928144714408374705e-02,2.806000761499253052e-02,3.016056492100618186e-02,2.676064715208722675e-03
2.589877871517524965e-02,1.375924532287018699e-02,7.727681880453094246e-03,2.312070387907164723e-04,9.033256554073916230e-04,3.451993150256808720e-03,2.640739974621741232e-02,3.133842078756317318e-02,3.855086584325936178e-02,1.538010048241424989e-03
9.210568040498129730e-03,1.650004179486129138e-02,1.440409782668329933e-02,2.399940736664070602e-04,7.121353558056533030e-04,3.527942125217890801e-03,1.904217611655776438e-02,3.147888053002180497e-02,3.805128478958116900e-02,1.192347794177450000e-03
1.970606539880109462e-02,1.288663521887107970e-02,1.986760469942596211e-02,2.446058697526699573e-04,2.784883701012817823e-04,5.480657181886271559e-03,9.312871426767248620e-04,1.751088792344580175e-02,3.359026714304973182e-02,8.288092623111014551e-03
1.524727665243274903e-02,6.463416767551472507e-03,2.415832536834953276e-02,2.450214108843165313e-04,2.276645262244897177e-04,7.439067248962218624e-03,2.776485635168750993e-02,8.933645456591187209e-03,3.307716697860379335e-02,1.735286368969463783e-02
2.701055372105048979e-02,1.413754898367920124e-04,2.445734378936270659e-02,2.412966925436587609e-04,7.450298610812722830e-04,7.152303398858597672e-03,3.833002646408436437e-02,2.801290792789110431e-02,3.660220184668021987e-02,2.259800362933896828e-02
5.417784333839156113e-02,6.993069940514087812e-03,1.699374942459127083e-02,2.336171610822892000e-04,1.102985394275407365e-03,3.650018771004672966e-03,2.032012860932585346e-02,2.646398868383909378e-02,3.622391789787539340e-02,2.157282501484364401e-02
5.124857160419297314e-02,1.102985919977043060e-02,2.290202304971693595e-03,2.223139375157901767e-04,9.117567539279000394e-04,1.464005767560137188e-03,1.433346084023038799e-02,1.416882891448190129e-02,2.768876901926965381e-02,1.549341735486139786e-02
3.096285033733481989e-03,7.347687994979413412e-03,1.284417909286078574e-02,2.077396498895888648e-04,1.471230454104380584e-04,6.083439835814250657e-03,4.397517704830800067e-02,5.742535774243960611e-03,1.757679802501109154e-02,5.938901934626412624e-03
6.257082822164319880e-02,2.200701126851491336e-03,2.083148334824702283e-02,1.902108498885436119e-04,7.880990359946049790e-04,1.086399601668507076e-02,5.333604295141076979e-02,9.064479157219311207e-04,1.489919098928173431e-02,4.484003277493284721e-03
7.231535524891911926e-02,8.683494282847351378e-03,2.001209617195601198e-02,1.702454043727842203e-04,1.446050308938340561e-03,1.717164741344813506e-02,3.819176320332904467e-02,1.321493775724551407e-02,1.908938699109768988e-02,1.139574737379251551e-02
3.913754323873489677e-02,6.760621294851764176e-03,1.386407113430912670e-02,1.486594654441558065e-04,1.050019165213852490e-03,2.175804023961912248e-02,2.359513357520473878e-03,1.994229145138246700e-02,2.111570002423130907e-02,1.148506090491860018e-02
8.741194780993935196e-03,3.065063673956917867e-04,6.045396638725722242e-03,1.260257086546108908e-04,9.005130517391682094e-04,1.869660843726664301e-02,6.925315653694100182e-02,3.069378319742960617e-04,1.370792673774004142e-02,4.846084424826931081e-03
4.211914493559822982e-03,5.043320235288639708e-03,2.888362651806272371e-04,1.024106096401318240e-04,3.021421944907503199e-03,8.457206291296438458e-03,1.431142294215518862e-01,4.064299286013936530e-02,4.402632767351664922e-03,4.576380073378486998e-03
2.652839254887605011e-02,9.216349075487653003e-03,9.055639269176914358e-04,7.847993887982938313e-05,3.202741910245927946e-03,3.137538188443013409e-04,1.775239092711684563e-01,6.904086072791010276e-02,3.013841751118937276e-02,1.036661443487800482e-02
6.978584779443143538e-02,1.373167101133800257e-02,6.100826668919135526e-03,5.604197982982265299e-05,1.655511847289538796e-03,8.467097378311806612e-04,1.431977513867540297e-01,6.406167602932665017e-02,5.455482720358643955e-02,8.555357701885554431e-03
9.724837317122550506e-02,1.560006453301080766e-02,1.589567250578419189e-02,3.565316033203220244e-05,2.985049399126598561e-04,4.557546536202585798e-03,6.599680656499624931e-02,4.207287476605036519e-02,6.392108374351801459e-02,1.258262937398209411e-03
6.994241181956845077e-02,1.096393865201753838e-02,2.121578158382067536e-02,1.534809529587599050e-05,2.739094222752301599e-04,9.608005523093524416e-03,1.351876388189295064e-03,2.861840830750686168e-02,5.208603021617017048e-02,6.536562928010688361e-03
6.558091240541786410e-03,2.873545156886220080e-03,2.054923551787109920e-02,4.326039551506684697e-06,6.317003624041404560e-04,1.159075423142834696e-02,3.050310333323898171e-02,2.614334855029562532e-02,3.044328647255344078e-02,1.176569702052992356e-02
3.556378568502472498e-02,4.486204124707075976e-05,1.698350193922618101e-02,1.750943811338988429e-05,5.926444811836983819e-04,1.132562867882852368e-02,2.793650319921122532e-02,2.281108171967780388e-02,1.852693198122229434e-02,1.365849580318677023e-02
3.016911458120001208e-02,6.244484124436480016e-03,1.134859058593916913e-02,2.374803066761907590e-05,1.314427457545441161e-04,9.464687522556197372e-03,1.176455040877155689e-02,1.742311057324722606e-02,2.506508993927212062e-02,1.228402287595718040e-02
2.748315384637923381e-04,1.639569835182162413e-02,2.980952176477097513e-03,3.428843709817425915e-05,6.805763509216421247e-04,6.233149988264020426e-03,5.658052367304775357e-03,1.812620065626489516e-02,4.050035775362459400e-02,8.158403979086742072e-03
2.962666720103053486e-02,2.326717946030348177e-02,5.859671359301240993e-03,4.938179558390395289e-05,2.755385077874370750e-04,3.436340153415672928e-03,1.542485304837116697e-02,2.352232474471764589e-02,4.661010290919991722e-02,2.499103354142794432e-03
5.732117203836160219e-02,2.615395806739388360e-02,1.309429137441670866e-02,4.427178126612764175e-05,5.019236984400260145e-04,3.757218839135527226e-03,5.966015877288663449e-03,2.137850530605249488e-02,3.467287161398298345e-02,2.158778157593022051e-03
9.180455837072111491e-02,2.735083792364007352e-02,1.998322029282657147e-02,1.731691026423943348e-05,8.102427394310534681e-04,7.543607936020175347e-03,3.062546922900604221e-02,5.783064996723878866e-03,1.526504792564742710e-02,2.736976658892885470e-03
1.283336871319964712e-01,2.485748595437905356e-02,2.472271810724728860e-02,2.118134173492101021e-05,6.798700609724154381e-04,1.236551615186844318e-02,8.843562915143313163e-02,1.540511473714632068e-02,5.677774731775627089e-03,1.244032678396136526e-03
1.483740181266697544e-01,1.585051399441230260e-02,1.967495562152635907e-02,6.087942455659837114e-05,4.496529328907939490e-04,1.649253188907731649e-02,1.493649127960880452e-01,3.121322465677419875e-02,8.450230666471398450e-03,6.435447267367474036e-03
1.319755335031953802e-01,4.820022462755390626e-03,2.953274264512464539e-03,2.448728620371696700e-05,3.638633574255097851e-04,2.024700555735845647e-02,1.928490396348645775e-01,3.848986889933298655e-02,1.150166243801446775e-02,9.156390419606042982e-03
7.318929292815246068e-02,2.958580116646819958e-04,1.428924485989543913e-02,1.009291763787552651e-04,7.537233099862056295e-04,2.286312657553165456e-02,2.020628228719464903e-01,3.977543946549176590e-02,9.330630418022938660e-03,8.822413377179939495e-03
8.724812973173269592e-03,1.635030453541329483e-03,2.007104387144190497e-02,7.545463286293179134e-05,1.215417465862909116e-03,2.114200829649421839e-02,1.637041834238970039e-01,3.315506647799636164e-02,1.051027029459498593e-02,6.868336558219464635e-03
7.727445243662851848e-02,6.212374319831791801e-03,1.433842149496677813e-02,1.366769830135713308e-04,2.282314358487288163e-04,1.340141389799075732e-02,7.189890338234336542e-02,1.030988353546301133e-02,1.904842990347691001e-02,4.160286751860154016e-03
1.059387826440218172e-01,1.117755506454965082e-02,3.947314953510113258e-03,2.084982997093665996e-05,2.612158875164083405e-03,3.086090764273178265e-03,5.167131039280706967e-02,2.931677587945110200e-02,2.262647972534717264e-02,1.064691567470315951e-03
9.653097089957993204e-02,1.437737442595005827e-02,6.328402265241206935e-03,5.315706776988106787e-04,5.022462857676841114e-03,3.841026701209568264e-03,1.477505160250560390e-01,6.751927429963847094e-02,1.026508957520764521e-02,1.548200342194347521e-03
6.792780894530124625e-02,9.125206958621857531e-03,1.226123738780177282e-02,3.479766240769173718e-04,4.742167306111987578e-03,5.501264590631554582e-03,1.621380448515019612e-01,8.201504400485268298e-02,1.034679196320846019e-02,3.546156276031128905e-03
3.180597269652991194e-02,8.577003407049610742e-03,8.776787944315418699e-03,1.376656221214351715e-03,2.508215138786386734e-03,6.484073660164719685e-03,1.046241984437804029e-01,6.983077108948483602e-02,2.510177624708298180e-02,6.760316057135593720e-03
1.145042932913953142e-02,3.151637155280901520e-02,3.306218757501991779e-03,3.061216146427230434e-03,5.157653867035371991e-04,1.167284016679710247e-02,3.673912543918409629e-02,4.581321891704302068e-02,3.243265259519737681e-02,1.256191704069965255e-02
5.307936086297282419e-02,4.782422834929117572e-02,1.491481825183996017e-02,2.585449693198376385e-03,4.471477129971725942e-04,1.866688229951600844e-02,2.370783267796015836e-03,2.207520146415687182e-02,4.054938095285914174e-02,1.866905506743712917e-02
6.903558312329617641e-02,5.287184287237212815e-02,1.762914080015478765e-02,5.626544152707239465e-04,8.565510103821712433e-04,2.010133585198563624e-02,2.648780210503607138e-02,7.113166574082034274e-04,5.445409151510178375e-02,2.094771694219418889e-02
4.616642977133617737e-02,4.934775068606623433e-02,1.152048386628267904e-02,6.635959500489280963e-04,1.028752834977292134e-03,1.436034078415458597e-02,5.308285097817621451e-02,1.523914518698627103e-02,7.046576341751191463e-02,1.894635532997844193e-02
5.526178424820101485e-03,4.031609822860235393e-02,2.378552052531367200e-03,4.643144826931756993e-04,1.002560248239053658e-03,9.189915300682907282e-03,6.144828861566262873e-02,1.702409710376109539e-02,7.800457507501748489e-02,1.752067793733232473e-02
1.423881307612539539e-02,2.718225958665743819e-02,5.812265228999616631e-03,6.604778241552084058e-05,9.359456012661602174e-04,1.131041653316645738e-02,2.741639901764994502e-02,2.274290671799584270e-03,6.772158658476154502e-02,2.140862870215303609e-02
2.702694807517348405e-03,1.071753239763750115e-02,1.417583484426369368e-02,1.653252818957253161e-04,9.790093075814183202e-04,1.705992084782216589e-02,2.471185461201374362e-02,1.602728874678519336e-02,4.223974834096293901e-02,2.920379133648645306e-02
2.895776800572764237e-02,8.309265939903838494e-03,2.485636611129850293e-02,3.541546123494021666e-04,1.057576278728371939e-03,1.804256637822539838e-02,4.254966971370313655e-02,2.107361336246749844e-02,1.575483119838555143e-02,3.441957414604993049e-02
2.298619513374671255e-02,2.597109438130811368e-02,3.339244783880755685e-02,3.127970532591717247e-04,1.009588495108864996e-03,1.164477071024531789e-02,8.506997711198137357e-03,9.200298308142371845e-03,4.983371156538252307e-04,3.204843296601415925e-02
1.582411537966631546e-02,3.412404090331905282e-02,2.941573503685234944e-02,2.217126646857042033e-04,8.971284027092776749e-04,1.343610062947513378e-03,4.772569776338858594e-02,1.027554886236388756e-02,8.596169635432060127e-03,2.233420472337074858e-02
4.345319288283007453e-02,2.857785240760877740e-02,1.036437054811800360e-02,2.319371811777015159e-04,9.828631777302114601e-04,8.647313437667140598e-03,9.003965444249736882e-02,2.681789280458970331e-02,1.550058740314332571e-02,8.810367795037505820e-03
3.653363593313421753e-02,1.611199409056415788e-02,1.044763650946169305e-02,2.612245736796381954e-04,1.190075227625814972e-03,1.462378600582483687e-02,1.046049311592475439e-01,3.465943855669476048e-02,1.920932612212668603e-02,4.429200805959212020e-03
2.599525640728983164e-02,6.743826731122970833e-03,1.755642418095298279e-02,2.381936896682197377e-04,9.553330272066874740e-04,1.319793791306581900e-02,9.212030215047453674e-02,3.213621370898983587e-02,1.225506214414536291e-02,1.297803341172531003e-02
4.317256742163062821e-02,2.062792401156330734e-03,1.042885880563807453e-02,2.008871512894286739e-04,1.567712793439607712e-04,3.772437734374854343e-03,4.840658676518450748e-02,2.056933369962492958e-02,3.605084994787058870e-03,1.305806279073828263e-02
7.157258981120676045e-02,2.223738369235935507e-03,6.744783894774442762e-04,1.837141526000769939e-04,3.536854280955715915e-04,9.400491345638120957e-03,3.018198533101443953e-02,3.752944080138282540e-03,1.675596555843906349e-02,5.460345166309714393e-03
7.787409575571625775e-02,6.208292544046284389e-03,9.484975478699348914e-03,1.699048669651980555e-04,6.901690598032884862e-05,1.891197328229337130e-02,1.153026288009071504e-01,1.149266123812567666e-02,1.893442840433182464e-02,2.576990587006189239e-03
5.541219460569696276e-02,5.882684974329624797e-03,1.557025329723740227e-02,1.438500335082317525e-04,8.362540216479153734e-04,1.969812973614093118e-02,1.509562845742102311e-01,1.641285594261412961e-02,1.122312532967740563e-02,3.088320268255878315e-03
1.510014386232307222e-02,9.960498538495051422e-04,1.629998155790641362e-02,1.139865591377986996e-04,1.063580533821570882e-03,1.376091751437671581e-02,1.122833538178700102e-01,6.572385667288488387e-03,4.868545688830188149e-04,4.632308289824062231e-03
3.330588444480545723e-02,4.080116708641570722e-03,6.938032687945311187e-03,8.855098850169558879e-05,7.654863096231213134e-04,7.144196157645853196e-03,2.756674879915990348e-02,1.407150588911513026e-02,1.031232091601315404e-02,1.440821608956264696e-02
7.017570199499946482e-02,6.547032968665223059e-03,1.028736183294550431e-02,6.454762946566544070e-05,5.375589933310166626e-04,2.085404212589825855e-03,7.217584253201966837e-02,3.818890791086067965e-02,1.572717034338034017e-02,2.106409574447281816e-02
6.547924163680653165e-02,6.666108131575624110e-03,2.397021290380479258e-02,3.894705113248877820e-05,6.879367434104564525e-04,3.828731711623973005e-03,1.752133892462003906e-01,5.999128078660142388e-02,1.830486744832714521e-02,2.439318559603302281e-02
1.132738030233060994e-02,4.502573323484484157e-03,2.495838044922250865e-02,1.396824642975601006e-05,9.218360034863024889e-04,1.034766412513623592e-02,2.453241125915029130e-01,7.304405084666751313e-02,1.858134299090196187e-02,2.513332843289646859e-02
6.113381765329534839e-02,1.880039926247860978e-03,1.627012938353964919e-02,8.120689018100169055e-06,6.450815065211270563e-04,1.146967552427019706e-02,2.203869788637374538e-01,7.114112190966664917e-02,1.324490911748348737e-02,2.133633388828091310e-02
1.095659140208918303e-01,5.459778446553384748e-03,5.913245895737637842e-03,2.755865341379116899e-05,1.850087398153917701e-04,2.599034125636853418e-03,9.228069239741305829e-02,5.651375041804010402e-02,2.355886647117120918e-03,1.157805737209664440e-02
1.151333340633738656e-01,1.809425867940708463e-02,5.437681392671173120e-03,4.470565202683900120e-05,6.943377143960598359e-04,1.191778510783499286e-02,5.865236941108316338e-02,4.100140110754452172e-02,5.778605280753261811e-03,4.241054000650528962e-04
8.765582696047041766e-02,2.816349372940844115e-02,1.947439401237298362e-02,5.883288534643779958e-05,2.276564828975385967e-04,2.199609453033753159e-02,1.465885568242442927e-01,3.379002278329056724e-02,4.228485891966641749e-03,7.842063142170122708e-03
4.908165211997581046e-02,1.980229272967471560e-02,2.678075784659727718e-02,6.924028947506611785e-05,6.033769904023279437e-04,2.175256927119794195e-02,1.607930415675787317e-01,3.254947434239724435e-02,2.298298230599994229e-03,7.147745043094490269e-03
1.536440977189900726e-02,4.658841403217956791e-03,1.345939844221210289e-02,7.584872150337575820e-05,8.079876715275709914e-04,1.355942283467586988e-02,1.340359705767475984e-01,3.185936726222011323e-02,3.891430602672328685e-03,2.783785700592416971e-04
1.486595697342367114e-02,2.365843237416506706e-02,1.678498219272776815e-02,7.869090032524262931e-05,4.331417298250612850e-04,3.000497342781534901e-03,7.704540618692654053e-02,3.563228137846753685e-02,1.443606477978359205e-03,8.926725470937368900e-03
5.527087909848155123e-02,2.044289704620115555e-02,4.097743343713475955e-02,7.763355354973397080e-05,3.417665161792497546e-04,7.286238024955931855e-03,9.524657880716928815e-03,5.115698312997957187e-02,7.292481645000983143e-03,1.761082898768635829e-02
1.039482633334094519e-01,5.947503520779334404e-04,4.254278535226107411e-02,7.262006488001084795e-05,7.927371685336912985e-04,1.736024636288013845e-02,8.883135216261835165e-02,6.981057967901498074e-02,8.572213922088857060e-03,2.326697423963019692e-02
1.239677615891679602e-01,1.611266302930750363e-02,2.828101535310780998e-02,6.380499402436787758e-05,8.554990770717763862e-04,2.468704322957927452e-02,1.055214870451465642e-01,6.631855039586716238e-02,5.688113046833157861e-03,2.366869870175288687e-02
7.772232597885261884e-02,1.720842711710348152e-02,1.446799054386923265e-02,5.142966859263065955e-05,2.357145822464194133e-04,2.329758061451795564e-02,4.691976503484639877e-02,2.772138748082774232e-02,4.894305796494227614e-04,1.930754689904255750e-02
1.559762717560384676e-02,8.157388026233881179e-03,5.971587791398748173e-03,3.574872095954347321e-05,1.494921847732264995e-03,1.154022420309511535e-02,4.258547966999489537e-02,2.493403454039932673e-02,1.192565018785404427e-02,1.413033318520999851e-02
8.879904009602204717e-02,7.042439909883252674e-04,2.513016353121137660e-03,1.709895365678093613e-05,1.303908474190001825e-03,2.903011375798038134e-03,1.076786197964647168e-01,5.744456431364605015e-02,2.804680716981857239e-02,1.216403059468342505e-02
1.013503561947112913e-01,4.141376255568381126e-03,1.149305970857979545e-02,4.069686002700879124e-06,9.841295460582123560e-06,1.063490538999808596e-02,1.246324561375322520e-01,5.929390171223348355e-02,3.974321203248044193e-02,1.415655629405837557e-02
7.304910522397367600e-02,1.356306567481516817e-02,1.376629769340267755e-02,2.728262568442111756e-05,7.242427471105205260e-04,1.007137253667623675e-02,9.754218088457369817e-02,4.503779995780376327e-02,3.492452434043737813e-02,1.837239564727394942e-02
3.666707336749774199e-02,2.745104452720262961e-02,5.229470741630113176e-03,5.208805043078082822e-05,7.056145082519902148e-04,4.944754576509042751e-03,3.225007505658419177e-02,2.641869226264042733e-02,1.286444125105202368e-02,2.356524767643097817e-02
2.709655997979984726e-03,3.643605943438262690e-02,9.321354453156009690e-03,7.794179050914057350e-05,1.128315607406691094e-03,2.360399695548754014e-03,6.165183865833611526e-02,4.452247966221073092e-03,1.131188171954245099e-02,2.933326294494520078e-02
4.347942621777418221e-02,3.461872683857222105e-02,2.191276333504346349e-02,1.041651575243036627e-04,1.269439346465886824e-03,8.784882757388019422e-03,1.439564800375555120e-01,1.296632138755794174e-02,2.145791622079937927e-02,3.380179597316299717e-02
6.249296856483696483e-02,2.538177782957844880e-02,2.790679307885634078e-02,1.302117746457784352e-04,9.757938065123325858e-04,8.331445119687291151e-03,1.545112278822381169e-01,9.191826167082858129e-03,1.614269744305834448e-02,3.392186995609650785e-02
4.699894710032005707e-02,1.369717394994137208e-02,2.616878083841466668e-02,1.557939414123163922e-04,4.871057605744552425e-03,3.324993821681606048e-04,7.173507381348974421e-02,1.948187686034156402e-02,3.561486183609082357e-03,2.953191114023759681e-02
2.429583799556325752e-02,3.210442578460561769e-04,1.674687850540458600e-02,1.803655751520425138e-04,6.673941657991903226e-03,9.494399279123034302e-03,5.804046102961921139e-02,5.588683828369801071e-02,1.336538804991658884e-02,2.433280844827293010e-02
2.476365392986993111e-02,1.683745089757269706e-02,1.066112976377941741e-03,2.028851061290676717e-04,4.621837280576276789e-03,1.186391665142673066e-02,1.626274214919118666e-01,8.057430469844607812e-02,3.512058214990350369e-02,2.066518512614692188e-02
3.770293730788009529e-02,2.991540008941435957e-02,1.582684313862749159e-02,2.229488115777429646e-04,1.110486437734235950e-03,8.711853436780096771e-03,2.024568712752971011e-01,8.803390108011008297e-02,5.197851193668939079e-02,1.585284157251713039e-02
3.770230074997570763e-02,3.171887684674504215e-02,2.571061771602593110e-02,2.413605235552789170e-04,8.637358489917308906e-04,4.108126201353529475e-03,1.796585936398609751e-01,8.188566890696234724e-02,4.793973198151530585e-02,7.092430428633071139e-03
2.937248157885697167e-02,2.258290679930412270e-02,2.341502649342065007e-02,2.577608070700316808e-04,1.041003601551501951e-03,2.486613573454202024e-03,1.087475095502209027e-01,6.359421863929931584e-02,2.207123894598407923e-02,1.644357107551233481e-03
2.834174824568422638e-02,1.155463803669830661e-02,1.328642273381939500e-02,2.693784223435821126e-04,9.323622645088084672e-04,1.215883207455303525e-02,1.263880105882288218e-02,3.441553410009130093e-02,6.273506439068630286e-03,4.019269518753198177e-03
2.468311220980409781e-02,5.694057830965482819e-03,5.819536494296080782e-03,2.760839897526837206e-04,1.176026438835648096e-03,1.930071372729538423e-02,5.660093887678040864e-02,5.336211913481805381e-03,1.875442922985859351e-02,3.851825399225277096e-03
3.553091539001055135e-03,3.669517148014311923e-03,5.906402940733726861e-03,2.832060566881048789e-04,1.058413444896024770e-03,1.598064049825518099e-02,5.038601172980172738e-02,7.703615396526971443e-03,1.523102820948314153e-02,1.330909012254201385e-02
2.403589451109714240e-02,2.151611388665511989e-03,8.518177961762407602e-03,2.908247181211457387e-04,2.605870537449745663e-04,3.394650881202216156e-03,8.158066614167538283e-03,2.311826226737893550e-03,5.733585930328290343e-03,3.405204919353421039e-02
4.199441123830396916e-02,3.442775868820822927e-03,8.772163426146206353e-03,2.874848383076515006e-04,2.729232543332523776e-04,8.419156886445542526e-03,4.868954965527744205e-02,8.108081349831163659e-03,4.704018092763417522e-03,5.238145102293352562e-02
5.359080527254756615e-02,1.173850978936954483e-02,1.013558685281678445e-02,2.728967717054089502e-04,1.943618090578250667e-04,1.339519146794487109e-02,5.427682059698608896e-02,1.360232483604290055e-02,1.625239525713298092e-02,5.878229147962594353e-02
6.315794182501684173e-02,2.438770567907664472e-02,1.647415678375670559e-02,2.719486476786645446e-04,9.947219011233730292e-04,1.401187337524164266e-02,6.515990391989064101e-02,1.580303036748252621e-02,2.642302684693633927e-02,5.851166724093642690e-02
5.855228681391760198e-02,3.274597270591286802e-02,2.163852987886678153e-02,2.865795042301203530e-04,1.188998822720509045e-03,1.231012441534441552e-02,8.169776464082220691e-02,1.465113769174430924e-02,3.057095952192113303e-02,5.764081960265798887e-02
2.917894404281629744e-02,3.146433645374287907e-02,1.643720271567195371e-02,2.645800665240360537e-04,9.035663970310971963e-04,6.032291121408773181e-03,5.527884199523495912e-02,3.731726547121299534e-03,2.783736198115149829e-02,5.302907344799780154e-02
1.502378633257385118e-02,2.204402311562746880e-02,3.396262007147550065e-03,2.015374159417484428e-04,7.857779778108590647e-04,4.230598712463609287e-03,8.763873199730026070e-03,1.465478849441806571e-02,2.156757832844847372e-02,4.152547686441601660e-02
5.677652671902415349e-02,8.136132947832747098e-03,5.166951359065241438e-03,2.101087747346811136e-04,9.279577835438727754e-04,1.244045209478524157e-02,2.964050582686506008e-02,2.483948250067797431e-02,1.633294381286918076e-02,2.760014975141484792e-02
9.339756932717727111e-02,6.783490372480149681e-03,3.100490247365164393e-03,3.040726856027003836e-04,9.412358502516145675e-04,1.393168942053219124e-02,3.361307756347429315e-02,1.826302606452162927e-02,1.615961490080579724e-02,1.751329031149246110e-02
1.272935881448873652e-01,1.773774088813547326e-02,4.546744421342463656e-03,2.444464505066901638e-04,7.206323195738528623e-04,1.001512265843215038e-02,1.155348252722299268e-01,7.597562323441203920e-03,2.089766216954967379e-02,1.270122318988554933e-02
1.389393019414006947e-01,2.002766032271307423e-02,1.238447618093700860e-02,3.533677275813351936e-06,6.781651559017730412e-04,5.715632180638063539e-03,1.334444634215104786e-01,9.382315377303423326e-03,2.469533881481269025e-02,1.048025876033784054e-02
9.756556545004793635e-02,1.324405322375869429e-02,2.139075493131617142e-02,7.579893385533620852e-05,1.001567527052547955e-03,5.084405128992581548e-03,9.308069193674393949e-02,1.991896007178826922e-02,2.415426763486976103e-02,8.157169416547231308e-03
8.219918540055770606e-03,1.761423083553276736e-03,3.158057279065869249e-02,5.921419399254711355e-04,9.780801550986035434e-04,7.251380070798969964e-03,6.150262611382434352e-02,2.008819952219494456e-02,2.477842129354298692e-02,6.347325849339675863e-03
7.727595501921930010e-02,7.337199702257885502e-03,3.510985435350932188e-02,3.739282847814034169e-04,7.513310437803986247e-05,7.728620724401630976e-03,6.545875833147454803e-02,2.220671478039031119e-03,3.114165920775719895e-02,7.017044026531389124e-03
1.104565852982852536e-01,8.143788587176750693e-03,2.433626176070505243e-02,1.382851864126021001e-03,1.325551287880914102e-03,5.844557621178860310e-03,6.352664365215833497e-02,1.794320349356567923e-02,3.563736080836367448e-02,7.519475845279589669e-03
8.820330806981001304e-02,1.828240208594276908e-03,4.488839128148325829e-03,3.096105776857442128e-03,1.284104205609369696e-03,6.789385147492773415e-03,1.424698704225270916e-02,1.977219145324901270e-02,2.746189043139079383e-02,2.460817495794367059e-03
3.746189044072298358e-02,2.995232429054118638e-03,1.048298548462406853e-02,2.644701800118954768e-03,9.110131673997011567e-05,1.246081652435627671e-02,6.470614795728664437e-02,2.587142503224386381e-03,8.895399341049266967e-03,6.655214974463936201e-03
1.775062892873293524e-02,4.391785591431185539e-04,1.429796887982311485e-02,6.412234879255538115e-04,7.912020536778760190e-04,1.650381193652837586e-02,1.201675583877890308e-01,1.392726018811881426e-02,7.168620144476695044e-03,1.220541652338192826e-02
6.412643361212758131e-02,1.007843650449526118e-02,1.138496632300910368e-02,5.713833908794805445e-04,9.008077386639825159e-04,1.388994479712026518e-02,1.297286167565964710e-01,1.323317277100032226e-02,1.322418850634283875e-02,1.250865858336852598e-02
9.421631059146162723e-02,2.010320736708109610e-02,5.216576828913207717e-03,3.647458546191208921e-04,8.393700243160582631e-04,8.670805356966491267e-03,1.222108382528898363e-01,1.376470642869488843e-04,1.255217396382289803e-02,1.306373565331958066e-02
1.023523456153838523e-01,2.804044928892942753e-02,4.999048661847588747e-03,3.420685410720708335e-05,5.945979983498219604e-04,6.269842267177716880e-03,1.328154477110184972e-01,9.901937238740336072e-03,1.031633444971416687e-02,1.503269700698262046e-02
7.816476334948965765e-02,3.282626570177633873e-02,1.686819607056968748e-02,7.100451980883792729e-05,9.643004057429190197e-05,5.231808146736913537e-03,1.635237425532676259e-01,9.868427723392310391e-03,7.632015778427075209e-03,1.357267757028345415e-02
1.563916743672202903e-02,3.108208855278752833e-02,2.480377498513283013e-02,2.723323773494300986e-04,4.778705547968432085e-04,2.375490157192550709e-03,1.959016711845672221e-01,7.518069592474204733e-03,6.433254177831181433e-03,8.296471320707890507e-03
6.177483591025605819e-02,2.114333857201091543e-02,2.747700463730401096e-02,2.504001222621706174e-04,8.957489145051093652e-05,1.409916517674012371e-03,2.148844178403260252e-01,8.529775661822034533e-03,1.219581075496611530e-02,4.902723739688566798e-03
1.072480753433788792e-01,7.246529786661660109e-03,2.856369126655418367e-02,1.855378926340281042e-04,7.388847673812449016e-04,4.917478782060699487e-03,2.103798825862887856e-01,8.773500551418653842e-03,2.602120191377517086e-02,5.832850664537994612e-03
9.457313498023012244e-02,5.214462505090822035e-03,3.156033354469713059e-02,2.272391509195130629e-04,7.124680624000565400e-04,8.075462698565120945e-03,1.849183258520411266e-01,1.572233461343679108e-03,3.921815955458918951e-02,8.199470730584020733e-03
3.983625444404960414e-02,1.490336588619896319e-02,3.655301162787653879e-02,2.922391376110106045e-04,8.586142014690514596e-04,8.134242431111996657e-03,1.615166977460106013e-01,1.442642048651717086e-02,4.106651315123942270e-02,1.070007700872627719e-02
2.074363600101507971e-02,2.154665562006962548e-02,3.857194904255397544e-02,3.107069936566744686e-04,1.453755641244371989e-03,3.821945049336191585e-03,1.474602489802682159e-01,3.157601843013389115e-02,2.955357465652961105e-02,1.448697405324001278e-02
5.900673323089732081e-02,2.336052089451124553e-02,3.002961112128411242e-02,3.207642685499728077e-04,5.415601515568835376e-04,1.947747468225723274e-03,1.002836404670215120e-01,3.441390585929026552e-02,1.287424493872452343e-02,1.771210050232558536e-02
6.811998688583474626e-02,2.096013221927815057e-02,1.050730874780103283e-02,3.510045114820870200e-04,2.705515151228578621e-03,9.329347785957894240e-03,1.552952668078035579e-02,1.442328723474031911e-02,2.144386108563782825e-03,1.672792582258152486e-02
6.012379226805050075e-02,1.785176107824941114e-02,8.299136787431805884e-03,3.815204257625327529e-04,5.090575123992643371e-03,2.110951886836501257e-02,1.485368997020473647e-01,1.409068590537218904e-02,2.460887224756005184e-03,1.276592024529527025e-02
4.694764707354766309e-02,1.441202556361891735e-02,1.361171056495474180e-02,4.059802116025443644e-04,3.571659547021847122e-03,2.682213387034791674e-02,2.039609111985855594e-01,2.613746350716053893e-02,9.868824965654434886e-03,1.108064216344351732e-02
2.805235106304507925e-02,7.631672701655770746e-03,5.881599284561306318e-03,4.365314640049177525e-04,2.705258406497261297e-04,2.390004557075613503e-02,1.617068371152057538e-01,1.505255697935493908e-02,1.573902472550297790e-02,1.270992485265315212e-02
6.015484897042724585e-03,1.184178263573187071e-03,1.870048766196113956e-03,4.583675085066939983e-04,8.450213940054664358e-04,1.708473812049950483e-02,8.604050717975321450e-02,4.037120550565456017e-03,1.343514912035603630e-02,1.244875467267205979e-02
1.325106354791037201e-03,5.458128336655907603e-03,1.837048506475415406e-03,4.566238123624608513e-04,1.625908860763392006e-05,9.268975089207903695e-03,2.483006396785315123e-02,1.782833200364339690e-02,4.271098766876214523e-03,7.021085276175107782e-03
3.066268775544951641e-02,2.821675364755183574e-03,1.545700631197386744e-02,4.738988276618181996e-04,8.605399922829371959e-05,4.678044171168520672e-04,3.470889003608382262e-02,2.699055358026745607e-02,9.596708947015044310e-04,4.618606450935623079e-04
7.306901443371600913e-02,1.620856556458744263e-03,2.762969002941218985e-02,5.358200757250772533e-04,1.112437809664306929e-03,7.244112346228166396e-03,1.040040132878452400e-01,3.424934147330412765e-02,8.271551262101318330e-03,2.307660777099460742e-03
8.117407470365030353e-02,4.818074810913636902e-03,3.045472258188551204e-02,5.447761053217037948e-04,8.568641276261134950e-04,1.061392339997836720e-02,1.463777985247802227e-01,3.427545205904043019e-02,2.871285531372764002e-02,2.419291177909002263e-03
3.819983959395326090e-02,1.079673599541707343e-02,2.630494207491806263e-02,4.448905629198307348e-04,8.909145520454866095e-04,1.064631712100967340e-02,1.236420046312145804e-01,2.257535181458984047e-02,4.598884852043209209e-02,2.470374401303875554e-03
1.710347481454989327e-02,2.228944581956150348e-02,2.194987835040434002e-02,4.474499098592232198e-04,1.950394184117832134e-03,1.176750371311009041e-02,5.636885921785038389e-02,6.495181988553404111e-03,5.187900885265444434e-02,4.993392015675550844e-04
4.325290803041326182e-02,3.496247043659890530e-02,2.107477392439252931e-02,6.868642116242579688e-04,1.085367987440696977e-03,1.466292189336008273e-02,1.296171357121343390e-03,2.309559118564725837e-03,5.097311497057038787e-02,5.184464258661050651e-03
4.921462329985763773e-02,4.363971136139055407e-02,2.406828645700961194e-02,6.823232410603296627e-04,5.699229255857782110e-04,1.522895190521264194e-02,1.275536141163107623e-02,1.917628152623220700e-03,4.966808297108447900e-02,1.056137658540396047e-02
6.430164883660802189e-02,4.767345450540880908e-02,3.082015168305853384e-02,1.506792301786514198e-04,1.344577488629261413e-03,1.263634543374824067e-02,5.442850171742095317e-03,3.027791252198524380e-03,4.854067156805592920e-02,1.158995352178065000e-02
8.345536670917927391e-02,4.819104695907135832e-02,4.018418901883781535e-02,1.414737883130027119e-03,9.551169384095748675e-04,1.255556054976876036e-02,4.422491727562154196e-02,1.343231646891518763e-02,4.712263329676874557e-02,1.091496374741064007e-02
8.308425708998118386e-02,4.676500972045961879e-02,4.740542258987986979e-02,2.113011416387209143e-03,2.748510804916692125e-04,1.824087154918440160e-02,9.538219575866203892e-02,3.223432346700676188e-02,4.629104863194874464e-02,1.352970336200590151e-02
6.659523918870037529e-02,4.772031041998550660e-02,4.583446613522356577e-02,2.129704646323455752e-03,1.695487469627136032e-04,2.318682200255377246e-02,1.327612054636208849e-01,5.116638250312763314e-02,4.475340417410380439e-02,1.873066976906680864e-02
5.476938768007920399e-02,5.413820116594394993e-02,3.414416101488810390e-02,2.150691858634355171e-03,6.648426972044819885e-04,1.843702883542288826e-02,1.219102382558024805e-01,5.448699306743994691e-02,4.192966659907319121e-02,2.080104435441905777e-02
5.245140686812040792e-02,6.051965961161966806e-02,1.940591483285998911e-02,2.175547453462186968e-03,1.188423013461660255e-03,4.910485143283515284e-03,6.191579162529747132e-02,3.809925065919202852e-02,4.263774056678144159e-02,1.622168694074519954e-02
5.395854096356748897e-02,5.765960274656450196e-02,9.149879656162868483e-03,1.517492855981077745e-03,1.009456184207166386e-03,7.426393174419201187e-03,1.044979340239365201e-02,1.438950875513577560e-02,4.983412875333043807e-02,6.650567145033889870e-03
5.708796900180213713e-02,4.586329426996670067e-02,3.424598985820274423e-03,2.913295245096560334e-04,4.205950384632985666e-05,1.201652974602310069e-02,7.104465175402538413e-02,3.870898651036472782e-03,5.609188000443710020e-02,4.180775282589626468e-03
5.090982112487769246e-02,3.450906060350469873e-02,2.087573525342205187e-04,5.069975091509212103e-04,7.536615519918261419e-04,1.140355271948605143e-02,1.301281890425687038e-01,1.384620764321441502e-02,5.126208003539713814e-02,1.310161895673394965e-02
1.894629901795248303e-02,2.809788143972436272e-02,2.097142469565579318e-03,4.806488080460042094e-04,8.884727352424272306e-04,9.903870582305660669e-03,1.871899934816869115e-01,1.493704381297919492e-02,3.557429043633076465e-02,1.804492006518023176e-02
2.679658240001417391e-02,2.199195690744214574e-02,1.593047018169507431e-02,2.146438776895638883e-04,7.713023813450159720e-04,6.699160353383840430e-03,2.008376248725969038e-01,1.861133902019107035e-03,1.811589801453598533e-02,1.859490957054674848e-02
4.767513647865145171e-02,1.169012713455490696e-02,3.687836071807713140e-02,1.907380941926101214e-04,4.982590085058058969e-04,5.461341335991995059e-04,1.359772462032361462e-01,2.739478480068085683e-02,4.697787662137873320e-03,1.548552347152592004e-02
3.335863380178079318e-02,2.004931028049041115e-03,5.198334549548083716e-02,2.752904110949174680e-04,1.461407731303383209e-04,8.617308675647116986e-03,2.936179097009494754e-02,5.901052685425709626e-02,6.962656425940660573e-03,1.049673897659399169e-02
1.627509684210081548e-02,1.577221986553573388e-02,5.337837771082978855e-02,2.564948403854013653e-04,6.726334453861006766e-04,1.018690232975320333e-02,2.463331936120863666e-02,6.668076923946142376e-02,2.005334240394283235e-02,8.258665789037767518e-03
9.697736673667953222e-03,2.558310112902107553e-02,4.404387176344397997e-02,1.896419864465434231e-04,3.779672852841363699e-04,3.212518774294758662e-03,2.652764602283780651e-02,3.631275062547885402e-02,3.151820652271337952e-02,1.333216257476402093e-02
1.947308438858181417e-02,2.854392908826941522e-02,3.070142770469930921e-02,1.740814216209324511e-04,4.678560455717232624e-04,5.424565522419818459e-03,1.288187709120801328e-01,1.465060954770034708e-02,3.546751336426683804e-02,2.272643164668812846e-02
8.547209339153483132e-02,2.721375300274434320e-02,1.683224684840043880e-02,1.856898900354891609e-04,9.173178521980076498e-04,9.095140377460933859e-03,1.863329639059578824e-01,5.258883612633289545e-02,3.113058802725590657e-02,2.801732762139245644e-02
1.418366277839900047e-01,2.830118980392605510e-02,2.631653147719195673e-03,1.779599939171313725e-04,4.719727810467375128e-04,1.017128606140723854e-02,1.677740984704105265e-01,6.098646100653503516e-02,2.316608536856952158e-02,2.697261420366288409e-02
1.407352189259799824e-01,3.412116058230232202e-02,1.170696525919345810e-02,1.617649473221503625e-04,4.251143500727523985e-04,1.458312111138507054e-02,1.138004113758670638e-01,4.982338813449754822e-02,1.586319674121333331e-02,2.484841389966444339e-02
9.332148042014827560e-02,3.965464638540235759e-02,2.354131042502588533e-02,1.590567141197466838e-04,8.091254801402748180e-04,2.118822421251120511e-02,6.674609421053173675e-02,3.588760084949853962e-02,1.082832467561586388e-02,2.323128702930650144e-02
4.175541042295313754e-02,4.025841136122324665e-02,2.891844290626493369e-02,1.649061942106962815e-04,2.840494683840569397e-04,2.287407478525375210e-02,3.561565961712932771e-02,2.532296947194069558e-02,8.713067088219400222e-03,1.739324780437712797e-02
3.627884893234124310e-03,3.750950419272273267e-02,2.657145382312820631e-02,1.687247167517459602e-04,4.607150223679272764e-04,1.745038013961986573e-02,1.818959468249505690e-02,1.794605022562498556e-02,1.034486317779675230e-02,6.625809714694745091e-03
3.017251508568678103e-02,3.505446647041244451e-02,1.943065382115128498e-02,1.724006535971800294e-04,6.625856314105957236e-04,1.207009743824748182e-02,2.199249751959837795e-02,1.955316839286020195e-02,1.647569201858576152e-02,1.863219473254753037e-03
6.046645169978463047e-02,3.334444806820229673e-02,1.183547813406789564e-02,1.805862807262797825e-04,4.671485875005336485e-04,1.445164203406028303e-02,5.252045870751968076e-02,3.798225714695033228e-02,2.615349425387012219e-02,2.583439581256824664e-03
6.638459917251089693e-02,3.141727228539095002e-02,6.983024697692185277e-03,1.918905562418464820e-04,3.953158308340422766e-04,2.298840142212228016e-02,9.741876903686461087e-02,6.746444269782431169e-02,3.496308010368526231e-02,1.519845425086002559e-03
3.130901789509846211e-02,2.976956458954917173e-02,6.855865135694875524e-03,2.033416441631793168e-04,5.083611218430143363e-04,2.975997291182055915e-02,1.401149423528049998e-01,9.061294553652858574e-02,3.778922616369137510e-02,4.972506746765425339e-03
2.779996051238239896e-02,2.800858370077436571e-02,1.190417650005862193e-02,2.150233163070472907e-04,5.645478426375111864e-04,3.083257848922328972e-02,1.765418358575200353e-01,9.812630271064995413e-02,3.517170529552616359e-02,6.483612315238148661e-03
7.064230866006143694e-02,2.350278173964574779e-02,1.936999759446132729e-02,2.280514881098967962e-04,5.158881525503150904e-04,2.821687398492110296e-02,1.993451953076689487e-01,9.380002669098520818e-02,3.381780176825689016e-02,6.962426146368607197e-03
7.286685074428626840e-02,1.644399465970932186e-02,2.336808816337200209e-02,2.414501865201608487e-04,5.103417102959164698e-04,2.390397500300405625e-02,1.839764101540423691e-01,8.055818103591132207e-02,3.831867087617326501e-02,6.145928683664663231e-03
4.299624615230347030e-02,1.232512982411594106e-02,1.926073849103247804e-02,2.530695333968643553e-04,5.960476245783323523e-04,1.750673656397107661e-02,1.124113705220278758e-01,5.497738503167747676e-02,4.509896353396592589e-02,3.592363964551817217e-03
3.225824787602435059e-03,1.470045899615067021e-02,8.808009889376305565e-03,2.630980260460282568e-04,6.238734154322004080e-04,9.139919516146847306e-03,1.606285928622845551e-03,1.787084442966252809e-02,4.730078527640285690e-02,6.066921468484159528e-04
3.182388505548463392e-02,1.936436076644202850e-02,8.400787200829276007e-04,2.737667404041095446e-04,5.133115737369000221e-04,1.543547524090461281e-03,9.769665545169205212e-02,1.738030021834353206e-02,4.316934085165406026e-02,6.130870567136641539e-03
6.024915132777049903e-02,2.038146440994295649e-02,4.273779113861752611e-03,2.834066435421037653e-04,5.028536291035077231e-04,1.704254306928553852e-03,1.338956643018415216e-01,3.406819824328030655e-02,3.670505515777898464e-02,1.074158551197435148e-02
8.738123848765824708e-02,1.808635766517546067e-02,2.262171305004763953e-03,2.862621579685162699e-04,7.659358069138802547e-04,5.053122962030984558e-04,1.056131762334322211e-01,3.259656357960423467e-02,3.196351005741600998e-02,1.089583285545961053e-02
1.088167046814295658e-01,1.650082632982278336e-02,1.336699922365135011e-03,2.844875833965294248e-04,8.013418941776598780e-04,9.861240995613629583e-04,6.941397456240858133e-02,3.161095774120592505e-02,2.928029341250538986e-02,6.642197870108898852e-03
9.864318673542959992e-02,1.596118885278010116e-02,4.329749831314982922e-03,2.892072971257647314e-04,5.641693663115057852e-05,1.301857004188159382e-05,6.435990326906984582e-02,3.786501199936220807e-02,2.628040401794672423e-02,2.426271590079623862e-03
3.564192796684833436e-02,1.329287259327219077e-02,6.730838074905105828e-03,2.952923750147342773e-04,1.396270085787464608e-03,1.160455110535506002e-03,5.695460875251909250e-02,3.033502110781553796e-02,2.149300741432063136e-02,1.510417975247834105e-03
5.677067752562522246e-02,8.200617681265780223e-03,9.130869584538193681e-03,2.783141132167281395e-04,2.012513184255146793e-03,1.726727144509910064e-05,6.935759612195151018e-03,6.610864206660359114e-03,1.699548722092407080e-02,2.981571552891909040e-03
1.234427884310500406e-01,4.769922414832882679e-03,1.187931931634978074e-02,2.481863915213659041e-04,1.561522519541330180e-03,1.626279335926813282e-03,5.263711117431891379e-02,5.146529946703735231e-02,1.646998647248894276e-02,4.186186527861296067e-03
1.346353319195377207e-01,5.592781890720627258e-03,1.469486591340734595e-02,2.571531987925424140e-04,7.937360328673075810e-04,2.151251116979169048e-04,5.729355460694581653e-02,6.962745281614833581e-02,2.000950375122248492e-02,3.406493161459647756e-03
1.074399866676069015e-01,8.092852640677017720e-03,1.704189206735410439e-02,2.855105219583217746e-04,2.913390468521432556e-04,4.613990660001528361e-03,1.454306341841358000e-03,5.404658837744280575e-02,2.292658411687327827e-02,1.255031377188026240e-03
7.150182327919407665e-02,8.565638069030590690e-03,1.911506330943448309e-02,2.214003274563771870e-04,1.621452230234736989e-04,1.070701200853786499e-02,7.784748358106914623e-02,2.359392034996639353e-02,2.140401429575407993e-02,4.924908424373270876e-04
3.884214653770498571e-02,6.882882046462800510e-03,2.121233932451952603e-02,1.042845815872862442e-04,4.130305005704648473e-04,1.596320090840396347e-02,1.331042795573977033e-01,3.668364797443500469e-03,1.717437804132507587e-02,2.664716489107519376e-03
9.798697376556404423e-03,5.146153435304109264e-03,2.247570458264951110e-02,1.773589514225968125e-04,6.551820996012408050e-04,1.909832979300993619e-02,1.598264622891202580e-01,2.041616229012288911e-02,1.425187669600521366e-02,5.577793078991798506e-03
1.426508262439077530e-02,4.138679306716667831e-03,2.195742934000814717e-02,3.728452439180086333e-04,3.405355396485589578e-04,1.959036346171809731e-02,1.646493897203650247e-01,2.597054468648421141e-02,1.327496266280501352e-02,6.396735239158611933e-03
3.330986801457724855e-02,3.175024837422950243e-03,2.029951422768201674e-02,1.280133360880801997e-04,2.866685067956069592e-04,1.810540162691457594e-02,1.542503325963111294e-01,2.479316161967226248e-02,1.207135268176640769e-02,5.722221283756824886e-03
5.062110576248152194e-02,1.910766264155037194e-03,1.887968776299632848e-02,6.797348343569967763e-04,5.186319241539132010e-04,1.634295134771002189e-02,1.337190335441140188e-01,2.310087060381505603e-02,9.812356537234317305e-03,5.996650354016289444e-03
6.540857015337456226e-02,6.584517115231938809e-04,1.797280011523925275e-02,1.180099788823235889e-03,3.156788160968852829e-04,1.542172924436740512e-02,1.035093329076231666e-01,2.191399346384642274e-02,7.370058855412451454e-03,7.388216663225082026e-03
7.314486745636933351e-02,4.103908015421356761e-04,1.679365328058245871e-02,7.342788966131116564e-04,1.591405978884757595e-04,1.464905265344757651e-02,6.045374122330637867e-02,1.836373826385429356e-02,5.062539868085455530e-03,8.057196644335910124e-03
7.732079082333037645e-02,1.430315708011789966e-03,1.466432482794548416e-02,1.995724554371361577e-05,1.927585754610395923e-04,1.304307040395642943e-02,1.313871922023129510e-02,1.423007219568594647e-02,2.915247473954974810e-03,7.561609908671811792e-03
8.662659765170205306e-02,2.473091364386133424e-03,1.126869232026501445e-02,2.133170536127879601e-04,2.159240048747214911e-04,1.165576200893266023e-02,1.025270992472437741e-02,1.593010564406528370e-02,1.667986923721158365e-03,7.532690545750057864e-03
9.376271938433507203e-02,3.466896350256492773e-03,6.722335169755651665e-03,3.064327509148278054e-05,1.545914078381714217e-04,1.273632377495000079e-02,1.171709099097069037e-02,2.490623478817801870e-02,7.013973178774833214e-04,9.313718653013816975e-03
7.645683026875038646e-02,4.368193937080199277e-03,2.688203255987033340e-03,1.483094183022413211e-04,9.736426835029070369e-05,1.650758424884780917e-02,6.081904059825225112e-02,3.461865827534965634e-02,3.369771573150420491e-03,1.222759666642109916e-02
3.172652068545948195e-02,5.199912189786555505e-03,2.015715479480464402e-03,7.111195378000072925e-05,8.284765786272500375e-05,1.989342113019013439e-02,9.135785948348565388e-02,3.881736123982895692e-02,1.262050325306770387e-02,1.388487597870640550e-02
1.130275040114333066e-02,5.971622929495127782e-03,5.151834409312589999e-03,4.156558771494286021e-05,7.954487451764392491e-05,1.920074436361392592e-02,7.816552602442514153e-02,3.784074598864679145e-02,2.330465879782686600e-02,1.221552559584112088e-02
2.626664960676435706e-02,6.665250620573039304e-03,8.466068053907456828e-03,9.858280988623344782e-05,6.554279005230485844e-05,1.420362448563210894e-02,3.825259400498683127e-02,3.518659780848530649e-02,2.855186484420839041e-02,7.974535153162586390e-03
1.781881910718120104e-02,7.272776060418498223e-03,8.570950296684492001e-03,1.299045372674808522e-04,3.679655178050741867e-05,8.501245395614566436e-03,3.017946529269278227e-03,3.220926343473641540e-02,2.539257237073755391e-02,4.688408514514606946e-03
4.631063598847606419e-03,7.794399908098446732e-03,6.305722082249836866e-03,1.155735220947130701e-04,1.177454111354229425e-05,5.273398394839257097e-03,1.449386578011878368e-02,2.929104070697010134e-02,1.733769132918320383e-02,4.987333057168730731e-03
6.518114861541609087e-03,8.220237654008087300e-03,3.762282057684586314e-03,1.077260270162783660e-04,3.332272320307979631e-05,4.712217721499215722e-03,1.633845916575844825e-02,2.993277418806181839e-02,1.041966782157002086e-02,7.618214872400925694e-03
1.917081711676841063e-02,8.550739481974961587e-03,2.394571741207343184e-04,1.163375124543840702e-04,7.725145414027277408e-05,6.178384572383751813e-03,7.378235942941749337e-04,3.893482951973464140e-02,7.908408499238288314e-03,9.475752318373425326e-03
3.359612597143268181e-02,8.807879485070654879e-03,5.087680985083953451e-03,1.172264564873373970e-04,3.572513880831037375e-05,9.531836951058397095e-03,4.158831432880412404e-02,5.443990269802974347e-02,8.574583133552776681e-03,9.668063874310491371e-03
4.495488089708421509e-02,8.983947458054279342e-03,9.456750888373707808e-03,1.056450703702266906e-04,4.990109798442368433e-05,1.341300594865035313e-02,9.015209424790229797e-02,6.511494967072671558e-02,9.092579667756190559e-03,9.443965230318127763e-03
5.022090690474587116e-02,9.029820382800602882e-03,9.798442707727833892e-03,9.318341490172248119e-05,6.058714671965038012e-05,1.558372894229237415e-02,1.128751153531233897e-01,6.073471986872146233e-02,8.097750646985027098e-03,9.172956169272395918e-03
5.160228731872772839e-02,8.968052637682338152e-03,7.096233593846970264e-03,8.263005258035584081e-05,2.964709802576846612e-04,1.550408596517827836e-02,9.394708868453503781e-02,4.484045704913594554e-02,8.086641655052339075e-03,8.256822129015864431e-03
5.344968730425683767e-02,8.914772272058665153e-03,4.158887967601651581e-03,6.910387976932040187e-05,9.551724810459188465e-05,1.378609678794011535e-02,5.191496867775326207e-02,3.047973297834081358e-02,1.225932757646273213e-02,6.951622847816016360e-03
5.712067336966819564e-02,8.836693454597949193e-03,2.032944434989288150e-03,5.182669100473540720e-05,6.629956052056337540e-04,9.848715160353588988e-03,1.454153633532110149e-02,2.373359151223224106e-02,1.912010645451958646e-02,5.212520605105122259e-03
5.950407417966801366e-02,8.497785476641227242e-03,7.039109322992416875e-04,3.372258281587597742e-05,1.111411057311518244e-03,3.188680174978552641e-03,7.261056750629007843e-03,1.897421756933697842e-02,2.261061548163351836e-02,1.308972110524190538e-03
5.726585485500890194e-02,7.973571284140572660e-03,3.310073723519809785e-04,1.588468590793138679e-05,6.176351654707794986e-04,4.031732590997801589e-03,1.437765431495818813e-02,1.096060175720423371e-02,1.912462760423600666e-02,4.848529802402215712e-03
5.264021548081559976e-02,7.835325832558749995e-03,9.492159155635170346e-04,2.321830487022473160e-06,1.818045340264958041e-04,8.381259318226839256e-03,3.531720023519521745e-03,4.415170299660150371e-03,1.194886875611313008e-02,9.116517996979971866e-03
5.305039170911634433e-02,8.214952747471204048e-03,3.242646997240413147e-03,2.068517137905962795e-05,4.280424437212402579e-04,8.234190510097888147e-03,3.098741099450048539e-02,8.456115374569955073e-03,6.761059879499566744e-03,8.271400695277092777e-03
6.173066012099021060e-02,8.251857903295673966e-03,8.589273926195115094e-03,3.818150307662895160e-05,2.390349733494057159e-04,4.174046673200080583e-03,7.820569473112198855e-02,2.366645916200438987e-02,5.156163986131515053e-03,5.469649743636779797e-03
7.003309593648027187e-02,7.317082921127458957e-03,1.588027233036473640e-02,5.419850194463951055e-05,1.527293216692402562e-04,1.697203605993375048e-03,9.975241218303447510e-02,3.687855322139992065e-02,5.084890046974606392e-03,5.711519587567483354e-03
6.678906842844883895e-02,6.058261442078769106e-03,2.017560844471680617e-02,6.855103578633957783e-05,2.456056123481840719e-04,5.856767078421445255e-03,5.620706906340812437e-02,3.200617236036757546e-02,5.203082479796779930e-03,8.481150292672646335e-03
5.623040831457557648e-02,5.354397458937934853e-03,1.758039768884856607e-02,8.092429033832830305e-05,3.271423430095464317e-04,5.223790085021128883e-03,4.447529572031536094e-02,8.390524458536031960e-03,5.401449730000333627e-03,9.833572593957487853e-03
5.269780868916209421e-02,5.091263318870922240e-03,1.032137036240535211e-02,9.087402530358478663e-05,3.403571372442451104e-04,2.939521642052379965e-04,1.423444302522709759e-01,1.658065141187332545e-02,5.008948341771684784e-03,8.820314608583231658e-03
5.236014191894874936e-02,4.713988030108730298e-03,4.370357953065865872e-03,9.809993104385720153e-05,2.837091555452085395e-04,5.200970709375109073e-03,1.865031143734743879e-01,2.797126817956781253e-02,4.023414044278621031e-03,7.169667500837450733e-03
3.121076732193166225e-02,4.162005358722522044e-03,2.754739103567465340e-03,1.024593407673187980e-04,2.107285094245395045e-04,8.392340874522476873e-03,1.819691616979730586e-01,2.910496393771605517e-02,4.227306454978517654e-03,5.608862828287021485e-03
1.637267635055420639e-02,3.684946115109536194e-03,3.562671805751474116e-03,1.038475328269540505e-04,3.144161726978609824e-04,9.421231457188936412e-03,1.587074750694970338e-01,2.990649618760455458e-02,6.000462068492504880e-03,4.337370615377832139e-03
6.025085649085132333e-02,3.327811207819070943e-03,3.998229164090133687e-03,1.021954281240106555e-04,5.279412044767013918e-04,9.236875504371966361e-03,1.227928911392194566e-01,2.943158165405422577e-02,6.768999994475038279e-03,4.203498990947449054e-03
7.189844117770335941e-02,2.983290945802568629e-03,3.666327768909059294e-03,9.752850742087675192e-05,3.075416762515466112e-04,7.417367529202582160e-03,6.688788253032011688e-02,2.118161769753184459e-02,5.477088563354771435e-03,4.568721180565831798e-03
5.769613961275274483e-02,2.635161548372595176e-03,3.479973571135885034e-03,8.996875883965855310e-05,4.890660706685286694e-04,3.413157420185708706e-03,5.566898075593094096e-03,7.915923805118747769e-03,4.879747351416600931e-03,2.662232845285178277e-03
4.032841066152464959e-02,2.338026921259318824e-03,3.601853108634066498e-03,7.970451789430496375e-05,9.932283671706830432e-04,1.230549190170864785e-03,3.250259215442762029e-02,6.930644017799371913e-04,6.535875657011124343e-03,2.605117466333091610e-03
2.798976497793685680e-02,2.103041165845990525e-03,3.548544828463875023e-03,6.698391548662522091e-05,5.166065508397007502e-04,3.243712411227344869e-03,3.620422578872285052e-02,2.286505325173196837e-05,7.743616843973474481e-03,7.859004065766001315e-03
1.740486401132160590e-02,1.905920627849545758e-03,3.268363185135551678e-03,5.212110791921458500e-05,2.883452311093189294e-04,4.809335545735842236e-04,1.396597882320350925e-02,9.001328704213090032e-03,6.217971335236773325e-03,8.345886066383881308e-03
1.019518741847749883e-02,1.740574576791400173e-03,3.167352999175355316e-03,3.548926497304782848e-05,4.414435021306584183e-04,5.738396957542666460e-03,2.443402450644402424e-02,2.424514852024280825e-02,3.778095063022124389e-03,3.335796520646660580e-03
8.859444654333871114e-03,1.616077908726348128e-03,3.237795640628134651e-03,1.750532109413837850e-05,1.030288649406610490e-04,1.170227543991992497e-02,7.136197139634933850e-02,4.090422523454517040e-02,3.014560834176888918e-03,3.239829882700050699e-03
6.551133734936917530e-03,1.531626854975857164e-03,2.915605243053730720e-03,1.380959144278520121e-06,7.911716800599282026e-05,1.514929709427479190e-02,1.155172088005498726e-01,5.177232491340095361e-02,3.665778511913447574e-03,7.451469754195899804e-03
1.825586675881877945e-03,1.477790824626631179e-03,2.267095387013342168e-03,2.069544409684431817e-05,3.714274152495305277e-04,1.706441680181232032e-02,1.442489504253064714e-01,5.569168857870063216e-02,4.135345877800462866e-03,8.630931257564818104e-03
3.584664634891920280e-03,1.448427061883186904e-03,2.457536811085029617e-03,3.995114423692071060e-05,1.747864496072124257e-04,1.889176268320759411e-02,1.494915357147584833e-01,5.847076908600769979e-02,4.083868573274691653e-03,7.621338451970599906e-03
1.811271828883436602e-02,1.440440224471749861e-03,3.851248203900680019e-03,5.866156504878685329e-05,6.729557552498056580e-04,1.944660216403464731e-02,1.289588943025129220e-01,6.155674508725526850e-02,4.088261800671494535e-03,4.486304828937840231e-03
5.642638616390893008e-02,1.448423291689205240e-03,4.690781191291246502e-03,7.635288335275838942e-05,1.189385297956032294e-03,1.627877222652501787e-02,8.409693760998313006e-02,5.771261927843903544e-02,4.289205120652323996e-03,3.498370964902767924e-05
8.586612818815470005e-02,1.464944627378869267e-03,3.485488573385531457e-03,9.257504646906903104e-05,7.156430913962949026e-04,9.869166141498688163e-03,2.336502584015082151e-02,4.325402792125841028e-02,4.409681428411067403e-03,2.116145674280221333e-03
9.418781339419009246e-02,1.483312006642228086e-03,1.562920365306778511e-03,1.069127885713578663e-04,5.815519270397844040e-05,4.987721006266398506e-03,2.881351335822231186e-02,2.825279449645079141e-02,4.367693322789984595e-03,1.687136810314628652e-03
9.098267822610379973e-02,1.497728096885758350e-03,1.184067584050260647e-03,1.189961248828726355e-04,2.527707012365403320e-04,6.339584949474870793e-03,4.122001119813303166e-02,2.707462190246644196e-02,4.279934523711699003e-03,1.021111272628660513e-02
8.675584821873925934e-02,1.502252928822917378e-03,2.233272970944541035e-03,1.285094739384726539e-04,1.645669484995586628e-05,1.299933263116627435e-02,1.005186105807766121e-02,4.112097914330530707e-02,4.176497636901105141e-03,1.799874482443437548e-02
8.053359778658460144e-02,1.490965690888324110e-03,2.761187115467380465e-03,1.351992593278939479e-04,8.259779014976504382e-05,1.901950972357896452e-02,3.016182853402104083e-02,5.727505440030069422e-02,3.995812238956393363e-03,2.119954616254245486e-02
6.771275911118579405e-02,1.458686231531788370e-03,1.988595558210948938e-03,1.388800860339437751e-04,1.160072338296357374e-05,1.964886268617029377e-02,4.644804298993763375e-02,6.222572383179245104e-02,3.718321166029607723e-03,1.998806351458845554e-02
4.837919702567668179e-02,1.401122581412736837e-03,9.781576381079023531e-04,1.394393123573874776e-04,5.446857880806394499e-05,1.491211582614190498e-02,4.037057227077667232e-02,5.305068752186096331e-02,3.370634945479485892e-03,1.569132918661575796e-02
2.666475838259900130e-02,1.314724963038198854e-03,6.946436059933479464e-04,1.368397788250072349e-04,1.451614085340926312e-05,7.458007762348973016e-03,2.660711841353267243e-02,3.525602534460957338e-02,2.963070500756152630e-03,9.352853530817429456e-03
7.392757597574134941e-03,1.196775998947385931e-03,9.067183852488884966e-04,1.311206434265129752e-04,3.750494386800513571e-06,5.020233122264919357e-05,3.256947439973519043e-03,1.616746613593228812e-02,2.486949213012332183e-03,3.001672160340362449e-03
5.742899137135003967e-03,1.045588428085583981e-03,9.736317586396334026e-04,1.223963647678952358e-04,3.429777364615354250e-05,5.301771794080386777e-03,3.450728947157891829e-02,5.463811869615923383e-04,1.943745711898216353e-03,1.396420253169777023e-03
1.178941521626701225e-02,8.605577062458235086e-04,6.848187678625709601e-04,1.108538559822107620e-04,5.564822715465915710e-05,7.291407918767121160e-03,6.814941995038691080e-02,1.079395651741773057e-02,1.346573847739531999e-03,4.085969680459285332e-03
1.488573380312986291e-02,6.421245359029083060e-04,3.665370791998047049e-04,9.674785993337776165e-05,6.969786822581058936e-05,7.364325060660975933e-03,6.794685729057710344e-02,1.909501820445496864e-02,7.063542348411265461e-04,5.981641054168377464e-03
2.259957282722695887e-02,3.917651002623147001e-04,5.728458989910418684e-04,8.039466509603082438e-05,9.560607029248216796e-05,7.205984306651364371e-03,3.043872662552564445e-02,2.441632516027202743e-02,3.068633792302835617e-05,6.439733827892576978e-03
3.481563987574817082e-02,1.119844425945550580e-04,1.308527506204714081e-03,6.216431900626398727e-05,1.137001787363103514e-04,6.542732973251881752e-03,1.223965937842634057e-02,2.536664286430106302e-02,6.700060857360829554e-04,4.877336753260492520e-03
3.500523567173276229e-02,1.937417124409209423e-04,1.701798971770613006e-03,4.247152977913743659e-05,1.221723345290344736e-04,4.769918292800292420e-03,2.580535143783666344e-02,2.199172674515091630e-02,1.382236252906966648e-03,2.610040767679186816e-03
5.413030591870303734e-03,5.210641732518155739e-04,1.158005917011639945e-03,2.176550340141878174e-05,1.690016274436024221e-04,3.243249364482328565e-03,7.077822291129209388e-03,1.738229369917104056e-02,2.092731153172098721e-03,1.366946458741756781e-03
4.613250168595522949e-02,8.648681705101131639e-04,3.179644009594474003e-04,5.189731331445795017e-07,2.385572800169539597e-04,3.689928150213550671e-03,2.238210536699505177e-02,1.524485347940189410e-02,2.789013165710145601e-03,1.776692302551938652e-03
8.934581477647705883e-02,1.219394008260568825e-03,4.742221221609613062e-05,2.078336742447369674e-05,2.223132783718096501e-04,5.514176131667346270e-03,4.662641512094697904e-02,1.606689207648334672e-02,3.458319640418510820e-03,3.705495056063133359e-03
1.047180976103872785e-01,1.578379602506035928e-03,2.119174878675152097e-04,4.165675613698969359e-05,1.576071941668055016e-04,6.420512563975091201e-03,6.625128676364988589e-02,1.692953582192974205e-02,4.087770191309652267e-03,6.253555611818327822e-03
9.880511151910470469e-02,1.935219215858126687e-03,2.071165224105624820e-04,6.162815746235848703e-05,2.796931624710009205e-04,5.019703023802196684e-03,7.986373317588213450e-02,1.520810726218848469e-02,4.665322344165785673e-03,7.818253150671378854e-03
8.578053773706181828e-02,2.283128694295391298e-03,1.667706050435032589e-05,8.024764134542502938e-05,5.181565437048412173e-04,1.896992760173251726e-03,7.223536914238445905e-02,1.121619331060764828e-02,5.180136453897507369e-03,7.560157107384940858e-03
7.044424224759876507e-02,2.615314007798360575e-03,1.108218796118887401e-04,9.709934637763527354e-05,3.232934193910614261e-04,1.247724616330111481e-03,3.586760486701933565e-02,7.743539874593636900e-03,5.622537560214919093e-03,5.886759202150109241e-03
5.229120238037275603e-02,2.925141598514442460e-03,7.472627105595817162e-05,1.118118323094602752e-04,4.225731354672609789e-04,2.999039564132123178e-03,7.162353276392625576e-03,7.991367986705400633e-03,5.984212326955567693e-03,2.921964001257774685e-03
3.305642152836300168e-02,3.206305915129356848e-03,2.611849559677177179e-04,1.240669752638639037e-04,8.793233596015587053e-04,3.218458914414227493e-03,2.662432297746629428e-02,1.267572797852270505e-02,6.258552002063054280e-03,1.616509863673113844e-03
1.498942942058871693e-02,3.452988722535677273e-03,6.238482159937694003e-04,1.336070188149012666e-04,4.231970674090740304e-04,2.632299284829866561e-03,1.949448674220797054e-02,1.919838863326151987e-02,6.440833646972875422e-03,6.273763389068107502e-03
1.692063251419084063e-03,3.660006423174756891e-03,5.467183985735452273e-04,1.402408758811973224e-04,3.691945430605875905e-04,1.358228381774150440e-03,3.200201292258036088e-03,2.487867259687047417e-02,6.528271044842738451e-03,7.752504457786758493e-03
1.593421185684545591e-02,3.822942353023343811e-03,1.094745101722849269e-04,1.438499270311941706e-04,6.602579269717529691e-04,1.030938744141657272e-03,1.353711862693579397e-02,2.862773752829134849e-02,6.520074716862703582e-03,4.490737616626399101e-03
2.440512924912308090e-02,3.938260723974739384e-03,4.501517796512488688e-04,1.443904830838997242e-04,4.415846641061062271e-04,3.755306414568706109e-03,3.063327558018068275e-02,2.859915382967865086e-02,6.417504580336239224e-03,9.062076799783261609e-04
2.593706227132357156e-02,4.003399134460437075e-03,1.775246550647760805e-04,1.418919350073817955e-04,2.032258481712779965e-04,4.992181785734974529e-03,4.228633704675122118e-02,2.299875508437234511e-02,6.223847973568477805e-03,4.485947353666613034e-03
2.449228442415505094e-02,4.016837411288214088e-03,1.117349598438343488e-03,1.364563658465939278e-04,2.943729349642724459e-04,4.346843670280419250e-03,4.578358948492159547e-02,1.457908893592511565e-02,5.944329864944004373e-03,5.587053604158401937e-03
