3.143962564888463842e-03,4.062544636382467954e-03,5.124263541534570220e-03,3.565519244917588447e-03,1.961675666545093389e-03,7.123795964895880684e-03,8.607714933772528734e-03,5.245227019831759374e-03,1.989139063234476867e-02,3.144958608022805358e-01
3.480652583524193686e-03,3.973586196721562089e-03,6.251917632459151955e-03,4.025901188214420744e-03,1.475692717672985946e-03,2.367470586974159893e-02,6.879053592768351322e-02,2.421635054812413396e-03,2.393327036830768598e-02,2.919693075346566635e-01
2.303337979681035000e-03,3.831942460540026327e-03,6.990749498086852240e-03,4.611219715468981538e-03,6.762508935607924009e-04,3.573007048955505888e-02,1.272654734474323035e-01,9.874354364306630119e-03,2.830245434274145794e-02,2.272135417127125190e-01
3.331023635836237624e-04,3.632150521618350732e-03,7.734577899729039828e-03,5.183331362998424945e-03,4.315512864524116113e-04,3.926748702028674126e-02,1.511708910034286479e-01,1.528707701524717813e-02,3.293939144855059092e-02,1.339049691650086582e-01
3.056279174209728527e-03,3.369286846127266324e-03,8.654087731648765422e-03,5.605088694553994437e-03,6.187623036672362364e-04,3.600926051321545057e-02,1.530665800249685626e-01,1.823759787807083255e-02,3.774991197967288159e-02,4.857530717832507505e-02
4.694389419784418364e-03,3.039332554688204280e-03,9.527581815056002101e-03,6.156093153475365731e-03,6.772843269299181441e-04,2.948189567268894029e-02,1.442700657563504296e-01,1.812364591681497189e-02,4.289365438768765609e-02,6.314721730258075066e-03
4.626549869196481916e-03,2.639078253394084358e-03,1.058128564833102012e-02,7.143950524074242810e-03,5.377718716046230420e-04,2.206977950185072535e-02,1.224662561231414787e-01,1.410647937580593314e-02,4.854936391160302733e-02,2.355197117976181448e-02
3.063999477410094072e-03,2.165625995312094477e-03,1.166332560289178380e-02,7.913057148589263540e-03,4.369735081377380012e-04,1.457963826076247305e-02,8.646237918351132312e-02,7.045427479168824350e-03,5.345248097328895304e-02,9.603289319069222008e-02
2.154180308755027518e-03,1.616814240557176013e-03,1.098068557429774696e-02,7.190010924795197170e-03,4.159749079595914624e-04,7.146572568949079163e-03,4.792024880649739527e-02,3.191244549760195899e-04,5.352403356040916910e-02,1.891829337255746812e-01
4.419717890336362018e-03,9.924715043111570489e-04,7.032887029547680961e-03,4.801153803837553656e-03,3.755030546677627342e-04,3.790366716763407615e-04,2.123755303639538947e-02,3.211907867208513290e-03,4.413830856453069412e-02,2.391366509195604062e-01
8.893698229263311689e-03,2.936600873276387766e-04,1.402460778010989955e-03,2.036199158441709227e-03,2.918371548288698088e-04,4.824267401148869469e-03,5.961403472056654718e-03,5.200564791941190979e-03,2.651241862028638763e-02,2.116042954537530885e-01
1.168338869527057663e-02,4.799658821487149730e-04,2.177800472393764866e-03,2.581046884284148002e-04,1.897158257659900874e-04,8.377279604675639049e-03,1.133537944769003394e-02,9.672825101468364439e-03,1.054395741179009818e-02,1.569374103378519680e-01
1.121010818082456180e-02,1.328624208067616993e-03,1.069186546739448601e-03,2.979763356450394664e-04,8.675233364662620868e-05,1.029062113818949784e-02,3.390079215390983530e-02,1.645116327812729332e-02,7.022680016600713754e-03,1.413822442931040868e-01
9.769667943812700844e-03,2.246797216561370429e-03,3.994259946981626799e-03,2.382541062320709530e-03,1.778209935177061220e-05,8.819284915856605983e-03,4.301061726956363629e-02,2.078097294260434352e-02,1.680298570324581867e-02,1.293822307208209454e-01
9.574166862705846270e-03,3.226504506241690325e-03,8.181412560203925669e-03,4.774347228405922614e-03,3.641415758303877487e-05,2.130732013262596949e-03,2.146897726653809735e-02,2.003492541781365030e-02,3.078420366335385405e-02,2.956927033535520360e-02
1.033565471718815923e-02,4.269561990992379145e-03,5.315230863099529128e-03,3.709866013447582055e-03,1.931544049153611565e-04,7.352199367421940329e-03,1.634737115473870045e-02,1.655009712272681108e-02,3.940745498965315952e-02,1.429771274727023589e-01
1.082371484335678709e-02,5.381166047439248437e-03,5.530207528238755346e-03,2.783588259175948099e-03,4.312866489405706226e-04,1.347626901954080900e-02,3.746333863985909507e-02,1.334332635539534594e-02,3.919174193632141839e-02,2.757558604568150495e-01
1.026807203514330802e-02,6.543848177092352614e-03,1.727091150542251277e-02,1.169695841109671605e-02,4.401086657878621063e-04,1.255489890852258365e-02,3.446230162110264228e-02,1.109489889794768730e-02,3.324998246238115157e-02,3.361755933452586498e-01
8.193551479369978047e-03,7.730841854315411397e-03,2.186916666887198796e-02,1.778844192776929053e-02,7.186325768519917720e-06,6.749391212754458566e-03,3.289866995150447088e-02,9.650344188248118418e-03,2.966033704239487076e-02,3.995678035474152234e-01
4.592945416068782913e-03,8.962432373720611092e-03,1.950868567667617820e-02,1.934867318940282008e-02,5.736849315777879784e-04,1.218717238020368627e-03,4.904673249128536222e-02,8.179037410922341406e-03,3.481574713589997289e-02,4.946213384382640021e-01
5.413433580790504712e-04,1.027928237787129745e-02,1.792581149412898062e-02,1.962296688998963617e-02,7.407917785223783755e-04,1.135062480063778927e-04,6.611987287425244442e-02,3.931690425797230645e-03,4.332894370733751666e-02,5.566950685260843024e-01
2.203310879581250707e-03,1.162180832012993381e-02,2.233622996787082426e-02,2.200310285970100491e-02,2.384848155946180082e-04,2.864506639001156846e-03,6.302556952003503243e-02,4.145215285205555190e-03,4.045685664762738165e-02,5.415920166507668387e-01
2.790652085825465895e-03,1.288441987172901301e-02,2.899337888203709981e-02,2.526471159629016527e-02,6.015964293491533757e-04,6.266037776125412545e-03,4.501187950164765861e-02,1.159384052585174171e-02,2.006756517402888407e-02,4.826350026510034530e-01
2.280387022406665104e-03,1.417497920649307165e-02,3.107615851938698784e-02,2.531767283317651329e-02,1.211371523337488078e-03,6.028834369920320346e-03,3.190393496812402724e-02,1.426809876158094056e-02,6.122616700445009282e-03,4.286153707526453860e-01
2.452649340307251451e-03,1.570614511807077313e-02,2.766563026041151882e-02,2.083829728337428105e-02,1.499179217876844177e-03,2.507065144366148104e-03,2.894727229167951693e-02,1.554654937212986143e-02,2.097876669994750559e-02,3.856297696784935503e-01
3.883813303094684182e-03,1.723827639237437287e-02,2.203777820808695484e-02,1.471647801618943159e-02,1.785058801544580883e-03,7.585826853742414595e-04,2.363783157290104409e-02,2.061820207437016148e-02,1.662370920062203675e-02,3.290722872322766057e-01
5.865397775455771269e-03,1.829631194516617362e-02,1.427118195185348576e-02,9.927112115304977460e-03,1.901596166079943607e-03,2.078062333905600530e-03,7.715181997848571775e-03,2.722945950951102465e-02,4.182630165955415757e-03,2.514889845530690060e-01
7.417325701410435596e-03,1.937562552463887103e-02,2.459467218361541425e-03,6.340015164361801139e-03,1.307011793040695029e-03,2.507323419452047418e-03,8.860891456985459103e-03,3.004665012533522250e-02,3.206559288050642165e-02,1.878685186049718070e-01
7.532192017420884234e-03,2.154444097074509692e-02,1.009923572022168765e-02,2.813857686578831452e-03,2.929462205825526951e-04,3.033673542501034732e-03,8.618533274951422143e-03,2.998587171135252624e-02,5.468421717797616183e-02,1.837557763252584409e-01
5.752924882752740235e-03,2.367943423762186930e-02,1.514338208006208580e-02,1.365819168021175202e-03,2.197922871695522020e-04,4.029606464039391794e-03,1.248948323777606360e-02,3.110104585563491092e-02,6.430237702249898268e-02,2.341439371835489225e-01
3.490079922838293294e-03,2.227595670329371447e-02,7.849568239088052651e-03,6.769504064405139181e-03,3.725815682728476452e-04,6.073934270398341322e-03,3.785627698084094439e-02,3.226395763702588626e-02,6.420754742658359160e-02,2.681959975005010488e-01
3.211530874456610188e-03,1.633711339067498228e-02,7.534736080080555246e-03,2.007580145315353629e-02,1.355366938021191313e-03,8.682027292851775963e-03,4.607520511494318100e-02,2.946618520481489659e-02,6.329585729773154479e-02,2.111631863422032407e-01
5.399954950965690954e-03,9.960480486936075517e-03,2.129260855507882771e-02,3.435448097338408141e-02,3.092204076666933091e-03,9.725921765505430097e-03,3.258305602329860523e-02,2.340963641441880239e-02,6.369644758750300784e-02,5.850469075110419775e-02
7.787230947229455483e-03,7.033460404682379680e-03,2.687552342358983173e-02,4.054520803281523589e-02,3.452683842250418508e-03,7.939086850968887082e-03,1.060012381051796820e-02,1.886232086355369916e-02,5.824431847771666115e-02,1.245112095791558182e-01
8.339442893850612312e-03,6.239343976213224466e-03,2.479015560696007370e-02,3.661936805538023448e-02,1.033308171553390343e-03,4.628680819123667800e-03,7.630713031583416343e-03,1.777348782769313379e-02,4.466396983258324321e-02,2.733313239838389141e-01
7.534640160293908789e-03,5.059783633630349567e-03,1.799449173510035693e-02,2.735998324640570231e-02,2.486385591605433289e-03,2.139835375689771915e-03,2.286227085776727092e-02,1.653736767914948044e-02,3.960035314111042676e-02,3.802127474520505812e-01
6.657835239443226499e-03,5.734629727967323343e-03,7.336382354303228048e-03,1.695275692719452193e-02,4.411969447437830670e-03,1.920553568994359198e-03,4.218540477482574103e-02,1.022861323909604950e-02,6.300227217084844455e-02,4.788068087412707952e-01
5.122420967986480826e-03,1.204805557891683310e-02,5.402574393305928022e-03,6.585931705785699579e-03,4.402784586778074778e-03,3.779484581147142183e-03,6.728138189834384497e-02,1.691215150377180579e-03,9.939499617632376050e-02,5.755205128618702259e-01
1.427488104906164462e-03,2.109707318869500497e-02,1.431406268949395044e-02,2.220306230623646064e-03,4.105390818182402465e-03,5.704403227222869244e-03,9.153412558322034098e-02,1.495505341334005429e-02,9.744919352967532089e-02,6.077228965475842681e-01
3.441567747482528108e-03,2.370229707420535778e-02,1.478548162348594132e-02,7.358045633377523730e-03,4.496307103777134190e-03,5.598773709444424679e-03,1.060538515889161565e-01,2.576887232529831429e-02,3.033729051371994792e-02,5.115078170047492323e-01
5.922996207361856669e-03,1.482501517428629068e-02,9.306941824207600605e-03,9.057906853207359915e-03,5.137998004141050741e-03,4.302248792217550945e-03,1.074608950631441157e-01,3.395799224139670752e-02,6.747596733489237553e-02,3.384997308339771638e-01
4.299602155556636607e-03,1.253273265434511671e-03,3.166582950454792378e-03,9.469040289254590514e-03,5.332389894385858656e-03,4.844774611705825358e-03,1.010942191266393925e-01,3.870508096774533113e-02,1.486097765077469546e-01,2.323381993534139045e-01
1.241309314229962265e-03,1.887848045910841752e-02,2.457125012010581873e-03,9.902343424143356804e-03,4.867310237180269908e-03,7.863380843005189635e-03,9.620592514113919524e-02,3.435215385932265802e-02,2.066656696756507539e-01,2.534163202637068624e-01
1.707312911943460092e-04,3.712035530827339364e-02,8.763928898582932711e-03,1.059952411239317369e-02,3.733859251043754757e-03,1.037170551964846851e-02,9.596774853624653878e-02,1.624311013296403719e-02,2.527228765525166843e-01,2.977558977833522635e-01
1.011908825114861150e-03,5.301690818338762601e-02,1.373121645544512874e-02,1.182487527132659866e-02,1.806058531935778554e-03,9.913161430582091010e-03,9.478698922837502927e-02,9.430379844277372858e-03,2.730608151188084198e-01,2.387214758685379246e-01
1.808596194023890042e-03,5.754495336855910970e-02,1.269919026406746664e-02,1.384961071961544887e-02,4.595565670067696231e-04,7.433007560677481161e-03,8.870185171520497680e-02,2.769527149609820466e-02,2.471772290338073996e-01,9.817121087467549356e-02
2.344108695097277609e-03,4.593565686639018014e-02,3.859887354731871695e-03,1.698096664859176028e-02,1.479900849487202292e-03,5.217741556038532624e-03,8.091036931838606339e-02,2.895139976897888323e-02,1.848581821870202424e-01,9.849373173704370141e-03
3.217646316938261013e-03,2.570159688776563200e-02,9.127309388706535825e-03,2.141321757940778392e-02,3.742422653475720390e-04,4.125674681684507634e-03,7.197123979919341219e-02,1.742608419123951868e-02,1.145320759971608510e-01,2.034386429348000389e-02
3.255219389744473842e-03,8.423753174070298944e-03,2.025695180811303009e-02,2.602581024898419429e-02,1.150970833322716678e-03,3.877469191686507520e-03,5.795538941852758363e-02,4.194446864231176318e-03,5.071136472086894970e-02,1.648183919197799066e-02
7.953164501831669082e-04,1.950921339864056378e-03,2.665657879832995097e-02,2.884808981044032286e-02,1.037979700332757136e-03,4.514825424000535291e-03,4.310174242656457377e-02,4.499511279489928038e-03,2.191837248837391963e-03,9.437427789576585679e-02
3.585081202685643821e-03,8.048694727025129669e-03,3.077315845127468960e-02,2.990302178897513707e-02,2.265237262389282742e-04,6.051673160977729879e-03,3.487712369005528668e-02,9.347284227565720582e-03,2.846720600697791662e-02,2.296733319335951540e-01
7.523118247331919348e-03,9.921371336304187633e-03,3.596724345426908359e-02,3.139713449998221551e-02,1.104914566387886921e-03,7.230755935548830414e-03,2.546446659990919681e-02,1.166151422014191121e-02,1.347883630909281830e-02,2.602291326353998180e-01
9.269302134684324554e-03,3.623642994390541099e-03,3.989056461106580548e-02,3.344635091121431203e-02,3.346679712432603770e-03,6.150007347307537633e-03,3.913683499500824649e-03,1.066833115776964942e-02,2.654826948441883078e-02,2.020905199871944891e-01
8.866729885016064183e-03,1.086109514685611004e-02,3.550949199419856095e-02,3.207063742496667896e-02,3.981301520504159329e-03,2.492094390564386207e-03,1.673576966177332120e-02,7.412364223379656197e-03,5.460776705828266492e-02,1.628922860827145547e-01
7.657871752946905468e-03,2.631009985702846207e-02,2.102605390492219561e-02,2.438792188206643716e-02,1.500931795677402491e-03,1.417597793285206662e-03,1.404584657730021877e-02,6.155438528380393313e-03,5.455123300037079126e-02,1.780854265922302004e-01
6.923449507114841361e-03,3.461932544464942779e-02,5.195384162408621213e-03,1.402612235488929701e-02,2.331893835764905880e-03,2.164646742799888977e-03,8.772956675271600946e-03,9.835127472136774920e-03,4.003513649838601890e-02,2.060156233358202416e-01
6.849184438703774178e-03,3.295591362532002827e-02,1.341546207665053657e-03,7.466224197117755750e-03,5.202763150507782458e-03,1.315843433826555976e-03,2.976396125633364378e-02,1.689008838015091177e-02,2.278401488890990922e-02,2.203922118457285750e-01
6.953702313721152328e-03,2.347745425868634842e-02,2.778192980767763085e-03,6.262990311165604965e-03,6.820513257911354869e-03,5.587637563153235315e-03,3.921660800992925189e-02,2.313162529369821793e-02,2.331488347530814506e-03,2.269220201076079524e-01
7.017809427481430315e-03,9.665192693303016960e-03,1.072531961638780590e-02,7.175198201951419816e-03,7.790605761438617813e-03,5.869309825950454369e-03,4.129328109722277262e-02,2.503361863863277567e-02,3.728343400357268106e-02,2.289027485947936480e-01
6.896369616330368969e-03,5.582180298427268095e-03,1.609708476514594422e-02,8.514656476350131870e-03,7.792839492854466629e-03,2.085732650533725276e-03,3.931436462821597672e-02,2.262127925740689202e-02,6.851250855850976595e-02,2.257067519834523306e-01
6.098217955323500389e-03,1.787858884058905751e-02,1.733325186725600403e-02,1.155530817185139968e-02,6.465369586207143915e-03,6.860753713700668260e-04,3.869801888198168283e-02,2.074090937205664079e-02,8.085277288304713872e-02,2.190868092527203659e-01
4.564824458679601557e-03,2.120628384374657893e-02,1.742228261363541406e-02,1.654213142076131279e-02,4.563348683414424935e-03,1.471648384438037924e-03,5.192041948700364812e-02,2.463723411336259800e-02,7.151579532232854586e-02,1.897771842160098366e-01
3.390058954829892716e-03,1.463335771299384414e-02,2.070699680313074081e-02,2.116231560009656371e-02,2.934848380125801813e-03,7.159516143453372762e-03,8.303097917721118104e-02,3.235773655152531653e-02,4.975710124546153801e-02,1.014098402112550562e-01
3.607812830620965409e-03,5.214125266308580232e-03,2.635125907498015591e-02,2.258705408399584030e-02,1.916866856618243929e-03,1.209295598075967211e-02,1.123121237616357682e-01,3.440178127960512311e-02,2.856965930189064168e-02,2.910108147587957272e-02
4.201822329027907373e-03,1.287827211539493890e-03,2.674292046186251340e-02,1.953835521504754952e-02,1.995821186502965468e-03,1.343330896698444014e-02,1.129134971442226909e-01,2.312935906656448867e-02,1.176445652907835010e-02,1.104446234043616748e-01
2.620282387717201480e-03,6.817178416305213519e-03,1.729333809768884844e-02,1.384179146489463927e-02,2.929584596489284015e-03,1.197045211454395540e-02,8.711814020797600810e-02,1.673832607201418583e-03,9.398781041895497637e-03,9.247643256327044148e-02
1.769388549400538729e-03,1.291202597708722422e-02,4.471193095111591388e-03,1.014351939404564869e-02,2.947689728303891019e-03,1.121728000677037554e-02,6.873417428035669130e-02,1.768500735990717609e-02,3.692013947868946766e-02,4.793861235800963433e-02
5.967173690964791555e-03,1.458716891280940030e-02,1.647077871785597534e-03,1.153887204349132549e-02,1.003871484134215937e-03,1.326914560360846831e-02,7.674203958136853465e-02,2.472148639785074625e-02,5.329177801620497285e-02,6.425766560284645879e-02
6.783005736140602406e-03,8.898527735781616016e-03,6.462243279456128704e-04,1.583582873297587762e-02,1.838807332076649410e-03,1.573381981422316417e-02,8.695622061386003299e-02,2.007805922503801827e-02,4.332819023272634767e-02,1.273692339507746796e-01
4.967321693695265529e-03,1.315791434335681536e-03,5.841152478403631443e-03,1.907645607762255974e-02,4.634692161769563175e-03,1.482121480106260089e-02,6.857359844598939769e-02,1.150097511925499139e-02,1.558796992686211670e-02,1.810679881945117531e-01
3.899035053187247489e-03,2.757036361210148633e-03,1.115667772966741876e-02,2.131284707002689335e-02,7.528017872730767557e-03,1.028500444214024319e-02,2.573771876601511216e-02,4.106017769586927171e-03,1.277035905172009198e-02,2.097045910329289609e-01
4.973343071950812357e-03,5.555050673433697440e-03,1.877030519225589625e-02,2.480027222480979052e-02,9.996134829291306034e-03,4.775839420253118368e-03,1.728829769432058128e-02,9.597706514525123581e-04,3.746287214300685064e-02,2.127437340399867260e-01
6.477970015055929155e-03,1.133887993980365640e-02,2.840331168370343121e-02,2.818252362177307152e-02,1.105389440495584824e-02,1.021222715093407897e-04,4.832856506851474637e-02,8.906929358094380815e-04,6.070381566696202158e-02,1.911052632365286275e-01
6.840189137423409449e-03,1.949985808879341545e-02,3.321635102093128955e-02,2.735949948353498182e-02,1.104709305678113623e-02,3.484041589308904847e-03,6.859447262133175349e-02,8.051550660379941035e-03,7.708478042778912909e-02,1.804344893115426007e-01
6.764010529521625320e-03,2.598696721950304045e-02,2.553833876895266267e-02,2.076160493083253900e-02,1.070615388354087365e-02,5.954769474711331390e-03,8.183258418955750846e-02,2.343816161874457890e-02,7.653160908543020502e-02,2.242829846181575992e-01
7.361686931670307840e-03,2.607069251133617427e-02,4.910545489779004347e-03,9.846407623308316148e-03,9.148253295974771021e-03,6.880551924216903037e-03,8.983741220825457174e-02,3.644139982698502839e-02,5.487258150839470494e-02,3.195865759713836241e-01
8.185984074079284689e-03,1.556701721724347565e-02,1.975008143476800204e-02,2.999294529763806179e-03,5.227873280298607310e-03,5.501172988378283217e-03,8.945140838864522326e-02,4.113438046628572348e-02,1.888289093602801491e-02,4.254523055816045729e-01
8.679508873551193895e-03,4.146742445147582994e-03,3.535248685419125486e-02,1.359602945535037452e-02,4.163945443515850190e-04,2.022905390639282829e-03,7.896572670153155504e-02,4.067245982346591460e-02,1.733032654303160933e-02,4.981693959943070404e-01
9.613585457281798377e-03,2.314058330852272055e-02,3.509410517135865687e-02,1.694591301345788059e-02,1.866338374830081841e-03,1.658965379118304551e-03,6.495923495625530175e-02,4.157920988913725580e-02,4.495252552257082701e-02,5.158232941396939664e-01
1.114094848070123871e-02,3.127580277634951778e-02,2.475341555663543650e-02,1.248178069479844582e-02,3.081922068691636107e-04,4.885452390204236307e-03,4.996162870690320362e-02,4.352381459508586348e-02,6.583934557925455455e-02,4.997543402711344118e-01
1.150891923148847883e-02,2.754704649718821285e-02,1.396362314130166968e-02,4.344385809309013989e-03,2.145281172742882249e-03,9.345326455924816283e-03,3.138207526425592503e-02,3.993941700501565245e-02,7.817307764124611924e-02,4.744174420529528313e-01
9.482342736518194898e-03,1.667884589621991889e-02,3.022969747944064672e-03,5.118125547664453996e-03,1.294811964957785864e-03,1.286397402250291470e-02,2.989446972908369263e-02,3.086866011697636872e-02,6.977543020706789001e-02,3.847410529891886477e-01
5.831503292011195640e-03,2.236637963060315176e-03,1.221571176901209942e-02,1.543739965369817814e-02,3.460223729579964703e-03,6.747517250407052483e-03,8.304787398637350493e-02,2.696208990589492663e-02,3.913610358134039791e-02,1.449537058770103137e-01
1.644072726123526652e-03,1.175531316999330576e-02,2.518994330183312036e-02,2.002965947598903812e-02,8.707297693318103576e-03,1.345760927151038247e-02,1.840588857188907024e-01,3.360839752920510848e-02,7.678334381531087306e-03,1.971295801111471180e-01
2.183527768299040918e-03,1.994174508571246521e-02,2.352451626409678836e-02,8.688620137242392127e-03,1.135042843773359338e-02,3.870917850787373993e-02,2.668422683410809904e-01,4.049915056633639904e-02,4.988763366529494481e-03,4.555255405091888088e-01
4.017676640167493207e-03,2.224545827683125504e-02,8.831591207979274175e-03,1.676072783277119185e-02,1.110333568865425058e-02,5.513840224229317466e-02,2.793239267227919376e-01,3.664737412618682133e-02,4.509973137530756335e-03,5.041943369671295638e-01
3.003596037027350674e-03,2.438444829872409014e-02,4.810992252878247902e-03,4.002445012597334595e-02,8.868755049863820406e-03,5.820987760164356845e-02,2.357143781630585966e-01,2.604012262617939888e-02,6.450926332840056787e-03,3.982387576596777556e-01
8.875113523551316245e-04,2.777312031541316270e-02,1.238760001740776655e-02,4.978931181962961694e-02,5.752937255233042668e-03,5.284736218093707971e-02,1.807059133361276215e-01,1.861416924103886580e-02,1.245063024985976208e-02,2.959564458192495695e-01
1.191609564391243967e-05,2.668786402497592969e-02,2.121072863622519566e-02,5.094440036048374781e-02,3.507246706952832967e-03,4.425693439181164340e-02,1.397383602273670200e-01,1.476575215763725746e-02,1.750208422797190633e-02,3.139417885928247332e-01
4.889407742496095118e-04,1.911061689635576433e-02,3.257139617214741684e-02,5.091827713727102578e-02,2.931823314963187110e-03,3.421496292419579088e-02,1.143598045840187316e-01,7.707276526192909441e-03,2.755721034533487740e-02,4.297514909829453500e-01
8.696564278838769943e-04,1.273295150494140743e-02,3.687469967017048544e-02,4.716847195079563321e-02,2.462650224406987172e-03,2.338370082457220597e-02,9.439249938462822287e-02,4.935201826621868348e-03,5.201843723718099777e-02,5.069857223390841217e-01
2.827632565212159473e-04,1.501313015586096429e-02,2.994905780124613656e-02,3.613605730517233799e-02,7.056531567868223366e-04,1.271465539560962324e-02,6.613532544683478620e-02,1.904655423299634817e-02,8.440998754784324876e-02,4.506755678758569972e-01
1.209491239886056804e-03,2.190799295494990848e-02,2.157332878540495560e-02,2.452901628715867255e-02,1.179096567587062123e-03,2.927402009806766899e-03,2.436598457553890151e-02,3.163879134987554465e-02,1.032258182975883398e-01,3.048124001181726772e-01
3.018349563870257810e-03,2.254888528008097345e-02,2.279059265733031012e-02,2.196701897001451104e-02,1.750130757109289673e-03,5.519958788522259796e-03,2.178769492550334391e-02,4.504821503588023190e-02,9.458842071591626322e-02,1.638466232617797336e-01
3.842350366943695066e-03,1.324434547382631958e-02,3.211786222040272087e-02,2.763862317247385916e-02,1.769784078222363423e-03,1.171217251828524965e-02,5.782648417333303287e-02,5.999424741240218240e-02,7.097938826852785710e-02,7.328341647389084723e-02
2.447660258396704581e-03,9.770999617510466853e-05,4.018359470291688745e-02,3.308906341659269279e-02,2.195283175248262646e-03,1.467595304225344580e-02,7.428063796006484365e-02,6.745105313978702610e-02,5.940421802529236017e-02,5.031957284101794270e-02
3.332365970691645554e-04,1.245126233163991979e-02,4.347877604795497702e-02,3.553340713874027224e-02,1.934580880332131825e-03,1.531809903877435000e-02,6.943045932088866279e-02,5.627782078835705942e-02,6.580458690442059222e-02,9.713650231451836925e-02
1.658344394394064246e-03,2.364289110872715149e-02,4.542982711101063720e-02,3.933687218468438773e-02,2.144845505338873327e-04,1.635522269133576553e-02,4.703948799077806164e-02,3.001866300167892188e-02,6.390977411865547686e-02,1.706556120935079357e-01
9.724409065413927144e-05,3.116463837767686346e-02,4.593499676362439166e-02,4.489647463953099632e-02,3.310165987941090376e-03,1.885262561530324718e-02,1.274095349510272375e-02,5.439353417774349039e-03,3.327452649810145463e-02,2.254224086420509032e-01
3.068830310167205977e-03,2.774117988652959055e-02,3.904588176571503755e-02,4.532572618141361004e-02,5.503527580053450829e-03,2.094199927978256798e-02,2.528937986703169716e-02,7.809332108733578123e-03,4.622502249199154922e-03,2.745583557462181190e-01
3.833484731606764170e-03,1.020228115910122753e-02,2.138383116904496797e-02,3.647513908437514246e-02,6.131786773415972072e-03,2.093153909650146902e-02,5.389921944876331639e-02,1.412493144061519913e-02,1.046079437015027744e-02,3.448047513632669370e-01
1.073965343941993451e-03,1.217442403408152893e-02,2.371715704632960855e-03,2.404581003583364587e-02,6.264912849205737932e-03,1.843894064459525306e-02,6.317385194865239584e-02,1.791410525819113128e-02,1.841677049883314043e-02,4.183179739105272743e-01
3.378447293363020642e-03,2.230334466313205893e-02,2.023406680432785626e-02,1.778942931313904491e-02,8.027852724586830024e-03,1.227839154257412760e-02,5.789254750282907258e-02,1.711702660056566710e-02,4.098832211220021504e-02,4.656541718953123299e-01
6.865468885956736364e-03,1.079686199804442796e-02,1.841459355689105404e-02,2.109385108570999492e-02,1.234317839724040008e-02,1.822833350106285158e-03,4.904140088737660164e-02,1.193438467874769968e-02,2.236355747624891449e-02,4.727413602290955197e-01
8.474296212461727984e-03,1.390376616770372734e-02,5.869960207087754518e-03,2.827744197088382511e-02,1.681240197408716275e-02,9.257356635389714372e-03,3.497208742808411569e-02,6.564188710732977126e-03,2.793628598225207302e-02,4.176772985621001189e-01
9.014053081251915955e-03,3.297127146765386346e-02,3.621402064891836997e-02,3.139043114183708710e-02,1.757647179709236063e-02,1.505479762659784129e-02,6.915754301708724495e-03,1.599297814929612465e-03,7.246352752867310509e-02,3.025749924627968435e-01
9.279252146060155276e-03,3.447663044940485477e-02,5.047239350674327663e-02,2.727529385582359162e-02,1.361256038677595773e-02,1.395001761182893332e-02,2.609191706916618933e-02,4.915381777798883377e-03,8.506866598207989127e-02,2.025423947712000905e-01
9.235032741984686155e-03,2.207159059907439977e-02,4.247560645573190963e-02,1.786595774861886310e-02,7.559256001513907364e-03,1.058145158999326992e-02,3.583836712780443662e-02,1.050990176297128889e-02,6.630787153964352865e-02,1.922200784132838680e-01
8.427405938537826241e-03,7.411736651701270572e-03,2.407367564861019257e-02,7.513971918532499558e-03,2.284776344041132903e-03,1.074500440759554309e-02,6.555284046469332486e-03,1.092048527010202469e-02,3.300401549180975724e-02,2.394602673251165492e-01
6.409156023350951435e-03,2.663651903158662827e-03,9.367084842644273282e-03,1.225387582967337689e-03,1.712358099833186835e-03,1.504708167982551741e-02,4.186042557049993867e-02,7.134802151982050193e-03,4.702856960782420687e-03,2.464823824791279594e-01
3.219439528248615578e-03,8.580164738101778849e-03,3.745471117321483474e-03,1.237882749127345271e-03,5.109712653088082507e-03,1.840824058623732537e-02,7.122644646350882736e-02,3.424035232208850425e-03,5.525220177101297994e-03,1.689924235268347175e-01
1.073519625353655895e-04,1.064576188490880607e-02,4.531380951560391029e-03,3.962631474256393151e-03,7.478194192089605147e-03,1.632425285903860851e-02,6.270715933577865331e-02,1.250506276291376249e-03,8.495362781636891505e-04,4.196615046150709016e-02
2.362308136217346893e-03,6.097696625380507468e-03,5.734575619502613707e-03,3.559750047823511624e-03,7.662764828742439117e-03,1.003115499100020423e-02,2.943264483551451607e-02,2.323558204106676312e-04,9.249430619317405844e-03,7.857462104396416291e-02
3.815027481447435219e-03,5.529530109808200242e-03,3.424893573577460302e-03,1.617671861089147031e-03,6.120313150552957743e-03,3.997458234988026174e-03,6.971453551758289950e-03,2.388032743622522068e-04,9.192328475929949574e-03,1.593520396008161755e-01
5.707535792668310022e-03,1.942349825305959149e-02,1.035789954574509132e-03,8.835582348282281298e-03,5.176331196340233295e-03,2.322707393671692927e-04,3.964207928327510150e-02,3.320076740808660005e-03,5.740491267933385891e-03,1.945522664347153208e-01
7.829047336889376207e-03,2.914649836006628913e-02,4.330883148661997424e-03,1.548404810415715711e-02,6.228869429833472360e-03,2.699216026562568493e-03,6.954427331340273799e-02,1.085339618795441718e-02,5.493936012179556454e-03,1.932074483922960051e-01
8.446709639633769723e-03,3.048841505649084807e-02,6.439630225704918304e-03,2.075201896014492939e-02,8.016450029753700857e-03,6.288224578974968039e-03,8.866835362661140696e-02,2.120239935387358346e-02,2.300402086282247842e-03,1.717699834289676819e-01
7.039218813825227558e-03,2.284339268648422766e-02,9.803894957537606994e-03,2.452039196501283602e-02,8.653145005035058415e-03,1.025529169783532049e-02,8.744930759986253854e-02,3.354230197312642325e-02,9.012399643075125200e-03,1.603055275419566772e-01
5.077950611664903101e-03,9.383809181191362161e-03,1.565780227438354558e-02,2.723704325900382431e-02,8.108179780215486049e-03,1.432590515993863514e-02,7.507755760778986320e-02,4.585179542851910983e-02,1.732636010744702248e-02,1.972529952242293438e-01
3.781955372918850353e-03,5.172863778335413248e-03,2.320357642667711037e-02,2.965793484875677705e-02,7.538750778633439287e-03,1.940783573406260412e-02,7.462319574552372936e-02,5.299676771569766798e-02,1.156294055631765239e-02,2.911793325721986903e-01
3.150043220611036324e-03,1.824859988059235327e-02,2.943838764746739903e-02,3.113610686418359988e-02,7.364804701079689930e-03,2.473848599616475241e-02,9.324297599382683210e-02,5.122434118806513947e-02,2.906566879111757533e-03,3.852323618419679629e-01
3.101735128421280983e-03,2.963453205677401420e-02,2.985891330682461167e-02,2.983606038036784591e-02,7.197265711174010740e-03,2.567103762170579867e-02,1.105261952509727780e-01,4.423848650231885365e-02,1.276181910164152916e-02,3.935916194199863827e-01
3.351714177981805504e-03,3.726219361601589009e-02,2.317971852937952826e-02,2.589725124646439711e-02,6.871925999942346021e-03,1.856586133977227923e-02,1.062471112121730482e-01,4.060411314600939625e-02,4.152444750763818748e-02,3.043488088761671650e-01
2.631978101214396768e-03,3.556760496981944963e-02,1.419392709854865042e-02,2.212305037709822939e-02,6.577094753532287258e-03,7.245488720015301302e-03,8.814969215672180392e-02,4.457909740112697694e-02,6.306940120180004605e-02,2.110460819590523063e-01
1.728773648737188227e-04,2.224063810261064922e-02,8.493673524584232151e-03,2.010211807906970433e-02,6.336717848341988195e-03,3.423444401881411059e-04,7.629038663216143601e-02,5.174705423400340065e-02,5.341464759277071012e-02,1.887214776755364865e-01
2.623968105124432990e-03,5.291315371148416248e-03,6.317496366329878460e-03,1.823079141885553325e-02,6.031971386781039175e-03,1.505233539459970536e-03,7.208445868109154830e-02,5.461875021777488903e-02,1.867336952080883225e-02,1.883790739098591682e-01
3.536460731219034492e-03,2.219006702626731466e-03,4.899717867679388023e-03,1.507525402425689831e-02,5.768856330394154033e-03,3.369527437020410944e-05,6.448605094012299643e-02,5.163402120252484628e-02,9.442062553721550580e-03,1.325572507202597838e-01
2.023334401336815240e-03,4.679797263122118141e-03,4.781587195241032012e-03,1.195110471129268506e-02,5.685887138640977750e-03,1.102248073813492761e-03,5.156475708709732514e-02,4.768843894156683111e-02,5.258649726847169914e-03,4.345439325882521908e-02
5.012084944806820437e-04,1.768351989545078468e-02,8.959849067190382363e-03,1.063687215177864381e-02,5.453912375940409875e-03,1.745574616703326164e-03,3.209937439558471772e-02,4.477039004640638586e-02,2.433563170216990895e-02,2.599547144631155285e-02
2.415829311939719694e-03,2.282526816630665173e-02,1.583345702590338924e-02,1.113065537954226539e-02,4.543242003910639461e-03,2.144392140764206887e-03,2.867272328834715237e-03,3.846303265827843293e-02,4.598894036412869840e-02,9.709360029112534818e-02
3.061334018283274391e-03,1.361599526007873859e-02,1.941761671011270687e-02,1.308092656020772536e-02,3.061498163987406724e-03,2.066115875327408091e-03,4.588528397533696290e-02,2.838551554563035345e-02,3.598385002716503883e-02,1.874341464277080871e-01
2.285625490102875714e-03,1.265299927811508072e-03,1.931361524876868199e-02,1.694750251086210927e-02,1.841188170388696321e-03,2.563737841972547199e-03,6.499292134393719333e-02,2.384108592932562831e-02,8.046612795299992391e-03,2.239168634423557847e-01
7.216838157967197099e-05,5.978879268494374614e-03,2.264436666612746479e-02,2.223208996367340151e-02,1.628380070160105391e-03,4.424254414139959166e-03,4.021018064133160402e-02,3.109916018091227197e-02,5.218458233401662184e-03,1.382980138405410231e-01
2.717969949750823327e-03,4.135022780741841320e-03,3.046724030377521986e-02,2.625248840892665386e-02,2.412628646993751971e-03,6.168070287983874050e-03,1.335848394479774437e-02,4.273229297745331778e-02,2.912532721822659165e-03,3.139516637023209017e-02
4.478409856647386743e-03,1.720243899615798988e-02,3.131280620296758577e-02,2.591618812715170556e-02,3.456224743486433371e-03,6.423244300400553219e-03,6.835224980240042769e-02,4.881378025326227332e-02,7.451637207579231252e-03,2.035271164444777126e-01
4.838537579295480902e-03,2.023108674429062101e-02,1.728871911838543440e-02,2.058805360137673512e-02,3.953794202628373340e-03,6.859150805890019270e-03,1.094016757417427127e-01,5.187443227612227592e-02,5.503397349986975315e-03,3.428712406243735744e-01
5.380491565452203556e-03,1.196798130539148547e-02,1.607049404621434816e-03,1.313620396933353959e-02,3.767097097523572618e-03,1.003870932839734560e-02,1.299441740059485151e-01,5.842220516310642903e-02,1.979556029932222003e-02,4.467748094036532724e-01
7.225446940808236823e-03,2.152470162965670984e-03,9.374787645086739979e-03,7.527358643385355028e-03,3.374612337429725578e-03,1.432741071083606411e-02,1.237685654888274478e-01,5.804798562230099879e-02,2.547410591123294016e-02,5.088243461136807699e-01
9.225057535353849841e-03,1.683003207079765071e-02,2.749194298057374732e-03,5.357678242924920030e-03,3.175599678069533551e-03,1.322958460573413902e-02,8.800987804762921973e-02,2.747387503888554933e-02,4.053017303400557186e-02,5.273430483754398823e-01
9.877118534555289625e-03,2.446518539772581796e-02,1.096096800386884944e-02,5.989312793576461597e-03,3.139281804146865258e-03,2.428677627231075418e-03,3.094448523838531223e-02,3.678540988805934636e-02,7.743566416836419886e-02,5.085459211071828856e-01
9.605238804929833174e-03,1.815320488405985574e-02,2.606887632481819442e-02,9.084110509466915978e-03,3.010020229786131065e-03,1.309082336045989774e-02,2.439873909749561490e-02,1.034955930424255460e-01,1.167683387769283682e-01,4.623545808559101356e-01
9.524421675926682609e-03,3.948402170388993875e-03,3.850424726300315237e-02,1.436794824606954166e-02,2.674084221555283417e-03,2.285104870613121134e-02,4.897545112190609257e-02,1.369178348522677169e-01,1.324886028773083202e-01,4.275032645716191348e-01
9.129171664339196662e-03,3.167742624536841380e-04,4.103631262318539752e-02,1.988633472179036910e-02,2.426822520136769079e-03,2.223993962199277349e-02,2.860981963383647103e-02,1.321775292018486647e-01,1.257143843752136503e-01,4.648264649653676694e-01
7.056593273778229147e-03,1.294194776420610690e-02,2.954140713526134249e-02,2.339810651364137781e-02,2.611374605116075377e-03,1.574648942850178507e-02,2.337530455360908171e-02,1.103844072126790588e-01,1.217572457744646591e-01,5.818656937045826316e-01
3.576856740741882115e-03,2.888208694976785590e-02,1.086317705437581799e-02,2.485432659903739558e-02,2.686855042926932120e-03,8.680237422097029573e-03,7.877492308239206209e-02,9.000120953996995632e-02,1.384953954254627695e-01,7.042814237353556273e-01
4.810908416828739410e-04,3.096390742140468777e-02,3.834659076761705310e-03,2.528301266003128711e-02,1.282523250487281347e-03,1.533237575606427767e-03,1.174115941137833796e-01,7.561510177667207788e-02,1.622742306036540905e-01,7.526518665288142174e-01
1.489919169348266669e-03,2.561313315974279858e-02,1.129429961739447305e-02,2.412647341113405286e-02,2.338463385326110255e-03,5.944042020853646142e-03,1.330961391874221911e-01,6.837049324882783774e-02,1.624203582799163825e-01,6.981651937415691567e-01
3.283105553903818349e-03,3.064615171642566527e-02,1.516416006011484310e-02,2.003946358894814414e-02,7.585678761600299531e-03,1.114492855996274644e-02,1.225165957515326753e-01,7.373150474507224328e-02,1.294296234759548248e-01,5.317336364661345849e-01
5.212400590419529953e-03,4.531527865291226642e-02,1.621327517413677713e-02,1.393915652619533325e-02,1.332493706439285587e-02,1.221308782689666667e-02,8.199723099701565487e-02,9.405644864955739481e-02,8.239783016276462646e-02,2.524129027134283665e-01
5.755478985154529638e-03,5.114920107660465148e-02,1.202489519508357849e-02,8.828329077238621092e-03,1.809505388847029370e-02,1.121742410396439280e-02,2.042908053691907741e-02,1.189281855966471402e-01,3.861849979219891121e-02,8.748561538724201891e-02
3.566581939838415517e-03,4.072204193194961519e-02,5.097163862627323780e-03,6.100184358128573486e-03,1.993208559532367447e-02,1.111445189295654293e-02,3.503850535977882236e-02,1.312385044860704952e-01,1.011174973918206599e-03,3.792941863350861587e-01
3.465843659277153621e-04,2.710183183376389110e-02,2.562622980413286657e-03,4.099069328274525942e-03,1.792798341428686326e-02,1.212622399641633333e-02,5.581814179373900675e-02,1.236134729230683044e-01,2.305327002077523640e-02,5.227484630845180558e-01
3.485469021022290399e-03,2.292715977461463536e-02,6.307392213975119080e-03,1.279095103854677520e-03,1.382775274247142853e-02,1.290767365564916141e-02,3.332484457526025540e-02,1.028451050730990468e-01,2.182848040017023802e-02,4.851271373154373845e-01
4.698273271440826619e-03,2.513775312780051202e-02,9.776536369314850136e-03,1.152433863159932435e-03,1.041769287869258320e-02,1.327667123371350372e-02,1.474807167465283508e-02,7.884497996092658390e-02,3.169426825147182714e-03,3.259105223512909211e-01
5.008254627575695582e-03,2.458193187963679180e-02,7.062554802400066931e-03,1.329775202618098569e-03,8.675246742517262258e-03,1.371333355920379728e-02,5.390440576373096981e-02,5.667392424693195457e-02,1.073332248940175003e-02,1.825856442105034116e-01
5.222161914836712798e-03,1.936145138575644589e-02,5.066509967328121540e-04,2.456486711687132750e-04,7.802947544094131042e-03,1.294913771450391556e-02,5.436536355617373195e-02,3.914531072649225785e-02,1.467439859761756303e-02,1.801817025249786708e-01
4.534582400206221137e-03,1.244068365448811400e-02,4.152754020307131665e-03,9.532222478880140321e-04,7.263436555727035421e-03,8.155828475502674077e-03,1.361169993314839503e-02,2.874064552921384158e-02,1.783418082280636974e-02,3.107592381327810571e-01
2.790522864504629483e-03,3.481938950412152584e-03,7.298213526957262991e-03,3.608032491478023809e-03,7.195380718628626576e-03,1.604388880699528057e-03,4.308865017394424013e-02,2.387224966226578551e-02,1.224630766036007359e-02,4.404509003522554811e-01
1.893536564274260481e-03,9.432888796411138810e-03,1.486336928462932486e-02,3.537157845979669538e-03,7.133564041856474240e-03,1.287052938191131542e-02,8.607224336739414949e-02,1.858805155820106303e-02,2.157701665967397264e-02,4.670437848011578796e-01
2.943112544329760851e-03,2.300260874629847518e-02,2.757855638192225831e-02,2.296132025744138799e-03,5.803817549329071991e-03,2.008306916790827956e-02,1.008191059122787725e-01,9.192250630441930331e-03,7.340222308824853603e-02,4.166590422886290446e-01
4.118500266334669362e-03,3.005501425890116929e-02,3.632400272332429042e-02,8.044176339608050119e-03,2.798141972399235435e-03,2.084185255925044208e-02,8.923531858423733309e-02,2.142966216316337727e-03,1.020337865137769806e-01,3.585681806060086463e-01
3.440646667222195358e-03,2.751632280342220307e-02,3.243287587449627390e-02,4.498077107926993362e-03,3.693425240298309643e-04,1.761789068538604369e-02,6.201831674623271839e-02,1.201681742775024576e-02,8.846281841210307251e-02,3.020699203378757747e-01
1.446883931782638830e-03,1.946499454430331358e-02,1.911787878179540753e-02,7.025706524758963331e-03,1.882907839488731421e-03,1.387449743900547733e-02,2.912325949089064961e-02,2.000024021912783639e-02,6.320434671276267680e-02,2.172074553480899117e-01
5.632588169045149194e-04,1.286650047917350763e-02,7.953108582064377999e-03,1.436989430082193271e-02,1.786314128002315996e-03,1.114414364089113575e-02,2.057840901147649140e-03,2.612304445066613440e-02,6.511531712262563776e-02,1.018940805783580261e-01
2.372499362768322895e-03,1.226230482480424391e-02,5.795770575378331353e-03,1.174253966362950180e-02,1.470302037672313990e-03,1.097725592713549511e-02,1.498351486340316827e-02,2.803542639970257183e-02,9.365080285886606681e-02,4.793372879393978381e-03
3.508679704594205254e-03,1.653000635767259627e-02,7.966364898876657219e-03,8.712526700261702742e-03,1.651494708637893253e-03,1.567647434564969217e-02,1.343999866435214956e-02,2.403221506374549760e-02,1.170977518783764826e-01,7.350139380891983210e-03
2.948499573508636673e-03,1.920883185381126040e-02,2.886040528048907424e-03,1.621083589750057716e-02,1.978268827865873117e-03,2.439504008204422883e-02,8.067965018334684324e-02,1.719135052984289286e-02,1.128973223688082422e-01,7.831804749919621389e-02
1.400861383871580563e-03,1.501838873352185494e-02,1.619033037986139512e-02,3.101112629385713998e-02,2.078205591249199409e-03,3.167968864286153235e-02,1.467257000053784621e-01,1.337892639121831054e-02,8.478228042246237217e-02,1.981632180751870531e-01
1.252186772916513528e-03,7.064392817476514499e-03,4.138466447867075737e-02,4.064097213543169107e-02,2.063942018919890861e-03,3.248411666936332903e-02,1.741249306381514872e-01,1.540878802194664728e-02,4.946486280439425093e-02,2.898668509287265493e-01
3.665273996447640254e-03,3.918720476817154873e-03,5.560088317197584701e-02,3.853560976022950280e-02,2.228461337820853479e-03,2.704234001137593643e-02,1.624456926616396069e-01,2.135579806154469518e-02,2.124103195017698620e-02,3.437205536354783209e-01
7.835179185142747763e-03,9.487977161206697166e-03,5.185679892088035370e-02,2.939244590212722330e-02,2.611693004698590042e-03,1.972443026409696765e-02,1.308453275270753391e-01,2.793218469693818998e-02,7.159100552128172014e-03,3.482581030872978767e-01
1.247042098810664627e-02,1.936206630180055399e-02,4.101243563313906187e-02,2.257289268368993171e-02,2.791682542067292286e-03,1.429246157961537589e-02,9.176828656022856245e-02,3.323265565364124513e-02,7.405975564553838979e-03,2.649448044755314258e-01
1.597749917482839399e-02,2.571202413681239821e-02,3.562848005125787004e-02,2.287177599103357856e-02,2.265020723270470826e-03,1.107780883894080894e-02,5.603193215184473774e-02,3.696334356153441886e-02,1.796358670544553199e-02,1.054405468451898309e-01
1.652645753946095988e-02,2.335592932418166165e-02,3.491359053574200066e-02,2.695018026798317798e-02,1.188106833944775620e-03,8.383582796347294197e-03,3.892200549188672143e-02,3.951376638563861704e-02,3.261985083200286822e-02,2.911866410345723133e-02
1.402747722286929073e-02,1.444917861393055052e-02,3.061583198509773215e-02,2.817373129031860990e-02,4.186451721926410467e-04,5.666620796941219430e-03,4.438671122820243842e-02,3.993719907541526393e-02,4.378826089518861320e-02,3.877661294077112963e-02
1.094259634665487035e-02,7.695352910669452963e-03,1.882731649663590273e-02,2.351096796154475074e-02,6.673495237891723239e-04,4.317826584896665258e-03,5.926827164210117516e-02,3.567086593798714234e-02,4.673815386016683115e-02,6.849488408193243894e-02
9.438977889194755458e-03,8.530839819186241541e-03,2.085455233098672256e-03,1.486084901012382255e-02,1.829315262574770281e-03,5.113240824560781432e-03,7.146643652249277945e-02,2.668302157401200927e-02,4.233010994587792231e-02,1.877833795064715594e-01
8.577594577553446925e-03,1.317276640514725844e-02,1.288332085720057633e-02,6.534263922719071513e-03,3.204405191709502020e-03,6.067410741263651666e-03,7.685037403989308791e-02,1.791830461645014735e-02,3.307785618671266192e-02,2.178196025070410768e-01
5.984052863044258576e-03,1.711810500615218097e-02,1.850834837044549111e-02,2.985786179076699905e-03,4.207909244202926238e-03,4.189150904250945814e-03,6.701859763417837568e-02,1.428008805216698235e-02,2.263032377017618751e-02,1.341809062970730215e-01
1.828081528406086745e-03,2.170630063404993190e-02,1.398733983022619476e-02,5.762417143279689909e-03,4.650421589735931165e-03,1.194977901158821021e-03,3.525239277025671303e-02,1.546600334996277304e-02,1.894457306461408419e-02,9.757813291276944134e-03
9.234493084961313243e-04,2.644093633564994703e-02,8.457214436031344068e-03,1.099272743235150430e-02,4.485623357923415079e-03,8.315961367918130176e-03,3.512129768419408951e-03,1.890697157337031808e-02,2.669965825591166797e-02,1.304833029789181920e-01
5.371447675239066598e-04,2.590694567766323869e-02,1.048482078670629272e-02,1.244252550543299175e-02,3.945348942012311469e-03,1.504947125353306263e-02,2.403806120217740622e-02,2.414900480660877452e-02,3.758072242024627224e-02,1.784274806904477539e-01
1.226201719667212873e-03,2.087592395757198807e-02,1.702796082690345020e-02,8.204419816896594761e-03,3.787620312866440877e-03,1.942439043224201620e-02,2.060238810475667481e-02,2.996973015491783549e-02,4.010342759798758011e-02,1.642529849880258741e-01
1.700104426303066657e-03,2.090071211336997845e-02,1.959376994615218831e-02,2.265049482353657766e-03,4.490043256366410725e-03,2.000013473761506899e-02,6.058968722333220661e-03,3.179574738666784972e-02,3.740235596269213258e-02,1.298100774338172003e-01
4.118682472545489963e-04,3.081529802505330110e-02,1.827319462352051255e-02,1.274530618622010236e-03,5.474018748719992888e-03,1.784581322139288523e-02,7.932388845322407844e-03,2.819746300757178248e-02,4.513086166766770019e-02,1.196439318297029958e-01
1.317871145405946371e-03,4.502987478516357056e-02,2.080571134239720538e-02,2.686363622811742922e-03,5.960653428008245817e-03,1.616143242217708484e-02,1.533476406899104624e-02,2.558794071505115716e-02,7.243701071701119654e-02,1.668556081177778039e-01
2.374627873588984386e-03,5.647110250030495243e-02,2.792330411131123749e-02,3.334634479864144897e-03,6.014696200808243229e-03,1.634739080575695752e-02,1.601211362068965041e-02,3.037255568425262925e-02,1.098614235677077833e-01,2.646620896383268806e-01
2.596955582665954731e-03,6.161620294360438399e-02,2.898908668186868723e-02,1.405788229580668975e-03,6.120519723838138346e-03,1.649452674585671907e-02,1.841671543493106009e-02,4.101967892842871277e-02,1.349703860324338867e-01,3.587046372149537143e-01
2.499404814663743792e-03,5.876734292212908162e-02,1.675330310086115687e-02,4.449604359217263806e-03,6.438759552324260609e-03,1.500423713642188260e-02,2.628652985355682536e-02,5.243135633669076395e-02,1.303888134753191375e-01,3.913171587017948427e-01
2.606570891031688431e-03,4.962809537677109750e-02,3.838634862482091445e-04,9.849880842906361123e-03,6.841814154691171213e-03,1.400743025837952564e-02,2.412466377896994169e-02,6.261818686397213618e-02,1.000579263824224741e-01,3.519946726490278399e-01
2.620105637994202350e-03,3.878648281984954649e-02,8.098100957590554164e-03,9.038012293410327067e-03,7.108751946970571362e-03,1.747284552705226021e-02,7.446914154439799281e-03,7.170278660022695594e-02,6.582635897986531537e-02,2.916901818869275242e-01
1.718966315450525233e-03,2.732178599374700950e-02,3.557039851869324334e-03,2.644243264350678614e-03,7.125527209000372120e-03,2.572085036021009782e-02,6.353365285396672668e-02,7.946835083943674938e-02,4.316842955577289420e-02,2.879721840390553345e-01
6.813282402609810657e-05,1.399224362125260288e-02,5.344085034170739310e-03,4.599183100414287739e-03,7.291659601879494843e-03,3.343850699179252289e-02,1.160176234151239771e-01,8.582251791743200631e-02,2.523857039171796199e-02,3.619736109859775230e-01
1.851172532660454260e-03,3.326896843986664604e-03,1.409312061556550547e-02,1.125267015606987858e-02,8.059145482896807808e-03,3.530723556126879464e-02,1.435207475258394871e-01,9.021116657278875628e-02,2.541779162303350534e-04,4.227113784340250646e-01
3.110532490334460155e-03,6.672825619605470514e-04,2.385942172019245647e-02,1.832053967352108639e-02,8.571609712986693122e-03,3.197055605862054312e-02,1.480338931707188554e-01,9.085932026195141231e-02,2.684657749603962945e-02,3.438145923499394963e-01
3.341426583888663319e-03,1.045616664723268696e-03,3.118997805429653616e-02,2.404267645878747223e-02,7.167793110301458499e-03,2.670985850993570082e-02,1.389057939786256246e-01,8.664266290458265407e-02,3.900410927126122390e-02,1.232681036985773387e-01
1.332986298220337510e-03,1.534213418728750875e-02,2.717791727708834468e-02,2.551083183126828802e-02,4.124450458153143886e-03,1.878824359056106841e-02,1.183484525781351160e-01,7.671097325904693842e-02,3.884443222911466986e-02,8.044519397560641327e-02
2.763652901709503194e-03,4.226879967384705727e-02,9.405540508068004762e-03,2.314542373929990432e-02,1.916340301392282976e-03,6.197848783433626725e-03,9.281770420399901300e-02,5.633205591615059182e-02,4.109691682978498795e-02,1.228072710987675314e-01
5.953299643486830231e-03,6.779564894831439925e-02,1.289981203403152941e-02,1.957630619779225298e-02,1.582550258461449134e-03,6.789346593326472945e-03,7.832973850132668447e-02,1.996109856177850916e-02,4.758501054189406138e-02,4.875719498568203969e-02
5.761511680245255500e-03,8.248652653555821335e-02,2.804786471451143487e-02,1.663255850236993252e-02,1.314663466345731549e-03,1.170627787423130124e-02,8.132246315590743735e-02,2.584525243042928855e-02,5.113147229977738767e-02,1.994137081349011201e-02
3.555641221850066539e-03,8.740907360886371325e-02,3.198722678455216684e-02,1.521131350569773083e-02,7.788717969529857996e-05,6.148444936376705645e-03,9.117251529217958173e-02,6.036758178748609371e-02,5.580194987889339903e-02,9.051753522591879375e-02
2.273861596683733957e-03,8.336777584791274509e-02,2.841576071941039755e-02,1.500426927578581149e-02,1.209301523817667926e-03,2.458468034079306763e-03,9.693055969117829462e-02,6.806841333105520531e-02,6.671489198743349447e-02,1.614422139501778541e-01
2.793060744772596880e-03,6.870335652461728726e-02,2.300081890792330525e-02,1.363613373770281890e-02,1.054852701390869216e-03,5.009834886789242200e-03,9.597472743754323354e-02,5.335583311338862322e-02,7.310039153910195819e-02,1.598033696828389527e-01
4.143630484184920165e-03,4.802971138250131805e-02,2.007495148870679785e-02,8.678770984318122383e-03,9.672730051211079040e-04,5.601115558547185543e-04,8.928722018913781699e-02,3.013836191919269311e-02,6.691366155238831492e-02,1.374280895861515472e-01
5.341705956748201041e-03,3.092516418761168118e-02,2.163169090438112063e-02,9.901746738294389932e-04,2.157718646577633757e-03,3.894426068528295329e-03,8.260268149671144700e-02,6.015615144203644883e-03,5.923348228930656184e-02,1.576156563777520447e-01
5.948012955961631820e-03,2.030515119676967392e-02,2.459211738198973859e-02,5.220645879748166997e-03,3.512224275338871049e-03,1.855367815540940679e-03,8.656799392118344483e-02,1.780654975658993791e-02,5.654298747938536762e-02,2.007662064455546791e-01
6.115764494498921074e-03,1.050455080710184508e-02,2.127285936635974969e-02,6.466082539757550887e-03,3.617898111301912165e-03,7.173221979269105500e-03,1.034907418532177298e-01,3.926260187352614145e-02,4.390726458345224625e-02,2.358722242452121198e-01
6.332549372438942351e-03,2.711253516829081542e-03,8.783108915941334471e-03,4.371864768939313743e-03,3.264793138956778151e-03,1.883413831930862148e-02,1.167486592806922518e-01,5.117888021506426799e-02,9.647766235470745660e-03,2.955092231834285377e-01
6.486532773670907435e-03,1.726059729889603545e-02,4.153348265421543534e-03,4.441532088984099375e-03,3.958464237693577574e-03,2.725811867762297988e-02,1.040050545970824525e-01,4.159728458660039152e-02,3.422750637713654204e-02,4.076151855852982453e-01
5.849337608673862640e-03,2.962422779231818626e-02,6.963000703585719639e-03,8.810095304141687955e-03,5.001720197698878399e-03,2.896833911327163086e-02,6.292127010486425753e-02,5.920398518731308235e-03,6.851244019234313531e-02,5.072284322411799717e-01
4.535120685813988188e-03,3.814337580069543376e-02,1.548681974013520982e-03,1.265528988497438730e-02,4.335672414982200129e-03,2.604090680478286443e-02,1.526772478909329406e-02,3.594342733433810583e-02,8.543773361567447155e-02,5.069750381196456157e-01
3.836196518171293250e-03,4.165164178681220186e-02,1.370762013903461043e-03,1.063093787036689664e-02,1.773641523638008668e-03,2.349833114531326914e-02,1.593332276799287739e-02,4.858682206606541182e-02,8.071053230760547037e-02,4.266988242931226694e-01
4.243806796040730869e-03,3.973730992228730052e-02,1.066604833353650920e-03,4.102875470086071383e-03,6.342434921121841655e-04,2.253004996135138382e-02,2.532920045932399167e-02,2.187387318518836665e-02,4.419781021726336412e-02,3.512511655912903263e-01
4.342273840269337409e-03,3.270690648373955622e-02,2.191354063883899214e-04,1.449215798218717911e-03,9.697501337539106338e-04,1.962303488398416465e-02,2.478917635849543430e-02,5.629744232670061931e-03,2.600235753269829891e-02,2.931325365807893601e-01
3.091672378862481488e-03,1.840404539872955367e-02,1.213991499369306178e-02,3.625171248273063081e-03,1.068096087329302142e-03,1.365543025138446671e-02,3.235660970599130853e-02,1.688376643906997279e-02,1.096894025983032595e-01,2.138732725999231421e-01
2.173042945676250878e-03,5.613331347479716057e-03,2.938383149446983922e-02,3.628874525563257226e-03,4.179069286814972480e-03,9.136283185880028634e-03,5.608861264134489683e-02,9.454157596652576490e-02,1.766004203292527441e-01,1.388509573979407052e-01
3.743828223561216674e-03,3.392301588848663924e-02,4.256897794321541639e-02,1.133861730726437589e-03,6.687584330407302970e-03,8.259985466323315970e-03,8.775082767522733584e-02,1.848883114099706682e-01,2.056906238852581892e-01,1.284668184685687498e-01
6.233888708468691628e-03,5.426224048591990479e-02,4.916493814755641678e-02,6.222662577315131796e-03,8.609942771372440518e-03,3.494959633095570499e-03,1.211159605565108599e-01,2.484385674607591521e-01,1.919990751014612751e-01,1.729072238035093134e-01
5.438104148834489900e-03,5.940467406455336025e-02,5.032531196813976038e-02,1.702374312095899025e-02,1.137056366185304999e-02,1.454740255206539955e-02,1.654768415706441287e-01,2.750832740977480206e-01,1.499190618624919591e-01,2.185446478792004155e-01
3.703989360634731259e-04,5.294805595230761552e-02,4.370040901460738730e-02,2.457936410321671927e-02,1.474188865646208768e-02,4.233770342674535170e-02,2.241042380120234212e-01,2.681877062035130099e-01,1.080894662882885132e-01,2.644216382199966464e-01
5.152192966859328593e-03,4.363451879654675625e-02,2.757685011234466826e-02,2.411478006853579742e-02,1.641041911458637065e-02,6.399734365619215437e-02,2.729869048540755072e-01,2.339797128934676951e-01,8.464859581563954904e-02,3.422654404676789275e-01
7.754827271115836106e-03,3.804950293003003803e-02,8.233241983504575173e-03,1.776100149640211928e-02,1.509295611893296182e-02,6.756272918896315260e-02,2.791333404297370313e-01,1.848699564352242752e-01,7.181834153850998048e-02,4.177734107886069137e-01
8.104907295848763626e-03,3.731499896596958410e-02,4.374955102738812066e-03,1.051314908131107534e-02,1.147589103002085061e-02,5.465233260036494317e-02,2.323217934716977351e-01,1.326829858204705559e-01,5.541545932756920811e-02,3.984286892227829058e-01
8.240967257998004988e-03,3.829978056219361660e-02,7.242842801618699575e-03,5.394483996440444309e-03,6.512430534186903520e-03,3.481420947453277986e-02,1.547095100061745276e-01,8.102407151528545626e-02,3.716070908777162340e-02,2.630183120210855541e-01
8.484601743651898342e-03,3.841004272002336573e-02,5.659866507908767504e-03,3.780952536337212674e-03,1.483626293919186774e-03,1.701255120978674082e-02,8.785885153425207483e-02,3.118097750648582411e-02,2.692635573784831621e-02,1.203823257519259782e-01
8.192828614323504482e-03,3.806062344553823307e-02,4.485713218737264960e-03,5.855887333589543733e-03,1.693616060571391871e-03,5.838006219870316149e-03,6.206455073581278181e-02,1.414686158340713526e-02,2.517476811177662283e-02,8.876475197765643088e-02
7.367705747881153275e-03,3.786015572313772282e-02,2.843483622547353894e-03,9.093325238596475235e-03,2.806597451986112251e-03,4.158097162391574501e-04,6.774946654119182177e-02,5.603670582059165628e-02,2.464174417006528839e-02,1.506215721496774185e-01
6.549993188352746208e-03,3.684310973295180924e-02,1.196820469856104893e-03,9.659594303666011253e-03,3.788092776204188879e-03,2.150677848535488546e-03,7.108506678283761648e-02,9.623865085165725364e-02,2.498457814520376602e-02,1.834626581155687497e-01
5.869905804398727230e-03,3.462408954529849064e-02,4.628031114382589670e-03,6.655514888709673088e-03,4.798128598101424752e-03,2.618315029362253479e-05,6.290396671961639985e-02,1.263128002663819471e-01,3.534524848963865873e-02,1.158776577353157200e-01
4.692530092063515110e-03,3.123089864325035922e-02,1.967836469792466798e-03,2.696708839252348958e-03,3.245390038446605181e-03,1.175502064387002124e-02,6.686548082652728209e-02,1.321955826504661868e-01,5.744005544424023862e-02,9.380443866146385978e-03
2.631890295665208039e-03,2.446745944051481950e-02,6.485098003912768451e-03,2.052817875713936282e-04,1.252698979038495680e-03,3.027150217500138366e-02,9.269984860357147194e-02,1.146636506468266536e-01,7.635291868516633218e-02,1.220205237083555883e-01
5.943156993798035187e-04,1.262213190910078942e-02,1.213522832422141498e-02,2.735822254758509594e-03,4.786242515890002172e-03,4.305660595592680773e-02,1.125676412366055923e-01,9.498748045387474248e-02,8.117119134178196749e-02,2.071635693103912323e-01
4.385695768987530880e-04,7.997115493992164835e-04,7.337143600641051616e-03,5.756782231942867041e-03,4.038341131721482659e-03,4.194134550802258027e-02,9.606931368574256336e-02,9.402224622950011712e-02,8.196150171072896784e-02,2.870530984085767345e-01
1.105292637330335982e-03,1.085075781999754463e-02,4.003172796740112407e-03,8.619498194697997051e-03,2.601879539063649976e-05,3.124028917547780684e-02,4.389539494863153174e-02,1.137411924979668670e-01,8.708505983843249643e-02,3.683152441801972321e-01
2.262386143129744079e-03,1.750169923415460793e-02,1.023538641248308671e-02,1.069089463529105354e-02,4.090222499186849103e-03,1.952966469946989039e-02,2.076839296424003167e-02,1.427122145205446113e-01,8.106844837583360164e-02,4.261094158800345366e-01
2.856526962734590690e-03,2.287548547331243187e-02,5.875753439920115145e-03,1.186970374274422431e-02,5.997394337931678809e-03,1.199305813649262017e-02,7.191104140914063303e-02,1.701180729700646210e-01,4.980920049584147691e-02,4.223911159096633838e-01
1.765605933733126144e-03,2.671834093747772754e-02,4.355260277888280650e-03,1.137441818064453651e-02,4.522794740305226963e-03,1.212035989180550860e-02,9.000301233562167658e-02,1.924650300444578355e-01,1.007758315285640742e-02,3.449546234025349101e-01
7.966159973868377001e-04,2.930394318035919876e-02,1.436893686777012888e-02,8.685450736784462375e-03,1.993079366807627055e-04,2.062847889620567782e-02,7.513438301092609239e-02,2.136109649509283503e-01,1.125438090477673056e-02,2.378257015052322176e-01
2.769033785273210778e-03,3.284277290328281584e-02,2.227684919914008424e-02,5.445878699262843292e-03,5.790125461673122607e-03,3.058235099842801161e-02,5.266831277686576107e-02,2.342761058091330229e-01,1.265349833463177281e-02,1.722518117134081705e-01
7.005748116105211393e-03,3.697122527799655972e-02,2.727501070269481437e-02,3.929541380067238035e-03,8.779401280420689319e-03,3.212945627626434542e-02,4.858159885758030205e-02,2.380912525270965918e-01,1.200329176785509301e-02,1.790008088964468724e-01
9.623032424337886123e-03,3.904117469339948854e-02,2.792917914217456568e-02,4.203693687324234519e-03,7.746582128388486595e-03,2.333299315946269978e-02,6.373454137668474462e-02,2.038160602111295239e-01,1.706012106473418083e-02,2.294398946567696718e-01
8.318291479063745497e-03,3.959939068349347530e-02,2.532552704135795224e-02,4.875228557656863942e-03,4.235146856140370800e-03,1.009024392265714908e-02,8.562302342254810017e-02,1.411268476836590458e-01,2.049452514493712782e-02,2.830936122480761097e-01
4.524743834753000571e-03,4.168660319682164495e-02,2.410305088156067602e-02,5.816109350103472984e-03,4.360399278279498774e-04,3.185902627684281292e-03,1.116357513765569437e-01,9.643194528138251953e-02,2.099930631664959774e-02,3.283769956276618718e-01
7.611956846718927411e-04,4.519935842820434896e-02,2.839782945281269649e-02,8.275704532708684502e-03,2.501228252286440308e-03,1.563930790561296122e-02,1.430314068832187757e-01,1.039670718365520580e-01,3.230725996715434756e-02,3.712310039542165985e-01
2.120468529014269809e-03,4.646383870521808568e-02,3.688395123484938115e-02,1.227716396532044577e-02,3.738512558209878319e-03,2.385004159686541017e-02,1.666019115055626110e-01,1.353833816138090285e-01,6.242597254994579348e-02,4.042475686960619319e-01
4.545669506032324995e-03,4.315782099221854295e-02,4.246093576053027591e-02,1.497152584718234626e-02,2.217077554730959976e-03,2.164652389389458767e-02,1.593225160037131938e-01,1.178996199126380873e-01,9.611928328376484476e-02,4.033666188712399236e-01
6.433958374437759482e-03,3.774260200700560453e-02,3.916673720849321583e-02,1.300631118313460947e-02,1.895328512877715284e-03,8.514707985471776930e-03,1.118891867664479484e-01,1.483597204815837942e-02,1.146715943875295518e-01,3.549751702640255302e-01
6.747325532730327931e-03,3.520743439380868978e-02,2.963153787506437459e-02,7.133714645325819892e-03,5.926114756037935936e-03,6.710656836131258587e-03,4.353281048424224170e-02,1.282824429492037122e-01,1.241993447638775894e-01,2.767325608141670834e-01
4.649375786891838010e-03,3.605099703782826959e-02,2.176741972428569705e-02,2.709524514941629315e-03,6.379088580157896322e-03,1.365191577264709098e-02,9.461664000738641625e-03,2.387294538632923069e-01,1.427370164224782967e-01,2.046746260081732105e-01
8.300767652578411575e-04,3.320694513628510286e-02,1.775345023717392334e-02,4.008490736050468808e-03,2.416534600737707539e-03,9.624351781439341794e-03,2.411044756612007456e-02,2.952156527627899929e-01,1.646811501830792723e-01,1.640610396755299294e-01
2.499873863671396666e-03,1.998126276242299243e-02,1.172036497143797741e-02,9.151099722602324543e-03,3.124508194995304425e-03,2.414973696045266943e-04,8.278435789022013311e-03,3.207645527836008315e-01,1.626672305210006553e-01,1.573859640485417155e-01
3.494967620808041991e-03,6.051419841219796668e-04,2.132107990433186259e-04,1.211083859892115103e-02,6.693019671116295054e-03,9.396245797627439042e-03,1.473177709753396500e-02,3.253963509390141451e-01,1.265520621825811376e-01,1.715234093818360228e-01
2.630819530670254220e-03,1.809664214705493379e-02,1.276947471299146736e-02,9.377935708017922506e-03,7.351193670681641090e-03,1.466458602221308929e-02,3.221394771431947135e-02,2.980514571188485617e-01,8.042565153954950308e-02,1.871587741710722674e-01
1.851418189708438269e-03,2.376424889112631333e-02,1.725843435700440825e-02,3.614593743165824598e-03,6.679589791046776359e-03,1.645173661895425743e-02,4.670679170345323761e-02,2.383809708431210428e-01,5.492603252192170687e-02,1.885588431705506052e-01
1.790774837695112680e-03,1.581601761586260910e-02,1.165443768531466626e-02,3.714705387116363274e-04,6.214632925914557147e-03,1.633639033087324124e-02,6.162456576710671763e-02,1.635386475231192793e-01,5.511666219507253828e-02,1.746732585336833177e-01
1.293383852808821337e-03,4.653463472596994568e-04,2.039532903977396561e-03,1.931216084244217861e-03,6.075167876283162592e-03,1.555062338322604938e-02,7.150844896659287742e-02,9.220841048464149814e-02,6.099022464214023942e-02,1.581881501192186068e-01
2.310772951095199613e-04,1.656510673488303248e-02,4.888047378717085001e-03,5.535064595081791265e-03,5.827200641898712397e-03,1.554498186891376151e-02,6.699896233066379714e-02,3.705583167548970325e-02,5.270249553902093403e-02,1.476709101802614887e-01
1.781517490479564555e-03,2.730185844877567117e-02,8.104299925277412553e-03,7.420126518100712484e-03,5.465827449745317736e-03,1.730276539908195271e-02,4.496610269837128526e-02,2.798864486780789154e-03,3.233771257870553251e-02,1.354190413682467009e-01
2.541138808973998544e-03,3.316504605340730300e-02,1.087292560701684854e-02,6.845771307492780865e-03,5.178277242284058494e-03,1.883422970999261079e-02,1.176065414887349572e-02,1.529073223038935822e-02,2.257948227306447869e-02,1.106620075763283806e-01
2.929164325464325355e-03,3.551602864214974814e-02,1.475691978046123759e-02,5.493166047093172091e-03,4.886222022925856487e-03,1.678658392611604919e-02,2.018799015415806419e-02,2.532592764864289095e-02,3.938952532534474582e-02,7.739083053283260516e-02
3.159334667448112158e-03,3.242548748276267989e-02,1.633010403497204069e-02,4.549176574052488098e-03,4.510935607519965529e-03,1.190836722401410544e-02,3.748252283511077643e-02,3.215674648655024448e-02,6.483633184862790111e-02,4.559275411405573630e-02
2.494878355018917328e-03,2.090290953950585048e-02,1.089982604641128242e-02,3.819683283205975964e-03,4.268166473070109448e-03,8.769723501820533146e-03,3.435825801814203218e-02,3.639619036563054855e-02,6.152304235843034791e-02,1.258087636212852981e-02
9.236063843968126590e-04,1.300213790206994607e-03,1.043528033295020117e-03,2.913234359892494935e-03,4.194306094114128892e-03,9.319955347150210914e-03,1.903436007476333458e-02,3.386963225789763748e-02,2.085551089269212233e-02,2.916634617338158264e-02
1.180936809841520257e-04,2.174601437030863199e-02,1.389837033913296667e-02,1.928716421458455399e-03,3.766137493142768071e-03,1.171387048065819850e-02,3.269282734535439508e-03,2.320658350307946288e-02,2.280375023698538728e-02,7.209407180292663753e-02
3.558935278005689049e-04,4.182856144878227544e-02,2.340840575976198268e-02,1.053872901878327197e-03,2.709965268810753981e-03,1.553921081616171582e-02,1.399724072138374374e-02,1.812020798993125431e-02,3.800194509299409384e-02,9.849006463010437362e-02
1.723428467966959610e-03,5.395161339880264612e-02,2.926086643695804262e-02,2.548940252414784793e-04,1.819910214147355335e-03,2.180107317994593730e-02,3.943936382338762009e-02,3.315341497936549059e-02,3.409842563998242287e-02,1.008423471937870547e-01
2.715684230081900040e-03,5.620420566493220665e-02,3.138969357059861326e-02,5.453097195137653064e-04,2.026135084928191304e-03,2.685097703853573867e-02,6.277390273145112831e-02,5.606720553625352960e-02,3.666698936342431547e-02,8.745263009860690384e-02
2.145666702401467785e-03,4.911627749224170558e-02,2.812919729710982447e-02,1.320955162526111018e-03,2.867641050893418586e-03,2.325719982808602607e-02,6.011126266987999039e-02,6.136230830543922682e-02,4.548463761843440922e-02,7.464494036344336558e-02
5.648897435823279321e-04,3.487351546460248225e-02,1.917581499508927423e-02,2.025164890695312081e-03,2.839540621330615636e-03,9.785768339762293197e-03,2.666724221230219738e-02,4.712488788194917066e-02,3.919981134034133258e-02,7.913448798405331441e-02
4.175863173395734547e-03,1.837953475916594831e-02,8.234749231175297196e-03,2.659624507195331063e-03,1.377915060490542219e-03,4.709612533993014910e-03,9.260158914949894599e-03,3.037951268339470628e-02,1.141024300201667029e-02,1.085543235748205465e-01
6.322152632432948179e-03,6.111858106326684831e-03,1.357750898043838094e-03,3.237404190769056084e-03,2.045209101201051751e-04,1.124490948003840050e-02,1.797677227938537792e-02,1.709718930503334108e-02,1.862016190323836223e-02,1.517741309976451680e-01
6.352434114356223828e-03,5.670321362384449790e-04,1.648745109100535101e-03,3.750106908962227113e-03,3.295849905192527272e-04,1.062760475477150454e-02,4.659941045757743858e-03,1.774688779786433952e-03,3.111450076261888104e-02,1.842706385497911159e-01
5.526984555992476428e-03,1.107074594365621816e-03,5.846080920731713988e-03,4.185087885594280729e-03,7.586887268398045817e-04,9.219298071584055426e-03,2.700886766054104264e-03,1.701759763261920591e-02,2.758208060487531837e-02,1.891439611025524936e-01
4.236062480483237039e-03,5.471619927262571029e-04,8.141359609174133802e-03,4.541269758111874180e-03,1.510939754706204854e-03,8.535284691092558801e-03,4.191879301170259656e-03,3.637597617372520520e-02,2.301821999422407061e-02,1.699868800796056068e-01
1.803641424339335079e-03,4.051525801010792682e-03,6.720169968591312853e-03,4.821408144280977040e-03,1.294570159915215714e-03,4.886895798592805207e-03,7.020358311623143936e-03,5.075415674386041937e-02,2.541851162779166715e-02,1.416204690980377434e-01
9.667499838667225048e-04,1.103545430888915914e-02,3.774953677258648631e-03,5.024593691866890109e-03,8.207208777735193863e-04,2.652144793902020455e-03,2.318897472511266544e-03,4.989089888933687794e-02,2.917633309031463298e-02,1.148206629533955053e-01
2.064463623324094919e-03,1.354756148227428784e-02,6.473447473047597416e-04,5.149844523599699832e-03,6.656485350096490172e-04,9.964697029883711615e-03,6.116259887639328985e-03,2.927651917275322577e-02,2.438324108437098930e-02,9.385649758572381374e-02
1.376297771954883547e-03,8.063693757148665195e-03,3.020978084246995349e-03,5.199879665189127871e-03,6.344435528645285148e-04,1.355215682502763398e-02,7.237894604423542391e-03,1.233658396673012903e-03,9.477165945258061996e-03,8.157292395449719513e-02
1.174455122929047614e-03,1.065395728535552863e-03,6.351935441818033073e-03,5.179441026689751877e-03,4.751488587652971532e-04,1.419485385687152025e-02,2.136640085431519218e-02,1.538035220267730194e-02,3.208061081783124008e-03,7.867199020620097016e-02
2.905329074789653968e-03,7.424304073301723692e-03,7.539932073881951829e-03,5.092986189816146175e-03,2.875517640994125252e-04,1.410477125024820443e-02,1.852954329155588262e-02,1.308604550713558454e-02,2.600365529824022644e-03,8.095865956583508938e-02
5.041625584050685518e-03,8.874301860751507634e-03,6.997456960327955167e-03,4.945334304781937550e-03,1.802893459050797882e-04,1.287471203656496629e-02,9.533659281695108095e-03,7.150139768846307167e-04,2.630061542014381498e-02,8.350921584252377072e-02
5.179801376344025758e-03,8.124757168268366067e-03,7.070683742259028029e-03,4.743542766660956839e-03,7.083227622141548014e-05,8.272985081965311335e-03,1.820085859836071893e-02,3.154123389864873454e-03,4.491231171812402195e-02,8.464880956292104852e-02
3.386019771251742687e-03,9.777331662732835840e-03,8.562278317734732178e-03,4.496444977749066221e-03,7.423825984848177835e-05,9.069413337376063195e-04,4.532400417855819014e-02,1.203115956920698844e-02,3.694455622486372826e-02,8.245772217087680989e-02
1.954573966879392336e-03,1.579997921385187243e-02,9.859314521513212054e-03,4.211523854543298105e-03,1.377436157778314343e-04,4.774326755146541396e-03,6.636001449850965905e-02,3.066100738981730744e-02,5.907423752612137730e-03,7.357991066049644757e-02
2.132275316266423089e-03,2.216805486259471394e-02,9.318286253365715838e-03,3.894770383941235231e-03,1.414511440195124461e-04,5.752036531552099513e-03,6.455493457363842280e-02,2.667086348621111602e-02,2.877289291240048286e-02,5.858811799277621746e-02
2.792434548103614467e-03,2.196696654244909008e-02,6.781110299786050066e-03,3.556192759085596584e-03,3.123408538929330677e-04,3.628354298641165918e-03,5.035574150087802903e-02,1.996004336844394399e-03,5.461291861101219558e-02,4.170941947954864837e-02
2.567258134531458669e-03,1.369510225794484323e-02,3.151157339884121632e-03,3.209941815668019248e-03,5.647629699919054936e-04,9.348701885052803674e-04,4.187830987236935282e-02,1.478088606520355786e-02,6.962430893609504456e-02,2.467822132992465375e-02
1.626968652687260696e-03,4.183021230248570518e-03,2.394552263246800972e-04,2.862249998239823571e-03,4.111534298800635515e-04,1.771730217356954924e-03,3.985736848345683425e-02,8.495852951694511310e-03,7.499631123659260268e-02,8.088413451952786853e-03
7.726363362509535608e-04,1.055542917373751858e-03,1.964435344248369880e-03,2.510132190742545445e-03,6.426468008831128930e-05,3.776943315364590832e-03,3.337726023893338584e-02,1.078027236813387454e-02,7.483229059405853423e-02,4.170911568623571208e-03
6.889606689905412580e-05,4.407052212282572441e-03,1.142220649543528553e-03,2.166376361916837884e-03,8.872065090789075853e-04,3.919601031012057493e-03,2.082430828146662055e-02,2.913153397564998554e-02,7.360822713281205132e-02,9.744600074510702259e-03
8.539126513169783975e-04,8.187446428406599391e-03,1.480541502281905670e-03,1.862452051339292310e-03,3.364140469576247516e-03,3.760782500622055803e-03,1.096982895913744226e-02,3.428923338178603564e-02,6.843165523371060044e-02,1.223633464780505067e-02
1.721018877568935212e-03,7.805277664659751938e-03,3.465853578257003555e-03,1.594747274212169989e-03,5.391705958784925694e-03,6.328881887733025721e-03,7.768298978308205149e-03,1.180011694116651563e-02,5.239568644422677723e-02,1.529910051337541460e-02
1.740841635108607765e-03,3.411553148757745599e-03,2.827050873370892323e-03,1.316440637478217233e-03,4.639410470211608427e-03,1.057474074492716770e-02,7.372706476922852477e-03,3.553446473535571554e-02,2.774092246999249750e-02,1.922576327691031400e-02
1.068254402392467255e-03,3.037009381471474437e-03,1.910369248792566279e-04,1.051660165753588207e-03,1.980254362942360496e-03,1.137721314758055949e-02,7.800759705898550542e-03,7.397957192971743590e-02,8.652305815825522481e-03,2.472310227861165832e-02
1.034001647408624427e-03,9.991044219376570001e-03,4.265706176516352935e-03,9.156129976370419891e-04,2.737109304059495295e-04,6.091632725535535767e-03,9.551301132828295126e-03,6.989626432069304118e-02,7.650662332437722229e-03,3.045411103817961818e-02
2.094399359500056287e-03,1.537771512901284741e-02,8.499684346422450160e-03,8.710624861433521665e-04,4.155261019111362603e-04,2.195570044909474130e-03,9.491616812104211598e-03,3.003060362678078993e-02,2.119808517199070833e-02,2.823924730734396135e-02
2.880394733538225917e-03,1.731268489632970323e-02,1.168682980271201592e-02,6.758849654056317069e-04,9.372469485740824325e-04,8.410545160493504077e-03,4.561931313992483895e-03,7.288732172876523016e-03,3.251099858361793105e-02,1.078486052376318241e-02
2.185182285680528202e-03,1.671596136288817577e-02,1.180518623514826247e-02,3.977756556334451641e-04,8.533234938175296349e-04,9.927515209081470490e-03,3.547116059045086860e-03,1.831638456086107439e-02,2.912166030071572376e-02,1.730374158174808122e-02
4.988866963815024105e-04,1.610238645108655678e-02,7.963038329496623102e-03,5.982571989592847450e-04,6.637350767132425703e-04,7.117363948831478479e-03,1.491535656705697543e-02,1.605274157758567952e-02,1.315720454513516317e-02,4.246591142444303829e-02
9.260655987306612999e-04,1.529114691733934189e-02,2.347151920661200934e-03,1.397653649711973027e-03,7.938229172645789797e-04,1.933538663195785018e-03,3.205416553503563637e-02,2.535349841465864285e-02,4.775013455583372070e-03,5.618727842336667527e-02
1.161543190562550456e-03,1.181052212417494328e-02,1.137270351556190530e-03,1.922406786858257572e-03,8.256716928984374551e-04,2.799096781917961851e-03,4.701967164800692489e-02,4.877578395511807802e-02,1.390594891866662498e-02,6.529195643291854645e-02
5.413572782224357728e-06,6.265393209100507052e-03,7.630602913259369822e-04,1.529575611507096077e-03,5.701844538527202182e-04,4.358920538691028919e-03,4.351384807490493722e-02,6.512935136628941746e-02,6.639284154810876429e-03,8.401959411884302176e-02
1.247926939703597384e-03,3.217379247481753218e-03,1.260916444457994010e-03,8.520393918517093568e-04,6.890376116258597507e-04,2.816943050106121213e-03,2.189555952197839647e-02,5.665499418490402284e-02,1.629295118617393734e-02,1.118927174327772889e-01
5.177039617392336073e-04,4.650286808590344857e-03,1.842832531759721303e-03,7.535895805071228786e-04,1.512414823483019307e-03,1.951829677357617672e-03,6.024035743387044263e-03,2.757510265342316691e-02,4.196471216330302512e-02,1.295039860830174694e-01
1.950968409255886748e-03,6.195677775579143572e-03,7.870603803761813070e-04,1.104718517175208234e-03,2.086870977420076951e-03,4.648779325581220423e-03,1.359414892680294550e-02,3.912736582475861806e-03,5.312308155992762071e-02,1.232237450449445160e-01
2.977803505440186887e-03,3.189966627141991359e-03,5.519859487233141643e-05,1.335576217285767281e-03,1.490105015892104071e-03,8.624481561071210139e-03,3.429688191569116307e-02,2.111233934604783008e-02,4.373686652893852417e-02,1.010346148292779744e-01
7.519324015184223210e-04,2.247742787400835128e-03,4.687544325639863034e-04,1.371246182382302413e-03,4.679237262800430225e-04,1.011703522672256945e-02,4.815507737222229218e-02,1.614647461196746375e-02,2.474175640211489016e-02,7.796005730606049566e-02
2.346856950345445596e-03,4.292614168310776926e-03,1.135967892253467604e-03,1.447958548594750847e-03,4.653610577022880622e-04,9.299022210055392021e-03,4.984023349454304308e-02,3.752313958532289308e-03,1.044521517072815459e-02,6.051198705997089949e-02
2.970911424358683734e-03,1.834675852941575463e-03,1.383420889496380854e-03,1.598574335876015544e-03,1.423400451224695207e-03,7.707736427017542608e-03,4.226745026002510369e-02,1.657394058275502707e-02,1.330475199383780553e-03,5.222305670958252155e-02
8.969379653055724495e-04,4.224055267976602277e-04,1.475247479849696062e-03,1.705179184440452304e-03,1.918183628355147165e-03,4.062541550751426478e-03,2.266841854219401459e-02,9.446501023647739526e-03,1.112307915092120014e-02,6.159725732649322383e-02
1.559368897755067113e-03,1.303413284725910611e-03,1.708801736986323774e-03,1.742708349671385527e-03,1.358716746803937964e-03,1.981434715988607178e-03,7.323510408193410585e-03,1.045726868004732621e-03,2.431014241530447817e-02,9.248724136255663530e-02
2.606617769261997293e-03,5.564247994189501154e-03,1.964634512829716018e-03,1.758874685969557964e-03,5.930480221630694392e-04,6.135989481644516484e-03,3.081725429728104579e-02,1.646471968127472332e-02,2.450166687375824812e-02,1.303159253876784995e-01
2.228881900052758283e-03,8.499424264567758541e-03,2.098802277124170706e-03,1.760032034853171480e-03,2.854923448252644083e-04,5.517985230715397732e-03,3.356253211586042451e-02,4.086739380868108923e-02,9.455611603431009204e-03,1.499863447109884562e-01
1.476289294305456294e-03,8.541892587534669068e-03,2.161933694654149304e-03,1.719275307335462995e-03,2.645307801566486642e-04,4.303134689242685620e-03,2.291779041715734377e-02,3.117995170373119573e-02,6.088003451042421979e-03,1.398403404952546780e-01
1.327618562934145072e-03,7.123874775157143860e-03,2.219868011084057124e-03,1.630103673074505786e-03,5.123650543365541139e-04,7.262180997073826305e-03,1.367045822742641095e-02,2.074408274429087248e-02,1.238661346380715705e-02,1.101606055719435706e-01
1.598869354420254154e-03,5.946853351095572962e-03,2.248452414468727310e-03,1.503371647504333879e-03,1.142673738117041529e-03,1.140931652506969179e-02,5.288926073118423860e-03,7.203307663796884586e-02,1.535948929043166704e-02,7.845067734055177766e-02
9.993095187505400111e-04,5.214160972537177328e-03,2.215851694825504443e-03,1.342170290670159985e-03,1.536010011216985870e-03,1.027854848328705988e-02,1.174490802652285691e-02,8.428201399081924894e-02,1.994116114764412848e-02,5.384503225014747319e-02
9.809310908271526470e-04,4.427574037996277224e-03,2.133822211327981219e-03,1.142952816445354713e-03,1.057462335753202917e-03,3.638789961643757592e-03,3.483065838205687270e-02,6.214019786576997773e-02,1.933111076901745246e-02,3.481030116663410418e-02
2.939361703080415646e-03,3.514545156804125669e-03,2.020661717805522038e-03,9.072741808922710118e-04,2.337301716808006793e-04,2.906760012148094149e-03,5.018023244084846013e-02,2.983142154261450921e-02,7.728002247040658204e-03,1.588206416449677860e-02
3.247450411060528314e-03,2.707258752079228035e-03,1.874666909932761394e-03,6.413316455270384828e-04,4.898339590517927452e-05,5.975357346023548073e-03,5.274927569004375649e-02,5.621053322489707668e-04,9.706888894712134563e-03,4.686005892370307888e-03
1.885619697838800471e-03,2.048976559781138206e-03,1.689218814133870272e-03,3.503490045011486563e-04,1.312932228677380904e-04,6.631785442923030134e-03,5.107511645798571559e-02,2.903556565863077074e-02,2.598227154083753918e-02,2.355737346570505736e-02
5.202852843404418676e-05,1.435539373819352208e-03,1.469652231106748867e-03,3.857578418727081290e-05,1.641799763002862490e-04,5.926082974587861853e-03,5.099690297801540151e-02,5.626373217562667672e-02,4.070031551320310581e-02,3.825687706296830581e-02
1.359928025306172570e-03,8.536778916883311970e-04,1.230423886903165946e-03,2.882618210530876030e-04,2.373063614023051713e-05,3.486601719535611845e-03,4.763958130906220667e-02,7.972994026533700151e-02,5.429740659579207485e-02,5.141756990459909332e-02
9.940085367740752759e-04,3.653906680141255658e-04,9.778844850412118841e-04,6.231362284267290752e-04,7.953032862646336866e-05,4.364215768363891891e-04,3.692024120312994984e-02,9.250773873311615714e-02,6.369493130894705868e-02,6.659384681185526178e-02
1.056862615007534692e-03,2.347234117048408418e-05,7.021712884022370113e-04,9.590934400909669789e-04,9.127203496574567455e-06,8.909881172029046094e-04,2.350059882691757709e-02,8.528368208757622360e-02,6.911813193121656151e-02,8.153872819963876861e-02
3.196455615708858854e-03,3.598399503305436779e-04,4.043371509570538249e-04,1.289426090205063021e-03,1.109769775605796743e-04,1.295399136759554665e-03,1.144848253810100587e-02,5.677114490084751025e-02,7.496703240834393100e-02,8.894839862320776114e-02
3.936667251076829063e-03,6.400236659846466431e-04,1.201751560595833135e-04,1.607281598601662063e-03,3.966972715932581372e-04,5.065477333443616989e-03,3.902243276791962732e-03,2.165696357512732900e-02,7.660454992782038397e-02,8.535249879670508966e-02
3.738913982741859637e-03,8.041198421087307870e-04,1.331408044788384877e-04,1.905833049368287025e-03,2.329761148903964588e-04,1.372505696408301071e-02,2.548286070594274824e-02,1.118959017375552919e-03,5.884646582696835548e-02,7.736249841332480670e-02
3.852159832907722792e-03,8.735569416160781286e-04,4.125695454656137578e-04,2.178712292121734971e-03,5.161743721653475796e-04,2.254860984996885989e-02,4.369660888570468110e-02,3.795007629408695283e-03,1.924872338945549793e-02,7.493233601912935304e-02
4.050660871359225423e-03,9.703619763894321846e-04,7.391633198390783286e-04,2.420163677237257942e-03,9.572533992041714875e-04,2.671016311169709112e-02,5.071922770866300889e-02,2.022471490973140607e-02,1.968158779236136094e-02,7.818615146540887351e-02
2.988930852516325648e-03,1.062629230450751194e-03,9.755891405121366617e-04,2.625067023675048059e-03,4.459409807150509198e-04,2.804838622273184839e-02,5.822638367422966477e-02,3.591473594560692928e-02,3.509731081592670776e-02,7.723157598233759691e-02
4.108238936282078294e-04,9.122201991573504866e-04,1.057181069996662032e-03,2.789088062541952850e-03,3.680761796764056484e-04,3.122808143249215102e-02,8.072842501585247854e-02,4.335118150545562432e-02,2.958540518651458021e-02,6.746502578723100052e-02
2.171551696192371844e-03,5.944227754069639474e-04,1.263379857074675358e-03,2.908841435390325907e-03,6.116060941798741844e-04,3.578697425815908356e-02,1.077824581110945479e-01,3.865156659360462210e-02,2.022593774005766731e-02,5.706707638790393944e-02
2.893740275530662636e-03,6.816791854478800646e-04,1.738956363386027267e-03,2.981920590706439809e-03,4.129785517718856575e-04,3.723376801296199301e-02,1.148258694504077637e-01,1.622338049606973642e-02,1.272860500027501313e-02,5.481114677166944171e-02
1.192374709710529229e-03,1.305899453699051541e-03,1.847131499084518841e-03,3.006935511339999933e-03,3.373592462140370804e-04,3.399067445839059481e-02,9.613167926586607681e-02,2.248064487607574768e-02,1.291593349947301340e-03,5.909160043735510459e-02
1.613603794547926063e-03,1.605484057867303735e-03,9.572998380337086142e-04,2.983668592330237027e-03,4.502636589985252458e-04,2.827278437009302439e-02,6.855101114360362402e-02,6.061660462922316417e-02,1.050482610024867577e-02,6.426950520889944396e-02
3.459309217862904622e-03,9.506284490069395049e-04,1.764544365747725235e-04,2.913086060881645272e-03,5.070749066040746269e-04,2.182104490421847218e-02,4.923966105766566098e-02,7.788110273649360982e-02,5.959721896131694313e-03,6.851648342388109991e-02
3.727794639349081042e-03,1.179714822333436563e-05,1.679162314580162152e-04,2.797052292562640305e-03,4.704750259518001546e-04,1.511189276841856839e-02,4.450215257663227980e-02,6.835143313641944829e-02,2.162795019217545953e-02,6.992723149737650745e-02
3.660840825306035159e-03,4.040287358189642596e-04,9.630846708961951627e-04,2.638284963943689481e-03,4.555245318631516221e-04,9.483725223952259656e-03,5.395433475852573491e-02,4.139436075312359631e-02,5.499156284041786802e-02,6.447342766972635753e-02
3.892030535022499710e-03,3.419801652409507802e-04,1.972414351673657234e-03,2.440848436128600051e-03,4.805631816817027089e-04,6.436180692995856559e-03,7.195041618953498808e-02,1.072004815781335725e-02,7.193609987197523148e-02,5.350281001232529143e-02
3.029057094059422507e-03,3.823794480544133066e-04,2.178526904014127519e-03,2.210055300931501338e-03,4.882445681149397317e-04,5.245949319899380174e-03,8.613704274308649211e-02,1.447877558530330858e-02,6.896102570426355938e-02,4.543498837087402153e-02
3.666656502808261081e-04,5.878068079121293033e-04,1.678528481805689407e-03,1.951137208738516413e-03,4.716299478032521088e-04,3.447872965308475778e-03,8.440401172380418426e-02,3.276078331566784074e-02,5.698178996193721535e-02,4.531347390278649134e-02
1.685218761026115002e-03,7.108953003835943169e-04,6.637849720315308405e-04,1.669085302373044194e-03,4.667457052033005581e-04,4.679943792590380257e-04,6.640334238431450098e-02,4.641030167714307181e-02,4.344597815115534833e-02,4.787648785511668809e-02
7.538374321518720531e-04,7.091191153933485477e-04,3.575551533513013987e-04,1.371086310466060722e-03,4.738124954601558090e-04,5.809305013587688117e-03,4.243997960926852026e-02,5.497688910482308178e-02,2.896375038987817133e-02,4.417663992112175197e-02
1.204794346836322600e-03,6.923747197227796872e-04,7.176001165805430577e-04,1.066476929714545814e-03,4.575039171930207521e-04,1.078828591099767822e-02,1.845164656180085100e-02,5.723835080239737111e-02,1.430181166915626620e-02,3.226532110070690074e-02
2.448843122837140876e-04,6.795376891062574311e-04,4.621281023745010385e-04,7.610543597885120748e-04,4.256855294956522133e-04,1.412559090108604296e-02,8.358567433988200318e-03,5.579436291683045890e-02,1.351569696959322667e-03,1.865090317870152919e-02
3.710520550516085547e-03,6.186970900165669838e-04,9.381871344482840434e-05,4.565154310766672574e-04,4.361475138889381407e-04,1.542948940391860799e-02,3.388946569630216232e-02,5.039991518506352353e-02,9.082467506338648411e-03,9.322993154435606569e-03
