1.531862188500288666e-03,9.273308474417315617e-04,6.729890879994362193e-04,1.444615152232949884e-04,2.727680835659712557e-04,5.155761107242122542e-04,6.208156258405524890e-04,4.698017861490710878e-03,2.345198301487234210e-03,1.220151322520399567e-01
1.342298369510058417e-03,4.929266342368931238e-04,6.273332375125490086e-04,1.213300557222643191e-04,2.564766836773069354e-04,1.101035992594171805e-04,1.852648688252240715e-03,4.089425254984671229e-03,1.620518404383269970e-03,1.206833182118833003e-01
2.786476605005505300e-03,5.094937357298292147e-05,6.336772124079654818e-04,9.861444471296370771e-05,2.147925234388456525e-04,6.833731229011284335e-04,5.223893597605016974e-03,3.802473049914697166e-03,9.139935084490310221e-04,1.123350886244374458e-01
5.622229335026581419e-03,4.074058098369626874e-04,4.774887320020895646e-04,7.712951734549380964e-05,2.594040471907016758e-04,1.160230263682292089e-03,9.288775578939563807e-03,2.287521104022163104e-03,3.506024235603137098e-04,1.012227794789486574e-01
7.759464901700985351e-03,8.890029932033569711e-04,2.215811639598479416e-04,5.765835269450582585e-05,3.508116085168732560e-04,1.838897969205128841e-03,1.343886503956643295e-02,1.721427889603036401e-03,4.631222854743114554e-04,9.467179409833098580e-02
7.836254643546704604e-03,1.375573486982872374e-03,3.793946642184338014e-04,4.093215445841400917e-05,2.459116714529463281e-04,2.791278745477387187e-03,1.630282677020801485e-02,6.779739300603122160e-03,1.834247031203294943e-03,9.982323931598818811e-02
6.606653811201795498e-03,1.854220633825086123e-03,1.093967067447034662e-03,2.761133480879447230e-05,1.266562422285996577e-05,3.064771553426564547e-03,1.580752901129153093e-02,9.950073541885394446e-03,2.845660120302676531e-03,1.076358530967613386e-01
5.930990850568288245e-03,2.367760302053040136e-03,1.610817300469780415e-03,1.826824604569284491e-05,2.140729323358092162e-04,1.533419980762816938e-03,1.084474790699061636e-02,1.002277516916383164e-02,1.959073066257725412e-03,8.996488213534847844e-02
6.539678672362648354e-03,2.950849783038027828e-03,1.259176853328652403e-03,1.337197679500625347e-05,9.731509718744464719e-04,9.375966207016064998e-04,4.115534262767126319e-03,8.137880444332770344e-03,1.061215576336759902e-03,3.334722147204457338e-02
7.339831942062544079e-03,3.520722252296591605e-03,4.327945769739831479e-04,1.327561100846151238e-05,1.420165596696297983e-03,1.510810645583215810e-03,1.472860987833815929e-03,5.645364807461922783e-03,4.904510877064632672e-03,3.245320558470091155e-02
7.262580076289891322e-03,4.010608038128068986e-03,5.840988564610461305e-05,1.820626518938464730e-05,9.168662605776942013e-04,1.296178222054412011e-03,5.454239970691643867e-03,3.234239060610824383e-03,8.004839705859859850e-03,6.429482199332854642e-02
6.696186977606786127e-03,4.606409072897374446e-03,5.804723587811422281e-04,2.825808583234708189e-05,1.015315457187683387e-04,5.490810146819985471e-03,1.124084178776464833e-02,1.561443448907684278e-03,9.023276153229483135e-03,5.762113869408373029e-02
6.235574772409888458e-03,5.467584154968216370e-03,1.581892096206947681e-03,4.338836711651908133e-05,1.557858430926070670e-04,8.041671906470745923e-03,1.284797514686042592e-02,4.046613728790788038e-04,7.313808150652531884e-03,4.464893070317288437e-02
5.380829642905245701e-03,6.213349486900202404e-03,2.112752105799631935e-03,6.341701796248376088e-05,2.240061966037038129e-05,8.247282403827046332e-03,1.083204293196938540e-02,1.983595788111347773e-03,4.023977517756001029e-03,4.783409239020797871e-02
3.801984118120713303e-03,6.506720043992898425e-03,1.722808392493565578e-03,8.802942613992989604e-05,7.311763635677322290e-05,7.657796596228980818e-03,9.448446930383028533e-03,6.293225876590742215e-03,8.262687767832564353e-04,5.843371605110486700e-02
2.563746302695831501e-03,7.186301181954717759e-03,1.106226437122914122e-03,1.167823755316923660e-04,7.209706748329370392e-05,7.864396745575564021e-03,9.996860064943975319e-03,9.785916787207448939e-03,3.042899002762263459e-03,5.738138853026054226e-02
2.616184302203773421e-03,9.036705823402024426e-03,1.129095336798754566e-03,1.491128070613973854e-04,1.697553014242257521e-04,9.225138307198286688e-03,1.201332284973923893e-02,8.628257404505831896e-03,9.246777918997214560e-03,4.162466031015126661e-02
3.190469479838168795e-03,9.896645838951929550e-03,1.604993709459707433e-03,1.843498130867146222e-04,1.788416079535227337e-04,1.091767812675763921e-02,1.613345187854721766e-02,2.589937542885532157e-03,1.531802328325139982e-02,3.059069057050660748e-02
2.898457499721834776e-03,5.957342071251404102e-03,1.775480327422803784e-03,2.217297513062354501e-04,2.114209132696799381e-04,1.171227264037524689e-02,2.051592035174548342e-02,3.620753083776769368e-03,1.579377993588877011e-02,4.722888680450643833e-02
1.584087290806127091e-03,2.383850482561438149e-03,1.646012294679155509e-03,2.604128525637105607e-04,2.898593437004290700e-04,1.123093061982411572e-02,1.980756581949686887e-02,4.680022138264225418e-03,9.639938919779619461e-03,8.856553323186694415e-02
4.960657304267792429e-04,9.390425838594406577e-03,1.993510879971974615e-03,2.995005336348596781e-04,3.606115978607913578e-04,1.061566482131355744e-02,1.278497343931866634e-02,4.904957097194200324e-04,2.091342525623762771e-03,1.251709751664763504e-01
1.270577650031386521e-03,1.107660124729116687e-02,2.969648173261508085e-03,3.380557003466616063e-04,4.068699670517115737e-04,1.132833842865300922e-02,6.080776777856504445e-03,3.759010914289683588e-03,1.826087472685234379e-03,1.357443819602730806e-01
4.515102172889592404e-03,9.864080544629540148e-03,3.598658013750060791e-03,3.751264717923306121e-04,4.542704874830779380e-04,1.330547970292368827e-02,5.824035396159755150e-03,3.809953619824066676e-03,1.738106899312195355e-03,1.262952164317201753e-01
8.468871491664278078e-03,9.603795469327998380e-03,3.221535348095754241e-03,4.097670261590432021e-04,5.211207105753572601e-04,1.512394229648505138e-02,1.012932439445019678e-02,5.196997611366675675e-04,2.636890623656944254e-04,1.095505026207497234e-01
9.649760965827390569e-03,9.906427562807559872e-03,2.519723791671119907e-03,4.410529717536127358e-04,5.923406900739275902e-04,1.586084172700570963e-02,1.416175815433932603e-02,2.573109999646152387e-03,2.833636389766646963e-03,8.667504488484352454e-02
6.156739324421867457e-03,8.549208781429706513e-03,2.364680591949780072e-03,4.681030710370543183e-04,6.357031590697944951e-04,1.601906061720914654e-02,1.834248791114633306e-02,3.357145143609798280e-03,5.886058761994558165e-03,6.203304767857162338e-02
7.010592756978811617e-06,5.793572612765862662e-03,2.606269390972228584e-03,4.901116052217760130e-04,6.627421444260403732e-04,1.676248483098287043e-02,2.612568244105898177e-02,2.020536997002953146e-03,9.799332503059338118e-03,5.613236362160994863e-02
5.124632253851102957e-03,2.948213376439720416e-03,2.680219091730405134e-03,5.063646948332040272e-04,7.376094120100651352e-04,1.836505192992591087e-02,3.587917265591329674e-02,1.996765294237313126e-04,1.471841368376335633e-02,8.056899899035246948e-02
7.908696312020806543e-03,5.483345045293936716e-04,2.529649621021890296e-03,5.162292529256579500e-04,8.455009746602371815e-04,1.926130288502160906e-02,4.059686089937914605e-02,1.832846365622314063e-03,2.008041538962110698e-02,1.108520378710762255e-01
1.003313789248354640e-02,6.122878294504507588e-03,2.384381667103752100e-03,5.191698950579133002e-04,8.505382696077631649e-04,1.768981433854764987e-02,3.648037255693386410e-02,1.487499086159751408e-03,2.474537835276828524e-02,1.097051287774649941e-01
1.275392768815018958e-02,1.391518663819507270e-02,2.269781472258321220e-03,5.148181977601296727e-04,7.762328947742511837e-04,1.470045524454000573e-02,2.831375674195964198e-02,1.352667072310550014e-03,2.817374559163227793e-02,7.112868102848085572e-02
1.491138765366641430e-02,2.205155348043646296e-02,2.100738105031840428e-03,5.029757202803912270e-04,9.148799870795884829e-04,1.341381627305071253e-02,2.458491571699627370e-02,5.639561465429493090e-03,3.121996218351538038e-02,1.915443845686913213e-02
1.497295091139751178e-02,2.650450203067489588e-02,1.877738002640252273e-03,4.834947235297909875e-04,1.235180443126191558e-03,1.438712129506860421e-02,2.857307473742875734e-02,9.558666003750866322e-03,3.447409281350109767e-02,2.523271642443568330e-02
1.352370064153492028e-02,2.351526650200966989e-02,1.594323457082185607e-03,4.562877079570290366e-04,1.070120387662402755e-03,1.425571435362133280e-02,3.498811441551158419e-02,1.220656561874757830e-02,3.631399718078198030e-02,5.258301525304529683e-02
1.255476442190985031e-02,1.490249408586020660e-02,1.221551015878655352e-03,4.215916173822265825e-04,2.144778638870991445e-04,1.060086881536135943e-02,3.548662069976749739e-02,1.413521496577061810e-02,3.477042671421078091e-02,5.880128377281187979e-02
1.301828106538915723e-02,8.569353806166107868e-03,8.648414926909847806e-04,3.799534862407391187e-04,2.397092439297658769e-04,6.009046874228849561e-03,2.856899882257250486e-02,1.605155564752013680e-02,3.045569042237459417e-02,5.705265456467623064e-02
1.388926260337495534e-02,1.037622522135486260e-02,6.108313708509465704e-04,3.316548928390604628e-04,5.397739468133096229e-04,4.731990690941295652e-03,2.263160076949501456e-02,1.729210553470132694e-02,2.496628814478275837e-02,7.529258082280443354e-02
1.337548413963531545e-02,1.715310053714710556e-02,2.018062135133466095e-04,2.767068882647773145e-04,1.414968423449990522e-03,6.395420395153646534e-03,2.533142183021410559e-02,1.669171655506055188e-02,1.821975201061633992e-02,1.151500184614546313e-01
1.084687524178627217e-02,1.998066943391505271e-02,5.633847974350800984e-04,2.160490537204727091e-04,8.019249562920257928e-04,6.266796943531450712e-03,3.163060417895383059e-02,1.511274478860923781e-02,1.012682535113485806e-02,1.336684574468976205e-01
7.439836685016378709e-03,1.343314727586205314e-02,1.075765153316892613e-03,1.515531346836093891e-04,7.506896055778354039e-04,1.825698338668297130e-03,2.886296512513162812e-02,1.503907954463944673e-02,2.198549639938503393e-03,9.201221881545144921e-02
4.405454918871226991e-03,1.023895671251179133e-03,5.769653452054722019e-04,8.341633581903718560e-05,1.363992247372649343e-03,4.377334444553927610e-03,1.313005989390053294e-02,1.702045850348671285e-02,4.222381813246894183e-03,6.930946007613524723e-03
1.535659619283136039e-03,8.529346456480024069e-03,2.404453774660763460e-04,1.003302769255811466e-05,6.603338922252727575e-04,9.142618649660249133e-03,6.335485081809622519e-03,1.873650773598146968e-02,8.391421821886535862e-03,6.800846981243720279e-02
1.810895657007112643e-03,1.085283404503829471e-02,2.748232624555570647e-04,6.649933793166983118e-05,1.280658939649192496e-04,1.236358767499250513e-02,1.999233118390270417e-02,1.794244100271591424e-02,9.211184282928637848e-03,9.948306260879430374e-02
5.013295638060024165e-03,9.425132139809975357e-03,2.235803849283172183e-03,1.400240264584146283e-04,4.418051685161352663e-04,1.548387313767104687e-02,2.942338343038817389e-02,1.442148675370318565e-02,6.726307947761841176e-03,9.209382353772872787e-02
6.819279118266885140e-03,8.572232106972594787e-03,3.785995099511831399e-03,2.121380367674008177e-04,8.409746103236028295e-04,2.002124684310015862e-02,4.371058673439926628e-02,9.366233654613569798e-03,3.069142975433558108e-03,6.415753022633208236e-02
7.072107100032111286e-03,8.367721686853046500e-03,3.632378295472157934e-03,2.933255216741610509e-04,1.472812238567661278e-03,2.771571142624261463e-02,6.689907845037795786e-02,4.637746278371294648e-03,2.260195402766658999e-04,3.489487726505422632e-02
6.755317932612422450e-03,8.625212272411348843e-03,2.562423689882470899e-03,3.778227405693604900e-04,1.819009464744848412e-03,3.749070007291187973e-02,9.095504721183564345e-02,2.218978048074037295e-03,1.608637302478917782e-03,2.445544559872646351e-02
6.651681315220156834e-03,1.105490165946230140e-02,2.091587532693982027e-03,4.406026375194409999e-04,1.755524943004562301e-03,4.346664763157184752e-02,1.019674178058257719e-01,2.764978173686773698e-03,3.406271424012638580e-03,3.463751638489519918e-02
6.710798460466639234e-03,1.458272476165276346e-02,2.814323550263009288e-03,4.910332590960364953e-04,1.666964002627445082e-03,4.148602726461813467e-02,9.398005248310320470e-02,4.492938839265076846e-03,5.810494619852080503e-03,3.885412161442376722e-02
6.649595927643612431e-03,1.471613204583700762e-02,4.308879462573996302e-03,5.807755080414956543e-04,1.767974982231519058e-03,3.520369910988249001e-02,7.495291022838224126e-02,4.468356169440651331e-03,7.404661751975780137e-03,1.806527900863359737e-02
6.586566259107985363e-03,9.746421054315709820e-03,5.843809210564964059e-03,6.894331291533324895e-04,1.955238928636994760e-03,3.032426612560512602e-02,5.688173696930290402e-02,1.645584988089255664e-03,5.778686591937866671e-03,1.005268458390950678e-02
6.780498427630478157e-03,2.561290216317930937e-03,7.024188301761121953e-03,7.046064415548489819e-04,2.041545565392980342e-03,2.677684361622896178e-02,4.360633121770799564e-02,1.724334350893160124e-03,1.919983729387546995e-03,2.360790590041481757e-02
6.969599703998500054e-03,4.751231599901374961e-03,7.842570855651903594e-03,6.656004528223399786e-04,1.949976197237677979e-03,2.215170669794805369e-02,3.304978184054815221e-02,3.087119535652957034e-03,8.186179660785782453e-05,3.539290809871764587e-02
6.444387322683009858e-03,1.341796292303846193e-02,8.088070380196181117e-03,8.153103252510212912e-04,1.939801960462161088e-03,1.809072874342448206e-02,2.593563016577749708e-02,4.052266151830313627e-03,3.010719309511998413e-04,7.000697216964502090e-02
4.828205326059448882e-03,2.349470601910702214e-02,7.514317449261867683e-03,1.085012573759150216e-03,2.336428654489165757e-03,1.712242644613933690e-02,2.376471112447768597e-02,8.604010926790087860e-03,1.212746186049331980e-03,1.208350867225058412e-01
2.385504164712747444e-03,3.004704465089690427e-02,6.875389612585246397e-03,9.115327921294715538e-04,2.612344148247771648e-03,1.736010932507685289e-02,2.310249323857151843e-02,1.567916840524230873e-02,6.649534141284415070e-03,1.561983264688277528e-01
3.128897131798808796e-04,2.655999082214031623e-02,7.350141621861491260e-03,1.734570911484691329e-04,1.416195202631806817e-03,1.614047162798675980e-02,2.114594926105577838e-02,1.896239165872291160e-02,1.319721802955923541e-02,1.550185915573938367e-01
2.556334194025727726e-03,1.254381761512699672e-02,8.507254559797705271e-03,2.585099287837407545e-04,1.718399466075721214e-03,1.498617673190012420e-02,2.188798892215062034e-02,1.665063099556254173e-02,1.900363472717968641e-02,1.171180566246855931e-01
3.856506021742167958e-03,3.566921519651502191e-03,8.349827886456745452e-03,2.515923706262112799e-04,5.307840389989121159e-03,1.560227098033039120e-02,2.829880701855485084e-02,1.453368406988859995e-02,2.622813154595660459e-02,5.115176173626932721e-02
4.806354632698359511e-03,1.119082942760079094e-02,5.627460930070198736e-03,1.064982469668841704e-03,7.297081212766153187e-03,1.509298843661893014e-02,3.419041946795507020e-02,1.610215718474226204e-02,3.667107319184068071e-02,2.547658047393927538e-02
6.628968390468172392e-03,7.336974820909170081e-03,1.068585872675007278e-03,1.318587297600449897e-03,6.993067099611770601e-03,1.055599781443143474e-02,3.152854459977869062e-02,1.751554958263098344e-02,4.787057140838300862e-02,7.809495915023785539e-02
8.913723209099087136e-03,2.808850847821797465e-03,3.254387690154260642e-03,1.138692938674474263e-03,5.072544241529359892e-03,4.404561957670572597e-03,2.055080090963874728e-02,1.587208836263238887e-02,5.481099902169098842e-02,7.034138588076736809e-02
9.033216846838163991e-03,1.447159622847688475e-02,4.967505897812989415e-03,1.076326177602753096e-03,2.316826023563147655e-03,2.073591026421385541e-06,6.553086213309652561e-03,1.392550817348802046e-02,5.380000851295149017e-02,7.211214765021310702e-04
5.310066699601562884e-03,2.690059093965892212e-02,2.802986762422891246e-03,1.194707846118956730e-03,6.416485500990886564e-04,3.687144436711296738e-03,7.975629440687314470e-03,1.285286404356553169e-02,4.500013615650020476e-02,8.699728604859985337e-02
2.089944320815234451e-04,3.644230213315126365e-02,1.785278036911722328e-03,1.279034464003656101e-03,2.604582379635268351e-03,8.084560413568572801e-03,2.168138467188295004e-02,8.658388201699930564e-03,3.279245767748011076e-02,1.399283947546291762e-01
3.838709510526070248e-03,3.381515683312878717e-02,5.056176795775651003e-03,1.303631870730072003e-03,2.383668251905766457e-03,1.068546456025151747e-02,2.943529039357500876e-02,7.499033519917032604e-05,2.271648373115733519e-02,1.405619847804833455e-01
4.392640705791301010e-03,1.499412472783163801e-02,4.326131224233675451e-03,1.323102113043918889e-03,4.490382391381983582e-04,9.504495651913894352e-03,2.664233315129542479e-02,7.673409564907959779e-03,1.686455635388132632e-02,1.128779928583664022e-01
3.620617839092718070e-03,1.076446606487538316e-02,6.360859929484084926e-04,1.328850630284412896e-03,1.480517440390775267e-03,6.945070082549003460e-03,1.676723685718569182e-02,8.692339389573717351e-03,1.348396862548734837e-02,8.653577346418638017e-02
3.191415675537020817e-03,3.036616529586540561e-02,2.667926649242762134e-03,1.392372206403226119e-03,2.813030572629325685e-03,5.602782417888398092e-03,9.324651931090797985e-03,4.934099907716009079e-03,1.099299402828130857e-02,6.477301626482782904e-02
2.889905533151363240e-03,3.924769443951778292e-02,3.252095345573955288e-03,1.569107646761280957e-03,4.449296438788721657e-03,5.230793496803224502e-03,1.137806652671084773e-02,1.710489192153598955e-03,1.007511639103493388e-02,3.566181149036639492e-02
1.827456713092772420e-03,3.979808701773021595e-02,1.001144939496484117e-03,1.621784143136477743e-03,6.550075305921348838e-03,5.613830850221976365e-03,2.234951572182864929e-02,3.031365905654403742e-04,1.194644523196106145e-02,2.752057990247899766e-03
3.917485988820588842e-04,3.472142770293539654e-02,2.737626654030456477e-03,1.408824260606739241e-03,7.605343074107959872e-03,7.234667630148516881e-03,3.416332196223640510e-02,2.811178345345342715e-03,1.654599328412331011e-02,4.780608460440250590e-02
1.288443830308807505e-04,2.723357794149534883e-02,5.817122536065247838e-03,1.478368054924245794e-03,6.234016233534256379e-03,8.691057146945700695e-03,3.742111530391770829e-02,1.015935838938020024e-02,2.188083935604666352e-02,9.986938580989569714e-02
1.559866119335035590e-03,2.160073390307758190e-02,6.292925566024333735e-03,2.178189658471706060e-03,2.868214952974415966e-03,8.328374788554781735e-03,3.141621936216341254e-02,1.866442364040842364e-02,2.440076376232565986e-02,1.423396092953717329e-01
3.076618670528066379e-03,1.862198531065185556e-02,4.446572085226977583e-03,2.261475577438176038e-03,6.841067830987405561e-04,7.880962098874708804e-03,2.515136933010261172e-02,2.231517483100651025e-02,2.200030340955333799e-02,1.432896606147935070e-01
2.835926824455316849e-03,1.455711288209946171e-02,3.129644450946843237e-03,3.662022247928649744e-04,2.730571354187476436e-03,1.002620747870144879e-02,2.484161038375971159e-02,1.930660130971057278e-02,1.661759095932379207e-02,1.020300544172084434e-01
1.116490656732599005e-03,7.536186240351099540e-03,4.132073553501878008e-03,2.017122924113491991e-03,2.789595833823806624e-03,1.319431816145643158e-02,2.521945438297310341e-02,1.403440489921476894e-02,1.141055604353082183e-02,6.604238299732897999e-02
1.553171961439062695e-04,1.977782671468788969e-03,4.843108808496630370e-03,1.895418482634087702e-03,1.868209127495130788e-03,1.308333739088247960e-02,1.722580868391147477e-02,1.124439188774687889e-02,6.916939183560939439e-03,7.681050178763537684e-02
6.177574960240371938e-05,3.894866388633581346e-03,1.407302859123429981e-03,6.684329142170467378e-04,1.465238586828508096e-03,9.181553502450201520e-03,9.158105246490009762e-04,1.084944494994309096e-02,2.335193175110609337e-03,1.177669516889002926e-01
8.159563226266435595e-04,1.295801985938204587e-02,4.881847555767723432e-03,2.633594303987857842e-03,1.849344121941324821e-03,6.069950514212133115e-03,1.290312176928453888e-02,9.509278503581547470e-03,2.578726881288078907e-03,1.362022713081767478e-01
8.435862754243457756e-04,2.176783771125318651e-02,7.980075918642142926e-03,2.669904761810067140e-03,1.994582632807551537e-03,7.470498096399871488e-03,1.420956130543766897e-02,5.168613872930297344e-03,8.847773052806595651e-03,1.067361277311632412e-01
3.991126096502210091e-04,2.390012779271857499e-02,4.805527193124417909e-03,2.316316179044426975e-03,1.442156481107496066e-03,1.200430203920136753e-02,4.619283192135573146e-03,8.657181067259277045e-04,1.748818390970958633e-02,5.386995333887668880e-02
3.313306990694560913e-04,2.033993880996196740e-02,8.539187501599287012e-04,2.495058397240180071e-03,9.761686845868749497e-04,1.595802929686882671e-02,6.278695716999975820e-03,5.063513068585386891e-03,2.598891480074280724e-02,1.206576929800155622e-02
3.181984749527668453e-04,1.591029237606816568e-02,3.627916587383983593e-03,2.152272867920500005e-03,1.185205202623286578e-03,1.758010503041712580e-02,1.289668680154046343e-02,4.732944738823401977e-03,2.990001525995812995e-02,1.270648170217240393e-02
1.502535986134875140e-04,1.233206066549275177e-02,2.945380222084322767e-03,7.704615087045453472e-04,1.707972145834517732e-03,1.759063686231756435e-02,1.705767290676480502e-02,8.672929984564837005e-04,2.910840071902316348e-02,2.870533802518321354e-02
1.662368771176903266e-04,7.973031616933936444e-03,2.212428184886661760e-03,2.473743645454425186e-04,2.221426670860112990e-03,1.752810688177356899e-02,2.162494575797679550e-02,2.822244902542180543e-03,2.804384125739934133e-02,3.203093400532984469e-02
1.004158332177553913e-03,1.743240741683895357e-03,3.351489484607201620e-03,2.883929439016505252e-04,2.782549713109409243e-03,1.807813227101884648e-02,2.556261463840700521e-02,4.439775421385973829e-03,2.833195840119446390e-02,2.040420479049697561e-02
2.011572366155923389e-03,5.559407781725925896e-03,4.186615392849794663e-03,1.027261867278988225e-03,2.715479853260315077e-03,1.809166917736952304e-02,2.544271554078431780e-02,5.538990223480692865e-03,2.615655356796176001e-02,1.381831718355081701e-02
1.304453336198799608e-03,1.180372062225358912e-02,1.084788239461831165e-03,8.299457441019871765e-04,9.283547406395348863e-04,1.590831950366058262e-02,2.015923558645303995e-02,7.342780310407146308e-03,1.896347968310308288e-02,3.074927537249611334e-02
2.907503044260536943e-04,1.458524355269193336e-02,6.674976024139960863e-03,6.043285946742966812e-03,1.735460573962068495e-03,1.171692968736402427e-02,1.230384864709191395e-02,8.270481732008571479e-03,9.931763397614323113e-03,5.201069572761767013e-02
8.264122846484554157e-04,1.408982863811094471e-02,1.526643858801883698e-02,1.185251033237411968e-02,2.556799416500508352e-03,7.293873602287387695e-03,4.162959148515180119e-03,6.827591241881370010e-03,3.518713125932809022e-03,3.930622520803120357e-02
5.553412624804837943e-05,1.415508014363749123e-02,1.908282610983119687e-02,1.436732195227567906e-02,5.881004815553373104e-04,4.027386102731777932e-03,3.762221525193417022e-03,4.156216897159359727e-03,1.209544101478172333e-03,6.591505701079804561e-03
8.159972107712146639e-04,1.698210183674163376e-02,1.561322767180151928e-02,1.190807723842570581e-02,1.866968547394706702e-03,2.535780022921166332e-03,8.493001376729598928e-03,1.993962406406694921e-03,3.444241633999936981e-03,3.777247940453640207e-02
1.327927758695609823e-03,1.837632397724419178e-02,7.443475699713203789e-03,6.096103898029687357e-03,2.547417470090486673e-03,3.078631876990823787e-03,4.968068363846266447e-03,4.358620366294029295e-04,1.097263284243035070e-02,2.191203209499249793e-02
1.889689576900953826e-03,1.345074506372680168e-02,1.091663419650116835e-03,3.233410160642328363e-04,1.998996383258124735e-03,5.080825412251915515e-03,6.360570123127027957e-03,1.103339145018556681e-03,2.204190855678147057e-02,2.009974317074637862e-02
2.461529894928359344e-03,5.489534431563420323e-03,7.929634898409965854e-03,2.930279065336090314e-03,1.923338555073648200e-03,7.135145419814871090e-03,1.811864658337402137e-02,3.157883986301095701e-03,3.116061518295456037e-02,5.517671412625369670e-02
2.645639312147763343e-03,2.382727502683291108e-03,1.227246439723870576e-02,3.521970637213673455e-03,2.357948350860543212e-03,7.989082757136396762e-03,2.393291520203292763e-02,6.759338590653998953e-03,3.265254204053570641e-02,7.960456243810293264e-02
2.289232460417088989e-03,5.214836989161510984e-03,1.209762808400406502e-02,2.717802864439056425e-03,2.040246115254312070e-03,6.838138898208235769e-03,2.228558443276704160e-02,1.121054945064575530e-02,2.531901448652517164e-02,9.871813256485055532e-02
1.249247619291285125e-03,7.524167846375973655e-03,6.561750434957142226e-03,1.801129829183028934e-03,1.012802356951733075e-03,3.129892532822337904e-03,1.313065504074709990e-02,1.199061590149406824e-02,1.387149243940393600e-02,9.864416914055806895e-02
4.627124870752813640e-04,5.084350347555000905e-03,1.387636326563559865e-03,1.381872168830307075e-03,8.533763084681469501e-04,2.686311826869667175e-03,2.304569184635374066e-03,6.184114638293171894e-03,5.834034828728327376e-03,6.545804679387448588e-02
2.479604758938023807e-03,1.632562393662071636e-05,8.792841257889443332e-03,6.655495510516644571e-04,1.632100909297931916e-03,8.715878366314534081e-03,1.854714387162524278e-02,1.247769545108763601e-03,5.815625512906368033e-03,1.654130548374981372e-02
4.794514522105058560e-03,3.838880532179651285e-03,1.569044067588525743e-02,1.860163807724793481e-03,9.548007262938686948e-04,1.306475178157804826e-02,2.879675900054126311e-02,2.786334401688303833e-03,1.192381054591198399e-02,1.058323025981657180e-02
7.528269901149299906e-03,4.152810884096348916e-03,2.107847794137599970e-02,5.592432932646771923e-03,2.298852297930871914e-03,1.535380001307478162e-02,3.142286408914744811e-02,1.986110762121863146e-03,1.798888521274627852e-02,2.798734128150116157e-03
9.525237115744256827e-03,9.962981657918297627e-04,2.148152595951587779e-02,7.402379982743451450e-03,5.541668921981188906e-03,1.637357847997954197e-02,3.047902175699336580e-02,7.769750594560872504e-03,1.902517453907048850e-02,9.835588661304579816e-03
8.771351299145704883e-03,3.432731511108866665e-03,1.658519449475832561e-02,5.579998932450115461e-03,5.761567205330995686e-03,1.685066162662665276e-02,2.964450660439268276e-02,1.202684572438961555e-02,1.449980705220848577e-02,7.663115408134370775e-03
4.745928696624412621e-03,6.728209139127227720e-03,1.031409767569741245e-02,2.184994327761280355e-03,3.347864873102527651e-03,1.671713085126526332e-02,2.774920002874413719e-02,1.697409731750786771e-02,7.882822729670033862e-03,4.893086206463547611e-02
4.609503357986012833e-04,8.536027233782975468e-03,5.175742327928840869e-03,2.350533234665132731e-04,9.645982061045216835e-04,1.554270983705840180e-02,2.258449137170627161e-02,2.403965793926286440e-02,3.548093684833480716e-03,7.982646479210722679e-02
3.910742596281159902e-03,9.474309250267596780e-03,1.621712295833965594e-03,2.629478390836672143e-04,7.390815411076902513e-05,1.384264250248405485e-02,1.788466101210779355e-02,2.935240192288038688e-02,2.487490357710228812e-03,9.182869051800700289e-02
4.881374332321363092e-03,9.101048925917943483e-03,1.621173848129060530e-03,5.769340419169467771e-04,3.871534432480707458e-05,1.283745501192835696e-02,2.004978125349712870e-02,2.663172948363078801e-02,8.708115945294516921e-04,1.117694766602421175e-01
5.426800958649349860e-03,6.796441920473073918e-03,5.957628612044706985e-03,1.425055529405344157e-04,4.470369970091370810e-04,1.234916288650347860e-02,2.714753574948547063e-02,1.508657903184279850e-02,5.475749213650066630e-03,1.531575543659665917e-01
7.159947413832051799e-03,3.251087453966337772e-03,1.014745436870917103e-02,1.438517604685417457e-03,9.072263005315549548e-04,1.109897376169164535e-02,2.986560993032652891e-02,1.536267556127529892e-03,1.537916973870860279e-02,1.880982952397885488e-01
9.052996541736732516e-03,2.307955683034214681e-04,9.325994469408698320e-03,2.146859903814914063e-03,5.350682062609690053e-04,9.417877070826774846e-03,2.464589768148646096e-02,7.461303801085173749e-03,2.291000058086535215e-02,1.822863479432779155e-01
9.737534925885934708e-03,2.743726632872754354e-03,4.434812272515320855e-03,2.035335642621504283e-03,4.251452979897441908e-04,8.582299968131349224e-03,1.694012772398035063e-02,1.212069279400415818e-02,2.320876954185543267e-02,1.339132645070774397e-01
9.755273355917429279e-03,4.192954992827331237e-03,9.704642286170842317e-04,1.763653196854667341e-03,8.641929388474620761e-04,7.831645867556510932e-03,1.153213894508196141e-02,1.587254777171118875e-02,1.644869420647433050e-02,6.581823187667386332e-02
9.661182772538589453e-03,6.067443290540283293e-03,5.810517121591125475e-03,1.736115494031809266e-03,5.305521521120932105e-04,5.635102387316192479e-03,8.158845316527444519e-03,1.947650712767920109e-02,7.430242759827156152e-03,2.205675185871600053e-03
8.213774777966930535e-03,1.031565277992921477e-02,9.762920179614262284e-03,1.782612863235267815e-03,2.006753709861483351e-05,2.903205120806484456e-03,5.904708848295956748e-03,2.148758850282149122e-02,2.123666275311760984e-03,3.931993256615352178e-02
4.504162564157942507e-03,1.569156524754833013e-02,1.121700359729080158e-02,1.726315223150063499e-03,4.039771790575124406e-04,1.481576773994394258e-03,4.708716173035015079e-03,2.131402945569296770e-02,2.362224166840380928e-03,5.554713414334180865e-02
1.974173095634648386e-04,1.775566580792317661e-02,1.005480504584757226e-02,1.639028488486545974e-03,7.646505599925346218e-04,8.947604408799157780e-04,3.053306022509722807e-03,1.913494983264363639e-02,3.651022651716279328e-03,6.208144575691993544e-02
4.370340717660160801e-03,1.441058297720844254e-02,8.864668463134977444e-03,1.602881208281459798e-03,8.955898615155775391e-04,3.535176086094087705e-04,4.913385297132361832e-04,1.496111798579146876e-02,9.151239649019130354e-04,7.261338336329080378e-02
7.811287314389754773e-03,8.265583858359239547e-03,9.301239574272561136e-03,1.584742274769172354e-03,7.587960220124679699e-04,1.789511250926947329e-03,4.104034886790545837e-03,9.646396717931209064e-03,4.170766701131789142e-03,7.827417044914093680e-02
1.000900800162088204e-02,2.446997983583098450e-03,9.536859783986405270e-03,1.545002640355100289e-03,6.027442156040772360e-04,2.053970786293687727e-03,5.467406083004233870e-03,4.755199637993199821e-03,5.036379623807286758e-03,6.437411740952694861e-02
9.646664200479831627e-03,1.743244976541352253e-03,6.939604972864783783e-03,1.497801736479178200e-03,5.625884988687370521e-04,1.789890958238171030e-03,6.494304041373197625e-03,9.411235211869751777e-05,1.062245495078382659e-03,3.691880772150755302e-02
7.175716409195280476e-03,2.946516346742805628e-03,2.259574917611282402e-03,1.460917955785752138e-03,5.434423371829895291e-04,2.973678331608185788e-03,1.088088792798302777e-02,6.180382927963876637e-03,9.774094751376867507e-03,1.484027529291317461e-02
5.026783711067398484e-03,7.194541658056522078e-04,5.940725099343496969e-04,1.426985289227916762e-03,4.773417245116503768e-04,5.735991375245142430e-03,1.803455258448280474e-02,1.365179481573869716e-02,1.547158310567193010e-02,7.078148067107914096e-03
3.806406478485279202e-03,1.793630095527595216e-03,6.365042096206884048e-04,1.386631935507216980e-03,4.071042235881000581e-04,7.661404522434830770e-03,2.353036789277644994e-02,1.839937580538686390e-02,1.737866211718501475e-02,1.077159456914182634e-02
1.431725733126687841e-03,1.036258302310431216e-03,3.092150180815821624e-03,1.342269744775053579e-03,3.657060384211253154e-04,6.751119763846993339e-03,2.486106226024844060e-02,1.752112358903475109e-02,1.847725170808163855e-02,1.895416288550160269e-02
2.734549434101076013e-03,1.727706653062568943e-03,1.207023290198016435e-03,1.297456385154086792e-03,3.342310851929639493e-04,4.108347859293043011e-03,2.356962029916547657e-02,1.315444359657721302e-02,2.001065524535613344e-02,2.040457925312875662e-02
6.509366965171190303e-03,2.689736383268653223e-03,7.092026756491412454e-03,1.250334885828820967e-03,2.968934009431819262e-04,2.499089545088446947e-03,2.230845932166078405e-02,1.008722199562188046e-02,1.970388325752727224e-02,6.845836766928769732e-03
8.455293742714026575e-03,1.646429277828534736e-03,1.722456974785480099e-02,1.198558535802101647e-03,2.614485411393939907e-04,2.696521368983375438e-03,2.216781083645981074e-02,1.019254354862684196e-02,1.583904229987095208e-02,1.176747290642371144e-02
8.747811360586761273e-03,1.162728078541300225e-03,2.245360253017181923e-02,1.142443873333459734e-03,2.357041423566630161e-04,3.119947540777769004e-03,2.257341401905108361e-02,1.098130859550637550e-02,1.029613956593835103e-02,1.284687867563124100e-02
6.368474388264756120e-03,9.379360873654875655e-04,2.112407810139813047e-02,1.082720505876115426e-03,2.177511563748972393e-04,2.918097524005678397e-03,2.202087768354328567e-02,9.623938451131642743e-03,5.872379224911635810e-03,1.068267787621062469e-02
3.230537104365448914e-04,2.002962754687860440e-03,1.704287168859690282e-02,1.019040635974160190e-03,2.025395304393926661e-04,2.953434687296008308e-03,1.870661701642912025e-02,6.425651507127450382e-03,3.112645233136894594e-03,3.758528442811261833e-02
6.320130948754085903e-03,7.985466493790355919e-03,1.334039449618151449e-02,9.510235935631831472e-04,1.862756080113012603e-04,3.607143174883055241e-03,1.192908199668450860e-02,3.302898221987342429e-03,1.466481287394696747e-03,4.165234612895237637e-02
8.758523098111656649e-03,1.329568829250944197e-02,9.324962638443842072e-03,8.789711037287731678e-04,1.726123088109747777e-04,4.046875616159673755e-03,3.961768580973068325e-03,9.345275171320071303e-04,9.392816521863582308e-04,2.417954849177641335e-02
6.947396001012539658e-03,1.417845108649172861e-02,3.362431390043047266e-03,8.033869116129949530e-04,1.714952855767265430e-04,3.826445551876161023e-03,8.565173543484594278e-04,8.157367096955343930e-04,1.247936915317096260e-03,1.342031548605144252e-02
5.135285205720065832e-03,1.047707700075435275e-02,4.001333194102285606e-03,7.246313756974909074e-04,1.766381419186762315e-04,3.215416335032390306e-03,1.286627105637478188e-03,1.774507918636622538e-03,1.826994595260711136e-03,2.721043372574886987e-02
5.325394534079886007e-03,5.051172775644388602e-03,1.034326550685515933e-02,6.431330919203561433e-04,1.635569792885245978e-04,2.118301318988464500e-03,2.157988998787912192e-03,2.395193683805077554e-03,3.198137669321269617e-03,4.751249511821294819e-02
5.769316495094725661e-03,2.357864867463245430e-04,1.358990841746809258e-02,5.595398879307181663e-04,1.419781441814259011e-04,3.972217974308612089e-04,8.174756981148592963e-03,3.341000604304855508e-03,6.107329586765390499e-03,4.758897727925929383e-02
5.381318769897411834e-03,3.783008630272577649e-03,1.372973039577235835e-02,4.746043524135466936e-04,1.633222086786059496e-04,9.988754177093592691e-04,1.571804107131342595e-02,3.209045493656641820e-03,9.603697734844339473e-03,3.492234117146692657e-02
5.232756642380290320e-03,7.018000915645110013e-03,1.249526497440895875e-02,3.890910507629492289e-04,2.070163352349856296e-04,7.437293637084347285e-04,1.649714065232131197e-02,1.904185076704039033e-05,1.173798009241366729e-02,3.915466381252679512e-02
5.866664232072996837e-03,8.843312818997035862e-03,1.143326944715302752e-02,3.038053696698681037e-04,1.605546023124418734e-04,1.014883489634585325e-03,9.152264049120024253e-03,5.051674988187311414e-03,1.157513612040850758e-02,5.883854925051302392e-02
6.394787470029442318e-03,9.896130742475443484e-03,1.075063999798897031e-02,2.196113459219154699e-04,6.272799649198654000e-05,2.619747633225007546e-03,4.346430363095575393e-04,8.883673375423811747e-03,9.490334469326230232e-03,5.771963437257623258e-02
6.125714341044887629e-03,1.184061856091739827e-02,1.001664258022014024e-02,1.373907088713756722e-04,1.559352217825973636e-04,2.889880329510530026e-03,5.723630713553704355e-03,1.180392938686713328e-02,5.885830561307322552e-03,2.534940192236313089e-02
5.257743369812252487e-03,1.454246980182685202e-02,9.130311462451102048e-03,5.800535113231611913e-05,3.716042467060538487e-04,2.256660347565025114e-03,1.284720579602703985e-02,1.621566744165087171e-02,4.018871311774707645e-04,1.972677645899340894e-03
4.189495013149377098e-03,1.590929527216553008e-02,8.297302525594149256e-03,1.771293340769667106e-05,1.462912742944742046e-04,1.696021417242408189e-03,2.379197709233165856e-02,2.125312219042482451e-02,6.816043983111352671e-03,1.950492187335305799e-02
2.982796324780182581e-03,1.453096072830383466e-02,7.613094832748979954e-03,8.897356911209819007e-05,6.432485539988896418e-04,1.435606629586938868e-03,3.486500286419071115e-02,2.331250506065896122e-02,1.348789258079361938e-02,5.094664512030878251e-02
1.571452351320997559e-03,1.095516862554134739e-02,6.969555144622574874e-03,1.550499788116337270e-04,1.127310963197725212e-03,1.154083973071808652e-03,4.126854311455648711e-02,2.178994672392025461e-02,1.683099922081990676e-02,5.043357578256162793e-02
3.617490642659895251e-04,7.143577254537841238e-03,6.240813550705523287e-03,2.153003141647246734e-04,6.676548372681340030e-04,7.623649293807519033e-04,4.348482134520474662e-02,2.001774539664888386e-02,1.677236228264140927e-02,2.067535660128697397e-02
9.251886111419067946e-05,5.328319761884873530e-03,5.520520736110261402e-03,2.691802832805145458e-04,9.745164408884506989e-05,4.478044089061222841e-04,4.450019671977492597e-02,1.949006830837758317e-02,1.516401276345712666e-02,2.764130939768190843e-03
7.710880409875164009e-04,6.235342003789033812e-03,5.058102970772029687e-03,3.162538588100046203e-04,2.984051918596453720e-04,2.408478590571584233e-04,4.379841542669501986e-02,1.686631571780481884e-02,1.255793831188230930e-02,1.134354580696192612e-02
1.560398690232595422e-03,8.282241904876525354e-03,4.743244195465495978e-03,3.562041878569753030e-04,5.862947965292016267e-05,3.046703470520721884e-05,3.882578128796059652e-02,9.262175033302256014e-03,8.984922033771000974e-03,2.221346757116077208e-02
2.020331891997099658e-03,9.336624329828704244e-03,4.018131116741539485e-03,3.888416212656240281e-04,5.847040294291797193e-05,3.492266713941080680e-04,3.195799992146407253e-02,2.555775255828230275e-04,6.608060539779374645e-03,2.088673592591889713e-02
2.285308109832896901e-03,8.867808883927321556e-03,2.820009341842183090e-03,4.141074314447433600e-04,1.540305677862935276e-05,4.434942802171997650e-04,3.024893503697985778e-02,6.165567541299899271e-03,7.434010534865016437e-03,2.005005465185133451e-02
1.908413097423447211e-03,7.798980195654516522e-03,1.999769780653605326e-03,4.320744421455416525e-04,3.796562427370143793e-05,3.700237726984684466e-04,3.416926163421227930e-02,8.016320468969566695e-03,9.507372746509028250e-03,2.539255757150301815e-02
1.630739242251938697e-04,6.927128374394127958e-03,2.077420656399217927e-03,4.429451610065516056e-04,2.897206748091001299e-05,7.055218639509798452e-04,3.142709049654204834e-02,1.037389937464124577e-02,9.414355723481199548e-03,2.216521083647987264e-02
2.307656224142922048e-03,6.256398542649597820e-03,2.449907781915679639e-03,4.470468652924190853e-04,7.315455721914711012e-05,1.579333734229274857e-03,1.049438657761663646e-02,1.540613470850523033e-02,7.362405457650400900e-03,2.313234484166433024e-03
3.864405971917755488e-03,5.549464603481392942e-03,2.488791288965028735e-03,4.448234828682813904e-04,7.538469506974501450e-05,2.116844523482610662e-03,2.146569374818017156e-02,1.955083009613568096e-02,6.227006461168392744e-03,2.186353452445827586e-02
4.164072916828184118e-03,4.803834639086831948e-03,2.245649996904219500e-03,4.368247550082363681e-04,8.673389753314852220e-05,1.678872533860465257e-03,4.321108732114495310e-02,1.875040376634345626e-02,6.901208334174769275e-03,3.451936984516484203e-02
4.445764551065622440e-03,4.118636633209753033e-03,1.715335018615180701e-03,4.236930917960363726e-04,1.141868880166591694e-04,9.086614555588329051e-04,4.185526498571918996e-02,1.376105175043599096e-02,7.683094121068954896e-03,2.945192644278851746e-02
5.334307329715635808e-03,3.490004797133268357e-03,8.381313542682293245e-04,4.061483192351952464e-04,1.341941382297908911e-04,6.797515188357272338e-04,2.480918566129303171e-02,8.622691981433639255e-03,7.321018007861645679e-03,8.902271416056036640e-03
6.022538080150697734e-03,2.866789907130746617e-03,2.366983280312327407e-04,3.849706304449607174e-04,1.466662482194742935e-04,8.705375288571430862e-04,1.120428098043427592e-02,6.313878449118545504e-03,6.292685699923340759e-03,1.676009401387968875e-02
5.875385339772768410e-03,2.245999264995535757e-03,5.055461461058308311e-04,3.609822214425481438e-04,1.600853895913165062e-04,9.202588086743212700e-04,1.457823881925785804e-02,7.443308491934515735e-03,5.424198692942637165e-03,3.226096817132828587e-02
5.368744601863082756e-03,1.648095716224431354e-03,1.113622247262706713e-03,3.350280943723522907e-04,1.652459859810582272e-04,7.645355622956831031e-04,3.092820265617009581e-02,1.115067326836837944e-02,4.807951717671093105e-03,3.233632799149812470e-02
5.171759950133531479e-03,1.072134612892162563e-03,1.206472278598580503e-03,3.079564701381919578e-04,1.615942410365208326e-04,6.498011538198898577e-04,4.287050117805150246e-02,1.533015973914076888e-02,4.185600435539730407e-03,2.777580788990421587e-02
5.285090583255457920e-03,5.068233247293096270e-04,8.509703337377602390e-04,2.805992721688736215e-04,1.721031377212581736e-04,6.182768229372083554e-04,3.806584466752364893e-02,1.706042007385982079e-02,3.521483692915596594e-03,2.602182983098078051e-02
5.218872470399630974e-03,4.832023359353294261e-05,5.966885279224676264e-04,2.537531669596784583e-04,1.891695452839720461e-04,5.610343872002508886e-04,2.256576628200988172e-02,1.515156632666316526e-02,2.927657205637582659e-03,1.678471483416455606e-02
4.520720734336802077e-03,5.878932303279378515e-04,5.328747464963042458e-04,2.281616256886838336e-04,1.610979677738639962e-04,4.615228129816304923e-04,1.383785710250988107e-02,1.235813424067920899e-02,2.417556796442689102e-03,8.976969084919298597e-03
3.153272348738562266e-03,1.110605431261280779e-03,4.190037740997037030e-04,2.044984308584712758e-04,1.067371223694265541e-04,3.749570251081122936e-04,2.158937034872076069e-02,1.263716599409284852e-02,1.935057244024613460e-03,3.960912083224124580e-02
1.638309281745083546e-03,1.617148608128837111e-03,2.026318904934906241e-04,1.833530167901013504e-04,1.382676560378096845e-04,3.139344592724338653e-04,3.834000437426511587e-02,1.556520569050987013e-02,1.469030038545350797e-03,5.901792791092699136e-02
8.771999109448157294e-04,2.105565007489866147e-03,7.897101446042168382e-06,1.652179920741996466e-04,2.171404451318034582e-04,2.565372160933985330e-04,4.980617273866946165e-02,1.639300875674854635e-02,1.041300478880754707e-03,6.869366117440640906e-02
1.573348457721701708e-03,2.572284287168394735e-03,1.880391740194787111e-04,1.504791358223938800e-04,1.004398485502785098e-04,1.999085112927749075e-04,4.962373460899897198e-02,1.259753610747918300e-02,6.530126802528150301e-04,7.746803920652829689e-02
3.408792015942397474e-03,3.014418324352854516e-03,3.885912141208174107e-04,1.394080945380965530e-04,1.432219100407015042e-04,1.570492333453545747e-04,4.000871593099383089e-02,6.903353798772456258e-03,2.897040393147372870e-04,8.207452093670919435e-02
4.887233872252324564e-03,3.429431756947264997e-03,6.210556387466662593e-04,1.321579394518956050e-04,5.084594379907338423e-05,1.316383992904165425e-04,2.515809361895649313e-02,2.655742336998721462e-03,5.343510274935080878e-05,7.337395269137149401e-02
4.743907444239119781e-03,3.814202767805731798e-03,8.601668444031069973e-04,1.287616744848816522e-04,8.057319740055450151e-04,1.191860417926931333e-04,1.070825235147720988e-02,3.194524749185493825e-05,3.735495922689913758e-04,5.282562895613433090e-02
3.537895748496961562e-03,4.165312950396758696e-03,1.097648545971964583e-03,1.291337119500563890e-04,1.249752651159400079e-03,1.188138760233957804e-04,2.187125430525708666e-03,2.168198121341327698e-03,6.719002401952619153e-04,2.982724428055354149e-02
2.880369367339997641e-03,4.479641681412444183e-03,1.341762737790043285e-03,1.330742595680155260e-04,7.463352715908486493e-04,1.328521148470195707e-04,2.406705690635434561e-03,3.425353088414761962e-03,9.530156465539991236e-04,9.989763347717206185e-03
3.136817598656557998e-03,4.754388830571094557e-03,1.592234232493709278e-03,1.402764911714916591e-04,6.041695762724329661e-05,1.613263869543557852e-04,1.015171094603252791e-02,3.348004239528126411e-03,1.219115705497641642e-03,2.851347401830415899e-03
3.054119809929222752e-03,4.986944194128692387e-03,1.840287252103829912e-03,1.503363059034152206e-04,3.025794405415539517e-04,2.021020610812568710e-04,1.899890542531050552e-02,2.535600688684902342e-03,1.470403191689963283e-03,1.695897301501388989e-03
1.539152806402817580e-03,5.175015290685986390e-03,2.080523717356991438e-03,1.627644182285749026e-04,1.139980175551929105e-04,2.535067420272383958e-04,1.745323807495900020e-02,1.500422925497379425e-03,1.707654185344575047e-03,1.353027137250327819e-02
1.219385564467545969e-03,5.316819095499305918e-03,2.311179304777051698e-03,1.770004652995441942e-04,5.239439843997013152e-05,3.143500235454625875e-04,3.329182078001846276e-03,6.132785165390963050e-05,1.932102389261596042e-03,2.848739480963971560e-02
4.035769367756605365e-03,5.411139322422046233e-03,2.528729120127676429e-03,1.924287699721584008e-04,1.611689740833419809e-04,3.827609626814923037e-04,9.740727629767662737e-03,1.675180298571673316e-03,2.144227517461367010e-03,2.926914197577688836e-02
5.469467337809485671e-03,5.457334958630348162e-03,2.727919866705193815e-03,2.083953583470681643e-04,2.069737980342756234e-04,4.562364250316984764e-04,1.052652103940726093e-02,2.955817231739803468e-03,2.343810680813196608e-03,1.840314971318096973e-02
5.059862882590084390e-03,5.455391514491000557e-03,2.904460052325573329e-03,2.242258025880421570e-04,2.024317583163571773e-04,5.322725855264298341e-04,3.979130670651903796e-03,2.725003424074477938e-03,2.530531049608822185e-03,7.273863971511607476e-03
4.171923570132362452e-03,5.405973982731031649e-03,3.055095684594310353e-03,2.392434431426265296e-04,2.394671818182180227e-04,6.084529894137772482e-04,8.047068789161183552e-04,4.669799938527186174e-05,2.703987551475403248e-03,1.078682363153428414e-04
4.567310824392329348e-03,5.310436723121817609e-03,3.176518454141693138e-03,2.527875362200105369e-04,2.256327164735441734e-04,6.822495575510960104e-04,1.974478939178141504e-03,3.804729159634976862e-03,2.863470553329631151e-03,6.120926740746124653e-03
6.086367871955939389e-03,5.170808041583194181e-03,3.265696609713085799e-03,2.642308735370533027e-04,1.477925399437593241e-04,7.510561159389536959e-04,1.139914170483680026e-03,4.002603889258187463e-03,3.008008693264689528e-03,1.177026925995293925e-02
6.932431255383644103e-03,4.989770357621875832e-03,3.320513345670737023e-03,2.729964394536309419e-04,2.387946645709811903e-04,8.123839434795969297e-04,1.554518200151447458e-03,2.971861681080109532e-03,3.136543430004268621e-03,1.352452234808266748e-02
6.152151393332757658e-03,4.770628199958283286e-03,3.339240705060016710e-03,2.785727033801726170e-04,4.547745217363164424e-04,8.639924787396559410e-04,2.957395949160173884e-03,1.321664025759860216e-02,3.247981741474224946e-03,1.169275859208589348e-02
4.606785510797813295e-03,4.517255046164842316e-03,3.320338137158354921e-03,2.805271755537315785e-04,2.376157953684149499e-04,9.038861229609010221e-04,1.882862587227095152e-02,1.887194704305919513e-02,3.341190979716894376e-03,1.045076649889025051e-02
3.414351903412003123e-03,4.234023990808191522e-03,3.263823648368949573e-03,2.785178845961570567e-04,5.468725262047993566e-04,9.302356608264761816e-04,3.629685909287167639e-02,1.724424030444774575e-02,3.415051478688776662e-03,9.279521686734786001e-03
2.454934974495052123e-03,3.925728500177752371e-03,3.171438124303080364e-03,2.723024999129702688e-04,1.031108194990400110e-03,9.414612180234327400e-04,4.246912000333632337e-02,1.187058476569991493e-02,3.468536296722186246e-03,1.943926865705749608e-03
8.055990063973571952e-04,3.597493466667089305e-03,3.043769232425913140e-03,2.617449128877175199e-04,5.712586800147840095e-04,9.365511689738783858e-04,3.620535854135673026e-02,5.499470874751319349e-03,3.500761570530413515e-03,1.212111319863499147e-02
1.839379874539794676e-03,3.254676524666004402e-03,2.880057084247370901e-03,2.468191307492306253e-04,1.960278593849296321e-04,9.150683625767452129e-04,2.618845236349048519e-02,2.922641283955590939e-03,3.511019194813010547e-03,2.312021675684053715e-02
4.586853858791821621e-03,2.902762764998686497e-03,2.684319085729846080e-03,2.276103367462494538e-04,3.990592041292655222e-04,8.765744189798893842e-04,1.826262969246356463e-02,1.358195344908613711e-02,3.498816642545766239e-03,2.302743510473461916e-02
6.238465521123892632e-03,2.547256409382298373e-03,2.465740511021797914e-03,2.043130902320255938e-04,1.607253200381390465e-04,8.206523880118291037e-04,1.095033154810721651e-02,2.220436990389069998e-02,3.463917131047729477e-03,1.559093351140333934e-02
6.635356924365435997e-03,2.193571706751997700e-03,2.225450982410137526e-03,1.772268564261215355e-04,4.560227983446277298e-05,7.481756795110737230e-04,1.432343651503995702e-03,2.417812786897454574e-02,3.406367039294816521e-03,8.671601751112031214e-03
6.638480018421563308e-03,1.846925190285518808e-03,1.955195422482013199e-03,1.467490195754773616e-04,1.228273625378453065e-04,6.613107460712208847e-04,9.453520017113959534e-03,2.045661355245582957e-02,3.326512460737881659e-03,2.832801905627091790e-03
6.608754289999053955e-03,1.512232040204175999e-03,1.665303824979478750e-03,1.133652818802449177e-04,1.500740751257765172e-04,5.607836216869733050e-04,1.853278094502810308e-02,1.585854748091765701e-02,3.225010189778553926e-03,5.756640802950347205e-03
5.820878840901200918e-03,1.194009269420629252e-03,1.387956589760105421e-03,7.763762371905736140e-05,8.823364406596933358e-05,4.457419468924473044e-04,2.370128208519246132e-02,1.283224908014740477e-02,3.102831768344090514e-03,1.507225679569585558e-02
3.929681213704491576e-03,8.962879821054445554e-04,1.117217306184607392e-03,4.019073394757921895e-05,4.896035591260267225e-05,3.195019355886528044e-04,2.526691346330182247e-02,1.047647455716959990e-02,2.961257850723359505e-03,1.754390303101073870e-02
1.886135610537565538e-03,6.225366947264360240e-04,8.001563405862908334e-04,1.697426049369694294e-06,5.321053949925137153e-05,1.898804866455825195e-04,2.508574397306451154e-02,8.026882301231221331e-03,2.801863567314507794e-03,1.020620401982711908e-02
5.339774393544826324e-04,3.755975782310768188e-04,4.643356833525540866e-04,3.713787118948838839e-05,5.154882997298416086e-05,5.679090159207487282e-05,2.474667645563051119e-02,5.926544457582364964e-03,2.626496561021830854e-03,1.357389287760944925e-03
7.970287463031870820e-04,1.576371842105497769e-04,2.398528785706509434e-04,7.559753444784774118e-05,3.313742246590068677e-05,8.895252870881778615e-05,2.448127471620156759e-02,4.704052415838573011e-03,2.437248077709327186e-03,9.623676334564755519e-03
3.334536307223625370e-03,2.988720022905396595e-05,8.729610934756718704e-05,1.129678975031322291e-04,1.734047806649632921e-05,2.393539486426152912e-04,2.391595500180313319e-02,4.442410605154486353e-03,2.236417289484436514e-03,1.124636327718224645e-02
6.642091341702274256e-03,1.862448143835088860e-04,2.597029116802576556e-04,1.485537830184184137e-04,1.178173308384671874e-05,3.661887501228499957e-04,2.312557058231088508e-02,4.416532627668515176e-03,2.026469883571031371e-03,6.834775762963340474e-03
8.091880890768466880e-03,3.114319157632637570e-04,7.192120672003494497e-04,1.816958426484427229e-04,1.656583753697799151e-05,4.772507832938259866e-04,2.225994744817559601e-02,3.615067191258316496e-03,1.809992273194133399e-03,1.173609105667535856e-03
5.605553831062981551e-03,4.061555166118588182e-04,6.649090998113336634e-04,2.117924041373293496e-04,2.433377214530128277e-05,6.245377242073393755e-04,2.116609887599551348e-02,2.615874133343498373e-03,1.589642571077903768e-03,9.671988284789819618e-03
9.874382682800270875e-04,4.718007997686858232e-04,9.539766840455533164e-06,2.383129838980062179e-04,1.603422541174093837e-05,7.845369051538163318e-04,2.017684216711693179e-02,3.360879377129170550e-03,1.368099449579225201e-03,1.597959698175656362e-02
1.277350487965920938e-03,5.103830454039723526e-04,3.054321409142024112e-04,2.607982750146161884e-04,2.709410816177550079e-06,8.376828957943069712e-04,1.986641538496073528e-02,5.728552885260256196e-03,1.148010204332803588e-03,1.868711960937653391e-02
5.242880333927921448e-04,5.244852669537554239e-04,3.854030798095750012e-04,2.788727687156643611e-04,3.389146732022343023e-05,8.236613470340620234e-04,1.916839348734543716e-02,6.225710553343919915e-03,9.319393928512429738e-04,1.749983011178717421e-02
2.994215728436938530e-03,5.171830968620553214e-04,1.104016423291931653e-03,2.922807682504085613e-04,8.888695071066243282e-05,9.950192542085079580e-04,1.581701221459613782e-02,1.977277644970285020e-03,7.223193260734748827e-04,1.257109704714120049e-02
2.156179144639324211e-03,4.919587712157690029e-04,7.898020619615496452e-04,3.008893522924187464e-04,5.645859552438157862e-05,1.277375940277586126e-03,1.006987425236140730e-02,5.451334529526803002e-03,5.214036126098204379e-04,4.713502816508900045e-03
1.554498155801875602e-03,4.526063228026000083e-04,1.263303938753951002e-04,3.046331466456459933e-04,2.429031038560941909e-05,1.082391215039243829e-03,5.744159909485207181e-03,1.219434670154045941e-02,3.312249006765608113e-04,3.132218114465048532e-03
4.763392992102977869e-03,4.031302986571818009e-04,5.640578306805027605e-04,3.035202825335560611e-04,8.853977545686849131e-05,2.964712767362875597e-04,5.805816902226121172e-03,1.654970012348379316e-02,1.535578580097431362e-04,6.162595455915281968e-03
6.031130850074912370e-03,3.476404690347927474e-04,2.210753379352532061e-04,2.977560386001119170e-04,3.261755132815412394e-04,1.584388502055851099e-04,8.785311654954268412e-03,1.892239533386766773e-02,1.011172541713682661e-05,2.103403486124735301e-03
6.836933499401558201e-03,2.902450862580434159e-04,4.314874086193140959e-04,2.877305864811181032e-04,1.252169901418203560e-04,3.365078366101122371e-04,1.099849619950095739e-02,1.880207616716409250e-02,1.586109939720566271e-04,5.281407292273520605e-03
8.277935861585714386e-03,2.349452804143741967e-04,8.429927018969633843e-04,2.737436644167955189e-04,6.378262189079106532e-04,1.031774222255415303e-03,1.077361520697843467e-02,1.489105510599881589e-02,2.910966961102452039e-04,9.883209216158168192e-03
8.930258459718709227e-03,1.855331439145756374e-04,8.230605103013922041e-04,2.560047127251928261e-04,1.093754090408355882e-03,1.097951352745687482e-03,9.192207881822424959e-03,8.001745692673253169e-03,4.070641096644257652e-04,9.875103718790561452e-03
6.769672893485423684e-03,1.454959601287744069e-04,5.872827831136381242e-04,2.351946161126332812e-04,6.047788342768407963e-04,9.025336162542352096e-04,7.722721305375716133e-03,1.527803021564776761e-03,5.063480666101757063e-04,8.112422325428461298e-03
2.355291315102256595e-03,1.179288751624635485e-04,4.085120327318383796e-04,2.124470858088825086e-04,1.904305540986700549e-04,9.424077799989374329e-04,6.611945264074142042e-03,1.664607534594947109e-03,5.891161229625344574e-04,7.118618788944377010e-03
1.232058874768492953e-03,1.054580999154911697e-04,3.105967348884867670e-04,1.881096212191710182e-04,4.216989595160508964e-04,7.247441053509281073e-04,5.463031155586856903e-03,1.815497724771990805e-03,6.558541155334650504e-04,6.712112095138782382e-03
1.768428206559249580e-03,1.101764671575439686e-04,1.918024811498524680e-04,1.617071431638952644e-04,2.117305095876803828e-04,1.139938745254578462e-04,4.193975243705592992e-03,9.273074280040704892e-04,7.073445363154257136e-04,6.018770443699372925e-03
9.327399187675260639e-05,1.335928621022778348e-04,4.233033012187989501e-05,1.345395512595555618e-04,1.233979364467237380e-04,7.406350480944942204e-04,2.994514418103341648e-03,2.085683824590883382e-04,7.446383328622374967e-04,5.119136206422069367e-03
1.320806496603348394e-03,1.765967024202270193e-04,8.492203272528622371e-05,1.097769166833865203e-04,2.246621086951574057e-04,4.021677217708745540e-04,1.919456205864493361e-03,1.831501915573365957e-03,7.690209031272303691e-04,4.410132231339600022e-03
1.142591949394157350e-03,2.394382731471134010e-04,1.785618071974603082e-04,8.686290901646097676e-05,2.725202620370422379e-04,2.856633996128221816e-04,8.961210283300192602e-04,2.705857634717715766e-03,7.819731916764345332e-04,3.858497003835916189e-03
