1.834737634482403595e-03,8.688965286288263812e-02,7.417250694866842466e-04,5.897927019945636823e-05,8.173624943142332381e-07,2.260655996870852458e-05,1.469510245413110580e-02,2.193280289381014173e-02,1.694474392900114160e-02,8.957734752790222701e-03
3.420713755183330939e-03,9.791087198111687873e-02,1.195764726831059300e-03,5.617606173136256747e-05,3.864269953972401613e-06,2.684914579062432725e-05,5.864331240149264594e-03,3.304137641450446278e-02,2.018308011879944158e-02,1.156983413637648929e-02
6.933039414658243721e-03,1.159801406587052108e-01,1.051862362723976919e-03,5.296008156679047311e-05,7.072128840735529556e-06,3.140001904234043556e-05,8.328615522373886484e-03,3.109306728868994896e-02,2.652435023292016442e-02,1.226262076358871321e-02
6.251184928507183373e-03,1.062867413221956214e-01,1.417349351146396071e-03,4.932331965802355005e-05,1.032677307294278124e-05,3.596937722857654216e-05,1.719153879283837408e-02,2.052203310023219263e-02,2.263486086429722377e-02,1.255721148005715937e-02
2.374655738824908192e-03,4.631126579467827881e-02,3.474524459533055373e-03,4.525630799312805312e-05,1.351402588691010112e-05,4.065099197380633861e-05,1.016496612243569450e-02,8.010607374874313333e-03,3.390624032606395950e-03,1.350419317759254945e-02
1.740029495151305516e-03,4.295962972162988697e-02,5.653912321256965995e-03,4.076089132462814180e-05,1.652280255171065392e-05,4.535873270720253668e-05,8.931507531888937396e-03,5.377693598665018830e-03,3.993322812008814893e-02,1.332751023971594229e-02
4.360051692692898904e-03,1.223892742543967738e-01,5.407053691260143083e-03,3.584849266895345077e-05,1.924659578322904463e-05,4.982147699536557209e-05,2.550361610229119266e-02,2.039550544117721062e-02,5.948875715771566319e-02,1.012778045203363564e-02
5.632327056559327874e-03,1.684669641007293106e-01,3.342851102256014836e-03,3.051292584978545087e-05,2.158599968079720897e-05,5.385250728914050275e-05,3.004135610081100360e-02,3.308556139362739401e-02,5.159354798795530439e-02,5.129666957991698729e-03
5.400548685146037801e-03,1.748974561447519394e-01,2.550011069881348569e-03,2.473339147714013537e-05,2.345181204493737890e-05,5.736074308673781924e-05,2.497173816712516120e-02,3.708581963557348177e-02,3.454588634143214432e-02,1.581162213255225650e-03
2.509892466136126338e-03,1.463153241830179307e-01,3.882499574114944580e-03,1.853248641087183117e-05,2.476737239320647989e-05,6.023010069359756167e-05,1.642548268729406707e-02,3.280048920125450129e-02,2.943922424881875374e-02,9.085847006123584256e-04
2.713174357509618318e-03,9.579489008419246610e-02,4.919851323388599144e-03,1.197105833032800914e-05,2.547024777379088998e-05,6.231780540480119450e-05,6.155105802530913377e-03,2.910620250468355652e-02,3.439889730707144239e-02,1.341882733271898033e-03
7.135723228762768343e-03,3.496022435009644991e-02,4.085721239028968985e-03,5.023800799146534278e-06,2.551381819469692529e-05,6.351546259654508575e-05,4.528054243933542743e-03,3.119207813674721927e-02,3.307633176248866991e-02,5.836061857189577592e-04
7.641138368156150107e-03,2.784137219939899349e-02,3.087349182721998205e-03,2.413500893350387476e-06,2.486864832624832505e-05,6.375464173531778531e-05,9.710132872365077536e-03,3.222072184341088358e-02,1.998006083687855344e-02,1.661853653682536297e-03
4.673178864360634337e-03,7.394671085029073943e-02,3.920723063570955881e-03,1.025869280663596598e-05,2.352333049176541573e-05,6.298174276259483684e-05,6.805484573649694252e-03,2.378528399175708699e-02,4.184342871244536334e-03,4.761774305017479024e-03
1.850506354763600467e-03,7.705045364896452587e-02,5.482865445595245558e-03,1.825247912822974396e-05,2.148480675873644502e-05,6.115773374713867486e-05,5.407006145767366719e-03,8.000988977589437029e-03,9.561098112743818267e-03,8.994524552893097893e-03
1.564758969391418994e-03,3.255252603197179850e-02,5.286934773710482045e-03,2.652592836184609133e-05,1.877829119729502200e-05,5.827177718289347199e-05,1.673786600863931551e-02,6.307226767412423517e-03,2.762968818876750804e-02,1.418819139566280911e-02
1.695109587031900285e-03,2.653032074916810909e-02,3.430390045989915176e-03,3.559634445646988764e-05,1.544677922913352373e-05,5.434253677845171378e-05,3.454159984424495788e-02,1.119880760624549811e-02,4.915630564166409422e-02,1.770399068863596700e-02
1.152695117904746968e-03,5.570666113314114154e-02,2.342873027980838657e-03,4.515595481808176107e-05,1.155009229053426555e-05,4.941196184227104378e-05,3.825274995106750509e-02,2.330919916949034804e-03,5.491564027295195438e-02,1.667798687671558783e-02
5.349923860923108329e-03,4.100561573860889153e-02,2.871350897320116592e-03,5.404988044649433376e-05,7.163484301923192873e-06,4.354387663151511334e-05,1.921930260675954946e-02,1.347793832506592390e-02,2.994040188581137407e-02,1.224250516915298057e-02
5.069403655733657581e-03,9.311980872532521145e-03,3.226385944417813068e-03,6.286318748258902154e-05,2.375871009951922903e-06,3.682529950400948457e-05,6.797063540278205744e-03,1.460068273226192495e-02,1.049138410652290451e-02,8.880583431307095127e-03
1.646145976918971399e-03,6.675545384951613731e-03,2.192928563379334742e-03,7.403608670591562096e-05,2.712278278326686670e-06,2.936473326565007503e-05,1.937219296604208302e-02,1.411685340930205965e-02,3.572221615555230129e-02,9.102796678683855447e-03
9.514882251304875027e-03,7.150124027665249321e-03,8.526447525460827993e-04,8.634251481501282544e-05,7.991350003672715530e-06,2.128838155014276185e-05,1.502487679378843727e-02,5.445503945161627585e-02,3.530994403657346237e-02,1.113582205203071836e-02
1.174557799353228953e-02,1.623965211486335172e-02,2.568024873554016797e-04,9.450047203225812257e-05,1.334523810833469692e-05,1.273707561610900980e-05,2.885674249232126221e-03,6.783630138235362261e-02,2.040140771765438024e-02,1.253860699406757553e-02
6.147218702626913549e-03,4.206250298746815747e-02,2.490074496656400466e-04,1.009538450144126573e-04,1.865416782831554670e-05,3.863602456418399722e-06,8.597086833447308007e-03,4.243682542894420401e-02,2.721523612473642113e-03,1.364476194688609041e-02
4.268355477403852280e-03,6.752251013196934604e-02,1.114379285655107618e-03,1.170121662736605951e-04,2.379762321268610065e-05,5.170764429918260093e-06,1.337254267489166974e-02,1.127285047490591587e-02,3.295253998481498248e-02,1.607470603270727549e-02
1.382583510569284149e-02,7.407092799622784496e-02,1.102553243003054351e-03,1.377187202946228818e-04,2.865730983092068196e-05,1.420030539571497924e-05,8.262958859491313993e-03,1.200377833396367409e-02,5.100565196564529891e-02,1.955187222202589559e-02
1.782259558246722039e-02,5.457322536480119224e-02,5.310373333419103267e-04,1.387602526232316119e-04,3.312007980855449438e-05,2.305877830065304360e-05,1.436048568464553523e-03,4.107268998606883326e-02,2.953422845758805690e-02,2.164682356474706415e-02
1.603180641053653793e-02,1.517762943202608308e-02,1.943786439861980037e-03,1.300589868175803761e-04,3.708074558358945321e-05,3.158314119965285329e-05,5.854212889552947059e-03,6.313173276033905157e-02,2.545950419297631287e-02,2.005967540694725618e-02
1.237344512912294005e-02,2.302435514802752062e-02,7.816098478709911394e-04,1.637759226750806361e-04,4.044471255984642178e-05,3.961725035604681726e-05,3.671787726948826363e-03,5.834608938340828110e-02,7.251893602243390802e-02,1.470075100768627671e-02
1.019626810216790053e-02,4.114017033631899717e-02,2.606436242378328515e-03,2.200591403132712981e-04,4.313036555428454441e-05,4.701554445542077367e-05,3.959731867708943080e-03,4.177699127256703088e-02,8.228120553728422715e-02,7.974150287130143608e-03
8.950739977243491949e-03,3.755723656669769650e-02,5.555634661305937361e-03,1.868359435603089561e-04,4.507114900130062608e-05,5.364652510410607226e-05,1.302587522256814026e-02,3.760990610973314469e-02,6.149431908095752408e-02,3.075502326207991098e-03
6.173917850940154398e-03,1.072640955590316129e-02,5.677324724500588948e-03,1.032738603170239183e-04,4.621728778214475496e-05,5.939568262617241507e-05,2.555033533286023978e-02,5.187983005706521544e-02,2.883196735815716366e-02,2.003032257590076949e-03
9.863541846527334751e-04,3.905705191416158906e-02,2.098236732949683003e-03,2.121971713448934753e-04,4.653710438914604805e-05,6.416778531408867149e-05,3.109250666650606107e-02,7.251770320008256443e-02,2.080177495009934846e-03,4.970968345369141360e-03
5.459157228360939605e-03,7.194302467130461731e-02,4.377219498348950549e-03,4.454082509941910363e-04,4.601789801206341597e-05,6.788906647988332522e-05,2.473356888703118206e-02,8.153283484992153440e-02,1.441105039974256014e-02,1.064468209418756306e-02
1.102494596771516275e-02,3.453461013871665652e-02,1.106269949489152755e-02,2.397334896896924990e-04,4.466636165605791380e-05,7.050939838110555503e-05,8.770145965540175614e-03,6.469606938137865970e-02,3.852790089393225495e-03,1.716740611552986656e-02
1.326258065260083399e-02,5.168852800202411446e-02,1.420595826045038465e-02,5.279181989586778168e-04,4.250852450464493050e-05,7.200313691468162691e-05,1.051396042748485408e-02,2.348030899408910799e-02,3.719985104374583240e-02,2.387636102280245309e-02
1.159966684522064848e-02,1.013717118151514635e-01,1.142058287799485247e-02,9.878133932363980171e-04,3.958921828119666249e-05,7.236823303962619319e-05,2.350445411957421613e-02,1.815964206625511959e-02,5.321608376413203279e-02,3.015882381902528636e-02
8.792136829462176770e-03,8.262275091385858083e-02,3.907141888821270316e-03,5.017044575339714907e-04,3.597107824840710784e-05,7.162632522744559601e-05,2.112027950514290542e-02,3.245851108058080831e-02,3.983170608918690930e-02,3.232885607857458043e-02
7.043398562468887632e-03,4.319653611059976611e-02,4.139709649574547894e-03,2.921839286900525983e-04,3.173310127012061500e-05,6.982472425957715807e-05,4.887266351467687772e-03,1.873291785994718461e-02,1.233660803361410346e-02,2.679623356754199173e-02
4.536678734649433019e-03,1.351395393237971726e-02,9.000788130159857736e-03,5.240690265729536354e-04,2.696879406304005639e-05,6.703451584257631832e-05,1.025869814721293814e-02,3.041897496014398829e-03,1.470724486717023619e-02,1.729848233891669376e-02
9.338690448781539134e-05,2.734072546881523638e-02,1.025690657163362725e-02,3.168205349212122979e-04,2.178395438034092847e-05,6.334271791386757275e-05,9.205271255838679348e-03,4.466206081881279009e-03,4.049233648821273790e-02,1.193871025668772311e-02
1.996175479498610728e-03,7.971759738123955497e-02,1.005731247256553933e-02,2.334978328384903286e-04,1.629413776451409115e-05,5.885085978138070807e-05,6.849004757811029756e-03,1.737203118888420647e-02,6.259976845159924419e-02,1.215019677832369568e-02
2.522501325719146009e-03,9.813389585100912305e-02,1.034741997506492643e-02,3.426294768828845832e-04,1.062187194903119251e-05,5.368484683383533085e-05,2.017849736360871962e-02,2.969248766263990480e-02,7.055327955496437653e-02,1.243205713210719134e-02
1.025701759183832856e-02,5.393524903525043213e-02,1.128649064370092561e-02,4.015196278614084017e-04,4.893686227573533162e-06,4.798999439408248855e-05,1.634055607716287939e-02,4.192684117894662083e-02,6.177335149603521702e-02,1.105339207173705596e-02
1.351865076498007245e-02,2.602827099704314862e-02,1.178328999904360366e-02,3.701305691643418864e-04,7.629750600302855510e-07,4.190036253379112271e-05,2.771718221117614941e-03,6.170482716873481460e-02,5.007754730052352277e-02,1.289568818699019827e-02
9.231347048548638190e-03,8.578129861065945938e-02,1.117271552804974429e-02,3.600547859940138578e-04,6.222879857143775636e-06,3.553811544807278428e-05,8.445441542656931255e-05,9.080558812417290071e-02,5.181883211862416821e-02,2.127426154310980283e-02
6.550539217577508065e-05,8.119044256607249599e-02,1.036843721119640183e-02,3.928168792517972257e-04,1.136609339935632960e-05,2.906782690939499673e-05,1.328155361908390716e-02,1.254939089775411465e-01,7.053396253901351998e-02,3.287421275132754173e-02
1.189133623179878217e-02,1.384872802061013278e-02,1.087992869972418536e-02,4.171496388530664362e-04,1.608094394518532415e-05,2.268765086013895544e-05,2.541571954256477070e-02,1.627285068564718051e-01,9.576285117964095095e-02,4.147023447195897355e-02
2.512007361335888769e-02,6.027641357268392203e-02,1.273657437528104286e-02,4.193920616397145309e-04,2.026680916506855268e-05,1.650133689937641806e-05,1.947505906734512543e-02,1.931291035245065735e-01,1.112580808538786575e-01,4.384890064817715399e-02
3.593810281499327380e-02,8.490083462726609465e-02,1.443876764057019924e-02,4.216531069429686643e-04,2.383665567076652788e-05,1.052209420851854656e-05,2.218030225465341017e-04,1.909461651034659313e-01,1.075090988234889133e-01,4.093171854241625662e-02
3.824481505219150257e-02,7.417620813414527170e-02,1.502320962576053458e-02,4.366178420250704751e-04,2.671923888233330676e-05,4.934777609320317523e-06,1.699956489731286116e-02,1.340690797836820436e-01,9.140716297340110985e-02,3.374802492882594124e-02
3.143261860410256903e-02,9.127982363240014219e-02,1.516973651156785022e-02,4.576853469966576373e-04,2.886090213585818827e-05,8.392164001511264907e-08,2.136370833146954834e-02,4.337218471189197705e-02,8.013275272616281197e-02,2.239081683917744370e-02
2.415415408387220145e-02,1.485188063606550923e-01,1.608072754733998189e-02,4.658261096055608150e-04,3.022699028850825444e-05,4.096113292999625919e-06,1.414202219660126887e-02,1.980762390885311766e-02,8.270396237764759961e-02,1.135977972619169746e-02
2.498951730478881847e-02,1.778285503763878395e-01,1.762265345220291948e-02,4.556306498695845237e-04,3.080285346151796398e-05,8.078884405365568331e-06,2.313769147220014200e-03,1.454577448275463751e-02,8.866702862360169302e-02,9.060926888944923277e-03
3.096288774473024419e-02,1.252119987001327761e-01,1.789472883539595591e-02,4.632745435173341768e-04,3.059428252914120117e-05,1.153585233900387937e-05,2.584792399417995198e-02,3.029550254338601173e-02,7.443299268941386271e-02,1.734134286796248231e-02
3.129761082986973891e-02,2.805778257424020733e-02,1.534961316499135024e-02,5.098818703332619546e-04,2.962733237369334611e-05,1.331510367267610634e-05,4.819341352123875100e-02,4.376332393994865344e-02,2.513102630680892971e-02,2.967415982689009316e-02
2.184786947196435195e-02,4.180845863130599332e-02,1.123127853045452831e-02,5.205413239784870659e-04,2.794781390035715687e-05,1.402871305963678505e-05,5.538147444756599813e-02,9.265449408139250081e-03,4.388325270025366515e-02,4.237849533591787898e-02
9.898139190409669178e-03,7.212981809055948879e-02,8.851697050527403826e-03,4.435787244546226214e-04,2.562053726114331810e-05,1.616768339817262906e-05,4.107889163814436306e-02,8.861622626555618054e-02,9.378611783937852719e-02,5.411297920503970599e-02
5.227184383450610844e-03,9.691948497997639189e-02,1.070682530593346574e-02,4.385946818391239484e-04,2.272772751532066895e-05,1.857944662853991372e-05,1.789728284574425635e-02,1.232662178973880363e-01,9.808664992530116700e-02,5.200045535919274597e-02
1.062269076037195351e-02,1.258758916003183959e-01,1.657951046843045978e-02,6.331564036852510872e-04,1.936647842985080774e-05,1.607658269301273700e-05,7.537464228940247632e-03,8.904567060755715080e-02,6.855942694466597709e-02,2.092739754169687175e-02
1.884958594349653641e-02,1.471890245246564588e-01,2.281041127936095717e-02,6.586435120084555873e-04,1.564657036171751716e-05,1.121708734436200957e-05,1.692479005916438725e-02,3.412711333850788897e-02,4.505988948631575730e-02,2.566656583844521833e-02
1.681842608807811168e-02,1.752705669920508469e-01,2.370794900571101052e-02,5.345635491900181939e-05,1.168910144701803533e-05,1.544214933542896698e-05,3.004608459241482274e-02,2.645038040465520074e-02,6.106344873701988196e-02,5.488320501843987897e-02
1.626354116481655045e-03,2.339291625270022712e-01,1.664879750267368730e-02,1.346405370422563020e-03,7.623271376638078242e-06,2.394068499563661647e-05,2.704385322643837117e-02,7.984733119582311522e-02,1.126052472728357873e-01,6.794438572332912873e-02
2.510245738305224780e-02,2.979606316048264980e-01,5.342823836185438616e-03,2.264376780607656008e-03,3.580475935187571967e-06,1.255507382636398869e-05,7.044192397242572505e-03,1.385618162967280353e-01,1.590630124410154500e-01,1.051991686621166072e-01
3.431405242600770594e-02,3.058585960742062348e-01,4.813136017462023991e-03,2.174425910435315475e-03,3.084171213868387199e-07,8.628487401804906600e-06,1.201471465829479120e-02,1.375894576523798152e-01,1.612725654256424723e-01,1.771231684459649569e-01
2.555335082706581065e-02,2.478800950301947026e-01,1.335497231630848602e-02,1.642200082991389278e-03,3.910431399452124955e-06,1.272172084880003778e-05,1.374652520481748491e-02,7.355775756932170228e-02,1.196063373793809920e-01,2.353610483565355405e-01
1.708760141866878107e-02,1.992061462575088759e-01,2.366619474145052748e-02,1.844601120852280623e-03,7.094723769507812509e-06,5.692411449454732605e-05,7.422806301035037718e-05,9.445521674369043372e-03,6.983216555981583418e-02,2.377787638424559979e-01
2.592021368460026634e-02,2.272522163933128891e-01,3.581740914200647746e-02,2.924070709097693292e-03,9.748430744735114750e-06,1.206817647578424941e-05,1.135682150710802182e-02,4.143882880317022177e-03,4.227289751487176006e-02,1.997033316915332035e-01
4.430622158214082146e-02,2.956563852275951865e-01,4.351421717321138360e-02,3.404272714172483158e-03,1.177785524353598708e-05,8.252059008349916960e-05,5.813643213991874850e-03,4.230999813513413449e-02,3.372102256549789484e-02,1.579524400418020058e-01
5.003073264667403514e-02,3.118895403294933422e-01,4.047831334816157089e-02,2.108614794515619069e-03,1.308397227729443852e-05,1.614167729660023019e-05,1.233778787824152401e-02,5.468777433463743037e-02,2.738645671487380251e-02,1.229651243179017556e-01
3.736918121167232681e-02,2.469493833666742966e-01,2.859635007233317025e-02,6.699997536120108014e-05,1.356782428661392793e-05,2.399997968258661847e-04,2.693916807047807421e-02,1.126559285913121197e-02,2.741318712337045133e-02,8.818678281139261110e-02
2.349242876277553294e-02,1.472841531662859582e-01,1.576387160259784884e-02,8.499711711909375489e-04,1.319057904717477115e-05,2.598279688230197655e-05,3.380702008316070067e-02,3.977876345019148996e-02,4.783535736729460641e-02,5.653677969666763559e-02
2.273881829724382769e-02,4.976530808357888802e-02,6.372653203582200401e-03,5.342320768270594072e-04,1.197002591398646054e-05,7.489069955958841925e-04,4.454566384158614722e-02,4.005968742407045591e-02,7.484074496779825891e-02,3.555171716486851125e-02
3.090836322813303449e-02,4.438014073654515668e-02,1.084455286757763162e-04,3.214995357955837828e-04,9.857354831051264130e-06,1.214810503713640221e-03,6.327730956865491863e-02,1.140878405748864226e-02,7.564405736128214375e-02,2.224077147955964492e-02
3.934665827281792067e-02,1.225943951304464263e-01,1.425952503932393289e-03,6.282496031135884713e-04,6.745102244484999315e-06,7.333928730206138369e-04,7.621662452419279699e-02,7.782619890161227016e-02,4.533694679621294576e-02,7.970538799045353423e-03
4.705100400128767180e-02,1.584425633899345098e-01,7.855629248697549791e-03,5.384962868174007376e-04,2.732639391753613000e-06,5.707458360894559677e-05,7.065235946084975904e-02,1.296175414190904873e-01,1.197655480404081173e-02,9.498336837319581311e-03
5.179589657559627996e-02,1.621452592151237104e-01,2.605158991486044087e-02,2.913696979883323153e-04,1.883355019037265037e-06,2.867736220779359166e-04,4.993236795950615342e-02,1.454191316230599162e-01,7.120160425692302099e-03,2.699940180075228319e-02
4.471793255402102540e-02,1.829153018115072526e-01,4.146499083401860436e-02,8.353720005181748285e-04,7.177246355128447665e-06,7.875525987366166665e-05,2.451358735811668202e-02,1.057147129384834738e-01,2.545906266657613215e-02,4.352367716198805858e-02
2.254693550331893226e-02,2.460419482154363180e-01,4.464613675212029259e-02,3.508644758429081472e-04,1.359166170376884283e-05,3.827456681148330795e-06,6.367948123619253300e-04,1.772979957843163340e-02,5.828979706153556567e-02,6.081066881418914494e-02
3.430985851226867750e-03,3.164927343214201105e-01,3.781118771756317165e-02,4.522881110653359819e-04,2.072792110186040377e-05,1.071142227936011318e-04,2.460994096676619516e-02,6.841479100211889097e-02,9.504278721774866989e-02,7.780887812697100114e-02
1.733370061553518582e-02,3.433888652923313689e-01,2.793833591506796402e-02,6.546278931743151810e-04,2.732616748707692044e-05,1.685527850491128294e-04,4.328396511254756912e-02,9.575469853253401609e-02,1.123071592643495459e-01,8.903970477391615068e-02
1.524561769864472838e-02,3.259544273160688288e-01,1.703644218225302057e-02,4.121475966052002161e-04,3.385511141557206750e-05,1.412003077943098860e-04,5.091318901886913301e-02,5.967057880998959118e-02,1.059247730021686124e-01,9.117527960126581288e-02
8.520335032997945063e-03,3.089571119331544491e-01,4.713143079690152414e-03,3.116766158018415825e-04,4.263027684315354155e-05,1.371415602885393803e-04,4.861787255383966805e-02,1.793117307486310000e-02,9.883043844493968888e-02,8.810055686026514732e-02
1.038154155722310033e-02,3.145223820626245059e-01,5.924716663859257507e-03,4.062603467730886275e-04,5.229555606012068505e-05,1.760293603591858963e-04,4.276793637730063463e-02,2.984365259715516389e-02,1.129350202459353941e-01,8.428538956873836419e-02
2.170493065791768636e-02,3.114817001315269285e-01,1.161955699589459212e-02,4.417695627976340762e-04,5.743662343522566179e-05,2.051733299930184613e-04,3.269748998700675036e-02,9.187825128565033084e-02,1.361137180184342765e-01,7.661113011120690430e-02
3.160370607240299556e-02,2.655310768740916649e-01,1.378657825081343498e-02,3.859437856165261259e-04,6.036662954733128939e-05,2.145190351118573884e-04,1.235947574310666819e-02,1.433270685617090145e-01,1.275873277363309133e-01,6.111464996241701420e-02
3.010276437910349573e-02,1.911291222087564134e-01,1.501895709455829293e-02,3.561787471978096649e-04,7.227003243247700321e-05,2.289339378506848738e-04,1.211063721918508029e-02,1.322936843291744047e-01,6.722007397742686685e-02,4.538459023303267892e-02
1.848561678160205377e-02,1.269852302506133679e-01,1.501508022990447402e-02,3.690991359928845537e-04,8.807323112067019116e-05,2.530864433728458388e-04,2.375162426976479974e-02,6.962289793320614040e-02,1.009000939279013249e-02,4.249430393699680369e-02
7.626978220145167256e-03,7.618059398851581565e-02,1.341859581756378074e-02,3.699528119381130411e-04,8.335622552606835342e-05,2.738875526750424519e-04,1.947587803134891160e-02,1.540679893324966264e-02,5.211169491926827962e-02,5.072055426803975114e-02
6.478520290403624524e-03,1.062019131684860049e-02,1.221443311310909698e-02,3.502387940569240583e-04,6.794950347583191734e-05,2.888799524163974540e-04,1.388512100216326289e-02,1.426399724318772044e-02,5.238637319809597015e-02,5.220439442756207721e-02
1.331264411596765757e-02,6.394668739705577920e-02,1.251113488239791703e-02,3.354458811852547261e-04,9.394290298432296472e-05,3.065812865720543329e-04,1.264102115645849081e-02,5.421815857921702397e-02,4.242967660203255525e-02,3.810606749807588650e-02
1.975420995737791480e-02,9.942424278296786710e-02,1.264005581857683032e-02,3.298300003171811550e-04,1.414324130628245152e-04,3.277974747783718966e-04,4.661661231877982196e-03,9.365396392153106653e-02,3.260385294084540420e-02,2.162113750220329492e-02
2.067479870063438502e-02,8.466620721746311029e-02,1.094629998615642696e-02,3.214807948170555064e-04,9.830807733365580395e-05,3.426750701473988163e-04,1.067822206002198675e-02,1.079059127534215123e-01,9.963918258501253816e-03,1.679735826904858731e-02
1.699733758137442902e-02,8.056120448193712646e-02,7.396270584132410772e-03,3.082430890403034334e-04,3.724510847974537815e-06,3.508908349568542226e-04,1.229863833580803131e-02,9.234372429718760988e-02,1.056147820552181052e-02,1.932980538991939043e-02
1.262426582363399517e-02,1.354732112178357317e-01,2.401284365645984468e-03,2.956627863941763698e-04,1.005317159377820034e-04,3.690552801850484712e-04,1.204246600969228163e-02,4.761183740356977195e-02,7.509544698946780603e-03,1.964405435646381093e-02
1.259744608468654943e-02,2.073206970710780306e-01,2.640658492765460101e-03,2.848260772070129320e-04,3.205798895851493945e-04,3.970034906633866504e-04,4.191931808918137464e-02,7.228252482803804863e-03,5.896121146014037667e-02,1.936387865816399309e-02
2.004602471309819070e-02,2.157153348082064825e-01,3.957781561786103373e-03,2.731748083664984651e-04,1.007361553731316435e-04,4.009530392744382562e-04,4.773261738677110622e-02,3.496685364549642627e-02,9.510177995594459865e-02,2.221020116133333791e-02
3.128434600161070916e-02,1.452591538580106922e-01,1.386293871341335053e-03,2.602107317570901204e-04,6.820223531063286920e-04,3.807446597898026799e-04,2.738889463455465578e-02,2.485668763188501190e-02,9.158179301456077781e-02,2.256201441698302973e-02
3.815910484366641375e-02,6.006650635186960852e-02,9.717745228632258814e-03,2.471816251820435758e-04,1.157804978393321129e-03,4.075932065103983937e-04,4.881720860494968665e-03,6.267205448163041051e-03,7.080746169604357210e-02,1.482015189609210346e-02
3.758330898693947736e-02,3.075317159751463428e-02,1.236953956212560185e-02,2.344076741173869462e-04,6.881935025961366135e-04,4.834894049721699259e-04,1.401664809115379679e-03,1.952288810384997762e-03,5.653118341489984933e-02,3.151730763499511166e-03
3.442154840959398693e-02,6.788072569379881294e-02,6.174612869815267018e-03,2.213994505281415123e-04,8.863285849271361884e-05,4.567812438138523163e-04,4.269119886108696006e-03,1.493761116590589140e-02,4.663238454951273981e-02,5.945983271711334159e-03
3.336239930814688393e-02,1.195634338842954114e-01,1.711778624506070292e-03,2.081070840014425391e-04,3.029630604376266976e-04,3.191494130229592750e-04,7.213697395213063482e-03,3.826835785491865954e-02,2.967549419532377122e-02,1.070572820805277062e-02
3.084399746589420316e-02,1.257035841364213813e-01,3.610182147086660534e-03,1.948691240335754778e-04,7.805633865004236126e-05,3.965154264548026311e-04,3.543306226411831097e-04,3.955491496190303297e-02,1.319900059166109665e-03,1.038469945309056924e-02
1.698162555117862377e-02,6.918508208547281824e-02,8.922016564171348588e-04,1.818309790587838734e-04,2.264544544433848299e-05,7.268931998913831169e-04,1.064709512988517431e-02,1.586911516805109695e-02,3.233834954302561293e-02,5.856829850524998549e-03
1.182107459266755652e-02,2.570813897724102959e-02,1.460069358139693936e-03,1.689796756349619140e-04,6.912013735518877575e-05,5.816234481073062233e-04,1.336627984332779302e-02,1.137456522341911969e-01,5.551461128208645679e-02,4.046364794050886018e-03
4.236410016707041482e-02,1.162911322354767962e-01,3.405980606882631680e-03,1.564013318435191033e-04,1.104085323036656816e-04,4.336430226329679775e-04,6.243444392180789917e-04,1.886383008622425916e-01,5.422968402223592860e-02,1.018799354482408451e-02
5.551728974582629400e-02,1.486128594439130590e-01,6.001732213863165966e-03,1.442210992912047480e-04,6.232658856678653441e-05,1.344776777150807467e-03,2.045243458070662365e-02,1.866010452789543805e-01,3.022340039733047157e-02,1.922001761129694605e-02
5.012810744732056761e-02,8.752257082441064484e-02,5.483492280284259744e-03,1.325041592195772781e-04,3.760626672985797338e-05,1.294390128852855983e-03,3.591041494134786238e-02,1.299152952313683551e-01,2.755543271016118456e-03,2.529170655026596881e-02
4.376732779762589759e-02,3.119953295169192176e-02,7.623449881768657246e-04,1.213737621548917746e-04,5.591983021477481410e-05,1.081597792155542664e-03,4.079183941165884231e-02,9.073004755281519063e-02,3.056396756914788598e-02,3.134471081605619269e-02
4.633260815232934093e-02,1.181426933684096570e-01,7.340422163099873110e-03,1.110037929964013129e-04,6.405278316328749254e-05,1.429276358102062701e-03,3.872927416461360850e-02,9.596986054188617887e-02,4.173060510182498295e-02,3.906124326395139096e-02
4.743939129983414799e-02,1.168894601018011514e-01,7.255711764943561376e-03,1.013572822242536772e-04,5.274496543560656952e-05,1.331156040051824059e-03,3.012320920606111063e-02,1.011079738421192253e-01,3.109856398971801855e-02,4.058904920306705133e-02
3.483501353458277883e-02,4.050308916816597327e-02,1.316830250794250121e-03,9.228941839399200213e-05,4.882559772008202828e-05,1.672710300074379457e-04,1.450865852326411153e-02,6.712259704903414392e-02,6.295682552140987806e-03,3.080768526899305831e-02
1.262124082435304127e-02,6.396158840516526223e-02,4.285951597831108052e-03,8.410476835441388658e-05,5.609296004534259901e-05,6.184726439925961310e-04,3.947112193345015795e-04,1.161428861893228255e-02,1.760651312787310865e-02,1.783294358538801971e-02
4.642072840005360967e-03,1.403498346408933173e-01,5.901681663731552126e-03,7.729916368382855557e-05,5.795616783927210841e-05,2.223412996156847517e-05,2.610910764483706948e-03,3.203337979037799294e-02,3.037728972064571847e-02,1.232901118213250609e-02
8.709218845588494531e-03,1.401994789652162010e-01,4.079761757524354333e-03,7.135652915263201632e-05,5.435447309862510341e-05,8.066786904852888632e-04,8.597043331177449572e-04,5.681062038318140245e-02,3.061257120639309867e-02,1.389097365379703478e-02
3.787718383139605793e-03,6.958785831475515493e-02,1.059476173607137731e-03,6.528692128620308579e-05,6.188159780341263329e-05,3.837161438108036894e-04,2.017183899584243552e-03,6.353388430735690262e-02,2.522127219633904169e-02,1.433056044271768976e-02
1.994304748209355712e-03,2.800529339948495955e-03,9.764946256436983670e-04,6.020837124261075300e-05,7.686418661885987950e-05,5.473779815942357314e-04,1.177430489016652489e-02,3.893729110838815149e-02,2.663712528897240958e-02,8.679165180138177782e-03
6.553861047968030824e-03,2.305833870131134000e-02,1.384177034895671095e-03,5.825329884663362336e-05,7.239660782150644032e-05,7.835998385767169129e-04,1.471216109747574066e-02,2.083913983315914889e-02,3.835426255242307958e-02,9.988661298982702552e-04
1.151697232535844190e-02,1.156747981812943950e-02,1.369665192266084075e-03,5.702512950451312835e-05,5.746740772059376817e-05,4.971988357620974602e-04,3.924399325328622838e-03,8.116605664526418962e-02,4.250120443381535246e-02,8.248554828548408657e-03
1.409292638131776423e-02,2.012266809746044577e-02,2.556027926040011812e-03,5.179482885756091367e-05,8.541890225552364500e-05,4.387670220244177803e-04,8.791876665871518198e-03,9.058800007790419884e-02,1.812790584363206323e-02,6.898363405477343779e-03
9.698311907737811391e-03,6.110276451170094936e-02,5.886717016259946159e-03,4.739929229251293172e-05,1.371036413757170409e-04,5.921576849074617482e-04,8.153699418924716460e-03,3.697271097485353708e-02,2.576709287185308811e-02,2.874729294252735372e-03
7.164067888971326764e-04,1.072121530946375939e-01,1.056531345421425974e-02,5.386194283071141686e-05,9.948737246573259130e-05,5.553753398855492719e-04,6.369643496179061733e-03,3.528749142980922709e-02,5.510099607864301502e-02,1.237097693199095544e-02
6.194813901943105675e-03,1.374790498587869503e-01,1.344150726913460360e-02,6.087220124463380721e-05,1.031082695523815102e-05,4.626972423587181961e-04,2.508652036233122162e-02,7.339997966264920348e-02,5.361899329007632775e-02,1.231520715922152127e-02
1.004297521001033984e-02,1.486289375858389494e-01,1.164323573931650042e-02,4.647870656419183675e-05,1.131090386152161043e-04,6.673345934978993765e-04,4.189268177939244053e-02,6.649095821805370288e-02,3.894086015588646421e-02,4.180614229287194297e-03
1.376231769237539100e-02,1.345872130828429381e-01,5.726034682247311235e-03,3.182571652376031538e-05,3.420686156330911146e-04,7.939136754670243681e-04,5.272699425324627737e-02,3.739255596568638595e-02,2.923386089770520224e-02,7.324230462726504833e-04
1.423197627556460447e-02,9.347471287509008520e-02,1.819292264682445363e-03,6.402829522725395702e-05,1.325309802171676407e-04,3.027215530912972735e-05,4.821080784586916773e-02,3.814881956676420376e-03,1.834614902176623721e-02,4.201282071603931745e-03
5.468142000478602022e-03,4.432427210308268611e-02,1.009602883058119405e-02,9.882916223353672958e-05,6.440353330474106637e-04,1.435982450202475920e-03,2.340578501508032427e-02,2.749161240876890622e-02,5.880418950739792552e-03,1.251367860966572099e-02
7.535164093071723516e-03,1.368893241973664129e-03,1.966184239975826697e-02,3.398433236299456015e-05,1.115463526365992808e-03,2.208927926845250574e-03,7.696193519736029866e-03,3.872448617732458104e-02,3.925631674855700748e-02,1.440077293239724020e-02
1.036074700024109708e-02,4.691362471011210900e-02,2.929585320188686504e-02,3.926021433453450268e-05,6.322509249731175221e-04,1.445134987233122770e-03,2.177129283351535854e-02,7.278682005006045785e-03,6.749251793122773568e-02,8.822778479002245725e-03
2.348091941220050317e-03,9.970747818622535674e-02,3.439154792185351167e-02,1.020033806072828924e-04,1.622423868323261500e-04,1.321959226776144242e-05,1.031437461581471635e-02,5.775022648912073175e-02,8.042811061605119327e-02,1.056016425673386196e-03
1.979809875103890129e-02,1.218067149030509083e-01,3.023246245135843835e-02,2.774420528853269543e-04,3.738289305846619406e-04,8.464492868336036214e-04,1.437925505577708832e-02,1.072989998915359205e-01,7.339716437099887136e-02,5.525602417344514100e-03
2.903850166923326384e-02,9.972091213938649723e-02,1.866672355030119315e-02,3.701712070928598594e-05,1.354736715859285200e-04,7.888509673019580533e-04,3.341332785544595674e-02,9.782163772822649594e-02,4.866090996165453597e-02,1.037521386824689744e-02
2.846795211586885740e-02,7.831191084717480100e-02,9.342501297202304017e-03,7.216682098282453444e-04,6.249277106559795135e-05,4.479145899993793164e-04,3.516362923855822359e-02,4.176397539817376658e-02,2.332430957192324628e-02,1.438021402245729177e-02
2.535898130265876182e-02,9.323685539697909586e-02,8.768473718907553865e-03,9.749412835177416210e-04,2.032057720051272008e-04,3.966304342908478879e-04,2.191219224993362635e-02,3.367191586402147174e-03,1.853765268667273078e-02,2.083108454409596938e-02
2.499498059292615953e-02,1.044348255654923008e-01,9.863931002988414465e-03,7.217523903411226897e-04,2.027136930519335054e-04,7.553725889528890933e-04,7.927245965448909484e-03,1.799238614526714984e-03,2.759441819953957833e-02,3.147991796159023414e-02
2.501976752964651940e-02,5.353088044555491531e-02,1.326022227739855021e-03,7.234746081635824201e-04,6.106201681931600609e-05,9.408578795180202840e-04,4.794580470072371328e-03,2.421548388834618773e-02,1.569553963094302146e-02,3.967831791275754777e-02
2.003200920903643392e-02,3.923500564135382757e-02,1.388128384692996833e-02,9.800957907374046457e-04,1.332212250414793113e-04,6.090755464785039880e-06,8.228427372392377315e-03,3.505058398110342394e-02,2.975962913895942655e-02,3.467105276094623739e-02
9.561592929477027297e-03,9.446788127525934664e-02,2.157791069628340122e-02,7.302189603509831248e-04,3.709234006817331260e-04,2.009181717684246742e-03,7.316798142535996252e-03,2.302724910907820444e-02,7.312403337661221858e-02,1.543339675534972574e-02
1.679650611463990532e-03,7.647226918542610052e-02,1.772278992613612880e-02,4.890534374349781138e-05,1.589311604909003140e-04,3.453934357647402229e-03,3.207482673254035202e-03,2.680806717833210829e-03,7.805163199300811649e-02,5.408942353213501766e-03
1.010742541083583905e-02,2.745896078352110664e-02,1.311762068372762657e-02,2.622959094615818446e-04,6.356199605939779783e-04,3.018251272065915376e-03,5.991033583018280130e-03,1.951025030670478291e-02,5.630720172289578607e-02,1.401521323421924155e-02
1.520667446713136473e-02,5.800192953564976134e-03,1.572530821494176265e-02,8.369697276691882132e-05,1.118511000069694452e-03,1.295349759578876036e-03,1.500195468344272046e-02,4.127658335070030771e-02,4.386364022590945322e-02,8.095131921444689849e-03
1.659740170331489018e-02,2.473584709670487158e-02,2.077666083633069455e-02,6.061449143076266008e-05,6.464131186728256685e-04,1.510040477810661516e-04,1.713605427835727599e-02,5.180646021168862358e-02,4.981320157596843407e-02,4.170864578893790364e-03
1.371068771410434428e-02,4.940189075988422190e-02,2.020904675357043656e-02,9.705312062804494092e-06,1.312602882592803916e-04,6.084677835919871007e-04,7.322514391827818041e-03,4.377424121889036956e-02,5.395234792331631696e-02,1.441824100294303475e-02
6.809715609719380926e-03,3.548673610540750700e-02,1.243531366116480338e-02,7.175465537980987461e-05,3.425394421988459484e-04,4.941070908218209070e-04,2.365386403695432689e-03,2.244343116353061593e-02,4.011117072823867230e-02,2.053715908439716561e-02
4.535838880876993245e-03,2.867111354244304688e-02,1.199965797234512016e-03,3.428858963660659748e-05,1.158692290920232089e-04,3.892350189619028854e-04,7.565011618274899118e-04,1.028726620292900670e-02,9.931898262929096666e-03,2.451225338527535796e-02
2.041611256469338248e-02,1.107768428252030174e-01,8.691051308867724784e-03,4.533567979971302089e-07,1.555336827844298420e-05,4.142792682274344944e-04,1.323953092196112832e-02,6.007501330538513734e-02,2.727616190513230260e-02,2.685254411963394414e-02
3.499554599672084071e-02,1.637942114981957575e-01,1.296865304886873904e-02,1.177581923965980901e-05,1.076153315051902611e-04,4.282346215575118871e-04,1.948378642284511603e-02,1.122710880503862002e-01,5.960520288444438181e-02,2.450465677767416778e-02
3.777898386249236434e-02,1.676907845625707216e-01,9.481670017420014418e-03,2.384467080499967265e-05,1.492832023569391753e-04,3.868993506151719428e-04,7.897207762736429409e-03,1.262495702984863244e-01,7.277606836538942636e-02,1.508237955858819819e-02
2.632910796946553306e-02,1.429759891319804244e-01,4.845602109697479468e-04,1.458635838747032748e-05,1.023533619435217719e-04,3.509372137626089096e-04,1.762747896498463585e-02,8.584390135789882192e-02,6.185210345507884122e-02,2.699744545281176997e-03
1.258472166259184261e-02,1.239787048140392062e-01,7.797307377747489388e-03,5.923608308772959478e-06,7.815103320101392335e-05,3.411673063829398739e-04,4.071875011156225049e-02,3.512048625553711861e-02,4.089175452668637745e-02,3.803498721912383813e-03
9.405768753315339042e-03,1.242302189750945918e-01,9.323019251300327867e-03,8.132412844324657413e-06,9.666851431201873104e-05,3.298996754764342066e-04,4.790968889949111242e-02,3.103587364372074886e-02,2.938098396788055983e-02,3.494631618092369600e-04
1.465886050912464274e-02,1.318474183455879967e-01,3.020291224306288422e-03,1.114877325584069117e-05,1.081065203477523653e-04,3.073524549998556577e-04,3.890251049661302973e-02,7.100823087394203537e-02,3.295406429200635479e-02,7.417626841628928089e-03
1.588347482377661796e-02,1.287768647816667777e-01,5.836061549640997673e-03,1.008967521717078506e-05,1.016090527486583422e-04,2.865864040361373074e-04,2.119767769383313835e-02,9.927961792622939929e-02,4.664753020815427115e-02,1.061364073762299798e-02
8.291075006382483265e-03,1.042639885470169059e-01,1.010466878890787894e-02,9.633637584939906234e-06,9.628749589709458218e-05,2.725216620802681212e-04,2.459857658618816792e-03,8.371090821041148045e-02,6.730727921710441541e-02,6.592544262388842086e-03
1.244697099216001746e-04,5.882401272668011383e-02,7.854109286900909023e-03,1.212285572274735804e-05,9.940164652708702710e-05,2.592453405765155188e-04,1.018105788365905942e-02,5.087612394217397305e-02,8.780680840259559583e-02,2.627392614130355389e-04
2.402784020086628364e-03,7.942084715154782912e-03,3.642412376161037468e-03,1.536607820377743983e-05,1.108835361105272845e-04,2.444811663247940586e-04,1.333638415836902076e-02,3.235396234574280938e-02,8.940772829913369579e-02,2.772025955600166715e-03
2.954681649655607322e-03,2.367488636610327185e-02,2.307800138259097356e-03,1.818306209768188743e-05,1.233420010191107119e-04,2.310253820371855693e-04,1.219080289256958827e-02,1.640159587970769356e-02,6.163557110415036205e-02,1.718308094681897293e-03
8.392397548368936422e-03,2.347764218015082824e-02,4.135931141902673448e-03,2.150202844290137325e-05,1.176511024131150052e-04,2.199887156067540923e-04,1.451026522581750321e-02,1.689648765868221117e-02,2.413254233617405375e-02,1.118093982840874566e-03
1.501342505857115352e-02,6.921242812852964818e-03,6.387747286837780133e-03,2.577854561114649280e-05,1.047655587364613989e-04,2.100422477484075021e-04,2.076560018142427355e-02,4.902477778033390021e-02,6.246813701266716069e-03,3.955095731350144993e-03
1.488265707919014455e-02,6.271417834563447480e-03,6.145709141629887573e-03,3.045245539905209244e-05,1.343003552147102782e-04,2.005744858283663005e-04,2.629356466275942217e-02,5.110794163573310900e-02,7.635503187180751883e-03,5.159115888393679510e-03
1.023961225593333392e-02,4.161289319872304993e-02,1.449450101540094172e-03,3.515282192233996732e-05,1.857928245258030203e-04,1.920859619183728508e-04,2.864458781876134952e-02,3.175930426092898884e-02,5.515888079781205988e-04,2.417614651112536938e-03
1.101524539937154094e-02,1.005096293023135245e-01,6.930828837718825720e-03,3.997050319510987314e-05,1.480881438082520319e-04,1.847196320984754948e-04,2.671616099480715253e-02,2.019903757464533781e-02,2.891037367409153222e-02,4.531289930759556210e-03
1.980970998606056827e-02,1.426068122971363983e-01,1.479172498374231245e-02,4.490130959689510667e-05,6.023959820150230046e-05,1.780628804622457720e-04,1.905847170296964474e-02,2.238509886139993660e-02,6.169788222043418036e-02,1.207941232567963027e-02
2.920793955594876493e-02,1.287459998642797310e-01,1.812609988286296298e-02,4.971599508738480726e-05,1.645379432659447368e-04,1.718387053536298372e-04,8.664475595663967411e-03,2.379439188334741412e-02,7.152711361112946975e-02,1.646717552981951868e-02
3.283610353950491834e-02,5.816526097538106399e-02,1.651496390635751391e-02,5.422410596748581822e-05,3.930140305854499323e-04,1.660129460048813323e-04,2.379682881447793379e-03,1.749934572001118210e-02,5.363465981916711034e-02,1.837293682479998816e-02
3.106929289154668899e-02,2.005178757581036614e-02,1.147287051282090166e-02,5.834293128077145730e-05,1.822621302870024163e-04,1.604784634129008847e-04,1.405092137272806766e-03,8.962226155928464805e-03,2.242579522363212507e-02,2.104406786434605270e-02
2.707218617614188041e-02,4.722800891473282608e-02,4.498116924339399213e-03,6.197967633505456833e-05,5.920204001066143576e-04,1.550078691984420375e-04,2.272824437681912309e-04,9.602370731463374942e-03,6.321299057045305821e-03,2.491455982992951332e-02
2.297247014101086449e-02,1.326060557351216133e-02,1.583147181014900795e-03,6.500251395228124501e-05,1.059674587188593571e-03,1.494077322275047049e-04,4.912839665302589504e-03,3.011710841049078380e-02,2.355652274353830719e-02,2.753644546105636637e-02
1.881655676186851783e-02,3.901402567500374813e-02,3.506815479798867236e-03,6.729995221524761760e-05,5.801472263831906635e-04,1.435494315857871049e-04,6.595465381401275154e-03,6.143645310575483742e-02,2.578854373699912897e-02,2.742662690069650605e-02
1.254954422574279700e-02,6.423310956009398165e-02,1.688221322742325652e-03,6.879931561833648227e-05,2.069392912535927549e-04,1.373039188104246858e-04,2.198969276148392943e-04,7.495022704568723992e-02,1.422540918892170950e-02,2.462126272272841671e-02
3.266053335652534945e-03,5.080822671309718347e-02,4.994000687415826260e-04,6.944290961569876610e-05,4.264910232477014864e-04,1.305326563095610224e-04,8.959590143254604275e-03,6.378195556189669713e-02,5.027325082236007089e-03,2.001202865921217905e-02
4.796843171935886822e-03,2.179287220166837777e-02,2.124612631351734462e-03,6.918224663457820094e-05,2.040929522415176360e-04,1.231236697046307203e-04,1.064978597735280474e-02,5.828671464912210665e-02,2.380553882075447589e-02,1.654186725029786059e-02
6.038350982442687587e-03,1.952097156279573517e-02,4.663476570744238929e-03,6.799165108989780985e-05,1.141072708598737657e-04,1.150011379092941518e-04,2.717364352799820065e-03,7.690827657196938616e-02,3.786058066191270305e-02,1.694052025049890345e-02
1.813052085251958597e-03,6.715145932084962133e-02,6.768863392922549495e-03,6.587291397388001359e-05,2.194658918628917394e-04,1.061127017071094545e-04,6.429987695453130703e-03,9.493163525985841289e-02,4.781202071834798895e-02,1.863803779443464967e-02
1.348699172680916953e-03,1.348380134663288987e-01,4.774649944701697679e-03,6.284997841843301841e-05,2.532141684661480736e-04,9.642795376066926852e-05,8.541042009619552108e-03,8.687840494630343080e-02,5.210254742952959151e-02,1.543345306993219694e-02
2.341766170365140731e-03,1.711061207324250377e-01,1.031611691340083257e-03,5.896687320751462105e-05,1.867852734578331680e-04,8.594648154245499274e-05,2.599627831383356878e-03,6.495897038436393434e-02,4.686034478366617184e-02,5.535630198638523750e-03
6.499141775867614892e-03,1.631007086690693664e-01,5.750496983397363447e-03,5.428951788376729136e-05,1.841155808609326713e-04,7.469972036617573844e-05,7.183765496998654847e-03,4.880103256693568703e-02,3.718567764462180070e-02,5.291952196584159482e-03
1.526094481539158089e-02,1.342678794843616130e-01,6.464649526519134978e-03,4.890522500012361496e-05,2.439067444650250868e-04,6.274715977881133047e-05,1.319969770343789803e-02,2.913055541098136941e-02,3.502016777242217271e-02,9.573349499240170132e-03
2.276937123983241787e-02,9.945184377433775869e-02,5.391771447358317121e-03,4.291956037889157154e-05,2.027717740490957621e-04,5.017428230564103338e-05,7.786652499502862493e-03,7.784799550101497573e-03,3.926003595707024812e-02,5.454109332190384095e-03
2.391591708885025883e-02,6.101380068269506018e-02,5.333831649311822007e-03,3.645349779989748583e-05,9.306647359422546119e-05,3.709209890795206981e-05,7.379751488375435944e-03,4.322501968241466985e-02,3.576743831203859497e-02,2.840862810625772658e-03
1.975934536993283891e-02,3.391423220746121736e-02,5.505267649799669254e-03,2.964113221155762964e-05,1.805749673008127140e-04,2.363487992471018047e-05,1.981934940812443355e-02,4.681438250425221104e-02,2.280696218027649866e-02,1.076764989494290170e-02
1.423746376849868538e-02,3.539582273717099825e-02,3.867452520700282326e-03,2.262666756287512945e-05,3.958060685412857229e-04,9.956184714103520866e-06,1.997829662557396718e-02,2.222772507263696962e-02,1.418211538947228637e-02,1.644048450010567389e-02
9.482072551623645443e-03,5.769015835403396020e-02,1.119269864378846704e-03,1.556064408992969986e-05,1.674781176545825400e-04,3.775111264391028379e-06,1.052871579371220286e-02,1.096794646554034164e-03,1.336189299688640003e-02,1.773937830865052190e-02
5.309077200170422492e-03,7.905752597020744565e-02,3.902638957323907262e-04,8.596123805142116473e-06,6.160048262464766933e-04,1.737869366194252059e-05,5.197298746261511099e-05,4.010075508743387793e-03,1.025255434632200459e-02,1.249160885549752999e-02
1.616354333965349050e-03,8.955472527029734175e-02,4.027668256998551003e-04,1.884988336573532565e-06,1.085573038180565096e-03,3.066724131921810391e-05,4.832662647356683605e-03,9.421980636601830217e-03,5.176212426997426480e-03,4.095770141358328134e-03
4.840498201643655268e-04,8.485095541199751124e-02,4.566751306207570771e-04,4.425848968683318219e-06,6.311391898780037988e-04,4.345130930946917915e-05,1.344969914379891794e-03,2.027534373792090616e-02,8.285795840951199615e-03,2.659143809137891334e-04
7.934549472993466818e-04,5.690765368818694742e-02,5.782918815454353738e-04,1.019825046141819628e-05,1.190990392223187990e-04,5.554418894188190410e-05,1.973744543461271317e-02,1.301170052353385446e-02,1.509775730355312692e-02,2.997058827103506705e-03
1.119926522515946130e-03,1.544665058579672984e-02,6.589526252029988306e-04,1.530644611156091938e-05,3.583861234113664470e-04,6.676661346329087175e-05,4.240373759179695556e-02,2.352450365188303583e-02,1.071722896523995792e-02,6.921549219836451924e-03
1.673721001801014392e-03,3.021858207310514771e-03,3.033993149288551593e-03,1.964029961984963018e-05,1.862835241441473607e-04,7.695135404462772385e-05,5.479201812852809578e-02,5.157514452395537546e-02,1.523374720147880647e-03,9.653100991694850766e-03
7.775290481914168966e-04,2.589176723072577485e-02,4.547960783382373924e-03,2.310822557906444717e-05,2.999980135789114563e-05,8.594759508300822920e-05,4.930013417074972232e-02,2.027822639148880654e-02,2.308201474178735082e-03,1.442048032866697499e-02
7.343078030778810335e-03,7.967433708495676170e-02,4.412231957870537194e-03,2.563968729453193859e-05,6.380316631559509739e-06,9.362490074761529979e-05,3.505146471079958331e-02,6.608887241076749630e-02,1.175933452264695846e-02,2.023666602620181193e-02
1.303580809321633685e-02,1.129078356899259339e-01,3.787813290632522072e-03,2.718717679571813669e-05,1.675159584006594236e-04,9.987666790975131392e-05,2.842821887665189853e-02,1.466082589268349612e-01,2.225717152914646196e-02,1.986846873453388188e-02
1.286976838613908963e-02,1.049181292913591024e-01,3.617918015149973205e-03,2.772761659909686843e-05,3.864909003964033993e-04,1.046230129293028422e-04,3.340267918303759659e-02,1.731539659255408037e-01,1.655303059115001418e-02,1.064595385974058568e-02
8.444640256914054052e-03,6.720608535095307090e-02,3.628902680852648388e-03,2.726315518015434694e-05,1.002091224944867242e-04,1.078130201740886156e-04,3.763949005529627911e-02,1.510040297138469101e-01,1.445855139494384807e-04,1.288879352909182065e-03
4.121890748832200690e-03,1.791708926561849657e-02,3.402412463800030991e-03,2.582133156629689178e-05,7.555223315871021847e-04,1.094262771822513596e-04,2.985980965720736249e-02,1.072771609421969696e-01,1.978181746354990347e-02,9.419864011195367565e-03
2.320801174921989268e-04,2.778828555001344736e-02,3.050187679204867906e-03,2.345459176091991467e-05,1.120314308494379857e-03,1.094736547986026011e-04,1.474332289255063724e-02,5.431668307283832320e-02,4.106447102961879175e-02,1.266259505380457756e-02
5.462004367717918953e-03,5.215608120475180576e-02,2.767951262841617226e-03,2.023916160645898934e-05,4.340074032527915988e-04,1.079973185906539290e-04,6.462151281762683677e-03,9.999831794589378060e-04,5.254167551007067616e-02,1.235833198437201116e-02
1.246988127951542506e-02,4.705628933681616638e-02,2.507851112963697168e-03,1.627330137592234786e-05,1.261661839462065583e-04,1.050699699606418822e-04,1.031936720290432818e-02,3.964064863307750763e-02,3.594988213054614579e-02,9.889989268209669823e-03
1.799476519912004621e-02,2.974408839181551939e-02,2.180760305382777996e-03,1.167498100997256838e-05,4.278572584658455889e-04,1.007933303897138466e-04,1.641588040605647739e-02,4.683060171412076200e-02,7.483589473635946128e-03,8.029322615680621264e-03
2.074652075546798077e-02,2.661722784254748342e-02,1.812176443749845657e-03,6.579028214432981316e-06,1.114662247518084792e-03,9.529590458565449828e-05,1.362717049082278788e-02,3.495094259953447635e-02,4.941130915730219952e-02,9.709476770230962214e-03
2.135402099400511566e-02,4.451048375176826916e-02,1.449411921380641330e-03,1.133816822714506474e-06,7.353742403706500438e-04,8.873007852084745673e-05,3.813770147821624046e-03,3.101991076159895527e-02,6.406201320338683614e-02,1.455353345182318001e-02
2.086223117784152467e-02,7.057339821134893387e-02,1.087323469903707374e-03,4.502423776012032247e-06,1.450199291275856622e-04,8.126862358647078558e-05,4.665845121792319347e-03,4.665332550596341943e-02,5.291590829347564418e-02,1.948229159652246911e-02
2.085487261262443034e-02,9.237485395739301886e-02,7.106959770913250703e-04,1.016558734240923100e-05,4.149262614312811148e-04,7.310069209536723732e-05,1.233368883343313217e-02,7.216181796409866511e-02,3.259295368148515393e-02,2.241341950597228183e-02
2.305609297835104973e-02,1.081079939886653990e-01,3.293571922421678340e-04,1.568985897579580128e-05,1.556255871876894236e-04,6.442740293652275533e-05,2.646494660283636377e-02,9.325011070807634472e-02,1.122097288179640592e-02,2.328249057291478449e-02
2.694461648319387836e-02,1.233291459089217862e-01,4.143297467773966042e-05,2.091196805659954942e-05,4.159810542808206699e-05,5.545712705797319330e-05,4.460486928421387304e-02,1.022154654694130554e-01,1.237806173410391057e-02,2.262921269797281074e-02
2.912011428198840735e-02,1.404287740327131440e-01,3.978677130335559636e-04,2.567541778934624410e-05,1.618451498618763329e-04,4.640058979533200176e-05,5.260137227458560466e-02,9.697020589932860146e-02,3.228708404340120686e-02,2.130650337538224706e-02
2.683963878612487600e-02,1.471542409871954560e-01,7.388247693740345465e-04,2.983458282788665995e-05,2.214870779043513478e-04,3.746591157470418394e-05,4.410136638168832279e-02,8.045083500606191318e-02,3.225351806602425042e-02,2.061481502779152417e-02
2.176759629630086249e-02,1.244694301483478954e-01,1.058059994439403953e-03,3.325856886602703038e-05,1.707415154015449262e-04,2.885371035961346400e-05,3.164242432049779036e-02,6.349560324246561471e-02,5.446588486714054947e-03,2.073087095808668137e-02
1.859234880220562644e-02,7.464424981124659353e-02,1.348419268687499556e-03,3.583473306954030848e-05,1.457089491333334594e-04,2.075238791863808955e-05,2.898396011876436945e-02,6.012517500390157643e-02,3.078153751851148492e-02,1.962193556218565921e-02
1.940478186374362465e-02,2.789414674512526518e-02,1.605736213668869676e-03,3.747177185877546997e-05,1.713164636667045837e-04,1.333371745984475849e-05,2.983887880519987823e-02,7.188166524263625567e-02,5.077392426524072327e-02,1.544920756631436645e-02
2.064786955469902555e-02,9.989425653139750311e-03,1.827083332115721171e-03,3.810229272125119143e-05,1.840562791481786537e-04,6.748842712732638194e-06,1.685690567215743924e-02,8.034292813566495939e-02,4.663719221062858494e-02,9.584010748937301510e-03
1.749593161182638398e-02,1.713552500292809394e-02,2.009081904457663947e-03,3.768479913331683917e-05,1.713670732691619653e-04,1.124788387369536044e-06,1.090608567487097447e-02,6.670784399496551553e-02,2.925616304630311235e-02,5.479008397807668372e-03
1.103027048892481210e-02,3.119079524266955145e-02,2.148833483721776776e-03,3.620503197017556742e-05,1.627533870914313287e-04,3.438430733685122147e-06,3.325234309730959459e-02,3.799242147174244216e-02,1.039115837163553067e-02,5.136749388610450592e-03
7.175265642640007296e-03,4.386239390024943008e-02,2.244829653765135179e-03,3.367662666871689244e-05,1.644183746710645697e-04,6.870029728349797213e-06,3.402742335073382501e-02,1.746207105645918023e-02,5.234834842825653728e-03,7.793938531755406456e-03
7.140599429153973721e-03,5.664237022098969621e-02,2.296605214719914332e-03,3.014106250158769132e-05,1.626266718561366405e-04,9.129946889901035297e-06,1.856867749943219223e-02,9.066131023499294367e-03,1.594968237612183481e-02,1.090900693396552705e-02
4.983111462139071940e-03,6.907443112173981825e-02,2.304355652355717741e-03,2.566689818263304048e-05,1.543526677228440733e-04,1.020957303310764217e-05,1.274443041182674995e-03,4.808416893204709233e-03,2.225801929419728847e-02,1.189322987807336571e-02
2.236313155150736632e-03,7.687428391571125841e-02,2.269110976153112299e-03,2.034830619619209827e-05,1.460698355747349459e-04,1.013169837228871832e-05,1.125078819237792550e-02,2.720303808812778515e-02,2.792944664697548374e-02,1.030464771836279644e-02
9.001655292376266326e-03,7.750231999496107194e-02,2.192901228859478382e-03,1.430293627108468875e-05,1.393848172708939104e-04,8.949678171987424167e-06,1.751579032912096295e-02,3.593659777624397256e-02,3.557624408000422539e-02,8.321999530029444009e-03
9.784220410949258720e-03,7.257212064710380495e-02,2.078630030070666591e-03,7.669155846026791981e-06,1.314473990968004788e-04,6.745837940370130368e-06,1.448237356021230861e-02,1.724751847859304008e-02,4.268774651653624991e-02,7.416268135501082742e-03
6.191200230602596048e-03,6.554399017835649266e-02,1.929918367270296075e-03,6.027317427074852393e-07,1.216762826588225279e-04,3.629158000078431040e-06,2.625598851522712839e-03,1.176295777828248977e-02,4.529873100850743267e-02,5.025515586762081127e-03
2.836067598379355022e-03,5.870144658719160524e-02,1.751056635301547881e-03,6.726967853666387386e-06,1.115996759557105809e-04,2.677046432945404635e-07,1.123951305678145413e-02,2.332772985305520130e-02,4.337960833373921687e-02,2.565917213325846161e-03
1.827299085711885833e-03,5.231113449992523534e-02,1.546946486769246653e-03,1.414115900107227653e-05,1.017033478074769908e-04,4.791982561404821376e-06,2.076242913470376095e-02,9.208702385928996259e-03,4.004884714983751592e-02,1.350088114701109357e-02
