9.554514605913405623e-02,3.286619488623673119e-02,7.500327140968708270e-03,6.810578796084530186e-03,1.077320487754371498e-03,4.998552553447849255e-04,1.997140325210487038e-02,9.372659212664030681e-02,2.210079322453356032e-01,3.167769243184786337e-02
1.068276342184197314e-01,2.374533844341959743e-02,1.064891467890975718e-02,6.490889128837390096e-03,1.469459067570323251e-03,3.774697178354894690e-04,2.071985841173767939e-02,9.022957739604588190e-02,2.147975033579844206e-01,3.279206649798434292e-02
1.095176232327193661e-01,1.804432981566714625e-02,1.806500915221860570e-02,6.003607960522609581e-03,2.128777860302126512e-03,2.298709663697383473e-04,2.174359093129788964e-02,8.890519602224342122e-02,1.277529480212424573e-01,3.171682297435503284e-02
1.040228244060723561e-01,9.415384752833910395e-03,2.631058647606925385e-02,5.353809330796558720e-03,2.186726151092393752e-03,5.932951773055046194e-05,2.267246435634467580e-02,8.670610765728131719e-02,3.020898693021834697e-02,2.799337077304620697e-02
1.018699829230991227e-01,6.820360572034026188e-04,2.901071965954747645e-02,4.550362398043718282e-03,1.768472319178812603e-03,1.312798632069524924e-04,2.211033998764294628e-02,7.417663246266509303e-02,4.800862053135642946e-03,2.663918435834831955e-02
1.053224451294848263e-01,9.181539421586375899e-03,1.329257207862702059e-02,3.605751351094775570e-03,1.440080175435329507e-03,3.385299295770017561e-04,1.922811161325541779e-02,4.017436328790618960e-02,2.934699727538543634e-02,2.820392868421165225e-02
9.444250685883626151e-02,1.811871890760620094e-02,2.270017392640894319e-02,2.535808338726887323e-03,1.273351611482170711e-03,5.585068458220026700e-04,1.520211403300909987e-02,1.570375752678807024e-02,8.837434765783463986e-02,2.471134209233261103e-02
5.080652933386807513e-02,3.126720445122611880e-02,6.014980955149777653e-02,1.359364993533180048e-03,1.029714206183759669e-03,7.869062725519086450e-04,1.203820607140329915e-02,7.353430344253419904e-02,1.284657988316028898e-01,1.117920665095751068e-02
1.398902007532679473e-02,4.489213297477159803e-02,7.719906242304176713e-02,9.783119819484637760e-05,6.748174084120867836e-04,1.019137360869657111e-03,9.942150680077508490e-03,1.059886414611842381e-01,1.190859211888896652e-01,5.848865027767784566e-03
6.784175405761545818e-02,4.463946151260476947e-02,7.201382309324333431e-02,1.225287583333148529e-03,3.259969086591229344e-04,1.250394037228494751e-03,7.293672971390739723e-03,1.042884090266472386e-01,4.513680110842567539e-02,1.665146282076735221e-02
9.108847303930293904e-02,2.036372062492627227e-02,6.425302294918062984e-02,2.584923796132600638e-03,8.684067159350766915e-06,1.475733588007198610e-03,3.709919640037540219e-03,8.286048196326298299e-02,6.665301315355427747e-02,1.939019271103171321e-02
9.016695532951696235e-02,1.676636109755230697e-02,7.370101934608044858e-02,3.955022121264546026e-03,3.235124682904272440e-04,1.690243185821553367e-03,1.320429481831975060e-03,6.048620872640238927e-02,1.520601905823084909e-01,1.870253271007394497e-02
8.332180189217858191e-02,4.334021040878168612e-02,9.849356320371374651e-02,5.309138862226929316e-03,6.746859833173461229e-04,1.889203408021826285e-03,2.002116590145841448e-03,4.762553481386518073e-02,1.695843285592175675e-01,1.845613407834907627e-02
7.948095306882006772e-02,4.699958920833281761e-02,1.182816183644310737e-01,6.621045740416258568e-03,1.014772068900262605e-03,2.068066266885395209e-03,5.076109326777161410e-03,4.620781963845192047e-02,1.367503855302503180e-01,1.995077711210984511e-02
6.911738264465104586e-02,3.222801901282688897e-02,1.192876698553817921e-01,7.865327314086931892e-03,1.333274660952867051e-03,2.222429252075155178e-03,8.858207050611410782e-03,4.990204967313856960e-02,9.913306458827264578e-02,2.391919622797246403e-02
3.834940301284235631e-02,1.194646114511464449e-02,1.094843599177475618e-01,9.017970586545792991e-03,1.636302077805455073e-03,2.348391967070122353e-03,1.269496699551051280e-02,4.926801264071029723e-02,8.985213994420365724e-02,3.052646516092012013e-02
2.023506299533829166e-03,7.576538671855538934e-04,1.066873634763415429e-01,1.005692433210920826e-02,1.921554884616758548e-03,2.442910264424945875e-03,1.576590667958426353e-02,4.194515819009496382e-02,1.159172382783245775e-01,3.831630478133381257e-02
1.403695119679299053e-02,6.861472807922961575e-03,1.179793246377886379e-01,1.096258604601523835e-02,2.179574610045828618e-03,2.503305156985931139e-03,1.581087839986158872e-02,3.214270421254503129e-02,1.561836934832915025e-01,4.524668455535860168e-02
2.364784788475420355e-02,2.456599166811660254e-02,1.347126948301360649e-01,1.171822083094497050e-02,2.405615677128721420e-03,2.526720513949928283e-03,1.226793778975365443e-02,2.300142056733973928e-02,1.802754711982586244e-01,5.086979869845900670e-02
8.307285243182072065e-02,3.818533951553691741e-02,1.437658075652206158e-01,1.231036269011371448e-02,2.599329297867801654e-03,2.511344399277486063e-03,8.997593998273337168e-03,1.878961831327716908e-02,1.855260386950644269e-01,5.673143644166839250e-02
1.185524978368874133e-01,3.363719392344559356e-02,1.388940422953435783e-01,1.272915481463538119e-02,2.759306939415069170e-03,2.457741057672453884e-03,9.189232806236177081e-03,2.716590003088102667e-02,1.926247924374707987e-01,6.373500930983048984e-02
1.163298184548044872e-01,7.097841060035805019e-03,1.230237989568714607e-01,1.296848933435329303e-02,2.883239605711121999e-03,2.366370987859821740e-03,9.313447752936585347e-03,4.841748371676846824e-02,1.941613500065182407e-01,6.892788500400166829e-02
9.536505980429642315e-02,3.246679052422754563e-02,1.052308638661360318e-01,1.302601066642723043e-02,2.970506724713763754e-03,2.234724526015198845e-03,3.942234982518117402e-03,7.232144120286600197e-02,1.510488963724285483e-01,6.691520182098106839e-02
7.408555556728901870e-02,6.963259227531472251e-02,9.478938631792042935e-02,1.290326349365732324e-02,3.022135874521626134e-03,2.062534272542929613e-03,6.530363906032563177e-03,9.241014234621207357e-02,6.187229310457005582e-02,5.572872931103270422e-02
5.198146831498503401e-02,9.691515165032092705e-02,9.203374991417688500e-02,1.260584390447886532e-02,3.039597052669788455e-03,1.857971919511430250e-03,2.048319911687635289e-02,1.081982869883096193e-01,1.641002606878964876e-02,3.940550821330914694e-02
2.070289229815316934e-02,1.220447487815784354e-01,8.563614212092438005e-02,1.214294510129124149e-02,3.024781054464433221e-03,1.626566920856584208e-03,4.205186629296332051e-02,1.118959994206887437e-01,4.823809414956523045e-02,2.450920664825962519e-02
1.043047042192881205e-02,1.560962109327390657e-01,6.503646555792728934e-02,1.152658645536378153e-02,2.980432750342604329e-03,1.357524139235032285e-03,7.253786287945097888e-02,9.414157810691868578e-02,7.045434215727702787e-02,1.618863508230925993e-02
1.126156247547968614e-02,1.965109348971467718e-01,3.479349686652340873e-02,1.077184293526183174e-02,2.910009937506568330e-03,1.046829285232908028e-03,9.978524136678153245e-02,6.209565741155490676e-02,1.346792085817118956e-01,1.595472503072989032e-02
3.001972196377141605e-02,2.278702017983181283e-01,1.035729121066722783e-02,9.897509336287123663e-03,2.817458432210310625e-03,7.268301216458556389e-04,1.084823196749147428e-01,3.110577419924337103e-02,2.405090386265895108e-01,2.059063290832258142e-02
7.934504615229200086e-02,2.393514076603856233e-01,6.813181085550713834e-04,8.924395299691745276e-03,2.707232233867176447e-03,4.173875835714907934e-04,9.761560820987622011e-02,2.418952209571701827e-03,3.445949980357390641e-01,2.537487437616910493e-02
9.599885436075025757e-02,2.356349826235131228e-01,6.819473755559659484e-03,7.872415327576133548e-03,2.583992349721518037e-03,6.111795979119379215e-05,7.790351981669198234e-02,3.317317907416822420e-02,4.009065097329763683e-01,2.907490832358061369e-02
8.165217485382242346e-02,2.285164442896299442e-01,1.908284133191942913e-02,6.762527415304279629e-03,2.452165186116971735e-03,3.742939917034374033e-04,5.718820478345265634e-02,7.612981715909453162e-02,3.808011017601447001e-01,3.217983090862809592e-02
5.958981463959711622e-02,2.240789239993124793e-01,3.488748525855098204e-02,5.621231445872085751e-03,2.316376795642026854e-03,7.553188743652844341e-04,3.761365549841617917e-02,1.189862482385808662e-01,2.849929002377251663e-01,3.213248537978346392e-02
2.911154473898949768e-02,2.220328311330684867e-01,4.250950626145444389e-02,4.474682461691727176e-03,2.181993917103353022e-03,9.976048050031091196e-04,2.150168196792394751e-02,1.615221987495085998e-01,1.541684553818827019e-01,2.616292970822060165e-02
2.012906133975343043e-02,2.203046556727625838e-01,3.892091318082165075e-02,3.337014876847220826e-03,2.053683654823938720e-03,1.375463384158486218e-03,1.070174099762554593e-02,2.102330489738577779e-01,5.298866645317560492e-02,1.631375476448015255e-02
6.682063755156424090e-02,2.136939385560134297e-01,3.364919061570825765e-02,2.220690178960759396e-03,1.933787776739980891e-03,2.077861165127866533e-03,3.402228872058167194e-03,2.630875548777547035e-01,2.425645061138896608e-02,6.041551430627265656e-03
7.376184588804363118e-02,1.924563747846905759e-01,3.342910276944105474e-02,1.159825886859894078e-03,1.824988013370199089e-03,2.481499657868752387e-03,2.418421748115174436e-03,3.038464574948780972e-01,5.205887502459574656e-02,4.729279904607763124e-03
3.907408228940131151e-02,1.517858544327559955e-01,3.337443514505050723e-02,1.869192638231764302e-04,1.733461054269356963e-03,1.862468646483415131e-03,5.659216475765095622e-03,3.123794348265720444e-01,7.539234203861611139e-02,1.695753591789083900e-02
2.948996581253335997e-03,1.069190747236020561e-01,2.984209081298340102e-02,7.192335341105704450e-04,1.662891880031965811e-03,9.436637699396545342e-04,5.940304864363899449e-03,2.808000851212875681e-01,4.948038144029463792e-02,2.918246235572951458e-02
2.985785687983264630e-02,8.591160930685710906e-02,3.097569309373806798e-02,1.586662063020458178e-03,1.607265046688130007e-03,1.309232414008448852e-03,6.226491699253844728e-03,2.223294325768127577e-01,1.077462953265233281e-02,3.880052832691208153e-02
5.050143668612275261e-02,9.119894062911697297e-02,4.198271621155078709e-02,2.339033506208179451e-03,1.563209820528675253e-03,3.010351578979590919e-03,7.722921666278716873e-03,1.593434025811481802e-01,5.961670417737632843e-02,4.231960486448405750e-02
7.530414160864581929e-02,8.370578082835944400e-02,5.119622415368745016e-02,2.893875909877674686e-03,1.545514385325891639e-03,4.378033040515360089e-03,7.188124143715855785e-03,1.027169477933827235e-01,7.280956271984857786e-02,3.663084314642092026e-02
9.179683464648290270e-02,3.067947702050496245e-02,4.728893658211866247e-02,3.403364224430512237e-03,1.561020019919588100e-03,4.553795319091596266e-03,3.971260619765932046e-03,5.395920190151815704e-02,5.543349127256372300e-02,2.515312733939481515e-02
8.027204832533017809e-02,4.693236378640643081e-02,3.894408549282936394e-02,4.051292097417831355e-03,1.574726895631685820e-03,4.573118715607686971e-03,4.320741269832335633e-03,1.843355494591904925e-02,3.020574153013819152e-02,1.666878793748116649e-02
4.407548448671057967e-02,1.033690059473514611e-01,4.027229018911829272e-02,4.533162583537714112e-03,1.564660888383830311e-03,5.345935893589421652e-03,1.266698921456323179e-02,7.109837304478243761e-03,3.186736212605006946e-02,1.339409868181428744e-02
1.175542471501527658e-02,1.261914254342831332e-01,4.774261906565263613e-02,4.475214497120352623e-03,1.595891294014886762e-03,5.916571629113650740e-03,2.319567029571963437e-02,4.694543274155328627e-02,7.432019866573290334e-02,9.644027492273169605e-03
4.808325444857729225e-03,1.346632662844596540e-01,4.757135675924062390e-02,4.565644227569386725e-03,1.705566053961265300e-03,4.811073108832123781e-03,2.675464808954825316e-02,1.125215205283147113e-01,1.199342416743238438e-01,4.940931831800169510e-03
1.379208710071835875e-02,1.397183600737609832e-01,3.751819083780168207e-02,5.719845534778594115e-03,1.739281077305811132e-03,2.281160838179082089e-03,2.285023491884596164e-02,1.687028552836843387e-01,1.231928438131388998e-01,5.187180249650090967e-03
1.770045026482510234e-02,1.430517416809875542e-01,2.873178197414390234e-02,6.453601423473353388e-03,1.585934404061420389e-03,1.658932263083055022e-04,1.840031105119765628e-02,1.734241796035866645e-01,9.719702690159447156e-02,8.658345911887122687e-03
1.486221715715291790e-02,1.615278171191162071e-01,3.200686457218709924e-02,3.672307832247970281e-03,1.585413274562145081e-03,1.851028785643277219e-03,1.705406586126171145e-02,1.411360759481857796e-01,9.498000027038694393e-02,5.452782266996311980e-03
1.832574676717784595e-02,2.112137360940677111e-01,4.844456080341300735e-02,2.455146493163472797e-03,2.249116599675411981e-03,3.167883867384011648e-03,1.570947795765494787e-02,1.233244924340861637e-01,1.383907601539866306e-01,6.055321416037703214e-03
3.086964836256856845e-02,2.688066556321821454e-01,6.568538708450231967e-02,7.718902445046750029e-03,3.460902087887452166e-03,4.488954608500523268e-03,1.060554335964028830e-02,1.304743375947230999e-01,2.000810389150609048e-01,1.571928268166995768e-02
3.801633705181649975e-02,2.836950460241922101e-01,6.392239404914151768e-02,9.768965350793076124e-03,4.377726397859380177e-03,5.777558637998430474e-03,2.759513294308246940e-03,1.201968098455529765e-01,2.355805702386531697e-01,1.927611726797752792e-02
2.143720777166371882e-02,2.417415582235910021e-01,3.834272654818275672e-02,1.075522779921465714e-02,4.232189373022296128e-03,6.450633744149573447e-03,3.412150456700185561e-03,6.937048336986900710e-02,2.077173258206556905e-01,2.748519515965786031e-02
2.079646032033631922e-02,1.946956413031540323e-01,9.690280322443452915e-03,1.216529343327877634e-02,3.047524246026157586e-03,5.761725084215393866e-03,6.049326377404764393e-03,1.315301078425488990e-02,1.092889261829700226e-01,4.926896094974468621e-02
6.495767820198049269e-02,2.004984655322302745e-01,1.402476039115184772e-03,1.162406352071241461e-02,1.594412306623179450e-03,4.368890833030698514e-03,8.182570024911062917e-03,4.848621265851523962e-03,9.578289463471841014e-03,7.464685864318318376e-02
8.511444655132635595e-02,2.459890539823507416e-01,2.539838674238032584e-03,7.253962998328263891e-03,6.260351783021736363e-04,4.101780506436951586e-03,1.176425009514699312e-02,1.532736109285642336e-02,6.290676248915175184e-02,8.537329790477099500e-02
8.809459869909914975e-02,2.634625294404442930e-01,1.074491536497692787e-02,1.428332841763162902e-03,1.867178275084941362e-04,4.979126830085332453e-03,1.329606313409698211e-02,4.419852243296892857e-02,1.245441654323400926e-02,7.706295299087072281e-02
1.049415425595556922e-01,2.233487005573066009e-01,2.110144932786981592e-02,2.250852471855796424e-03,1.061879165347713957e-04,5.022360339751876825e-03,1.066195939729013345e-02,5.658878938154639909e-02,8.190918245627110128e-02,5.987684519725269827e-02
1.444995644252229650e-01,1.712383577975362114e-01,3.060476122036127553e-02,3.469381515153852416e-03,4.597179971730930704e-04,3.948187653952831694e-03,8.837018120282947101e-03,3.769395776849052832e-02,1.238163836371806575e-01,4.074718480046200103e-02
1.781271669183943362e-01,1.580268403965338353e-01,3.073168684126004885e-02,4.669995897826784842e-03,1.058453497379650268e-03,3.278709549405057350e-03,1.107135536738807630e-02,1.324577843869929536e-02,7.924264337943802416e-02,1.625410101944744709e-02
1.764232829080971399e-01,1.708165392071446242e-01,2.166070625259849600e-02,6.911165832539054553e-03,2.095846526707876700e-03,2.349443606488301091e-03,1.100039485544202465e-02,6.851758573115228346e-02,1.560861592533273334e-02,1.545652470019494643e-02
1.444144308420662881e-01,1.614115409543191715e-01,1.765301900977842703e-02,8.434984193821716894e-03,2.964436345923649081e-03,8.500449758693318439e-04,3.046497252463969876e-03,8.698408123911426093e-02,1.217425242899241589e-01,4.463732749063939464e-02
1.137695483244296618e-01,1.110757710939697246e-01,3.658683163922362563e-02,7.957107984701436432e-03,2.394587636014117345e-03,4.658151090294909702e-03,6.508231993078509789e-03,6.461200993136065329e-02,2.202476146904027710e-01,5.920781569940374023e-02
1.075016964056917934e-01,3.509711394535002665e-02,8.779319922204860405e-02,7.222070604492430643e-03,2.227001740142248967e-04,5.008034063393158528e-03,9.145718243592424607e-03,4.944094713003984592e-02,2.745772937901434507e-01,6.151697677390906976e-02
1.208859543907614964e-01,4.837952813977388494e-02,1.579544012296968947e-01,8.614008524010766457e-03,1.875534148572980623e-03,1.975554960829313273e-03,7.970548623181496900e-03,8.314403515933613265e-02,2.358929386189949073e-01,6.595056275502639287e-02
1.369094324976134480e-01,1.201434431696071364e-01,2.019859871394887041e-01,1.144076917184667919e-02,1.942032504523797743e-03,2.848082285211228160e-04,1.236036003829487327e-02,1.448085717341461576e-01,1.125498159549174759e-01,7.703609777257826308e-02
1.394657817231013952e-01,1.472264068175248020e-01,1.725864677961508609e-01,1.210545487696449048e-02,5.430441048232382108e-04,3.073995488339962591e-03,2.439508398886077942e-02,1.738866756737063035e-01,1.419118331717182657e-02,8.172345721278789776e-02
1.048823764826954247e-01,1.048594530038577111e-01,8.702031901923398816e-02,8.483484697702865437e-03,4.198220667121051880e-03,8.478274243993151257e-03,3.817335147083391472e-02,1.374907607050945835e-01,7.251467562045540993e-02,7.140615600907300464e-02
2.150824072465868167e-02,1.770300710217923013e-02,3.476287050316333171e-02,3.606351527512471900e-03,6.554793040532292531e-03,1.226797714550811359e-02,4.807228723692706651e-02,6.268594379449178577e-02,6.354340511985212547e-02,5.929520373365804176e-02
6.944188998100922494e-02,5.365793912911853702e-02,5.906002116720189543e-02,1.865704025297718928e-03,6.127208074360376670e-03,1.194524985725346766e-02,5.137716848916428630e-02,7.960339458960205214e-03,3.684553410157045961e-02,6.219161837351896982e-02
1.059060238003926152e-01,8.466926610671307585e-02,6.534636527468092038e-02,1.007867080701172488e-03,3.907734398295492455e-03,8.378056386541675449e-03,4.571217758378969681e-02,4.120511822894451677e-03,3.904293893638620394e-02,7.352153536872001183e-02
8.747628562816250897e-02,1.057519803911037698e-01,5.212630517213753117e-02,5.265838563846401976e-03,2.125078283502964890e-03,4.072321605777588088e-03,3.039825142887058254e-02,2.062431894755872158e-02,7.836403104487826843e-02,7.157826171141387639e-02
7.217386491020288952e-02,1.349184271743831265e-01,2.264527999033098815e-01,1.490349614085101707e-02,1.742231058112998473e-03,3.559960126117628961e-04,1.094421283111537795e-02,4.586337803396827589e-03,1.163985998438370612e-01,5.150689739714207904e-02
9.213896788468833865e-02,1.503538193116173705e-01,2.919395306252227096e-01,1.747141326974071748e-02,1.903995355734516186e-03,2.622059513029846838e-03,2.610089663715521677e-03,1.003320038418550747e-01,1.095735821565827633e-01,3.138813109489204528e-02
1.205413843546129793e-01,1.415951905671953281e-01,2.072915276231099002e-01,8.723801556283423617e-03,1.962046167959780908e-03,3.750056014585299857e-03,4.520025231989939843e-03,2.329191998231040783e-01,5.130408095396295914e-02,2.639072727001420815e-02
1.193910752220647686e-01,1.209220615140125105e-01,6.836217095729679727e-02,5.008966515436374251e-03,3.124489226070367113e-03,1.598958556121754700e-03,1.123336026349533185e-03,3.404993832776884721e-01,4.186739697135181959e-02,3.274341859730345999e-02
8.874472770038649427e-02,8.392832776411437989e-02,4.770989320657783445e-02,1.683188177869477525e-02,6.412322982537442713e-03,2.395643435570263702e-03,5.175540767916817983e-03,3.874729411515059341e-01,1.392008720457969806e-01,3.700189882232499117e-02
6.437291218601751130e-02,2.182102722439921774e-02,1.119721972170465707e-01,2.360678420203974129e-02,9.479405344947259768e-03,4.483925602446652177e-03,3.477877076090076826e-03,3.803560003220813335e-01,1.758787692327705154e-01,3.078015719778475975e-02
7.365147189566892405e-02,4.236013410488494862e-02,8.898043616947948209e-02,2.320724748498837267e-02,8.743422854923930954e-03,3.460891957850504436e-03,9.790124740711341530e-04,3.385629637037594897e-01,9.700844981479890550e-02,1.950700685968443163e-02
1.007752058815740703e-01,7.831859710769731309e-02,1.002997523906025250e-02,1.710458688440769787e-02,5.033037292784748457e-03,2.063403605142943246e-03,4.169506820187294724e-03,2.694483590398930040e-01,6.098032220085006921e-02,1.687436058354648688e-02
1.051632843497248837e-01,8.130368614554452089e-02,8.750265043249780272e-02,1.190606767798025808e-02,3.202999157491941574e-03,2.341870708593818840e-03,1.113301497420542997e-02,1.842726126683967292e-01,1.948888546554353729e-01,2.287377914419796640e-02
6.940727167249602370e-02,5.633070554724176060e-02,7.935523134698881098e-02,1.116277823495513688e-02,5.291452656364328648e-03,2.880741588277144910e-03,1.473272644516952258e-02,1.180267736688908470e-01,2.385918149365948149e-01,1.845533472654486279e-02
1.646916967146341143e-02,1.442004063266899561e-02,3.575821435549074445e-02,1.103156552097347629e-02,8.047465077300617470e-03,2.202558165023834301e-03,1.514952044410822728e-02,9.990948868051825749e-02,1.989311344029808803e-01,4.699597744474494007e-03
1.835067076848495571e-02,5.386173941487090722e-03,4.350686876834231401e-03,9.474087174642291040e-03,8.172876151290135727e-03,1.479532963894766937e-03,2.019729738758716669e-02,1.101753008698159453e-01,1.186544015724798756e-01,2.664182521210093149e-02
2.301185906425209926e-02,3.787296340613658524e-02,6.496477234145733859e-02,1.211174936351279603e-02,6.171222314452776830e-03,1.457676875850470472e-03,3.051282624607625296e-02,9.933169661766969027e-02,4.605388292305919590e-02,2.802255018002872827e-02
1.441245237670604404e-02,1.317955694481590112e-01,2.129879573878247223e-01,2.253779232962510246e-02,4.126782635624492990e-03,6.374131241371199126e-05,3.441820896305886751e-02,4.946791716329707045e-02,1.196171259151677414e-02,1.822517660290955827e-02
1.511438637800737589e-02,2.238381929817168381e-01,3.660902541555748901e-01,3.467512515829520442e-02,3.083539673475943575e-03,3.471243753324677103e-03,2.442301223835318877e-02,1.298799956434913000e-02,3.728763500491508870e-03,1.743743699958788529e-02
3.382732794284910860e-02,2.909550408039379144e-01,4.357197798683374312e-01,4.220575843047418702e-02,3.540656359663703432e-03,5.283365862839924446e-03,1.133029850578388432e-02,6.569091500599516520e-02,2.237100585334970276e-02,2.617264675675592955e-02
6.569239712069040171e-02,3.557910038074673653e-01,4.454249965682388623e-01,4.765001267380132577e-02,5.689931216144499503e-03,2.389126972078279947e-03,1.077907389640994987e-02,1.139383104505905520e-01,8.566671519998078632e-02,2.891266953161659298e-02
9.797166753197344979e-02,4.259700715869356169e-01,4.584677940118238593e-01,5.317795506352137463e-02,7.814408777873272857e-03,9.131098454387021751e-04,1.787291521130519520e-02,1.525014294563980244e-01,1.519041550383014028e-01,1.759761992922736704e-02
1.162829172424653390e-01,4.616936024440697062e-01,4.562382403064320635e-01,5.146705403071934193e-02,6.841245565144717621e-03,2.129569633448069165e-03,1.039283531856338878e-02,1.497909186460518183e-01,1.817182073488434468e-01,2.294081859460505267e-03
1.147793247072465550e-01,4.320840984760551118e-01,4.018911176677236186e-01,3.783188703415357040e-02,2.574635428508948408e-03,1.043211025758454535e-02,1.706378352679119650e-02,1.010744093016406331e-01,1.924508198817495574e-01,2.454516806958736280e-02
9.801647027118259858e-02,3.616491483463324386e-01,3.400278661665690483e-01,2.242417993730469808e-02,6.583892020028265764e-04,1.535508090743530063e-02,3.892682018251085452e-02,5.262956972407283052e-02,2.243238616503008265e-01,5.025839808796387503e-02
7.548291725440557653e-02,2.842576513330684618e-01,3.163517758463139651e-01,1.720078341901276273e-02,1.087702371186087362e-03,1.165418430471527184e-02,3.126496689371628668e-02,4.042101954679187814e-02,2.596700065178866312e-01,8.088183910758070527e-02
6.498726423621249693e-02,2.017934941035045004e-01,2.945806965498108942e-01,2.030350694363980413e-02,7.030009375784904320e-03,2.713897208202318504e-03,3.833384406333564028e-03,5.088960502153608290e-02,2.502093259932908209e-01,1.107903326017580514e-01
8.855178998198663665e-02,1.218357689202576866e-01,2.380902821740476516e-01,2.362542354763446165e-02,1.386284373563577248e-02,5.956768260007581743e-03,1.655262958349571281e-02,6.558368770209103971e-02,2.093949378722032573e-01,1.345891643776895574e-01
1.421453641828147041e-01,6.917075616078621758e-02,1.557914784801490427e-01,2.375893441940801071e-02,1.878456685768592135e-02,1.232893694286037872e-02,2.319453334021220545e-02,9.296446229965661667e-02,1.884055797685891820e-01,1.561434601357913343e-01
1.832784600696054922e-01,3.646868580795854797e-02,3.959975229269505070e-02,1.959833863107034169e-02,1.903395332933193601e-02,1.523498504707768153e-02,3.058117954180334178e-02,1.400847536209535171e-01,1.843048427546953305e-01,1.798317208030489056e-01
1.772750540690846699e-01,4.986682302505127812e-03,1.098477187706057012e-01,1.252865319680566622e-02,1.306770260665006227e-02,1.246804189687623042e-02,4.338595684217402132e-02,1.957720578212218399e-01,1.578858798884012760e-01,1.988550105997845263e-01
1.435856771576858593e-01,4.619542521427670578e-02,2.264989674132387720e-01,9.625551725187850294e-03,3.706576515444179147e-03,4.580999911471060615e-03,4.694692415688588721e-02,2.385872723537634799e-01,9.903250874203668730e-02,2.037785984445930620e-01
1.283826022532955635e-01,5.832979394595018408e-02,2.671598626218188444e-01,1.445170909585492477e-02,3.753231890764706456e-03,3.616957999857975566e-03,3.290283698695223302e-02,2.332031996449482059e-01,4.514971307193869736e-03,1.959043154474306714e-01
1.445698189775619369e-01,4.535994272579099013e-02,2.786703283801850728e-01,1.922708866919506723e-02,7.083696831576367231e-03,7.946603213781652103e-03,1.328372501920354991e-02,1.540878726405141286e-01,1.375165600262990007e-01,1.805659535861136311e-01
1.634219953143445647e-01,2.699514108208774313e-02,2.938648734701505005e-01,1.691887721676399794e-02,7.846535635240424467e-03,8.703575732668427517e-03,8.561270669388619352e-04,4.284103859007502846e-02,2.785780831670932045e-01,1.537588406760840298e-01
1.493213063865883317e-01,1.018078634509603231e-02,2.656432778331603295e-01,1.408248724689595277e-02,7.247557416002494562e-03,7.847702663199668596e-03,4.842807817762839404e-03,4.706324899967563591e-03,3.090658837985549856e-01,1.072960404476395735e-01
7.942798617946239537e-02,1.740544877910409419e-02,1.590476226858851538e-01,2.105127132929164938e-02,4.682337780633197798e-03,5.334142544920611288e-03,4.977683074575038093e-03,5.412104934784547905e-02,1.926409005512263461e-01,4.325433551271216231e-02
5.210965149542737263e-02,9.105869912593436699e-02,7.558274636266791233e-03,3.479538491506508485e-02,8.760513376198052465e-04,1.400128796053155735e-03,3.372148286746771886e-03,1.449968222908529225e-01,3.688455104728283196e-02,2.669544214459284096e-02
2.198231096577155097e-01,2.227472172588351729e-01,1.464774238029695752e-01,4.217073196620597930e-02,1.032570625291412848e-03,9.130408675738402964e-04,1.367594028436063328e-02,1.567273483219824570e-01,3.272859430198024611e-02,9.286789215595546432e-02
3.668296237449181207e-01,3.240350345182274605e-01,2.707427083614522556e-01,3.822635957755289582e-02,3.571062020517340061e-05,2.849948380941453013e-04,1.442629055720609510e-02,7.408092669662366681e-02,2.241474231283870425e-02,1.476050403312591797e-01
4.453264109212895505e-01,3.231189549951823947e-01,2.980562089655164892e-01,3.090770131836852175e-02,2.065816155548092252e-04,3.420766300027989213e-04,1.094257138108726754e-02,1.226528026755884654e-02,2.060675072455453796e-02,1.781918967563706213e-01
4.557360175742346531e-01,2.620640290288685503e-01,1.547927936450951281e-01,2.477216558718267625e-02,2.611947274411554557e-03,2.866062465024809408e-03,1.783626375721752630e-02,3.510025868721904085e-02,2.797664781595462710e-02,1.812066359823361616e-01
4.316141508235882274e-01,2.464519405333955582e-01,1.607634974773045899e-01,8.134124850006380775e-03,3.740188922519139397e-03,2.386570261354292125e-03,2.645447050326043409e-02,2.827333134241339155e-02,5.846614504307189042e-02,1.865540302489780977e-01
3.901541393467511942e-01,3.124342607047063680e-01,5.633980508513710683e-01,3.360048813267825507e-02,2.566545167705018646e-03,5.760474279374780057e-03,8.129533591384980468e-03,4.397945420828201085e-02,2.682714583873659908e-01,2.329649846784319078e-01
3.192503798546467153e-01,3.853530687684826872e-01,8.968322526877839929e-01,9.101160369750463386e-02,1.287414551162145183e-02,1.608785170089347891e-02,4.254835681936054714e-02,6.991118119842454348e-02,4.628716146526777875e-01,3.042495111704822119e-01
2.240193503421583909e-01,3.681681100590374900e-01,9.778602602976281810e-01,1.301090811997650531e-01,1.750942435376564438e-02,1.948387819377491587e-02,9.490940825231751476e-02,8.640987790432416715e-02,4.862256348854799848e-01,3.317538732619529918e-01
1.510646824187339698e-01,2.391830431148148084e-01,7.558302268972514337e-01,1.286763848014092770e-01,1.418620606161831443e-02,1.644958875721729344e-02,1.218522305987787824e-01,1.245001677610464985e-01,3.495035221690997451e-01,2.860853843272796460e-01
1.272606953951215814e-01,5.956399394829056670e-02,4.329845707773239960e-01,1.025416453005649486e-01,1.152550178104570951e-02,1.522210357524473104e-02,1.262762263172560739e-01,1.906132251080008833e-01,1.880646859783984548e-01,2.221620182862217852e-01
1.123036175186778313e-01,8.516994925466961353e-02,2.806275899548451025e-01,8.387636363809680695e-02,1.683101001414626444e-02,1.806337889182279069e-02,1.198447906771372279e-01,2.133148635248003910e-01,8.366131918611244278e-02,2.000970393629045163e-01
6.477326271629010868e-02,1.439614992260254689e-01,3.349571011488951533e-01,8.411990974036168134e-02,2.680101552239814305e-02,1.888227051534168213e-02,1.029448296122796175e-01,1.489857097935050612e-01,2.838045004901986607e-02,2.038034440208002229e-01
1.272519834593329596e-02,1.284205964357707508e-01,4.154268386661832402e-01,9.183096616025182568e-02,3.358213618714112059e-02,1.436506737347812736e-02,7.595724115623159189e-02,6.619276874034743519e-02,2.159291010914361764e-02,1.793238952360700911e-01
5.458898309256630943e-03,9.458750900379518656e-02,4.014262039568122775e-01,9.671754564163534407e-02,3.502808411057888038e-02,8.101952401738245907e-03,4.781720951850744472e-02,4.711569447769670821e-02,7.213270831434936969e-02,1.220666372487192036e-01
4.089193255900981649e-02,9.097240135946085826e-02,3.185444658599370094e-01,9.821212309246153682e-02,3.472612278440111166e-02,2.934005337361658087e-03,2.515362337747416646e-02,7.422674779749280360e-02,1.214052322532476191e-01,7.858547483279622325e-02
8.448459942592559391e-02,1.265259145477578562e-01,2.179886188797978408e-01,9.598877691993486228e-02,3.439733643823420645e-02,3.042032096128552670e-03,6.604803152539607917e-03,7.918692220228190637e-02,8.696468717488937961e-02,7.578104975976991675e-02
1.118020358210024823e-01,1.795570082917570809e-01,1.615563676170931606e-01,9.012693330974616557e-02,3.097414040089228188e-02,1.200001593555414907e-02,1.134400399175242331e-02,3.938703364952114011e-02,2.438787665891860995e-02,9.426577519852230580e-02
1.010210843935159808e-01,2.161883465580752006e-01,2.498732865183345420e-01,8.872987062265659530e-02,2.152177173687190928e-02,2.287612620186211046e-02,2.840883222224582783e-02,2.401908448711265534e-02,1.324071950638563422e-01,1.108343666161847735e-01
3.812317114845374666e-02,2.025380480637472280e-01,4.951355509815186240e-01,9.955685160884963913e-02,8.038155112336537594e-03,3.222141204100491957e-02,3.444521845527291626e-02,8.143171807247884253e-02,1.790245345347321881e-01,1.246392116490948054e-01
4.262088846626373162e-02,1.223845851290772113e-01,7.443108749761997434e-01,1.152337562960998318e-01,3.354297608776432918e-03,3.609783137350851961e-02,1.421215818717251785e-02,9.201865171558226697e-02,1.459988390554927962e-01,1.353563410409803769e-01
7.900306422801753325e-02,7.088677770127806838e-04,8.381769996989378857e-01,1.193375912855389326e-01,7.391605063641438350e-03,3.262065834104219825e-02,2.861030866485776702e-02,3.046411298505460885e-02,4.213185367617484911e-02,1.319146469895922380e-01
6.501924844601911224e-02,1.055969195244264441e-01,7.645963770933843495e-01,1.054191443853857851e-01,5.009819540466961540e-03,2.415187033013903306e-02,6.390016191299165149e-02,5.821915026721024428e-02,6.930083855299121187e-02,1.088925410998299315e-01
5.874740425081259598e-02,1.394070670228523545e-01,6.167909732521358324e-01,8.102950469131010858e-02,3.055955173339732715e-03,1.567215520643315194e-02,6.799149143500886339e-02,9.443647745091145185e-02,9.975555972544804251e-02,6.892661122067217372e-02
9.101831398834100972e-02,1.023776833970602568e-01,4.881658511370381426e-01,5.595651634441543842e-02,6.594220576542380273e-03,1.079449278220029167e-02,5.126920533975605487e-02,6.323901679272457554e-02,2.828141866633946191e-02,1.612683066043524641e-02
1.274756163339354764e-01,3.330628913745510566e-02,4.134665566403393777e-01,3.408397755267027207e-02,1.355464982983623987e-02,1.012510032844464447e-02,4.066943842118790620e-02,1.257677053114179301e-02,9.542207521164969286e-02,2.937095712776468387e-02
1.340067194430208941e-01,4.043703014658646400e-02,3.529699338875909587e-01,1.500533988274972523e-02,1.906633360013653897e-02,1.190907078425290470e-02,4.748663467843102642e-02,3.973916569792883963e-02,2.337698571842033446e-01,2.942897427346612832e-02
1.200551604906712616e-01,1.206262998928671337e-01,2.389046813972715844e-01,2.568136615486178026e-03,2.146775043435563551e-02,1.309412764195676607e-02,6.068855726494253727e-02,1.229618631765567877e-01,3.761744612050281766e-01,2.720960628565599268e-02
1.091433180282082582e-01,2.009680576622552006e-01,4.995411838564735307e-02,1.947249111348151387e-02,2.146101321115820651e-02,1.147895615275492699e-02,6.288111348688320279e-02,2.368231338586314350e-01,4.844286188847087837e-01,9.241662040168273362e-02
1.164137842951067370e-01,2.234656623845364121e-01,1.773927042660060904e-01,3.524293282677325168e-02,1.902029469051518679e-02,7.683145740834456880e-03,4.784712558235040131e-02,3.213228349529312355e-01,4.852940681021099545e-01,1.039120251042883886e-01
1.458815290711861778e-01,1.165010541142187939e-01,3.941921754978556791e-01,4.858799745354260707e-02,1.436599517114533694e-02,4.030981239474288810e-03,2.546245561426620230e-02,3.207429151408520696e-01,3.350383747748580388e-01,5.563579136590205559e-02
1.662392415443894322e-01,9.573802629740227332e-02,5.671641183262602359e-01,5.929439001564466849e-02,9.783152889053155568e-03,1.681133410386583460e-03,1.019511028096096311e-02,2.470123152121617427e-01,8.719376536444926884e-02,4.192527673398140781e-03
1.245007890384320220e-01,2.734625591072506468e-01,6.832566437227236555e-01,6.833840074322940217e-02,7.580071884516364523e-03,3.909867840782763320e-04,5.383979121686302202e-03,1.619235741466621692e-01,1.217315160461987927e-01,3.815380206774025146e-02
3.084590599059680235e-02,3.005048903948674410e-01,7.555178896579848313e-01,7.670915515344156610e-02,7.493270405084845667e-03,3.798071060520149742e-03,1.983589809472554102e-03,1.121019480844044486e-01,1.845126134567346976e-01,5.585537340128495648e-02
2.554688597649060200e-02,2.101283078447921671e-01,8.100067865939760692e-01,8.566768229108223665e-02,8.470359952867644385e-03,8.207005239793412413e-03,8.034649075025133286e-03,1.034661328579874334e-01,1.098628579319598092e-01,8.548124310103244472e-02
1.136602182772613462e-03,1.336288988748844941e-01,8.497513315851820126e-01,9.556001182796503013e-02,1.113719521383374662e-02,1.081520252479944294e-02,2.269636604914753233e-02,1.261602821327020285e-01,1.987468456649077800e-02,1.307537465345669503e-01
4.091024886777663849e-02,1.476987517581305198e-01,8.465744352436056497e-01,1.020643149858644905e-01,1.485528833238870978e-02,9.978339440839098864e-03,3.514389624649467969e-02,1.675765302593508754e-01,1.301475950625523570e-01,1.691827255301126820e-01
1.733885346873580841e-02,2.054089009793517995e-01,7.786952909834057301e-01,9.791300917148067218e-02,1.426995453469164128e-02,8.764886442457230087e-03,4.191507087877115179e-02,2.025231576556534019e-01,1.717888604438920219e-01,1.907298878388344054e-01
3.582212458990109705e-02,2.072364216610617926e-01,6.636390920055681431e-01,8.230992653846472273e-02,4.591960542078163572e-03,1.142193673582063938e-02,4.462100508052652820e-02,2.073196591653674870e-01,1.290820038228455147e-01,2.177396360406467224e-01
3.026634162154844682e-02,1.067839350667069975e-01,5.509301064909601919e-01,6.478570714596183777e-02,9.584693740959307831e-03,1.655474944713634239e-02,4.774187096413597120e-02,1.896202155520002042e-01,5.238019371818013886e-02,2.658985608485355256e-01
5.925529594695293223e-02,5.766869766131332148e-02,4.904150728118191194e-01,5.539468541045632077e-02,1.674858709613792282e-02,1.831032077288941712e-02,5.509367494227376816e-02,1.743531259142314660e-01,3.021609781289032529e-02,3.054181311580263514e-01
1.903407465378054719e-01,2.003990495061017951e-01,4.945470785478315867e-01,5.399401956548519066e-02,1.170468558137119364e-02,1.410943372839318539e-02,6.605527014904882810e-02,1.576681767437282389e-01,8.716417378033050611e-02,2.952250416163287872e-01
3.188998572510389762e-01,2.439287525853773564e-01,5.179105488144074565e-01,5.318915451831055657e-02,1.279904937337203626e-03,6.622184891551175477e-03,7.739428002667766981e-02,1.136484244270701688e-01,1.449984661681461839e-01,2.393934364964452610e-01
4.142659730047503208e-01,1.800770246934866592e-01,4.989194380895677350e-01,4.956987843755691903e-02,5.521127739219999254e-03,7.897288659117279123e-04,8.952858547469801087e-02,4.974426656145346237e-02,1.333186386840119753e-01,1.774670175598628552e-01
4.386367938242493048e-01,9.387589040493073134e-02,4.352789836075662833e-01,4.691995880334796226e-02,7.399279967508588796e-03,5.807506300600522378e-03,1.056923756978950940e-01,2.553932531983008070e-03,9.918564384696364200e-02,1.341518478885675436e-01
3.642121967586427478e-01,7.991746463356018404e-02,3.773527763991058603e-01,4.818480236806343270e-02,7.530643965950987659e-03,6.283951245244966989e-03,1.239579788161067203e-01,6.394143028471990786e-02,1.191172014317829764e-01,1.027912300389930006e-01
2.188987836365577921e-01,1.253413605137785602e-01,3.436207315906320559e-01,5.032427737419243458e-02,7.133058831082343849e-03,2.601881903291612848e-03,1.362362089490424533e-01,1.928751322592112127e-01,1.495639363544468414e-01,6.928259063422441411e-02
9.313606419972390860e-02,1.375298283925154852e-01,3.149776795332301371e-01,5.097247984258430203e-02,7.104100308741113749e-03,1.023808335384057081e-03,1.362357830147917226e-01,3.598124211742596001e-01,1.062624734551275568e-01,3.526238004035314733e-02
6.883787506007919832e-02,8.450579932947423212e-02,3.167757894890662618e-01,5.503641873451867866e-02,9.777471942279895856e-03,1.923457593446821143e-03,1.236268202360154556e-01,4.304605683866701282e-01,3.932113956442685743e-02,9.744665689234609934e-03
1.284616295501167516e-01,2.402409454024679800e-02,4.010496968508089344e-01,6.760407321545743031e-02,1.408052829830425123e-02,3.345596856977583675e-03,1.004792329588767019e-01,3.440764545910885985e-01,5.127729360498404360e-02,1.411659677248119915e-02
1.696568422824050459e-01,1.885021588050842791e-03,5.175237211321842556e-01,8.207534989307417594e-02,1.454373926994988880e-02,9.105811952992893046e-03,6.765257969726716503e-02,2.231584220299477339e-01,9.835501955774328398e-02,4.868695794779061281e-02
1.310542211320011585e-01,1.258751264471493977e-02,5.141311470701515063e-01,8.311669677799823908e-02,8.871995977908284439e-03,1.632884363606105366e-02,2.652624525823518362e-02,2.125699384544117443e-01,5.364469056450842099e-02,7.898557559232136094e-02
5.854223087275468862e-02,2.746925499140402335e-02,3.259234890053073763e-01,6.392495065749698169e-02,1.268268047140409110e-03,1.888320636949085071e-02,1.584764127971869524e-02,2.786261873972435965e-01,8.678431009813707131e-02,7.460358505519687489e-02
2.615593900220797297e-02,2.448874442288831096e-02,7.499405957168378545e-02,3.527348779929788403e-02,3.641277240572640857e-03,1.633702839139589136e-02,4.612033897228759449e-02,2.745340123779001495e-01,2.019595075020371722e-01,3.754994676771432338e-02
4.688075152825010861e-02,2.959689314268471386e-02,7.747206499586953288e-02,1.384346353994165765e-02,5.018474004986993656e-03,1.340549952927191056e-02,5.346466414149722568e-02,1.506122443835830049e-01,2.023250507289452715e-01,2.876145124130188857e-03
8.214441177629232260e-02,1.275650798220391291e-01,9.972131547092720483e-02,6.014660264170728493e-03,3.691622775330158021e-03,1.146729257495347765e-02,3.982427656181369846e-02,1.480144679709144602e-02,1.080039259303099131e-01,1.216399108216519552e-02
8.541069205459408953e-02,2.089509957707826326e-01,6.287992667645352085e-02,6.487210077078734219e-03,5.582654669079862957e-04,7.270746117499210688e-03,1.861973467891252926e-02,1.480099963931131579e-01,1.033770228019593486e-02,2.646613959807038452e-02
2.387397323588707695e-02,2.191308774224507983e-01,3.668647350780734201e-02,7.026603462847089837e-03,2.656479082984771617e-03,5.366418220340907815e-04,1.677837727948928298e-03,2.228668004687597570e-01,4.323036391208385718e-03,5.800958512585143584e-02
9.580232652053541353e-02,1.781236500567080216e-01,6.116666631745628496e-02,2.434990852065291311e-03,3.209356548494245696e-03,2.944055119841896932e-03,8.653516419568005325e-03,2.070617101774234192e-01,9.263393598748392854e-02,9.889366519194411898e-02
2.166255020511251017e-01,1.489042104068939998e-01,1.386021610246794544e-01,6.666256079832458097e-03,1.573274291722829427e-03,1.987568114407690240e-03,1.129808539043958629e-02,8.954466845659148078e-02,2.668618229712820256e-01,1.344124682308465435e-01
2.737969713705004637e-01,1.416255680669996075e-01,2.164879543523540728e-01,1.391101890107273448e-02,1.146037723451354302e-02,1.286150655990632614e-02,7.054926598232301796e-05,5.118847035449813898e-02,4.432720590661674565e-01,1.598076015967077323e-01
2.448276396298119106e-01,1.076737709372223711e-01,2.429433366676916062e-01,1.400933391818462957e-02,2.119453856539656872e-02,2.141622969933092147e-02,2.572985278650960494e-02,1.102313512442840426e-01,5.409288655981587812e-01,1.708736080166512461e-01
1.550368986817235450e-01,2.984756801759625572e-02,2.441568475303940722e-01,9.817442111826366752e-03,2.443757257923479670e-02,2.189667296238684280e-02,5.188530405535862061e-02,8.734728570810135206e-02,5.166522460480063028e-01,1.648239952888820026e-01
5.966005947281403238e-02,4.809110033900307335e-02,2.933386450944738821e-01,9.654137186317104241e-03,2.087256724342117370e-02,1.587856719215852835e-02,6.473696631034869808e-02,7.341178993797065067e-02,3.923324770653799365e-01,1.561156400276074441e-01
1.878700701525586741e-02,9.085903755513936864e-02,4.154774544872094633e-01,1.859653525898261398e-02,1.639413261445043721e-02,8.488904580780481240e-03,6.401859648616653464e-02,1.077052688713004552e-01,2.494731630547391554e-01,1.624538252699409546e-01
5.215212904255075305e-02,1.047315024369453174e-01,5.580299366327714505e-01,3.337821413813238380e-02,1.527501539272616178e-02,2.146218872611183482e-03,5.553477182038385473e-02,1.330764841200607895e-01,1.755882748024650553e-01,1.728373342439223359e-01
1.138538673672715024e-01,9.347925512784988067e-02,6.430402989995995799e-01,4.472559044460202443e-02,1.507009009331178144e-02,4.134653215602728665e-03,3.991685321219787252e-02,1.046625428973598226e-01,1.728541855360778978e-01,1.624428678749931243e-01
1.441223434906462320e-01,5.074491558537995439e-02,6.353003391498679431e-01,4.608771869439976659e-02,1.139308221049928176e-02,1.107214703390239398e-02,1.592333728023854339e-02,5.625008635316269823e-02,1.438763477531877222e-01,1.368188640530542122e-01
1.445424238399354022e-01,4.239060840093125497e-03,5.595762042500680433e-01,4.016045440795271843e-02,5.263502268982592908e-03,1.726515249290572901e-02,1.123393827889675872e-02,3.056128802800061814e-02,1.893991593578620361e-02,1.217188296501321154e-01
1.617529411552406926e-01,1.824419384543655466e-03,4.491163976062681473e-01,3.344002854996424440e-02,1.646389024971079296e-03,2.084833475269537786e-02,3.171791355688100694e-02,2.114998727166237519e-02,1.440280861953693592e-01,1.131731425451858175e-01
2.008519081455411859e-01,4.667519672222620458e-02,3.039247050416529761e-01,2.656259568015379921e-02,1.821492578855447592e-03,2.161694818980021762e-02,4.074254088470131985e-02,1.721049247191761000e-02,2.390987273339870989e-01,8.135177198217490024e-02
2.120054096337342653e-01,9.243938717842627162e-02,1.279964634759830078e-01,1.625137161292859733e-02,2.171646611023994589e-03,2.088206183883977926e-02,4.335014788104667172e-02,3.787993875361737872e-02,2.387462593186604198e-01,2.029457371292436169e-02
1.665715409571714989e-01,9.515800162531529161e-02,2.648198266629342087e-02,3.714812613668247790e-03,3.222678086720784070e-04,1.989222810011411283e-02,4.881590180570105630e-02,8.311866417273791607e-02,1.967765367627623274e-01,4.574105240820976193e-02
9.203004020352185954e-02,4.209593951085749408e-02,1.021177490061064980e-01,6.988098819280075952e-03,2.702706932947628472e-03,1.938409997445770735e-02,6.113059161130072333e-02,1.078265474846887007e-01,1.827290761881068537e-01,9.682694280485355798e-02
3.479625748014586462e-02,4.384215080232579942e-02,1.029139287052889540e-01,1.547170478232674090e-02,6.329215593510737967e-03,1.977312025914096730e-02,7.453904736595189096e-02,8.704417644232137485e-02,2.294034087692086166e-01,1.270001103124211161e-01
2.904852906665961187e-02,1.078026478754369882e-01,7.770478684490284005e-02,2.143288706482135084e-02,1.091592331411210363e-02,2.040298922420652472e-02,7.720574492422178914e-02,5.919816359847274168e-02,2.832102441830826600e-01,1.353031856091167218e-01
8.122714369538067136e-02,1.078171785542168526e-01,6.893884199847900851e-02,2.044982497574886898e-02,1.464432769796070871e-02,1.996939836446068664e-02,6.118915118203465536e-02,5.971042200752246787e-02,2.420893493839807453e-01,1.272694821635432794e-01
1.567973957268967156e-01,6.835135860555879850e-02,1.028524319717866453e-01,1.264646549946331876e-02,1.535984528713125671e-02,1.861804528063853645e-02,3.242539250230375147e-02,5.213555310956406730e-02,1.141398014162860325e-01,1.089514385999900831e-01
2.060131160569693698e-01,4.685990398742390095e-02,1.633727402678408769e-01,5.633486120688646626e-03,1.424859091924592265e-02,1.720103780892974152e-02,7.818461331398610450e-03,1.617913984980899958e-02,3.787101526585145289e-02,8.285844243262711906e-02
2.076241987932112842e-01,5.033961993168924870e-02,1.589168747636214296e-01,1.079762697984614286e-03,1.272599959525843281e-02,1.444851431033913718e-02,2.702635464928797825e-03,1.112540392217150204e-01,6.359892035545335054e-02,6.821210579859850187e-02
1.648891754843919144e-01,4.250805868031919815e-02,1.577969153123909285e-02,1.960129479637677183e-02,8.987965712266333257e-03,8.663980507580935561e-03,4.633471797022142846e-03,1.409900343317105897e-01,7.029827590634711576e-02,9.534207030656943749e-02
8.258271312993091529e-02,1.841303206841323620e-02,1.859209146902120191e-01,5.082521253599800448e-02,2.496539471617586440e-03,1.797581808014707579e-03,4.326889952948790620e-03,9.133108906400361215e-02,1.531235265609283240e-02,1.555543569308019958e-01
1.496897743056718744e-02,2.120316401849376819e-03,2.804490295888837914e-01,7.526929776849665410e-02,2.686744273790360633e-03,2.083781668953479244e-03,4.919570383108923337e-04,4.375607241758328048e-02,9.381116794819187310e-02,1.982068302002142346e-01
7.085120319503272757e-02,3.349016422078054250e-02,2.151635541716546141e-01,7.650411577090727999e-02,3.283947891539440098e-03,1.591119256189792251e-03,8.729417525937371511e-03,3.322207704790856170e-02,6.375805745538543068e-02,1.970216611811632657e-01
4.621570373652907765e-02,9.833362382802551815e-02,8.707433254318668048e-02,5.896395114459920817e-02,1.021054685999589788e-03,1.345226260933582180e-03,9.053034559486274752e-03,3.953824315400124301e-03,3.584744742506523058e-02,1.748312934130668850e-01
3.002103382244972543e-02,1.670965741820339412e-01,1.004703620980015345e-02,3.777692843825876390e-02,1.236668004083718618e-03,4.081037848535644559e-03,9.074601459231083564e-03,9.784086463068551731e-02,1.038575930132955710e-01,1.568158412604168661e-01
9.243750358277444401e-02,1.851699924652551177e-01,1.654119564054245053e-02,2.323541213780182246e-02,3.533273234262869055e-03,5.266907714284736752e-03,4.422041921557783722e-02,1.707869043643942542e-01,9.244571712204585623e-02,1.441426029409058340e-01
1.047903137162768533e-01,1.393141355123601877e-01,6.217200738599119869e-02,1.698080858662404796e-02,7.179257943925177257e-03,5.735952669504087477e-03,8.110225640376919620e-02,1.537856291747590753e-01,1.998403495750651279e-02,1.315121331905254876e-01
7.835800132448476896e-02,7.571771220940856639e-02,9.611109250229230017e-02,1.638020658928933046e-02,1.147217326456922461e-02,6.761011061737596736e-03,1.019127960968503055e-01,9.083155220765017079e-02,8.146995086105340844e-02,1.177218053524064501e-01
4.702286002065874521e-02,6.705426047032735093e-02,1.281600056446410563e-01,2.157168432929505372e-02,1.319162608354775522e-02,6.469236382377876494e-03,1.073421198678280591e-01,7.142897647258895921e-02,2.047776931670964307e-01,1.088928356394828212e-01
3.803046052356202217e-02,1.376300992521330424e-01,1.922634162923225754e-01,3.562717011596432115e-02,9.401615354780975750e-03,9.368392035051249355e-04,1.168951125440482464e-01,1.146208840062365036e-01,3.330874011698856663e-01,1.235401496867794824e-01
5.427861962139332586e-02,2.156870883490160096e-01,2.617586811616517406e-01,5.492601530626473744e-02,1.166768678580396186e-03,9.845560196606737563e-03,1.393754138059347114e-01,1.666542845976921594e-01,4.013077376618826020e-01,1.702149939289043235e-01
7.997585834518693149e-02,2.158161487784431842e-01,2.850671863024617503e-01,6.756504701610371866e-02,6.793890253540010513e-03,2.082729926716743105e-02,1.586160365687551976e-01,1.840618313205415468e-01,3.679747832078684167e-01,2.193613547297325328e-01
1.039385586833178471e-01,1.560374357159554082e-01,2.808615603671388294e-01,6.706345872487082249e-02,1.148224332898277293e-02,2.786717687057420692e-02,1.588982577727678924e-01,1.770380669571143817e-01,2.859970872589471802e-01,2.302677110019859807e-01
1.269373339437742665e-01,1.130066457728179791e-01,3.019304353732502610e-01,5.946883062063947067e-02,1.459171995944988712e-02,3.112563734154263906e-02,1.485701070654237566e-01,1.745912845302209082e-01,2.134010549340736584e-01,2.057074051419875982e-01
1.464363949104353635e-01,8.957273724210741694e-02,3.327973642336458093e-01,5.274835856719270466e-02,1.819032238985204830e-02,3.182361644249685761e-02,1.453364206612479115e-01,1.784830695416289859e-01,1.204428012089484301e-01,1.895756663753817017e-01
1.508583627507492364e-01,3.284956946287143076e-02,3.079308319698167429e-01,4.703354343997706577e-02,2.031430581200343796e-02,2.969256915627103630e-02,1.488434872870997849e-01,1.664068797461178417e-01,1.310639887194061867e-02,2.081935631191531022e-01
1.321496042560356410e-01,3.870992821436983200e-02,2.123311554239074861e-01,3.869534203011730511e-02,1.811509320929162101e-02,2.514667128868128959e-02,1.423148906704118921e-01,1.259302303513037402e-01,9.431776448916914801e-02,2.373684676795707604e-01
9.126765639860349999e-02,4.718255203775602313e-02,1.064290659535575972e-01,2.785474394078183216e-02,1.293303545583364932e-02,2.052875886882007950e-02,1.164249213050064236e-01,6.442468464309500376e-02,3.525442933265247880e-02,2.351729811990904140e-01
3.062513551145957039e-02,8.186809981157559465e-03,5.567761347727891164e-02,1.799357832418604919e-02,8.390039457033603848e-03,1.703777172034058249e-02,7.854094386148438578e-02,9.005237951330799864e-03,9.231864756811979100e-02,1.908580613732389075e-01
4.537386324063458903e-02,4.703413925419022007e-02,6.140253684749427676e-02,1.094231025238562305e-02,5.210547309922422196e-03,1.322440449134546121e-02,4.113436283915972158e-02,8.525420995018409553e-02,1.407185635019209957e-01,1.271080330129148450e-01
1.181734746083929338e-01,5.674528852555803249e-02,6.678451566179775811e-02,5.360996348492856785e-03,1.758077054935231745e-03,8.787718072566768485e-03,1.211353416742064031e-02,1.396496951259878772e-01,8.016345613528652603e-02,6.590612418943696260e-02
1.575231753687606484e-01,1.217544786555515984e-01,2.523294853877848520e-02,6.660410765413279921e-04,1.481488537194730962e-03,6.839996344071830152e-03,5.364008901386520950e-03,1.454902486013418816e-01,6.517326522198217328e-03,1.332084254098778522e-02
1.528150243718036094e-01,2.633550225126869426e-01,5.466874736012890951e-02,7.825436788366921942e-03,1.914643097618649436e-03,9.402128261270809723e-03,1.282732272983942191e-02,1.091003910478102190e-01,1.551608305827931536e-02,2.892761899854510294e-02
1.370722376763940653e-01,3.683436481095281323e-01,1.396172939239793132e-01,1.620193853138184037e-02,4.268306102638708003e-04,1.313878316053864598e-02,1.704961133034972598e-02,6.788809889148600396e-02,2.627459596201408426e-02,6.013017563615168093e-02
1.529002216619020083e-01,3.377739794979878751e-01,2.174408808351303013e-01,2.574628222283185247e-02,1.419488881210296573e-03,1.285125730167481495e-02,2.562107750580892504e-02,5.177682077254663895e-02,8.887052326622464637e-02,8.667432293037524715e-02
1.881194408427681319e-01,2.109174678035544426e-01,2.914562706704760808e-01,3.569777214878212812e-02,2.225288335984648702e-03,7.630486505082205786e-03,4.016469484649538152e-02,6.394758280883110213e-02,1.983563055492698068e-01,1.143849030436255160e-01
1.806552677951938635e-01,8.592966163339839369e-02,3.592151108499361811e-01,4.491967405706764199e-02,8.441886619266677008e-03,7.318341637176053365e-04,5.548522753907126487e-02,9.430031163630357705e-02,2.988216651431149229e-01,1.397013571079180894e-01
1.077827265897434023e-01,1.772914579693827229e-03,4.190811765209597195e-01,5.303026047600191417e-02,1.239449325492099352e-02,5.185160111069745704e-03,6.615567291214809187e-02,1.338653180051649072e-01,3.612487182621957893e-01,1.592430289169441404e-01
3.182758405098934373e-02,6.706823532898681384e-02,4.649438516750953321e-01,5.935124688265117771e-02,1.240949603703690902e-02,9.581954360315803401e-03,7.220549654587088417e-02,1.756494220810687623e-01,3.980878941145459815e-01,1.748184410601179573e-01
2.256096562690622365e-02,1.039494728418666886e-01,4.601781760142890643e-01,6.050592835002115144e-02,1.069436226333894679e-02,1.177988696766799244e-02,7.657406250689985372e-02,2.108219972675819398e-01,3.946958774930278135e-01,1.798417741122799174e-01
6.760177592265262381e-02,9.397235856545513299e-02,3.660541679771142087e-01,5.258610735646893075e-02,9.136692066519895572e-03,1.080301301744572909e-02,7.922722817547450669e-02,2.303357364934132123e-01,2.957799289356482508e-01,1.614073656838242443e-01
1.023348123574428364e-01,5.938655360154508622e-02,2.146358630067191076e-01,3.755545871602115893e-02,7.683000682329845996e-03,8.006457068098500607e-03,7.802505232701555105e-02,2.327554407109014567e-01,1.067613071620668735e-01,1.261986741446960991e-01
1.021106775095782931e-01,4.937459779367234930e-02,1.007784708798959705e-01,2.392244818562021952e-02,6.375066110961598830e-03,6.931423763268520361e-03,7.425527362176345680e-02,2.241907751721752551e-01,6.055206527979553610e-02,1.022441836137368831e-01
9.546643865633447357e-02,8.207423168397358360e-02,8.316028340083235493e-02,1.867944825555551552e-02,5.819466754245947518e-03,9.265545080017459703e-03,7.223650919802931947e-02,2.053412388310615344e-01,1.009411844559723881e-01,1.048845621855088728e-01
9.959926451417369653e-02,1.399070710517796023e-01,1.369737086830132566e-01,2.148542755886651695e-02,5.753323036114669706e-03,1.293274747936565099e-02,7.362729443910437377e-02,1.699033041035980518e-01,2.106943103987798244e-02,1.202353571388004583e-01
9.411545100191870405e-02,2.016712534533940671e-01,2.068824760889963754e-01,2.787927200627683677e-02,5.325581609507981651e-03,1.512928117213751047e-02,7.607589531428833596e-02,1.227445632527958547e-01,9.367488818021391106e-02,1.286179987719688056e-01
6.517501534594249968e-02,2.402817788981188862e-01,2.593041806263738924e-01,3.441955659109412202e-02,4.483242835650867210e-03,1.537840573284992435e-02,7.686068274854998550e-02,8.415682267199620092e-02,1.644959285397575577e-01,1.253739167880092986e-01
3.563716879398227261e-02,2.194531409103926134e-01,2.819566237024972999e-01,3.929629414799575005e-02,3.776027473478914872e-03,1.474005456259584908e-02,7.484967547442905600e-02,6.787070864104738366e-02,1.695530072564318813e-01,1.128578814771106081e-01
3.389115208885164904e-02,1.385850424569408101e-01,2.775108250009831745e-01,4.135679643604119049e-02,3.350317516664505675e-03,1.376308124944351785e-02,6.950833627009835036e-02,6.932369920664092910e-02,1.478480449784817519e-01,9.066204654776505167e-02
6.050177010627941915e-02,5.540868765679087676e-02,2.678315629816679921e-01,4.084460986828714057e-02,2.965114761092439537e-03,1.244724829227370280e-02,6.042605418950724311e-02,8.038361586441067352e-02,1.406294277354078470e-01,6.306108844244469325e-02
1.010216247388013855e-01,2.553388492276224830e-02,2.751163240647525599e-01,3.974273314087668763e-02,2.538037460532581186e-03,1.113583388505453957e-02,4.866477030264287906e-02,9.989865006494745570e-02,1.279253196446974716e-01,4.282688601258365091e-02
1.421532937860385259e-01,4.383577102096569700e-02,2.894288371395893344e-01,3.933758670680485153e-02,2.172105702346982352e-03,1.001737117125939616e-02,3.751875322584461575e-02,1.241134994743981479e-01,6.645248178460538835e-02,3.839290057810884615e-02
1.608189523899286877e-01,7.254049113528165948e-02,2.752851693736443894e-01,3.746858314069478196e-02,1.898768901378449208e-03,8.476637167240076362e-03,3.026802840487142696e-02,1.414552983782000339e-01,2.399236429129613518e-02,4.499574105553555414e-02
1.336734737173840282e-01,9.644492278558382259e-02,2.153335974004663700e-01,3.016213373012666121e-02,1.661066516049888257e-03,6.482522867075665718e-03,2.751378423452033317e-02,1.453069598259738582e-01,7.158169226879312896e-02,5.412929225699854296e-02
7.596958960442176667e-02,1.224588131402476604e-01,1.238758155071385814e-01,1.657155121093751779e-02,1.433970904635770930e-03,5.511459057325488776e-03,2.825933778439149169e-02,1.401657882008068012e-01,4.118479192973301811e-02,6.481148662247922243e-02
3.769150933165937162e-02,1.498106986408523356e-01,1.378988312119154916e-02,2.926759259884448294e-04,1.234030766755845991e-03,6.301111422425193648e-03,3.218311115286968949e-02,1.272648973483874735e-01,3.229215213711485177e-02,8.032974955414151630e-02
4.555761413252251701e-02,1.686787435858644324e-01,1.149823756825443799e-01,1.445485147159996167e-02,1.063370224346791041e-03,7.284097972290638420e-03,3.831427019941453099e-02,9.761372685862500231e-02,8.995326028704550558e-02,9.878228606539267431e-02
7.629000573522710937e-02,1.759052837438943029e-01,2.429430877204891148e-01,2.513234567226517793e-02,9.047112698455187516e-04,6.937905180629205457e-03,4.302368363766857079e-02,4.899968547490955728e-02,1.003338037438453456e-01,1.118271808273905016e-01
9.635971247929447925e-02,1.729671588200929755e-01,3.248118282193572237e-01,2.908737765978241033e-02,7.477511723782472594e-04,5.821065714583162007e-03,4.262720857326833535e-02,2.008014611442976785e-03,7.119004793003275156e-02,1.122317436375420002e-01
1.021607830661042660e-01,1.562611144536485142e-01,3.380808518201743884e-01,2.395664599084618152e-02,5.920181010649508239e-04,5.063794670030280325e-03,3.775688849184778012e-02,3.359196015965126847e-02,2.473862880171633777e-02,1.015931192606881472e-01
1.084209004111298807e-01,1.224688150265086928e-01,3.161771044248932738e-01,1.309553562437215310e-02,4.347387863468593150e-04,4.664407222054950571e-03,3.268960724169978765e-02,3.767024164357203608e-02,3.556199811592418436e-02,8.894966680888204136e-02
1.156787434389059677e-01,7.844065823135919213e-02,3.120490857271862040e-01,6.754047933943778219e-03,2.695140356629365744e-04,4.123815340022251967e-03,2.975028207553581661e-02,2.393046959712261806e-02,1.245953122150533221e-01,7.903941793036885211e-02
1.089441599990634141e-01,3.825605744328077623e-02,3.349018239710940814e-01,1.180831004396734434e-02,9.211760721909100739e-05,3.423353612125181345e-03,2.616155768148074531e-02,1.016903373660589353e-02,2.358236738023232748e-01,6.538656676236923038e-02
8.467629912465281239e-02,1.325496168990970489e-02,3.418030498009483331e-01,2.227423054766806965e-02,9.870847092027828151e-05,2.791646188451118483e-03,1.813161681485103705e-02,6.886474385170046966e-03,3.226110125477740231e-01,4.107909150176079771e-02
5.892141602746800433e-02,6.295997639152662445e-03,2.950640941112523397e-01,2.623190263033294001e-02,3.038873909519826735e-04,2.239065139533697683e-03,7.175688805290709495e-03,9.451880735123541211e-03,3.391557986364876487e-01,1.150429579617280422e-02
3.878787680295055218e-02,1.214494999246080661e-02,2.066336456777486674e-01,1.997212280558505193e-02,5.243737676876083229e-04,1.658558511501131679e-03,4.315500132125909064e-04,9.583853444942735250e-03,2.841228268681184055e-01,1.197726016159869795e-02
2.871208634895998715e-03,2.245589161009848081e-02,1.155172566242037291e-01,9.207128292070484304e-03,7.599210156052958005e-04,1.044920768574119242e-03,1.080042968777011544e-03,1.123072584260966650e-02,1.932890055485398939e-01,2.537210814345912391e-02
6.703377166422304356e-02,3.125023815777945579e-02,4.374562136221284842e-02,5.147472908885537737e-04,1.008925083587283939e-03,4.503350864271326529e-04,2.003492127258180502e-03,2.413751900205317324e-02,1.131697100474488710e-01,3.059956063487065045e-02
1.445131262550417850e-01,3.595420205398014435e-02,8.004200767196731001e-03,7.880269519538234124e-03,1.269063221747008304e-03,1.189186986287675508e-04,3.200833503265711373e-03,4.446632919532080008e-02,8.184276917417480923e-02,2.816660573977502330e-02
1.791326741425795788e-01,3.613561668352915923e-02,3.597358981082306867e-02,1.236577071500949941e-02,1.537469876844577490e-03,6.830227184284003552e-04,6.115107193424519291e-04,5.647005015562046176e-02,1.012574268769916991e-01,2.063162335980363651e-02
1.564539952111877463e-01,3.383554772174458131e-02,2.630861451652845295e-02,1.253764115925543911e-02,1.810563490829090105e-03,1.240151094714387475e-03,3.795439427159403613e-03,5.359563425441179335e-02,1.290950461453934661e-01,1.608522780672133265e-02
1.086020342144354556e-01,3.073366762051668588e-02,2.435540669204912939e-02,8.287512165482988774e-03,2.084111318786979056e-03,1.775135540579431430e-03,7.730433740192588742e-03,4.442475841398210723e-02,1.241554385516943637e-01,1.900842537368124460e-02
6.515518291321277522e-02,2.181155016341112737e-02,9.288140113822078436e-02,2.307978108595699733e-03,2.353482270041527390e-03,2.282439266150531124e-03,1.021488637256717617e-02,3.661611608550409402e-02,8.983363261481763784e-02,2.339435550963083962e-02
2.328232596659832523e-02,3.132878476864754680e-04,1.437068927373351401e-01,1.687833512660511827e-03,2.613807838145178371e-03,2.762565260077755585e-03,1.129349836237720367e-02,2.796162349216823120e-02,5.492323368638589443e-02,2.175384022135463252e-02
2.313001919746732887e-02,3.081828193974813640e-02,1.567749734688544949e-01,2.194181346449291907e-03,2.860066300496097273e-03,3.211448494008076627e-03,1.195989374378833396e-02,1.745487526672551831e-02,3.155594816779350859e-02,1.527952758259194452e-02
4.865318178773625490e-02,5.353309547580927669e-02,1.372918686416330081e-01,9.625366188059080461e-04,3.087216361327004173e-03,3.622205091342274759e-03,1.351652649930918347e-02,1.423520717236552088e-02,1.205903856640300718e-02,9.946662056493773413e-03
1.805824336758908924e-02,6.057509560774455848e-02,1.027897797790341405e-01,5.919242071714164895e-04,3.290369428055862477e-03,3.990316194820223150e-03,1.612554338100530282e-02,2.724542797687366444e-02,8.474689429619300732e-03,8.343584552075308455e-03
6.011007772606104943e-02,5.909158617889536530e-02,6.693652156715144963e-02,1.792046804197209740e-03,3.464936042138342352e-03,4.313061255704542588e-03,1.862943408286826114e-02,5.157561919599047695e-02,2.606643683264421932e-02,9.922443851876938323e-03
