1.121415828539066954e-02,2.366758242190341623e-03,2.191584292249511810e-03,7.085090126032277764e-04,7.877043849508121856e-04,7.358445324143095094e-04,3.499716646270816661e-02,6.788777323924824643e-03,3.646057237012307641e-03,1.711157809465272631e-03
1.064971104500241766e-02,2.196267397251707235e-03,1.876891180512034463e-03,6.983697449591810477e-04,8.782894606579049216e-04,5.641092357093263274e-04,3.165970451083148507e-02,3.360952959911871901e-02,3.537560064412952326e-03,7.712040699716773756e-04
8.376578582215360100e-03,2.005309439458550971e-03,1.262687413745055328e-03,6.884675822938544172e-04,1.099028473987793183e-03,3.968181600041381478e-04,1.078875006560087585e-01,6.327171971048307919e-02,2.862954333533738842e-03,2.017450239120680347e-03
7.515852428499229972e-03,1.802578688457407395e-03,1.223572376266152811e-03,6.812404616429438729e-04,8.863531950395206558e-04,2.371156023819057318e-04,1.498971191817831394e-01,8.067434615232264850e-02,2.488979034262728610e-03,3.267468921923545253e-03
4.097228010041704081e-03,1.597079396429434799e-03,1.633459576645893878e-03,6.878710801930132011e-04,1.167273999953641919e-04,8.785257205765021758e-05,1.457370752461550900e-01,8.121915120943548616e-02,3.050665899318070248e-03,2.994008041009127777e-03
1.002055945108705666e-02,1.397882297744569482e-03,1.930076507938513703e-03,7.030305275800761934e-04,3.405818029631055223e-04,4.848617791560051553e-05,1.171373940151868714e-01,7.720436556666418482e-02,3.906340717725138335e-03,1.751047852937940045e-03
3.196945943337390489e-02,1.213876937457100680e-03,2.049583187390398558e-03,7.017882806033274223e-04,1.518763430887323448e-04,1.698459875154251296e-04,8.644631875101715934e-02,7.951422632337615259e-02,4.182757605948495862e-03,6.656909088815002578e-04
4.802042020672195322e-02,1.053525801756807897e-03,2.236976805637220893e-03,6.932753531667536868e-04,9.546960874780140854e-04,2.746553485093297447e-04,5.802195772120334605e-02,8.363095974121449727e-02,3.999553072421155320e-03,7.231618282420108066e-05
5.159206435643456934e-02,9.246262098981591904e-04,2.531460393345462672e-03,7.287086157478633993e-04,1.196819010769111956e-03,3.618667971527916058e-04,2.788035923898654969e-02,7.983303380233802704e-02,3.916542364580332357e-03,8.288637565049597998e-04
4.871143992456052063e-02,8.340859881790894806e-04,2.821454005666911100e-03,7.871295153873131408e-04,9.999304424832410228e-04,4.309845268262916629e-04,9.518279231577587117e-04,6.804995977137587304e-02,3.998700755742936111e-03,1.679049826596136974e-03
4.484727012338049490e-02,7.877187687262994899e-04,3.087956970356722265e-03,7.552165270029796273e-04,9.256577740039490182e-04,4.820779267205897787e-04,1.693804669447470171e-02,5.606863192529781131e-02,4.000205227919394896e-03,2.452323893394376883e-03
3.802789766498923529e-02,7.900638517104827683e-04,3.382955724278921984e-03,6.707955782617087710e-04,1.040540396879463710e-03,5.157806386902214499e-04,1.322206638026739156e-02,4.839631760219615525e-02,3.879196615686965506e-03,3.108256661319852392e-03
2.544247352947864166e-02,8.442347192035369163e-04,3.715200604854102667e-03,7.752971483026410964e-04,1.100066658498763351e-03,5.332750875237142344e-04,1.970224148884685417e-03,4.241034587558254604e-02,3.745417745392074470e-03,3.724377138991372734e-03
8.600508307339785330e-03,9.518005808665624653e-04,4.059033872699165622e-03,9.990901186391607826e-04,1.063349865362894948e-03,5.362627104556832395e-04,1.406378083142237681e-02,3.383867510212699298e-02,3.616800084637202938e-03,4.321248964363766550e-03
8.657461304615936618e-03,1.112705166067587273e-03,4.407851596184346639e-03,7.775467669230229709e-04,1.040725982545338650e-03,5.269204510334353758e-04,1.720963253279547689e-02,2.183834333059258767e-02,3.439722042672504511e-03,4.865862978374414782e-03
2.407170823919684011e-02,1.325224034011705408e-03,4.770166164325973998e-03,1.382578099914330785e-05,1.050452946539407080e-03,5.078446162204441634e-04,1.272553911190093916e-02,8.127647772884799560e-03,3.203302047926602242e-03,5.353297639604205453e-03
3.887670639799388483e-02,1.585959364525603779e-03,5.144759933346211567e-03,5.065714751868444481e-04,1.038987304508458493e-03,4.819835555033184305e-04,1.753806046639197827e-05,5.332439935354397684e-03,2.931421349070213300e-03,5.805661080955364962e-03
5.372677443391140478e-02,1.889874622721804832e-03,5.523245506440276412e-03,6.363297164776028723e-05,9.950071448788381026e-04,4.525605019469049022e-04,1.851331411848645969e-02,1.600496265964681739e-02,2.629147134245618175e-03,6.233578785471668646e-03
6.109533779615344828e-02,2.230373575933601062e-03,5.901345926635396567e-03,6.756167445374400326e-04,9.413915445834369119e-04,4.229880710534147893e-04,3.026732036307277010e-02,2.058302419843163755e-02,2.285829168894333487e-03,6.636301542683095342e-03
4.946403879211890703e-02,2.599417864215193899e-03,6.275789808875429678e-03,8.404691145079474417e-04,8.822362114156306629e-04,3.967769912038127643e-04,2.363956777012313562e-02,1.691723866066674464e-02,1.900226847759204285e-03,7.019237498194529253e-03
2.078311735983096389e-02,2.987669603117348686e-03,6.639958760081258841e-03,5.532875636493962170e-04,8.060920948364513070e-04,3.774420263764827806e-04,1.700740711636680204e-03,5.557647672070648893e-03,1.479352329735297844e-03,7.392721331791647643e-03
5.823103077471936465e-03,3.384664320230285767e-03,6.989924518861278385e-03,3.767515510120927631e-04,7.098898120579810863e-04,3.684063055277236138e-04,2.441153158446264515e-02,1.008626304550056668e-02,1.026660800353346951e-03,7.763518548911795859e-03
1.422331276986071522e-02,3.779033736721336932e-03,7.324905656693737194e-03,3.787815371973150781e-04,5.975291989011960415e-04,3.729047863698813949e-04,4.784728879291254983e-02,2.423594800385094755e-02,5.424026913016179348e-04,8.136889046310104637e-03
5.196141364756370548e-03,4.158755522186769610e-03,7.634827827414005647e-03,3.165215320774435745e-04,4.707279779085284544e-04,3.938915124765532730e-04,6.427476072673701801e-02,3.170710664276375074e-02,2.909863248729802786e-05,8.519793399575044390e-03
1.254426979634149300e-02,4.511373425919888713e-03,7.903597889729968573e-03,1.510403600460101406e-04,3.300955070522324257e-04,4.339565019033648336e-04,6.715502560048554337e-02,3.214002473561073520e-02,5.086303836909480871e-04,8.915126218176852232e-03
3.247265805860269361e-02,4.824218889142245850e-03,8.135983120443019551e-03,5.091390618125138666e-06,1.750728879986377772e-04,4.952495991503635606e-04,5.334689832428755885e-02,2.832195940280877663e-02,1.066711425310193449e-03,9.320332050417318506e-03
4.956374860442724906e-02,5.084738012332626345e-03,8.349572534766154519e-03,1.312746711359949947e-04,2.211109139075047230e-06,5.794055638491832317e-04,3.096855419929631786e-02,2.051887832529719624e-02,1.641664022559257124e-03,9.739108838692141570e-03
6.109312497692843263e-02,5.280841238977474622e-03,8.517430167314838513e-03,2.786810090058657930e-04,1.855588648884481874e-04,6.874822685587490259e-04,1.760555275966539657e-02,8.926754400321458560e-03,2.229458522020127779e-03,1.018081498797925206e-02
6.814379278116658445e-02,5.401032186390043212e-03,8.584973098503416444e-03,4.560128818718053412e-04,3.752043487980292720e-04,8.199302228646806676e-04,2.627530016040292848e-02,5.558151821224593427e-04,2.825583264008402380e-03,1.063459698743544034e-02
6.886860858308901934e-02,5.434465998928088987e-03,8.593157200994860218e-03,6.375292296183715859e-04,5.676651270118982526e-04,9.765734321036233928e-04,5.029084915524668908e-02,3.602023814610029809e-03,3.425683855346313856e-03,1.107085148932875247e-02
5.715869853968806591e-02,5.371441872766421002e-03,8.645569957117875057e-03,8.166643477654198001e-04,7.864872522344072909e-04,1.156566137585557895e-03,6.689918313024192931e-02,1.428312907005559705e-02,4.025642715532933534e-03,1.149619540123606419e-02
3.577565827241547397e-02,5.204003112737755343e-03,8.644694467515092254e-03,1.002965987242498882e-03,1.024707313131193636e-03,1.358370164452353882e-03,6.010974211558973296e-02,1.848246375323032986e-02,4.621379622672502213e-03,1.195083715533604846e-02
2.022921551093528891e-02,4.925541042106987462e-03,8.352791797324550169e-03,1.196994986547279686e-03,1.225113828385466239e-03,1.579831619811837128e-03,3.539987706414306906e-02,8.227196266822002849e-03,5.208904383456865531e-03,1.239094596379422195e-02
2.247548776677239790e-02,4.530055815222843070e-03,7.953124075673511512e-03,1.391500149019684988e-03,1.394238321786577320e-03,1.818264191084695584e-03,8.433784159235360733e-03,1.011549529567054920e-02,5.784496624475063756e-03,1.269156302101265114e-02
3.943937983437863226e-02,4.013434567291190337e-03,7.993182007635600203e-03,1.583236878201549477e-03,1.647762308158426392e-03,2.070368001963672662e-03,1.424807863495331818e-02,2.558421066678514058e-02,6.344760080239384217e-03,1.289814382224209292e-02
5.722117152100009152e-02,3.375402594600855535e-03,8.341100822290161906e-03,1.772614563673785212e-03,1.967958038864272164e-03,2.332176018687694662e-03,3.447833661559002172e-02,3.443400612880249956e-02,6.886600159845645934e-03,1.322713895990434291e-02
5.853692101088680405e-02,2.617062960612133535e-03,8.140363119138068621e-03,1.958212047791633038e-03,2.097596642533019595e-03,2.599395543481957793e-03,4.661184874758139696e-02,3.929182526543130438e-02,7.407242677429561745e-03,1.352928688059821388e-02
3.371988968121941710e-02,1.736757187723584955e-03,7.337702489710005820e-03,2.136928939959073862e-03,2.051632335176074677e-03,2.867740534150459673e-03,3.979667729569497797e-02,4.213850128504006975e-02,7.904281486983757987e-03,1.327509735515961138e-02
6.732660680215301306e-03,7.351747285252185644e-04,6.811664690126098889e-03,2.306606916973354560e-03,2.415851364584138163e-03,3.132454470995679318e-03,2.029138953976931253e-02,4.306999201573012692e-02,8.375698008366429942e-03,1.270243040203353907e-02
3.835568624516618591e-02,3.758383607732819921e-04,6.519852703631556258e-03,2.466039117253153966e-03,3.421356769343899314e-03,3.387860562051249209e-03,1.040177557729016385e-02,4.318833645633304852e-02,8.819835206018129467e-03,1.288000220348911075e-02
4.611902492684725324e-02,1.584250669707929242e-03,5.449554178003888222e-03,2.613786780485093542e-03,4.147242410368120330e-03,3.628663807484345735e-03,1.519975883304283334e-02,4.482585223732682422e-02,9.235353761191743283e-03,1.324105450035151059e-02
3.417130900692783024e-02,2.897363295351646374e-03,3.754643415453456142e-03,2.748198996557091496e-03,3.715372453782905988e-03,3.851255858710377587e-03,1.287518696532895419e-02,4.922217059231898117e-02,9.621226533333531936e-03,1.132505800418973259e-02
1.240744571448992167e-02,4.319429997553512514e-03,2.823510415064796331e-03,2.867999388645622177e-03,2.853124068389617605e-03,4.051286699273392092e-03,1.075708450270639743e-02,5.467214852188019558e-02,9.976758379073880426e-03,8.361536592070638318e-03
1.504348841757321628e-02,5.809763351369397893e-03,2.883215096692137106e-03,2.972309315789530611e-03,2.983671826601246892e-03,4.221133380240350667e-03,4.250857366332955189e-02,5.766965287737229467e-02,1.030150532633547326e-02,1.167446325933569826e-02
4.387849819376407612e-02,7.329246011256681549e-03,2.496158748173191860e-03,3.060391081117432629e-03,4.058909384630214265e-03,4.355331505761781893e-03,6.539948120418735689e-02,5.852207599970442320e-02,1.059509965045720738e-02,2.438795093080504961e-02
6.322960194199894746e-02,8.935823990783464676e-03,8.839600660336911428e-04,3.131643533462686712e-03,4.663130039739889036e-03,4.456419581752292698e-03,7.547095310225837572e-02,6.445532606808271336e-02,1.085725707594999492e-02,3.557814180189987352e-02
6.510274247102462719e-02,1.071283282539515005e-02,9.894437004948422598e-04,3.185723586412976451e-03,4.191585389575888318e-03,4.523766708570371893e-03,7.006736255150054771e-02,8.011875742064468453e-02,1.108797320635949990e-02,3.227959121018607325e-02
5.401178994165547337e-02,1.250627274471672636e-02,2.237703472243673160e-03,3.222542763160903510e-03,3.490643344753327319e-03,4.541045866140383871e-03,4.837089080493530563e-02,9.516673023610268400e-02,1.128732273945979442e-02,2.209489148381574980e-02
3.620845554376440900e-02,1.346653017798526281e-02,3.301840323121987397e-03,3.242195181437197531e-03,3.248560957194098452e-03,4.499978468456108938e-03,2.690608134497322890e-02,9.071386736789058269e-02,1.145483166388187694e-02,2.947272718982417439e-02
3.167335984797887190e-03,1.124601158741163516e-02,4.636747083145679668e-03,3.244935663558240913e-03,3.290123417630160321e-03,4.427878268224654836e-03,2.660573288411024681e-02,5.821029348736535269e-02,1.158968025840191769e-02,6.360946109637377610e-02
6.047269496712591452e-02,2.351295223712382594e-03,5.748863076631530004e-03,3.231183487889849933e-03,3.549214865153854561e-03,4.337787742645655108e-03,4.167828007743057395e-02,3.640847663839123435e-03,1.169184122582089987e-02,1.039417482765645773e-01
1.493929648528863341e-01,1.394879230499639078e-02,6.426106399693098069e-03,3.201496446891380528e-03,4.151045507144582314e-03,4.168427511110113157e-03,4.501770443257398918e-02,6.041423718652901703e-02,1.176147494265093393e-02,1.251313356360092277e-01
2.286355222052512681e-01,3.150900492566541256e-02,7.416162500156597143e-03,3.156527185840633798e-03,4.580181514557912781e-03,3.889152274968324038e-03,2.677591220902206942e-02,1.153266900697754865e-01,1.179629379771289857e-02,1.225684224194494021e-01
2.590812128776926460e-01,4.056183868612233540e-02,9.097604096670383958e-03,3.096989481891161602e-03,4.179860593729942467e-03,3.631057384355065604e-03,6.513222652495907067e-03,1.399681620833910789e-01,1.179261289924004273e-02,1.058353108057772524e-01
2.285907396744761566e-01,3.660008261315049471e-02,1.105554355908004022e-02,3.023629880754603698e-03,3.253699415152723051e-03,3.466328309433187697e-03,2.113228417070116272e-03,1.291393229469589843e-01,1.175085698001696738e-02,8.218906224823867290e-02
1.608342846740864474e-01,2.441156540449734846e-02,1.321093676651886699e-02,2.937191833450503945e-03,2.722065445888495038e-03,3.119473549704671750e-03,6.438731077557799214e-03,1.015522701841455044e-01,1.167333811547635082e-02,5.652546345728678284e-02
1.027891950751501360e-01,1.382298276218893278e-02,1.521843445106340828e-02,2.838376708202230460e-03,3.028276914948804105e-03,2.424050703053612799e-03,5.770438272706229256e-03,7.987262297849034853e-02,1.155234593023724346e-02,3.688350089902539541e-02
9.475933808754663512e-02,1.195985936952340817e-02,1.519016110604214792e-02,2.727811539540720819e-03,3.757391887569793820e-03,2.005764974942566073e-03,3.036998277450927639e-03,6.991298959377022226e-02,1.137452585064279049e-02,3.029280831436865704e-02
1.345287008408693197e-01,1.725283757085626854e-02,1.206297421694593405e-02,2.606020733931456532e-03,4.058485574542602427e-03,2.542541824996046029e-03,5.596209440181578246e-03,6.438417102047150342e-02,1.114640800894948006e-02,3.659226386254812308e-02
1.765487066669141070e-01,2.092159756465172826e-02,8.589086590103300542e-03,2.473393109097436759e-03,3.494761032946760645e-03,3.309923121388319740e-03,6.541094700055325242e-03,5.755106776804466001e-02,1.088574122886224252e-02,4.887025480668297922e-02
1.791435941382430175e-01,1.627614963486703065e-02,8.822517224024422483e-03,2.330151215459847370e-03,2.512856356926761962e-03,2.829337581708511132e-03,7.860885176467190000e-04,5.065341662370589915e-02,1.056680269958802307e-02,5.716636793670445971e-02
1.416853483330293428e-01,4.828204831711793189e-03,1.343053644414980534e-02,2.176339519827057926e-03,1.939870268569045915e-03,1.065577788744142326e-03,5.382839222380534500e-03,4.912015119489509390e-02,1.013756772011696963e-02,5.326240152329708710e-02
8.738925380907429374e-02,8.106887767714995863e-03,1.974640896629199435e-02,2.011819964931402770e-03,2.190132370782392653e-03,5.255684695634596417e-04,1.193370844051180098e-03,5.546358871274103403e-02,9.637095634093949259e-03,3.572047192726916093e-02
2.947532575322348719e-02,1.993987146924994930e-02,2.508798405571411455e-02,1.836243305649576819e-03,2.874410484242327646e-03,1.112003387229662695e-03,3.925227095192659194e-03,6.092417662025826491e-02,9.162224985756426202e-03,9.803663297043218802e-03
3.053644359975219574e-02,3.073277855009532919e-02,2.855831828225931929e-02,1.649021266973355613e-03,3.066369106602078506e-03,1.254641169126536910e-03,1.040336215265189740e-02,5.005139770413198630e-02,8.616215078471047353e-03,1.738773371336674312e-02
8.387489876737513894e-02,4.024369456222837843e-02,3.072968483848157253e-02,1.449367866812577245e-03,2.345508459938605919e-03,1.755514432825374185e-03,2.468882569529857324e-02,1.912232645466515474e-02,7.770639917489700725e-03,3.948657744110319057e-02
1.107104368862100174e-01,4.703824964311490581e-02,3.198064799086679233e-02,1.236359090348642439e-03,1.381824720501582688e-03,2.716303948231176945e-03,1.687812659499603185e-02,1.693176835773098354e-02,6.800298811140130517e-03,5.120730141358631471e-02
9.888584248658895126e-02,4.848210866853512602e-02,3.103450542564884646e-02,1.008864423764258434e-03,9.426065059588209765e-04,3.469222339915728048e-03,3.143549009483629850e-03,4.004451205716631768e-02,6.223851248726940816e-03,5.210185855943179345e-02
6.335746678502227058e-02,4.256442527288283040e-02,2.670644941009896536e-02,7.654547437438525767e-04,8.861278535434479516e-04,3.165028916618654094e-03,9.895720138778449013e-03,4.519902448823376329e-02,5.916573262475075153e-03,5.067362434443139357e-02
3.854531800324189489e-02,3.227278627705729153e-02,2.122338555626607920e-02,5.046013017838167159e-04,6.943615080311946967e-04,1.842036199002816633e-03,1.217975411113588532e-03,3.874778780331240152e-02,5.072282901212256737e-03,5.764375989729068200e-02
4.175855880633197459e-02,2.487889939570089165e-02,1.915670226829079698e-02,2.249497958420497629e-04,3.057667678926037375e-04,5.772916360967341636e-04,1.820056820340143142e-02,2.691485524373347232e-02,3.611395997257725067e-03,7.014514183258287183e-02
5.121845362234208471e-02,2.380553219150608954e-02,2.253438433438252272e-02,7.500967588659452170e-05,6.085892907827871958e-05,2.118551573564517046e-04,3.610093629181491265e-02,1.242046096836567012e-02,2.291152554168719886e-03,7.131887145297485797e-02
3.782694089439860713e-02,2.574868256987949619e-02,2.899956505899567785e-02,3.974351051907442094e-04,3.730355949883746181e-04,7.870902369019431048e-04,5.548786914471989101e-02,1.768670431086440814e-03,1.108681541806548661e-03,5.485097770014764340e-02
1.116203762948491524e-02,2.818480747052490298e-02,3.429103286119359467e-02,7.443277643593794240e-04,7.344991356207688496e-04,2.337474342905980929e-03,7.270604080529315116e-02,6.771611323928078234e-03,6.992680081099214399e-04,3.872866093657102715e-02
7.767135205579093343e-03,3.355257629331267338e-02,3.526719409473837163e-02,1.116337817316596145e-03,1.164119667303600532e-03,4.838521270206022629e-03,8.712714023539343267e-02,3.201692627063807556e-02,3.060201128674913413e-03,4.214297682207326923e-02
3.860764138290465053e-02,4.271292710868608566e-02,3.240151274581566654e-02,1.514324286039637124e-03,1.616680149473356115e-03,7.367607273857840026e-03,1.045912482394383836e-01,6.630280933570069368e-02,5.175120366087348003e-03,6.158420431888267377e-02
7.878912362454458529e-02,4.985648912658656451e-02,2.965870958366933693e-02,1.941815836769740468e-03,2.086757715104400456e-03,8.801299656004504465e-03,1.249452508567622799e-01,9.366137804973900804e-02,6.923027201105335510e-03,8.308368539689632570e-02
1.094521864092224267e-01,4.941263004905270539e-02,2.847888112391428264e-02,2.401612840965174685e-03,2.597156134528677031e-03,9.258001835289389816e-03,1.398174302937016944e-01,1.088952003921797584e-01,8.824164926081384114e-03,1.043640768206891833e-01
1.362360743788795792e-01,4.500420209685784129e-02,2.267544526001257985e-02,2.890315897584698479e-03,3.149608535295487111e-03,9.707328259527719938e-03,1.457232414813461885e-01,1.162210055641717948e-01,1.106066955417023094e-02,1.301996959710364776e-01
1.565251908023893024e-01,4.299073145698596027e-02,5.138316613037030404e-03,3.405318509366100574e-03,3.736139011071989979e-03,1.050273122584280405e-02,1.455369460327237130e-01,1.174916237613942982e-01,1.341440458291353471e-02,1.549214383776281734e-01
1.450040260916181101e-01,3.748350184433030946e-02,2.048547677150189955e-02,3.956562452417107523e-03,4.363369436460651229e-03,1.126724957589686667e-02,1.407682072761250458e-01,1.111031824649970634e-01,1.578435020552702850e-02,1.634813997264137897e-01
9.671450400467603015e-02,1.535329180130928263e-02,4.132359486376729202e-02,4.551810486052497613e-03,5.033365544463548613e-03,1.189674259520551516e-02,1.377331683685555919e-01,1.002346145142120754e-01,1.825371686837570437e-02,1.511527945490264146e-01
5.069268988426342548e-02,2.042692723771803720e-02,4.906353694965168155e-02,5.171070836088902806e-03,5.729188843744965030e-03,1.275046286081963666e-02,1.496310200465576778e-01,8.886864731608519474e-02,2.087610347732522798e-02,1.347024658247780171e-01
3.802894093597144337e-02,4.928158636074404797e-02,4.643562390006248514e-02,5.797312911359984652e-03,6.453675624861726461e-03,1.376034792207756104e-02,1.722375440510852673e-01,6.797279696694989715e-02,2.363181303185082904e-02,1.329109026374888369e-01
3.863586472306329567e-02,5.986643944323120914e-02,3.951765926459250428e-02,6.471843848099448869e-03,7.243425686076511959e-03,1.405282741731805202e-02,1.744533644314115173e-01,2.320287686005211708e-02,2.646445484031562448e-02,1.360312103325738153e-01
2.108941222278407773e-02,6.011466798535825690e-02,2.921285245930503593e-02,7.230123183384266732e-03,8.086889271385464331e-03,1.300231338392937412e-02,1.390630090194844848e-01,3.644089512935508313e-02,2.932050231460085060e-02,1.154187742644548625e-01
8.584499092823289629e-03,5.658009492509562255e-02,1.325048111511505609e-02,7.981672408038426383e-03,8.900582587258015418e-03,1.150611937903330516e-02,9.524217022048914183e-02,7.565315554024280853e-02,3.227656485662700608e-02,7.110563784801791909e-02
2.194395710297884772e-02,4.418990192551149748e-02,5.469833967561872970e-03,8.643882933350869116e-03,9.703254242268944188e-03,1.158642189690987576e-02,8.189175179161040097e-02,6.936782211156591882e-02,3.544766310288426786e-02,4.219075485775906909e-02
1.344785865490329829e-03,2.346580266244895074e-02,1.688455421382862795e-02,9.404905330660143226e-03,1.067026725634808403e-02,1.408711385100813208e-02,9.630728901641028017e-02,2.919235176887514938e-02,3.837997000647002527e-02,5.626816160730477995e-02
6.238837197098281995e-02,1.078687636900400870e-02,1.363222325099566583e-02,1.045162044521876464e-02,1.176708164558412303e-02,1.688912626368111597e-02,1.075244005796322372e-01,1.391275036331608012e-02,3.984369340326946590e-02,9.578731232779116866e-02
1.238740138126247087e-01,2.107480564951342075e-02,6.760840492146726749e-04,1.134652092540880917e-02,1.256692005703062553e-02,1.664066370915026974e-02,9.985789591944323196e-02,3.987410573010816833e-02,3.924543218907006886e-02,1.275492365870518341e-01
1.187511775915220669e-01,4.870631777818296149e-02,1.119854951487457388e-02,1.137422226839263431e-02,1.286919049586962918e-02,1.271120537010336088e-02,7.453771750567542154e-02,4.446188994465843924e-02,3.815482701490207490e-02,1.404298608367094692e-01
2.875101072549800935e-02,7.294060509553906835e-02,1.984823182803287928e-02,1.085645690638213645e-02,1.323883706816270621e-02,8.063380388595392176e-03,3.350349273596818500e-02,2.953324539801656726e-02,3.909112267540439806e-02,1.421215616438783191e-01
6.689951191567349020e-02,7.742211729610407045e-02,3.035059672133493328e-02,1.134724874575954168e-02,1.446524401878017917e-02,5.777777734865236804e-03,9.215694586869910276e-03,5.672343495988750768e-03,4.315980652450450428e-02,1.385514647112456865e-01
7.152353834914566832e-02,6.012445737057231510e-02,4.083599991948634600e-02,1.378805590048406970e-02,1.659397737949911897e-02,6.085395333428143989e-03,2.919551252845840883e-02,4.980289880276595263e-03,4.972258388165294585e-02,1.308030725832458885e-01
1.481244571488622361e-02,3.046112177046826630e-02,4.351491956254296967e-02,1.655475613274016641e-02,1.839485167202634802e-02,6.979321449158741586e-03,2.931446064725185680e-02,9.141327001136571179e-03,5.544565101816439912e-02,1.255555943825973908e-01
9.597514434715515019e-02,3.751882235562921386e-03,4.033862113314991282e-02,1.591330249729793270e-02,1.757959911583174828e-02,6.403396095850362804e-03,4.035309017128008158e-02,2.819151174629639170e-02,5.279264779041131089e-02,1.346207656841530986e-01
8.635254805212218276e-02,6.030027549264390350e-03,4.248110088938499701e-02,9.412242423196078359e-03,1.240624403194742417e-02,3.383909299552249807e-03,6.785501649539418811e-02,2.419372473949804939e-02,3.644440888054754912e-02,1.549043829339975253e-01
2.356675044365331203e-03,2.212848709445373006e-03,5.182755994212548400e-02,6.861185292713104737e-04,3.948786229938261276e-03,1.885023365326517729e-03,8.234513161428050343e-02,1.237658783321029772e-03,1.320358222506022063e-02,1.577594125908731992e-01
8.041952894913612093e-02,1.273410549657397542e-02,5.618330144129672632e-02,8.371372580583392314e-03,3.712050835551226023e-03,7.461529869973422893e-03,7.218018557130634338e-02,9.513644572733024121e-03,3.427585048774369012e-03,1.180842069889917051e-01
7.891272119830122778e-02,8.343554736791717469e-03,4.562742354616646651e-02,9.412564955085078733e-03,6.634154929499327079e-03,9.839352336720338238e-03,6.013591463732935460e-02,7.590870896414014628e-03,9.631229495560712089e-03,4.663989257883419115e-02
1.871217035947848190e-02,9.807784975697616398e-03,2.454915153025509847e-02,5.711009815188835236e-03,4.984519884118260996e-03,7.757483936479021847e-03,6.353472692817807577e-02,3.425966433776062026e-02,1.310283826179504257e-02,3.219408834778824530e-02
2.820352618332558348e-02,2.451800336293838770e-02,6.400073156538944180e-03,3.235087990377289065e-03,3.161107634023931686e-03,5.438844607006900443e-03,7.745116637903849688e-02,4.181733025174937113e-02,1.996740054969983053e-02,1.192730140107785136e-01
2.932468939134392355e-02,2.457366866647851117e-02,1.898798547569024997e-03,5.384708538219489145e-03,4.527240966162766195e-03,8.024882887268804110e-03,9.587589723513630091e-02,1.837627815227517447e-02,2.811020165882813920e-02,2.192917347068893408e-01
1.427983141259066453e-02,1.639295662988137989e-02,1.116831381400626780e-02,9.560090741619087576e-03,7.066214032450372599e-03,1.445886516921049240e-02,1.202919734633564192e-01,2.760174559992575188e-02,3.107390272101672943e-02,2.973116490705784432e-01
1.643091637628209603e-02,1.128923041188957359e-02,2.391353782401306818e-02,1.117249919692767969e-02,6.835347116491056682e-03,1.962800480361805502e-02,1.488371044901475038e-01,7.724820907187020247e-02,2.454693030294877523e-02,3.043657389344349151e-01
3.040214303630370610e-02,9.841036183926525974e-03,2.883663135546027032e-02,9.346586485645168654e-03,4.333467479194764299e-03,2.240584328366620678e-02,1.715226735986480344e-01,1.111046115711052940e-01,1.242355546289303919e-02,2.422243027979739116e-01
3.624492993334921948e-02,6.166079141147175202e-03,2.365866109448435881e-02,6.750905902851911909e-03,3.600941830489504721e-03,2.579781601643343567e-02,1.781481382014113990e-01,1.195189814571148146e-01,4.934676876000685872e-03,1.617805179851740938e-01
3.841672641709092256e-02,2.167637226406991281e-03,1.364924794571069529e-02,5.088888844097444464e-03,5.722966324089702461e-03,2.979651194648020793e-02,1.718713197692489647e-01,1.096913084656210291e-01,5.583815195068627703e-03,9.648120322779987768e-02
5.769965902376891775e-02,6.931537877023681744e-03,2.355258331388681951e-03,2.888140446252191428e-03,6.963553761841826534e-03,3.013916563276736876e-02,1.687909777332418093e-01,9.735924103860636725e-02,5.189313815890809860e-03,4.057157125048211493e-02
8.910650017622423480e-02,2.177190552798074705e-02,1.088809531810277023e-02,2.231281691359064071e-03,3.590679996873066999e-03,2.446241698269828110e-02,1.731735878125659212e-01,8.813663850675877709e-02,4.579930913324104132e-03,2.971955445608118196e-03
9.227974072727951338e-02,3.454271923200942507e-02,2.448497975811685795e-02,9.562300410726825087e-03,3.399369998437977002e-03,1.524935610116020211e-02,1.664694877597906464e-01,7.419659086378239954e-02,1.834969509646935601e-02,2.785315107902547327e-02
3.688974708699974819e-02,3.230612278363560741e-02,3.164027818910278289e-02,1.420874585942944607e-02,8.788749909013564288e-03,6.687021067365260529e-03,1.372640560739393500e-01,5.361433695973182728e-02,2.499486587681774147e-02,1.283522353263058802e-01
5.436603819847189017e-02,1.624652850270546373e-02,2.781563256689664754e-02,1.197841419537836426e-02,8.550671862501800155e-03,1.294223730838010931e-03,1.011305352314733619e-01,4.027628137167974659e-02,2.289662002278148104e-02,2.434887292494778699e-01
1.204491172314824665e-01,1.086538124917193083e-03,1.819668764284120693e-02,5.260734052658000773e-03,4.376643685937821673e-03,8.022591706876550273e-04,7.448042666513259025e-02,4.379700159453666503e-02,1.967528045479214477e-02,2.968907011861742773e-01
1.172252966286952136e-01,6.581121138432235616e-04,1.276835790639257312e-02,6.501973557657193294e-04,1.049182578160069148e-03,6.547394392850819367e-04,5.691344754400273764e-02,5.357506226534011068e-02,1.989138003133577096e-02,2.724026945443932535e-01
5.449759992268323611e-02,9.073708318208776810e-03,1.534263540496223939e-02,9.319429429862410158e-04,4.319549405333495719e-04,8.434712653973852094e-04,5.089781744853141832e-02,5.628680415219749350e-02,2.106466936517604679e-02,2.139446828042907423e-01
1.902336528128019053e-02,1.983478343619031470e-02,2.172244770985186021e-02,3.579656133367258714e-03,1.095873609249240713e-03,2.363124450876940685e-03,6.413252928822607557e-02,5.322959375531248483e-02,2.130637859561776773e-02,1.709067641532368287e-01
6.141240863731085853e-02,2.573131119845510975e-02,2.668696610517478154e-02,6.344442520270420979e-03,2.136873062550669576e-03,1.698870961228422273e-03,8.615612528628205369e-02,4.686866492502483189e-02,2.195564070381820360e-02,1.526204402462065790e-01
6.343529234670028383e-02,2.727837043743061574e-02,2.883287487649598135e-02,9.430011631932451108e-03,3.872904374816518898e-03,1.649241442004777472e-03,9.685870180040878630e-02,2.973311613992283414e-02,2.096851947802273047e-02,1.276205292998802143e-01
3.853301255352373222e-02,2.568253871825166082e-02,3.003623333969539233e-02,1.252015437570349471e-02,5.904993072799765222e-03,4.936540710301629692e-03,9.381654224954727450e-02,7.849991374232149349e-04,1.299590534267746136e-02,6.377372454827048842e-02
8.525663902340890540e-03,2.189500332987675407e-02,3.224855155222030451e-02,1.368608141535688355e-02,6.516764196819440497e-03,5.470773982567714647e-03,7.974662844469888878e-02,2.723190105184886481e-02,1.295297679865283803e-03,3.275011364683522164e-02
1.734555355192973596e-03,1.820225456985157669e-02,3.422954315547807602e-02,1.145970603230857081e-02,3.844689384090594058e-03,3.768665470954982080e-03,4.191647675100763221e-02,4.788096989512996560e-02,1.479742642871177336e-02,1.163334041772546290e-01
1.631225297986311357e-02,1.570189379651602476e-02,3.239524591143806698e-02,6.202590668052050324e-03,1.922594162437006246e-03,2.013547735504508506e-03,2.110583785119915512e-02,6.809065473452861894e-02,2.472261484858449127e-02,1.359884241606201805e-01
3.679656389146238049e-02,1.169921983637565825e-02,2.591771333363704008e-02,1.172880985347192354e-04,7.701810085127958408e-03,1.292060780672802485e-03,7.545124230245832397e-02,9.083866860486246309e-02,3.489174527007814913e-02,8.184493115688626363e-02
3.236306192761392170e-02,3.712298029800713273e-03,1.862849751188543762e-02,4.978345749921625138e-03,1.068039275933728265e-02,1.406253270286465622e-03,8.740622315980184354e-02,1.131568522987789899e-01,4.557917882233437218e-02,4.211501391529030858e-03
2.475263244644036048e-02,4.407598922008020698e-03,1.434856126590025940e-02,7.294163321949916588e-03,1.173369695101072856e-02,1.940300998754483034e-03,6.177200096821121311e-02,1.363168701551412954e-01,5.055419808024273765e-02,3.253678088480402297e-02
5.333578541158751768e-02,5.726456999149739067e-03,1.241772387374660662e-02,8.580625560441604294e-03,1.348962494363370630e-02,2.521072730648899526e-03,2.487518373673655234e-02,1.516964438238751212e-01,4.828365294679873299e-02,2.105690196013696586e-02
9.167321986882462359e-02,9.310130359136078743e-04,9.579323531650566284e-03,1.078460430498006349e-02,1.591791255264555366e-02,2.727102031016738568e-03,4.370966414458471450e-03,1.326054849714807249e-01,4.702947464424346580e-02,1.082699628113246992e-02
6.361913482325974589e-02,4.912677220540238691e-04,4.919856019191681459e-03,1.314745886574916409e-02,1.618515183236074462e-02,2.785243043929465714e-03,1.400280816957174060e-02,7.386212236669714715e-02,5.180100494790339238e-02,3.160112740208474713e-02
4.366475414533310673e-02,7.565364628759409758e-03,4.136049089442828293e-04,1.343353534854957974e-02,1.275268987901967410e-02,3.929026629677180582e-03,1.800315880991817073e-03,1.747703907896835246e-02,5.490749626758398283e-02,5.318333639461290258e-02
1.485735614789303050e-01,1.953240895818881412e-02,3.161552134690514583e-03,1.230636314370518389e-02,8.088794270802741188e-03,6.588288585756332631e-03,3.252395234023592457e-02,4.499999948269499568e-04,4.955360856043739687e-02,4.237562795195381343e-02
1.754163075947165196e-01,2.437338374940337810e-02,7.658827986383112338e-03,1.353576595523744291e-02,6.493618577808953074e-03,8.880702667777519779e-03,5.835596944123670055e-02,2.508390722703261050e-04,4.472606855011328902e-02,2.345273465816878622e-02
1.350382524338460954e-01,1.726076289424904875e-02,1.399514213910983858e-02,1.897642363146161831e-02,9.410957242409976817e-03,8.997581366298371131e-03,6.889004992762361168e-02,2.707615855442326719e-02,5.302431065077753414e-02,3.851895955133002175e-02
8.359876634886984070e-02,3.005471318742457352e-03,1.955148132931400218e-02,2.573897754182664921e-02,1.378251488579005854e-02,8.227457324613175402e-03,6.687625961855320211e-02,7.554102707049116516e-02,6.902619413262463255e-02,7.133281068371562228e-02
3.894508605736973772e-02,1.123512123936785609e-02,2.053236885023882602e-02,2.935817284197389521e-02,1.557692912963612800e-02,9.163936509209307663e-03,6.035297085813454837e-02,1.004920945578906821e-01,7.483188052567654736e-02,6.904762852381181315e-02
1.579973389789929988e-02,2.148291998549550080e-02,1.662940249932946118e-02,2.829039663446378597e-02,1.431496814849462888e-02,1.138818124495115033e-02,5.348309352660576832e-02,8.947062245968023797e-02,6.463736132400227374e-02,3.180541705926223650e-02
5.433109410221334534e-02,2.211350848590148271e-02,1.271191901721931659e-02,2.471259452275404930e-02,1.313276391564203310e-02,1.110284541048282142e-02,4.063331813408595922e-02,7.653246813396485937e-02,4.915074461609732215e-02,1.425555589741001744e-02
3.313084219798589913e-03,4.513122778214015418e-03,1.460000922608885310e-02,2.200014484537519271e-02,1.470104633890405993e-02,5.519390234327991793e-03,1.729709715010062376e-02,8.469145882727688313e-02,3.747733988251551046e-02,3.043272817177696682e-02
1.497239188610587080e-01,2.991991611935612694e-02,2.288646469399650482e-02,2.194042948438342661e-02,1.860530904054654225e-02,3.619078041227285006e-03,3.758890194123920905e-03,9.200060358136985528e-02,2.891952376104709246e-02,2.852055487105367368e-02
3.038728367379809336e-01,6.241700909950156917e-02,3.222651335262834149e-02,2.343201002848264297e-02,2.259920440624788723e-02,1.187849081479439364e-02,6.811511653326321990e-03,6.639528967599790665e-02,2.114525015462322480e-02,1.396162864367424435e-02
3.465009711907586776e-01,7.307747319946575337e-02,3.627109957877779067e-02,2.312306809905042768e-02,2.431719664092553412e-02,1.666918816270475390e-02,1.796072777464715123e-03,1.091099690111900673e-02,1.384053376125547741e-02,4.178988591554087806e-02
2.696988128907251703e-01,6.094218636078178875e-02,3.198887488018357927e-02,1.821751801197221687e-02,2.177608287894505432e-02,1.831204308153850518e-02,1.290453309189385986e-02,4.001289195588280528e-02,5.040233876333043324e-03,1.260654274588091789e-02
1.583916819439788737e-01,4.158192522627422033e-02,2.102213060515050608e-02,9.581132171538445791e-03,1.460381703808091153e-02,1.735130154973789710e-02,3.789712638482269080e-02,6.005559486474555675e-02,7.606428428172815059e-03,3.074087138615012871e-02
9.633506727593059427e-02,2.876474060382193040e-02,8.979953550423552810e-03,1.313414249787387984e-03,5.373049320766978484e-03,1.366877179803686893e-02,4.568226581077744486e-02,5.551106372355267549e-02,2.179232260719158459e-02,3.205539042718914128e-02
1.024141355422349409e-01,2.404853455126058914e-02,1.634031745714950058e-03,3.259212240204483954e-03,1.744310846785368388e-03,8.563506048354974781e-03,2.220966774519536960e-02,5.016343188306799511e-02,3.015551390713476845e-02,6.472710098589487711e-03
1.382900954333661225e-01,2.223555776257741742e-02,1.350941111453173330e-04,4.237132489750578858e-03,4.390411458541553132e-03,4.759732806425672792e-03,5.659230616207983414e-03,5.430993798724453869e-02,2.628504478822825050e-02,1.652771869652885223e-03
1.559176425452076520e-01,2.009835536914139631e-02,4.749547070490974182e-04,3.825849418200216300e-03,3.769925777098425031e-03,3.391335625703469168e-03,8.240079612487894584e-03,6.004645239520952499e-02,1.242887871152351456e-02,3.786019653318330701e-03
1.275897924641584413e-01,1.613165027935185500e-02,2.935403962969001038e-03,3.722076503390824194e-03,2.921179404133075405e-03,3.052843612955971966e-03,5.714397417610384174e-03,6.461551896649221638e-02,9.548832152225677529e-04,1.332856660647486514e-02
5.080137773977107252e-02,7.766488353505168925e-03,6.297422520772819401e-03,4.191876204509193196e-03,3.873817703824902758e-03,2.019381967923876680e-03,7.963123990437529637e-03,7.399690823670081186e-02,6.133186594402883357e-03,5.689177113151099724e-02
3.873337171394306694e-02,3.287012355317009936e-03,7.051139496441960128e-03,4.831790140114659328e-03,6.644221422215544279e-03,2.367722765106350564e-04,6.471971760972479448e-03,7.591001819904415193e-02,4.707359105249215962e-03,8.851021034526188047e-02
7.586006473695514063e-02,7.790430946759207588e-03,4.534402814652707149e-03,5.386174937412482357e-03,9.859232578619925302e-03,2.945446354083628305e-03,2.113871250917798844e-02,4.323129936731724687e-02,1.257656239223693380e-03,7.604966884174520214e-02
3.452291159946284382e-02,1.549983378723350860e-04,1.364258382400056636e-03,5.721281202620082974e-03,1.162411263090006724e-02,4.142261401159627598e-03,2.931973047414176275e-02,2.142520660897393597e-02,2.580507198243652076e-03,3.330020875142345599e-02
3.068382494134712021e-02,1.203116020297038263e-02,7.984720262276058566e-04,5.577276943902304343e-03,1.066110402608145234e-02,2.147843630186790313e-03,3.600247187120377002e-02,8.132172381106989034e-02,4.915467376977791618e-03,1.923784751839512953e-03
4.974930771899688242e-02,1.757014732368554835e-02,2.952195362281123409e-03,4.788448322803428789e-03,7.426956471651612046e-03,2.361949465500511741e-03,3.677560818411949178e-02,1.147672512002671785e-01,2.564083815407101202e-03,2.420654492851607997e-05
1.255592242940056780e-02,1.431907399782329088e-02,5.501105155418802885e-03,3.620169501671449078e-03,3.752121174324499035e-03,6.903501742916070064e-03,2.293043715867756210e-02,1.288960619405453145e-01,3.320546052965977699e-03,8.826821633885586701e-03
4.971642325758376252e-02,6.234010343361299361e-03,6.352026264239463843e-03,2.706893392367892663e-03,1.031483630375293770e-03,9.609519106886229428e-03,5.486950584752107833e-03,1.259738561215860697e-01,7.453111457517670561e-03,1.154614880972774579e-02
1.109190151898805099e-01,3.859685733102208565e-03,4.026287098242873827e-03,2.599370039532307268e-03,7.025035315024410641e-04,1.014781192454813387e-02,6.906580000594806160e-03,1.021893052311700911e-01,7.795252697920957916e-03,1.386766556842092268e-02
1.461549861795376770e-01,1.270907956387020733e-02,2.739460919228120907e-04,3.359616082990587657e-03,1.690434000925018733e-03,8.907365657889106461e-03,2.750778209127003465e-02,7.669573515626150473e-02,5.931040422313350359e-03,2.040256836729165135e-02
1.267296741231850044e-01,1.506056708929830873e-02,2.198663123143900899e-03,4.634401487817112024e-03,1.628036481183362276e-03,6.475887428119931483e-03,4.501487761312047281e-02,7.653325822786577470e-02,1.157817547914501751e-03,2.293713066503921469e-02
5.311008914128814706e-02,8.966519890343162963e-03,2.578740697631378385e-03,5.927184965248777013e-03,7.436279926366066604e-04,3.927936908069334931e-03,4.724544953569819600e-02,9.446021172778053254e-02,7.417916947004209519e-03,2.247641110353460273e-02
3.278440998332988326e-02,1.031894844348069974e-03,1.486708051457931879e-03,6.880710477338722320e-03,1.451333107015570197e-04,2.589361868614165930e-03,4.024177785850163724e-02,9.913493182459355568e-02,1.476363664160202684e-02,3.488196040103478529e-02
8.764113117541448561e-02,8.598401151523627287e-03,6.444473217069287066e-05,7.868975638862199529e-03,1.375413281493656752e-04,2.752633948238175903e-03,2.686420631349494687e-02,8.145491029285814588e-02,1.486796939872994140e-02,6.455438225416629261e-02
9.823161482015368984e-02,1.055266214641369452e-02,3.553029485892626347e-04,9.837255347468673236e-03,1.677840811237634681e-03,3.140169196678786051e-03,4.985368361679621586e-03,5.732414747085180090e-02,1.031377404998747027e-02,9.166033455241059946e-02
6.762769318639393068e-02,5.904829370753789108e-03,4.561779377012610548e-03,1.264169678291686069e-02,5.014358009607183982e-03,2.354300455509093261e-03,1.332722046232088717e-02,3.183742110635298661e-02,9.526833471945413481e-03,9.478767605067928148e-02
3.417604379793047140e-03,5.766054752495471808e-03,1.292862571581127225e-02,1.455129275282785774e-02,8.564589472292289535e-03,4.148275565893381946e-04,7.088443147744505693e-03,6.091110262190612377e-03,1.609544105750160964e-02,7.707441881987085741e-02
6.810499653338576709e-02,2.156232902917407449e-02,2.246425225219709707e-02,1.444641233456682265e-02,1.108142790056206722e-02,1.708959632699258999e-03,2.395312687874830149e-02,5.245828108290893216e-02,2.571310618624676747e-02,6.074320493738587928e-02
1.071436116609621597e-01,3.344740517456245427e-02,2.796052528316254546e-02,1.323105205634435982e-02,1.277303540699157441e-02,3.404005245629625892e-03,5.429849056867994822e-02,7.844995538079903297e-02,3.144990398341891008e-02,5.793564477741064422e-02
9.872805525725415754e-02,3.372668414050365715e-02,2.601678901633050489e-02,1.224776226282468967e-02,1.344926497801985851e-02,4.542009912873130016e-03,6.556459077617246556e-02,6.450351362001445488e-02,2.952554217951576521e-02,5.876715896394926059e-02
7.165233512232414836e-02,2.365891703537961049e-02,1.921768851813645054e-02,1.165324569346708715e-02,1.237341530828961998e-02,5.136271621869046254e-03,6.972624786568858146e-02,2.911589310760227811e-02,2.251129812469822300e-02,5.137006837930858244e-02
6.789155124085965998e-02,1.372435136992962088e-02,1.412275476718434855e-02,1.097965124290761416e-02,1.036964553799791383e-02,5.598767951537336057e-03,8.589556308375610738e-02,5.983249291916861723e-03,1.705468761732899935e-02,3.833443375795085595e-02
1.003517281862352645e-01,1.243974446602492609e-02,1.360934639165421733e-02,1.015226071386730010e-02,9.326213669626855565e-03,6.481129406466851900e-03,1.049937963144478154e-01,2.094269560177453200e-03,1.608807274222695191e-02,2.598473836374982221e-02
1.485292192036834491e-01,1.753003141748066263e-02,1.387712878066487548e-02,9.382819486550290217e-03,9.510402289551375329e-03,7.683712581107367615e-03,1.003125766607494002e-01,1.697466838576735517e-03,1.595969391730145404e-02,1.496091663158902185e-02
1.870110639090623583e-01,2.157485495657435887e-02,1.067308301091482794e-02,8.708814327064572092e-03,9.754674771581730436e-03,8.874072074915799468e-03,6.881919504813287236e-02,3.138667857148760322e-03,1.372541244217160769e-02,1.007653485270674359e-02
2.040608168214010087e-01,2.226526496742781136e-02,5.251557031478952704e-03,8.032238478359749953e-03,9.730768363933104889e-03,1.023163802200852644e-02,3.364473660764837754e-02,2.050424163777632425e-02,1.219456733183878726e-02,2.093665279794178560e-02
1.993427907593493531e-01,2.231766580099962816e-02,1.993848985209634682e-03,7.334720056541709984e-03,9.863181563497226689e-03,1.166289273935611215e-02,6.268285791739976708e-03,5.218257224470668892e-02,1.456038933485862864e-02,4.497195896765605883e-02
1.820344984586498571e-01,2.318360302834011205e-02,2.883259437569182272e-03,6.662209138890517676e-03,9.885235640573253324e-03,1.226574805060002063e-02,2.140849402627936771e-02,7.911391780668398932e-02,1.940989513651518450e-02,6.619014822887235583e-02
1.686245111889371762e-01,2.390446864129780469e-02,6.260025987766630433e-03,6.024146747437323160e-03,9.272014282700269741e-03,1.163437450210769337e-02,4.631311922904252781e-02,9.295375091212174090e-02,2.409417050823473710e-02,7.460038253614481585e-02
1.666583905755903705e-01,2.392810150274584866e-02,9.147596010658952045e-03,5.399442030179159475e-03,8.296105251977749229e-03,1.057694158334902303e-02,5.011351082346957031e-02,9.904056014351937665e-02,2.833580877253949817e-02,7.435063543374656470e-02
1.618243238948160745e-01,2.332749666706061820e-02,9.682849202424369250e-03,4.783772749202896274e-03,7.524010574189223324e-03,9.867321465145488177e-03,3.108121573123687545e-02,9.533191619236228154e-02,3.206197587181947029e-02,7.295571386664174984e-02
1.346855366008081201e-01,2.128112844405690568e-02,8.221505979771216027e-03,4.187334759386077479e-03,6.934142022378237194e-03,9.365056413519538131e-03,1.073857675577545231e-02,7.379686494377157846e-02,3.352599037707760382e-02,7.134289069916176229e-02
8.720108260415591894e-02,1.667683307462036052e-02,6.456162006808750277e-03,3.612682353368900853e-03,6.201620200901869495e-03,8.718523543819800548e-03,1.655428878910680801e-03,4.049766500161274679e-02,3.174764560635461724e-02,6.480181065379138350e-02
3.698549313904923863e-02,9.927780687647189822e-03,5.432210522351779702e-03,3.055615438018952947e-03,5.398056255954943906e-03,8.023067083189887316e-03,7.808302522444163923e-03,1.429894297793432058e-02,2.829834258763375132e-02,5.173022989826670665e-02
6.889231482979797649e-03,3.284067018054428935e-03,4.725523596738381502e-03,2.515562397064730754e-03,4.840423654790321738e-03,7.463053049172067334e-03,2.710375703459039567e-02,5.573409934046551564e-03,2.521488470237739921e-02,3.926758484104937719e-02
4.106570404459392032e-02,6.062670531760665921e-04,3.433903163236706572e-03,1.995083150391491721e-03,4.364326400755685550e-03,6.889154265594148868e-03,4.220214815020215116e-02,9.082700680054336603e-03,2.280063028640192530e-02,3.476843138822663382e-02
5.467064941200113631e-02,1.040954645849042400e-03,1.583625886404338347e-03,1.495005842322231484e-03,3.425316284132767959e-03,6.153589489174247223e-03,3.665181785620894028e-02,1.816054539379511126e-02,2.030453880339603071e-02,3.440635852604681522e-02
4.473648709441955390e-02,4.395681407412502413e-04,2.052042009112103665e-04,1.015033785223317178e-03,2.129384302718478113e-03,5.542595037567959147e-03,1.938882790614101723e-02,3.346647348765000723e-02,1.754185218804507965e-02,2.945010185406872830e-02
2.768502533718754030e-02,1.631382914342587552e-03,1.285738359345188616e-04,5.560086091806316997e-04,1.242861013367458235e-03,5.263600541832139275e-03,1.195818066235929643e-02,5.176642838773383437e-02,1.506637215480893105e-02,2.022471588709703200e-02
1.362720968289459975e-02,4.018641318821291296e-03,1.312373827927180731e-04,1.186931514362362826e-04,8.645427049290637343e-04,4.682067099014711187e-03,1.793809814304144976e-02,5.811565019859873948e-02,1.310812291434594254e-02,1.390242617976952984e-02
5.018027895951749848e-03,5.239797225421137516e-03,6.423812888508957045e-04,2.973254192564872512e-04,3.547697353184591212e-04,3.095538568226454713e-03,2.595023390382965311e-02,4.174620161063866824e-02,1.094151110040701529e-02,1.179026687381612426e-02
2.049231305258794947e-02,6.339397963314571428e-03,1.502578197631617308e-03,6.910791675049072309e-04,3.151472897146765078e-04,1.252020823000695544e-03,3.382454425477577492e-02,1.154209311249519178e-02,7.872257321674635405e-03,6.149771091901667756e-03
1.897702622847658241e-03,1.064940999460104593e-02,2.163618365716094526e-03,1.059631714970169772e-03,6.974446025496118485e-04,6.680207703843270414e-04,4.496451596453798077e-02,1.577218532359644584e-02,4.640538692122466585e-03,1.154751810980106722e-02
5.486532425050686529e-02,1.694921002477885880e-02,2.578955919846664512e-03,1.403599321411132250e-03,1.056026814950069507e-03,1.344671614954322464e-03,4.915362613227898525e-02,3.415149661664743097e-02,2.729791523096577414e-03,3.984303668583094593e-02
1.043838569087607721e-01,1.915941347730251015e-02,2.987381422614300217e-03,1.727761675278042001e-03,1.886494845152679022e-03,1.772367039839121972e-03,3.573642783662167588e-02,4.436966788284478491e-02,2.262535339722759886e-03,6.410180527913121595e-02
1.035174486045787462e-01,1.409914086467423631e-02,3.416224076027958058e-03,2.029305499706168716e-03,2.792335840867595561e-03,1.206959000533331912e-03,1.815998034141324755e-02,4.161059041111676848e-02,1.825349811307705895e-03,6.881283935602963697e-02
5.785469631440606775e-02,4.730478774553783725e-03,3.759440979429852503e-03,2.296645743352005754e-03,3.015838970600486120e-03,3.391933205916409112e-04,1.545984515654409870e-02,2.131002553979123929e-02,3.345360967475117728e-04,5.369008668856574407e-02
2.363775010614450542e-03,4.388961857242633900e-03,4.018701246510812154e-03,2.534558788910356436e-03,2.606772987112915968e-03,1.964465311426194386e-04,1.887000967783912520e-02,6.808044523865198691e-03,2.033377785041245826e-03,3.177844067097933267e-02
3.620793455485424306e-02,1.007007428761847768e-02,4.249071593198222412e-03,2.767209821322431582e-03,2.302404326510467183e-03,5.719993578221109270e-04,7.843067047246512699e-03,2.497226524071889317e-02,4.540148928615044162e-03,1.452837694849086654e-02
4.783341727984190273e-02,9.973523998274327548e-03,4.432484347956775796e-03,2.984577396463643142e-03,2.500431329115632758e-03,1.065936865510513920e-03,1.034170156298479248e-02,2.893482829123676658e-02,6.543334069085382856e-03,7.264296971217148319e-03
3.482267077098475522e-02,4.182015627567019049e-03,4.548034401861302325e-03,3.134695743285268680e-03,2.907971600049222196e-03,1.601412830391954608e-03,8.791705335891691550e-03,3.196394147684641224e-02,7.579019419349613401e-03,1.433549346257077979e-02
1.119050589866560537e-02,3.004392437164977656e-03,4.660805145083005141e-03,3.237902642744155176e-03,3.159801209270071600e-03,2.042967838132413866e-03,1.433150201717975185e-02,4.532110894801279211e-02,7.577653284539927377e-03,3.561107897388937626e-02
4.853099233087999897e-03,6.129770552600747810e-03,4.791208188041748764e-03,3.406495766038453860e-03,3.272056883524833339e-03,2.419693735734123469e-03,2.818531171933636587e-02,6.507978051418851495e-02,7.159994773975074389e-03,5.930523453317145671e-02
9.412576030838714150e-03,3.981536645806281645e-03,4.804796821611427397e-03,3.601268475237562761e-03,3.398621691808183763e-03,2.790524428140878609e-03,1.251679496273608826e-02,8.030410522030988207e-02,7.185606677771062129e-03,7.017381032292525911e-02
2.330477339363031322e-02,1.018035451490505606e-03,4.677203767284907922e-03,3.580289154489710041e-03,3.543049618448860204e-03,3.138159390315169248e-03,1.617241916746710653e-02,8.426807420166974871e-02,7.836622704578292964e-03,6.465501208030861868e-02
6.937925619329618487e-02,2.292037390058058142e-03,4.751475120361305787e-03,3.413612524307841831e-03,3.633845006425702549e-03,3.430902719414579988e-03,3.509348607909638235e-02,7.534077120515239590e-02,8.592362498166344204e-03,5.006112888835619751e-02
1.334513390920391840e-01,6.745780653778896303e-03,5.337110709590071542e-03,3.664658580045286867e-03,3.661473595939726110e-03,3.673200266230422853e-03,4.670159341927076352e-02,5.657437224937245102e-02,9.080108090479689642e-03,3.373294255720843404e-02
1.693295965242353762e-01,8.150438868062862344e-03,6.091847697840700217e-03,4.454997019007048142e-03,3.665682596393463229e-03,3.877402044127855728e-03,5.963159973563254834e-02,3.756394092676777763e-02,9.413694635676135222e-03,2.148429849665474053e-02
1.536510672268011080e-01,3.641632086968871022e-03,6.258745171136300030e-03,4.917080270088002199e-03,3.672955751034929009e-03,4.039834538692674629e-03,6.463067126444209387e-02,2.774032272548429892e-02,9.762388994318336316e-03,1.858679828018284033e-02
1.109072103316898206e-01,2.541578171133289030e-03,5.676830104163971616e-03,4.419003494050448462e-03,3.659727905785366622e-03,4.153792407940385366e-03,5.651405566664999963e-02,2.441241849783629819e-02,1.008811719565790889e-02,2.226206590472679103e-02
7.383458001244411206e-02,5.306722306078335248e-03,5.144293421880406780e-03,3.597775470087211883e-03,3.576212291729775374e-03,4.220942810066245950e-03,5.747370172436632590e-02,1.564771831621768541e-02,1.031976061605738987e-02,2.215509277800708360e-02
4.698873914827346454e-02,4.624050444049013914e-03,5.300328525846791441e-03,3.313102078204200988e-03,3.453130147560484232e-03,4.245401473010062751e-03,8.785507249705967747e-02,3.606404728454648718e-03,1.048134285094501350e-02,1.703328972962295240e-02
2.126294433697249395e-02,3.411663838176604620e-03,5.579983032245490297e-03,3.448124927503709580e-03,3.404843718991750964e-03,4.228318319640963011e-03,1.279100030799284748e-01,2.786278351088906230e-02,1.061318289544474144e-02,1.932134618544179006e-02
2.713124876202257368e-03,2.964986956079503078e-03,5.155310033613727007e-03,3.465277254727264136e-03,3.389064991876184277e-03,4.170561261630349043e-03,1.393274346086376403e-01,5.190036331216942023e-02,1.071076545165850283e-02,3.421453548687476004e-02
2.127034863727912672e-02,2.632475605741953564e-03,4.349654964571211639e-03,3.287770034954572412e-03,3.166712688212095731e-03,4.075238973428875824e-03,1.188574547758142752e-01,7.218979282412635312e-02,1.076079214040427494e-02,4.801848531374491164e-02
3.774256195363680927e-02,1.969673701991582829e-03,4.001048963677667283e-03,3.107604723228060261e-03,2.815470123919431612e-03,3.946409500608192601e-03,9.973712957973801529e-02,8.025772747332396428e-02,1.077020433197927590e-02,4.763447173805759882e-02
5.175104297675383463e-02,1.271819120331797465e-03,4.105186782723469624e-03,2.985122081165407070e-03,2.898722402883111698e-03,3.787799008210551710e-03,9.875407738608882324e-02,7.045721654989442473e-02,1.074963710863595899e-02,3.925981708695318317e-02
5.276586290670200879e-02,7.190012288469231107e-04,4.122165826959990620e-03,2.921626023739832233e-03,3.529935594031235763e-03,3.603290024759014595e-03,9.395598619178784083e-02,5.404234671821487451e-02,1.069962311921652739e-02,3.661036549913346955e-02
3.534601370581182123e-02,1.706082264891761995e-04,3.946956917774473335e-03,2.859373476003551802e-03,3.846483430008904286e-03,3.397412416179246709e-03,6.484541614787989183e-02,5.147291580471378275e-02,1.061818513897322402e-02,3.929556981355571132e-02
1.088779832779249168e-02,4.102589466598224053e-04,3.801334019196944778e-03,2.608930465557685041e-03,3.236796013208930595e-03,3.174994484804523343e-03,2.632428542998131032e-02,6.839375800900661384e-02,1.050741958548761894e-02,3.449473688415836264e-02
4.209064226799752798e-03,9.448651050443910735e-04,3.699031337389506284e-03,2.249602999685257603e-03,2.331085233143675040e-03,2.940794242926864435e-03,5.526974351803213767e-03,8.797617591026307693e-02,1.037006847180576771e-02,1.734713410448920565e-02
5.190379420425899129e-03,1.511146181998678818e-03,3.551293130402468409e-03,2.321403690985547955e-03,1.948378846392172670e-03,2.699518681827009492e-03,3.210967441165229683e-03,8.945475462504558217e-02,1.020645585855929280e-02,7.957406430428677277e-04
3.510222189917320927e-03,2.165795350076825908e-03,3.435545893011437285e-03,2.943547360337675847e-03,1.986721730873283222e-03,2.455855399566104005e-03,3.047768042204183903e-03,7.029894876939760118e-02,1.001612905929956561e-02,7.415175240794139380e-03
2.006564473438857132e-02,2.649407802100326153e-03,3.361450629736442014e-03,3.258580093643293277e-03,1.996095859209569192e-03,2.214324431290509970e-03,2.323672449282259550e-02,4.869332190865749421e-02,9.799396865061595421e-03,4.393983108989932274e-03
4.221283218111319957e-02,2.857488165485704175e-03,3.102357673627714404e-03,2.631623300167721443e-03,1.869858287266014212e-03,1.979127164027635020e-03,3.855988939447718700e-02,4.426656327026701199e-02,9.556671299103234457e-03,2.497313107937609508e-03
5.640748635250019544e-02,3.405356937289953558e-03,2.702126173604680118e-03,1.696569273522575885e-03,1.608377821963235567e-03,1.754087676259226229e-03,2.784049526456454371e-02,5.639302586782234117e-02,9.287835925397084844e-03,6.010613732759071889e-03
4.746797822617112445e-02,4.747759310566055345e-03,2.713373091720688596e-03,1.322798289497854321e-03,1.319169120293387908e-03,1.542607830946549508e-03,1.041002933007878495e-03,6.491423172948440623e-02,8.992645439471999222e-03,1.090847198100885519e-02
2.154538998422276391e-02,5.875157787993433300e-03,3.271118477600273508e-03,1.390419385208838295e-03,1.453282664659675790e-03,1.347593219545247878e-03,1.155968293126025982e-02,5.483828027454154541e-02,8.671125160978752910e-03,1.457042983132487979e-02
1.699224739526335182e-03,5.413741834713782161e-03,3.515014254070836751e-03,1.337524588384610656e-03,2.113557463733174106e-03,1.171388620296461751e-03,2.462865476690560135e-03,3.446201111000898182e-02,8.323484669206123593e-03,1.909091798814472468e-02
4.748749986361586184e-03,4.283554459121419015e-03,2.800141428408015141e-03,1.095369832933869563e-03,2.481680006368562792e-03,1.015745474364945083e-03,4.769734991733419645e-03,2.256430764725444668e-02,7.950019994664343087e-03,2.777776151224329443e-02
1.573701506073357792e-02,5.275166715034345505e-03,1.752817402895181240e-03,9.069959400555273029e-04,1.928593348428518390e-03,8.818050399225019816e-04,5.532738019595524574e-03,2.350115311944142582e-02,7.551235193918793241e-03,4.362808563179017274e-02
4.398420094537979635e-02,8.861582295275413287e-03,1.251690146847694125e-03,8.125716022760005527e-04,1.067569551712156846e-03,7.700874890094334523e-04,1.880944676174932037e-02,2.499241275147124491e-02,7.127961788787677902e-03,6.348878715176198284e-02
7.560888541071941749e-02,1.150491527546219570e-02,1.200868237731636361e-03,7.006028985114969064e-04,7.622658869601951033e-04,6.804949708867184810e-04,1.326379876353633164e-02,1.725394064402616112e-02,6.681363363126273901e-03,6.960209257601931987e-02
8.823730479549135586e-02,1.017912318672262346e-02,1.028434889236850332e-03,5.512757100505357799e-04,8.993447423445748634e-04,6.123332698567883437e-04,1.353387160034492595e-02,3.493314429429641987e-03,6.212926076141864207e-03,4.339344087789610144e-02
7.544685705751724702e-02,6.634993669622417031e-03,6.161008464323376992e-04,4.168218576245764440e-04,9.172409724581069264e-04,5.643478126013404738e-04,4.473401362580069901e-02,8.546799284214156439e-03,5.724487872745738851e-03,4.438386732953225784e-03
4.755651527709083698e-02,4.615238603090592896e-03,2.299457990487416238e-04,3.075411272956321941e-04,7.423544166089070685e-04,5.347707622304305247e-04,6.088408200249501023e-02,1.622691557139389548e-02,5.218259023188736787e-03,3.842077454695851796e-02
2.163017298643993627e-02,4.786848441747886332e-03,2.463112919524684200e-05,1.995345666820927074e-04,6.145972915819531736e-04,5.213796292909192703e-04,5.560398565012530242e-02,2.017064214060201172e-02,4.696808277212303692e-03,4.277271459225589351e-02
1.209640846831251497e-02,5.156452532512321302e-03,1.483517870933344276e-04,8.772653992385220272e-05,5.724605455211635111e-04,5.215669796173772344e-04,3.596271774496428292e-02,1.981874218721174988e-02,4.163036495454042543e-03,3.836785665869506950e-02
1.861622329507892082e-02,4.717593658046533023e-03,5.490890465884220315e-04,1.709449151062776692e-05,5.048735048792814782e-04,5.324186981763435588e-04,9.935259387027535125e-03,1.618549450789566468e-02,3.620150479576247568e-03,4.522997179340804141e-02
2.487847057480833610e-02,4.109765991756789139e-03,1.053705807481770083e-03,1.121887729729656273e-04,3.947070637254784537e-04,5.507983214055355622e-04,1.716139941554882878e-02,1.408246825366989835e-02,3.071627736371911749e-03,5.359668274527020632e-02
1.796210912217027778e-02,3.794587298109362156e-03,1.085082013268177806e-03,2.017575640508956171e-04,2.906627110655498280e-04,5.734356822568419110e-04,3.538803009103401453e-02,1.679992703551563132e-02,2.521167303475130815e-03,4.577953499975021684e-02
1.434763669541519373e-03,3.499198187555157408e-03,5.423080806621771591e-04,2.877473038160507490e-04,1.929811018084538667e-04,5.970178999946723544e-04,3.259022638033966940e-02,2.307309034820003574e-02,1.972632461372893654e-03,2.391524949668090427e-02
1.632492857183672277e-02,3.016281333571979931e-03,2.996796925108150922e-04,3.703235032678370568e-04,8.270251034057316810e-05,6.182803031106658218e-04,6.713604088773451883e-03,3.031123504057191276e-02,1.429989538120573708e-03,1.503396771527127284e-03
3.258105086661147037e-02,2.481854633766783329e-03,9.806314644303772230e-04,4.478647618919434897e-04,2.407233703347782302e-05,6.340949635780740792e-04,2.861587002771684429e-02,3.434511736833867346e-02,8.972422440903207903e-04,1.373172623625198638e-02
4.234874583244928326e-02,2.006418358831107019e-03,1.938085494522973334e-03,5.164659321558821284e-04,1.266334622395570882e-04,6.415547611207527041e-04,5.243384963362481693e-02,2.934550508780951056e-02,3.783618787961812429e-04,1.732906755321019648e-02
3.731336645283909320e-02,1.539924392265027125e-03,2.308733703673382029e-03,5.791294328423874250e-04,2.674580116151469814e-04,6.380509328397175042e-04,5.603324527594857191e-02,1.747313011774553199e-02,1.227838579478679210e-04,7.182782873345151808e-03
2.042723681262971491e-02,1.042449000478420018e-03,2.225561851321439157e-03,6.469164357667288919e-04,4.290449297793435309e-04,6.213421943301823593e-04,5.359864587531718710e-02,1.214846695666410223e-02,6.025010291666015039e-04,6.729269530466704813e-03
4.784554188802240225e-03,5.492417798040216030e-04,2.243481519151359349e-03,7.150196921403646679e-04,5.136508418731275697e-04,5.896138891041638897e-04,6.048386789565147331e-02,2.010548252534529942e-02,1.057337280508851380e-03,1.056126907220597197e-02
6.005200473024565298e-03,9.134619480657122682e-05,2.409392757275311252e-03,7.596738660555197144e-04,5.618192329093378351e-04,5.415258184484665008e-04,6.504515360804336011e-02,2.920174634152586032e-02,1.484145911990030669e-03,8.227308573443456799e-03
1.804287004090897664e-02,3.360836445627914202e-04,2.493016995260370888e-03,7.911762097077275173e-04,7.846882665359602603e-04,4.762473743229624469e-04,4.398600836100105549e-02,2.676769013197100727e-02,1.880144387072080810e-03,1.453878810139656863e-02
2.832145695318502923e-02,7.372409927501736345e-04,2.501054351318156808e-03,8.618749047173322958e-04,1.102473991573619519e-03,3.934791062066949328e-04,2.663242717153523759e-03,1.809451009890085740e-02,2.242965668171004179e-03,2.705523910755954289e-02
2.613663362848838573e-02,1.100603565182897139e-03,2.524479340631248080e-03,9.521728212405059823e-04,1.014142512207996715e-03,2.934608665988204263e-04,2.547017009843814683e-02,1.342762435360132268e-02,2.570701185560058527e-03,2.804814468118429702e-02
1.320612070379382878e-02,1.416053285175574361e-03,2.489080105514836737e-03,9.503180076567731283e-04,4.203736398840835810e-04,1.769665930183691917e-04,2.167996383015506276e-02,1.099752607005381050e-02,2.861934429151338603e-03,1.486311995634938439e-02
5.325979522778921497e-03,1.682301142872358020e-03,2.389578933958683236e-03,8.957419000023432963e-04,5.451271557065451783e-05,4.528466337715961648e-05,3.544418623751990731e-03,5.901579147343906720e-03,3.115764274408920100e-03,5.565767883562347529e-03
1.218313996505174766e-02,1.899089720872347781e-03,2.427058994040456451e-03,1.031472023971005160e-03,4.944228804849863570e-04,9.981600865522187861e-05,1.492633119061582796e-03,1.288830004207350104e-03,3.331817419841627981e-03,1.130781940477843493e-02
2.584588329375715407e-02,2.063711862941786795e-03,2.548474580416044879e-03,1.289489845992582628e-03,1.388794380582821387e-03,2.561305015065383126e-04,1.009620154303690794e-02,2.472320750219025431e-04,3.510249635809217783e-03,2.107318213193551046e-02
3.098412973787053118e-02,2.174670347793386180e-03,2.272042181870331887e-03,1.106758561903440231e-03,2.011743734229741540e-03,4.210709370215433159e-04,1.868560026108092437e-02,1.698132077643825164e-04,3.651735794843718325e-03,1.826183820119731474e-02
2.052353486920874617e-02,2.233363160971018127e-03,1.493966947511572458e-03,3.602837951989831377e-04,1.839332824366648024e-03,5.917324634688004258e-04,8.197525376348411413e-03,1.027274838221545888e-04,3.757448902962949241e-03,2.341231414697711542e-04
7.221164461312878056e-04,2.242360160349374069e-03,9.285375300439473222e-04,8.011413997973976676e-05,8.095422996697927871e-04,7.649726053806760835e-04,1.653089947819556815e-02,6.763609827243825812e-03,3.829028623297777920e-03,2.269892544040060314e-02
1.461092225177162973e-02,2.204522768859861186e-03,1.159372941479744085e-03,4.238285506357975462e-04,2.312941173515826868e-04,9.374896628909004919e-04,3.624216583891119031e-02,1.943199622546256528e-02,3.868540053413505996e-03,4.062207507400462936e-02
1.591953238587361791e-02,2.123692071961468409e-03,1.886563020058789437e-03,1.233754230549410393e-03,1.505438574248790069e-04,1.105893319260575379e-03,3.700047279378859688e-02,2.837358833912300565e-02,3.878423749841707589e-03,5.299916635955038285e-02
7.541236741531395955e-03,2.004966157857077189e-03,2.395517477573339601e-03,1.479741652102401937e-03,9.393052071787695622e-04,1.266791829862067920e-03,2.559778416565837433e-02,2.798968411768335343e-02,3.861438191230388752e-03,6.490575865971437430e-02
2.300919734139914453e-03,1.854206498393538849e-03,2.067656280487045230e-03,1.284687371446883086e-03,1.924072440058133575e-03,1.416904677995662731e-03,2.189676227556237864e-02,2.378506468902412407e-02,3.820596056941568102e-03,7.370447970428968543e-02
5.100390305263942381e-03,1.677700095202418499e-03,8.220484723855604921e-04,1.211532932323695000e-03,2.251576057502508756e-03,1.553142338631935838e-03,2.976835337489473071e-02,2.064385366611323422e-02,3.759095859635942782e-03,6.526466243182657556e-02
9.408742932975257267e-03,1.482162410266705567e-03,2.815048010160663226e-04,1.328176440372712827e-03,1.924906231475832959e-03,1.672626097586917470e-03,2.710058949180572940e-02,1.425133444713391415e-02,3.680250564996811850e-03,3.244490728081980691e-02
1.080164242969058885e-02,1.274654955482538207e-03,4.481701677663894445e-05,1.391446603600479236e-03,8.799322505550117874e-04,1.772765444993041912e-03,9.560064067738022718e-04,8.867369461258375624e-04,3.587414864972130954e-03,8.773709965677384606e-03
1.279970254359987999e-02,1.062331628037437503e-03,9.300499777000209448e-04,1.361803665066902563e-03,2.862300136288177489e-04,1.851447778182544650e-03,3.462548754667992001e-02,1.458538112497646463e-02,3.483912818637391849e-03,3.505585456388953663e-02
1.681504874738925376e-02,8.522184328976264555e-04,1.123410595399247300e-03,1.350923883874892298e-03,3.417642405192640540e-04,1.907085212114158473e-03,4.702267675046870044e-02,2.752493204890718928e-02,3.372967623778226707e-03,4.193700445896336032e-02
1.792031285143084324e-02,6.510755597182256351e-04,6.784628275680595552e-04,1.378240142141082302e-03,7.763064518348838971e-04,1.938389879617081861e-03,4.228712062175671305e-02,3.957679799133875798e-02,3.257635171745023196e-03,4.019971645320367243e-02
1.478647304390252534e-02,4.652527541561757513e-04,8.688461017316258857e-04,1.391163123488876191e-03,1.691329692751335993e-03,1.944415027260957066e-03,4.132232313258136364e-02,5.018784005576426566e-02,3.140742791879011769e-03,3.383987803222925084e-02
1.409478265589366071e-02,3.005199060455394987e-04,1.675294150313121240e-03,1.379347694853004947e-03,1.630828639162984223e-03,1.925147067247635511e-03,4.420904573792183712e-02,5.261437551238148935e-02,3.024834556211046521e-03,1.886874382245553455e-02
2.026672286541164256e-02,1.619199055956009560e-04,2.071221544759053665e-03,1.366700018354787514e-03,1.220732124190487084e-03,1.881505900366415001e-03,3.125736171411923336e-02,4.283896829208824752e-02,2.912124656071282246e-03,1.285482881044619323e-03
2.793737058161906497e-02,5.365787302126436183e-05,1.902672009427253466e-03,1.357796086115310285e-03,1.106693627803460433e-03,1.814113014906147941e-03,4.257570310847591175e-03,2.553365654548189062e-02,2.804459950139033455e-03,1.673982220454922620e-02
2.932187097749188592e-02,2.099065780117331413e-05,1.802073039348222119e-03,1.340984994012495071e-03,1.146965421864360075e-03,1.723250311231449639e-03,3.995702943841721727e-02,9.664911449704972901e-03,2.703291884673600896e-03,2.523429547986170973e-02
2.448470518762094553e-02,5.975571132200383504e-05,1.959961454475896234e-03,1.313533767612706880e-03,1.054883559338510354e-03,1.611441056784163441e-03,4.624832921778469080e-02,9.916387202070012230e-04,2.609658175698302204e-03,3.007421882244127112e-02
1.993232274436069693e-02,6.142199058589779392e-05,2.081661246890380811e-03,1.280498914846936627e-03,8.863513655474349441e-04,1.483517124851125050e-03,2.306055253050051657e-02,2.366015596503503668e-03,2.524175836191739578e-03,2.787175436168858739e-02
1.969020357746388561e-02,2.584755246807151968e-05,2.072794918155216118e-03,1.242954957878739542e-03,7.797053578220338333e-04,1.340983835848815094e-03,1.980866470769532695e-03,7.344557811066448200e-03,2.447045982800451387e-03,1.497544550084727033e-02
2.211945476614117154e-02,4.604392375001203604e-05,2.101194651443664008e-03,1.198393754865906833e-03,7.218372907467954756e-04,1.181570625283518382e-03,2.835830606748203017e-03,1.703971652243206278e-02,2.378067476814561560e-03,1.086889116169150425e-03
2.381940612349494474e-02,1.522956618804224773e-04,2.194970924289905111e-03,1.146254107545745726e-03,6.461057318695505401e-04,1.011065481856024927e-03,7.459515054409527127e-03,2.529929272221307160e-02,2.316658011895190647e-03,1.974602337342062051e-03
2.213749644570354308e-02,2.899761481492520382e-04,2.193129108294366789e-03,1.087812706719565098e-03,5.408391683952976960e-04,8.443698968293697526e-04,6.819638911161603895e-03,2.250326359068331727e-02,2.261887727233993697e-03,3.086515844597228705e-04
1.581318214419013754e-02,4.552623348910476249e-04,2.103900073737635483e-03,1.023601136878754059e-03,4.467063465502624470e-04,6.800192114361570169e-04,2.893904247231449123e-02,7.042608985162664668e-03,2.212526508516843467e-03,5.040507845197587759e-03
7.832193216675243166e-03,6.435445543904101152e-04,2.170143823979622626e-03,9.534297940913308810e-04,4.117001154088657106e-04,4.970174060398561315e-04,3.091196262894767982e-02,1.039003474005538614e-02,2.167091521938607247e-03,1.547268525728579154e-02
4.945782226717642185e-03,8.495501235766216150e-04,2.342959851516910295e-03,8.775986564444086466e-04,4.025271543126506739e-04,3.089151772743673244e-04,8.328859639118479583e-03,1.600187308727581831e-02,2.123888873180180929e-03,1.644180064570366015e-02
1.011506314325688778e-02,1.067482905493310780e-03,2.097516783624435964e-03,7.968982709486504374e-04,3.096225178218166871e-04,1.717298058463695280e-04,1.441515510113547741e-02,6.582182540547414779e-03,2.081074141213651914e-03,2.745386309522746676e-03
1.818248258628662323e-02,1.291175428474851828e-03,1.284534521251943888e-03,7.120365063448164285e-04,1.789233151708891642e-04,6.840194020210968711e-05,1.363244515796050056e-02,8.498645455188261200e-03,2.036741200181067801e-03,1.686990513264599242e-02
2.205234060115186107e-02,1.514249528028293245e-03,6.670780233716247162e-04,6.236210403958087527e-04,2.521179974133040203e-04,1.115081548261456280e-04,8.388922704428111374e-03,1.925771049621369940e-02,1.988982098261087884e-03,3.204629975639261552e-02
2.142593117800640004e-02,1.730281417735780609e-03,9.251877138908590290e-04,5.324138779717452457e-04,4.572523070174587707e-04,3.258275147191852386e-04,2.649599624712958498e-02,2.484605894678196952e-02,1.935891550543854776e-03,3.801526670371235123e-02
2.278013967951579913e-02,1.932967170485002696e-03,1.661212252601433712e-03,4.393255129083662369e-04,2.310095142042124501e-04,3.272845664902368328e-04,1.981939402136585412e-02,2.968557528314645297e-02,1.875632629321186432e-03,3.408347522075824698e-02
2.885905895832360443e-02,2.116284542679746153e-03,1.937361202496453057e-03,3.452753541336211129e-04,5.484910327674916456e-04,1.837680986668200549e-04,4.483320139010917200e-03,3.506078453053244198e-02,1.806618234639479140e-03,2.290915481006657040e-02
3.084369015692112193e-02,2.274647107537464477e-03,1.316919063931842621e-03,2.511696289218067575e-04,1.012837138247772760e-03,4.627185738881551885e-04,1.986760167458119161e-02,3.848022547715690411e-02,1.727556000869115210e-03,1.064702099209940793e-02
1.831890999073676474e-02,2.403046899756108423e-03,2.422287102313973068e-04,1.579410095358334785e-04,5.268532238160582217e-04,1.284272588049681146e-03,1.412962702791823073e-02,3.844649938209912521e-02,1.637228956124891621e-03,3.942989560801658626e-03
4.088103423439367820e-03,2.497182111941059421e-03,3.476791440096779241e-04,6.653219927914589822e-05,2.703508093463283853e-04,1.767351373783300440e-03,4.177363308003290317e-03,3.663984937984521989e-02,1.534543356833105790e-03,6.346647740874467210e-03
2.070394929854330740e-02,2.553566756244312133e-03,5.353594498905679504e-05,2.215123863407589071e-05,5.106510600246376994e-04,1.279168277403158619e-03,9.844165316701434382e-03,3.527637688775421554e-02,1.419126560716234449e-03,1.609736602424666901e-02
2.551336323637647813e-02,2.569619646668139593e-03,4.529004320814523812e-04,1.072626867752773851e-04,3.149378144130049679e-04,4.833651127706575356e-04,2.423230140432535915e-02,3.210871689982892213e-02,1.291344273240639358e-03,2.451665317493371271e-02
2.697120627364463924e-02,2.543730585017974725e-03,4.151889959646352371e-04,1.880213561139220909e-04,2.390100192742075592e-04,2.413233505791158610e-04,2.514044894177742268e-02,2.027208482878776682e-02,1.151101082841855198e-03,1.962956384242446617e-02
3.128466095608687519e-02,2.475302213247630462e-03,2.490898461693914182e-05,2.637299191445362885e-04,3.511292866846876456e-04,3.797361041375991899e-04,1.033539907046194042e-02,2.523940354507825130e-03,9.978205674465419686e-04,2.557274764193332751e-03
3.328772693319353299e-02,2.364766599185017491e-03,3.478793766778277038e-04,3.337975804899943324e-04,4.196452463279661199e-04,3.575890726207123487e-04,3.220831639502851236e-03,2.642228219663141434e-02,8.330248751888449238e-04,3.088441804767944401e-02
2.736732644983458015e-02,2.213576245575146241e-03,4.817028098033312479e-04,3.977557767001550001e-04,4.013614093423872246e-04,2.214032272561897857e-04,1.997375073516210672e-02,3.732554703800841645e-02,6.604329560759814814e-04,4.782556956743193310e-02
1.737089934698140409e-02,2.024169844953748604e-03,6.516502684441751294e-04,4.552681496318472152e-04,3.805539229335433925e-04,1.777278354341927193e-04,4.488977618105173539e-02,3.306846495969112398e-02,4.804129344172369939e-04,4.540899308862584444e-02
9.897020903714772583e-03,1.799913725263169824e-03,9.106088091935591981e-04,5.061401781108204470e-04,3.813839500462194330e-04,2.594823365230592089e-05,4.931512316642078925e-02,2.608874939117241526e-02,2.895579826184917476e-04,2.906484756170389996e-02
4.084559286063898023e-03,1.545020525089191125e-03,1.133698223417910081e-03,5.503272034317403978e-04,4.080136747805318369e-04,2.746729600706680416e-04,3.017013611590971950e-02,2.679662447007783235e-02,9.242682441801361882e-05,7.484466598757677502e-03
4.601720944323857941e-03,1.264447190412131949e-03,1.253806916141494369e-03,5.879378413521251954e-04,4.402151504306660648e-04,1.776361365265204540e-04,1.435468292668119934e-02,2.990008733395970592e-02,9.736417771322294695e-05,1.498974265405207673e-02
1.364624070812977923e-02,9.637748848646938114e-04,1.359962442145116459e-03,6.192329704531428095e-04,3.796548803681373797e-04,4.954127561647402858e-04,2.018871007518930477e-02,2.415580112232949828e-02,2.823267583718706798e-04,3.519458443085352745e-02
1.569234007530577804e-02,6.490738397412316400e-04,1.561510502765446791e-03,6.446214600168526879e-04,2.484798498717440151e-04,8.875722827550383423e-04,3.151819886979419921e-02,1.074197258706136027e-02,4.842484634761185978e-04,4.735317103154582097e-02
1.087427970668886079e-02,3.267565273632723412e-04,1.744284927600728025e-03,6.646524438253051262e-04,2.995657093046741413e-04,3.389986265240964064e-04,2.364729984668573898e-02,2.084020766393226455e-03,6.906578939917340596e-04,4.669929333730555437e-02
6.450720199488429313e-03,3.422813859260687153e-06,1.680590130527379955e-03,6.800036097755788678e-04,5.098239508097384114e-04,5.145035774513423074e-04,3.783347198719700039e-04,4.970504602981648708e-03,8.468795669049857715e-04,3.437813268391077398e-02
2.986253769336562683e-03,3.142990710141440897e-04,1.561142012765909378e-03,6.914657461649407555e-04,2.777384086782625936e-04,7.896962092108539321e-04,1.466403222416547483e-02,1.419252640586338501e-02,9.703481316499329261e-04,1.707834620640762135e-02
7.399667972794672470e-03,6.199118229250379086e-04,1.912895081336119657e-03,6.999240925767315344e-04,6.199647808242137468e-04,6.054724364131444658e-04,1.571214935020465164e-02,2.192420134473139007e-02,1.170876295227252966e-03,3.240779180260085560e-03
2.565488526016790685e-02,9.072046973047666590e-04,2.612626212970223759e-03,7.063368228353073854e-04,1.223693284202542883e-03,5.289797714252429716e-04,2.070084597582152325e-02,2.505509779738487527e-02,1.407239268038963436e-03,1.504460245040659637e-03
3.995395535097438777e-02,1.170401682041062683e-03,2.859648356992593697e-03,7.117109711074786661e-04,6.716762237771479191e-04,6.287754816501228174e-04,3.723527964703379073e-02,2.236612693960967138e-02,1.434798849660588781e-03,1.736531614697859596e-03
4.023881425130600153e-02,1.404298601279938170e-03,2.583706190341876225e-03,7.170763349559319995e-04,2.199214009420235162e-04,6.592049757434733639e-04,4.475043486219539707e-02,1.158636985564140409e-02,1.320239940489980560e-03,6.389010326789925504e-03
2.952394831239688044e-02,1.604385830509766917e-03,2.549360983881794260e-03,7.234580048285644801e-04,5.888701197610413666e-05,5.806242867016417732e-04,2.442111238790940081e-02,6.810147122604844581e-03,1.625575567020836731e-03,8.472055741180525845e-03
1.657974568584713246e-02,1.766953670826840401e-03,2.758201333582595630e-03,7.318481545129382551e-04,9.111474568392428225e-04,5.068550170774063952e-04,6.990362137345277477e-03,2.570924891492877215e-02,2.473081308130826647e-03,1.155261479510706450e-02
5.551560864110639468e-03,1.889177868895105519e-03,2.452287882913691854e-03,7.431777418173413086e-04,1.324098925116107533e-03,4.591109139958202590e-04,1.382679539998591875e-02,3.495273764900762997e-02,2.992535649696973898e-03,1.867629236256678968e-02
3.516155683997926849e-03,1.969183267499022283e-03,1.711887199472568281e-03,7.582888234312193431e-04,1.034915139279973806e-03,3.862020723348713689e-04,1.119228459583610294e-02,2.973884000709289821e-02,2.545610217800206923e-03,2.250219534388277209e-02
1.059683730722534543e-02,2.006084117241283080e-03,1.341726429144864076e-03,7.779082030320401886e-04,1.046444239720059014e-03,2.799618620362223642e-04,3.901722125931147978e-02,1.506766107764200349e-02,1.770933862670142061e-03,1.425863640373110051e-02
1.522081135035246655e-02,2.000000159246076003e-03,1.462437156786274743e-03,8.026231010042420011e-04,1.396932696753724846e-03,1.671969113882003854e-04,4.777180831224649843e-02,1.913399449996660683e-03,1.539019066277369421e-03,1.374191817918782917e-03
1.616565974705080552e-02,1.952048187306001503e-03,1.554565071456966803e-03,8.328595001372489197e-04,1.211649428403335348e-03,5.546824591164784771e-05,4.907334316090503079e-02,1.535274897889425455e-03,1.727862499824076806e-03,2.533588899651290126e-04
1.155212395525051158e-02,1.864309400962779013e-03,1.446355328057372363e-03,8.688637863719397792e-04,5.442236833409485339e-04,6.389143111182405744e-05,5.899578352275029747e-02,3.617416210395292802e-03,1.775696043777496387e-03,9.651044843322324415e-03
2.536504761127968133e-03,1.739773453711397676e-03,1.361139069372925515e-03,9.106882351554768974e-04,2.478248560310642888e-04,1.904494966204840268e-04,6.702592223127601390e-02,9.651277863267089530e-03,1.616044587759213553e-03,1.063719978036951723e-02
5.703428116497688202e-03,1.582260668357365592e-03,1.381253318994950068e-03,9.581807951852987833e-04,4.526063486656318850e-04,3.158794955130025668e-04,5.336612136281846525e-02,1.207676120769464109e-02,1.493714329724250660e-03,2.710213464306136452e-03
1.058880516408376715e-02,1.396324420697199085e-03,1.411372986469200961e-03,1.010979536625308817e-03,6.091673171363320375e-04,4.359426991915457878e-04,2.256791462192766703e-02,1.241251230538978345e-02,1.450050892222441365e-03,1.443576274290285510e-02
1.559343982492298643e-02,1.187136170310887232e-03,1.432892075281090886e-03,1.068512056676334610e-03,5.295583099348472782e-04,5.501782299952144052e-04,9.691982658440044703e-04,9.777488313197699524e-03,1.375311315285792854e-03,1.457010646845190334e-02
2.280593817377545712e-02,9.603560318701741347e-04,1.483618114485310037e-03,1.129999995595823903e-03,4.492459819854102763e-04,6.563962391878191364e-04,3.615550743519788199e-03,3.932993107949069034e-04,1.252077250224867613e-03,1.259820588863884427e-02
2.750062182096540964e-02,7.219921220878670193e-04,1.532649051888661847e-03,1.194468625367620064e-03,4.674692483005270368e-04,7.508591829054827400e-04,1.580797353843392539e-02,1.458815711440748265e-02,1.134986324146935576e-03,1.615230817314253220e-02
2.470399492394639851e-02,4.782521781712833651e-04,1.577499581982093595e-03,1.260761396297681953e-03,4.747505218927151535e-04,8.309596901128137210e-04,1.247967369348321545e-02,2.014544695487156811e-02,1.036418873260841998e-03,2.027733232122724480e-02
1.589156638374221442e-02,2.353911173499360259e-04,1.718483546158379189e-03,1.327559345342763358e-03,4.150019292103510993e-04,8.952567764704800167e-04,8.639928230062710046e-03,1.263478737386573847e-02,9.344455789557690704e-04,2.433389666682412786e-02
6.128205664943082651e-03,4.417100858323424247e-07,1.923946685703588908e-03,1.393405043239812242e-03,3.436430639822218944e-04,9.422998943847731229e-04,2.306131583063588536e-02,3.106489014436323269e-03,8.263661512116466474e-04,3.500816260407588199e-02
6.406003590151186991e-04,2.233518313676331258e-04,1.953560478900277092e-03,1.456730326445925894e-03,3.078063255800658781e-04,9.706623870742681027e-04,1.147299742150898090e-02,1.795608077167122922e-03,7.255669483050284415e-04,4.733340691646038129e-02
2.659855327170969602e-03,4.278418840658184210e-04,1.868716602701168353e-03,1.515887161937968077e-03,2.757045540937102471e-04,9.795430367590934190e-04,1.480851425729930691e-02,5.270499813523247569e-03,6.363418094619342335e-04,4.690067971133779490e-02
9.777774186369608041e-04,6.089433202969075139e-04,2.225888286894410657e-03,1.569181569438869110e-03,1.859189506187845678e-04,9.687927947148527400e-04,2.729393673929015468e-02,5.517748969043111650e-03,5.549914198150746438e-04,3.424657285658219696e-02
1.076940162456289929e-03,7.623344057277043999e-04,3.143695941869010906e-03,1.614910010257393893e-03,7.029444080016745977e-05,9.386522196177376218e-04,1.185059251549906018e-02,2.159120357552282970e-03,4.815714529161971963e-04,2.444574902305259034e-02
1.137422146628914435e-03,8.844416874844245567e-04,3.750173997753437471e-03,1.651396137798379982e-03,4.738562389226142889e-05,8.897378804745153819e-04,1.818714461336889618e-02,4.473112729733537602e-04,4.194767473797983556e-04,2.273641348330910847e-02
1.098310394670124618e-04,9.725225238570286892e-04,3.406556839796632662e-03,1.677026647080565210e-03,7.456691014325746256e-05,8.231506179448695682e-04,3.590916583834426884e-02,4.092062245363564145e-03,3.699025005249193866e-04,2.319045645248913462e-02
3.873912913313659915e-04,1.024726745269958919e-03,2.743312094968951460e-03,1.690288054532680532e-03,9.196531454364703336e-05,7.404524974193129380e-04,2.833184194245122467e-02,1.217696888635263694e-02,3.319502409621665254e-04,2.817145663744571871e-02
1.099207688421525997e-03,1.040136037165234530e-03,2.614584111436126911e-03,1.689804422305123642e-03,3.803263504902331944e-04,6.435696975796907117e-04,1.207022213110040335e-02,1.761613477491486696e-02,3.052133636018348182e-04,4.432162308738218232e-02
2.150543477350792126e-03,1.018780187515768050e-03,2.897736979265958402e-03,1.674369354038103292e-03,2.248097010736074743e-04,5.347417732198829054e-04,1.366161768512523696e-02,1.080430384866185381e-02,2.897638322587259762e-04,6.168668782981551885e-02
2.730481050774831919e-04,9.616299135920981095e-04,3.049092286023866259e-03,1.642969331381703745e-03,4.978834392903164338e-04,4.164934986453863058e-04,3.269634683707605544e-02,7.258930883752523662e-03,2.849605970246137294e-04,6.071129825734051383e-02
3.375613282610619766e-03,8.705665617694883758e-04,2.986362099234347086e-03,1.594809945371527789e-03,9.185291504169854678e-04,2.915744495491714452e-04,4.043284264355954949e-02,1.904592580565389257e-02,2.894699832125013136e-04,4.026696341709181531e-02
5.345066961335131171e-03,7.483295407498175879e-04,2.896868830668927232e-03,1.529349136060600446e-03,4.002871933355054671e-04,1.628788963814687611e-04,2.204235076713577032e-02,9.418640253120174818e-03,3.018596787619349207e-04,2.008436422833523305e-02
4.631655212573004485e-03,5.984428852562221962e-04,2.836376061749239230e-03,1.446310664127139047e-03,4.174868466260844586e-04,3.337414962411477037e-05,1.020990408239441215e-03,1.229543228330846547e-02,3.206478370797550886e-04,1.448655787859776979e-02
3.136114791147075111e-03,4.251228528231432678e-04,2.801814817021058574e-03,1.345666421589979860e-03,6.645988021132917707e-04,9.396573148828322032e-05,5.593022017967201089e-03,2.391379821618781418e-02,3.440948885249702632e-04,1.795957659065736123e-02
2.627026250666472575e-03,2.331689262014692674e-04,2.732676286390698771e-03,1.227642911750978028e-03,4.638889171356161238e-04,2.162315393020154772e-04,2.664736931184542509e-02,2.091654929938042626e-02,3.702432862759759327e-04,1.801377265924015633e-02
3.704333063407696386e-03,2.784099169303302175e-05,2.438329763865086566e-03,1.092776515059727021e-03,3.783234915343269833e-04,3.306519453859990882e-04,3.302648885476182350e-02,1.703262024212284440e-02,3.970666001596776613e-04,1.127109517833815855e-02
5.841319677307500215e-03,1.852742371706725074e-04,1.995861242760589658e-03,9.418992963284446946e-04,4.760368650669181034e-04,4.346603837210032302e-04,1.946731869352407579e-02,1.819136115463568237e-02,4.225313519700654762e-04,4.706923849960956661e-03
6.942327409424070908e-03,4.004042346146980953e-04,1.942254557933417161e-03,7.759994353800031899e-04,5.143681285682794686e-04,5.259550884700560846e-04,9.121756871100644704e-03,1.766624552485783484e-02,4.446511886010869052e-04,6.856617726368759158e-03
5.408451287579877330e-03,6.117355740359939472e-04,2.398420811988829972e-03,5.962075651701431809e-04,4.547214910631735760e-04,6.025535571911481763e-04,9.943648367020913037e-03,1.494333006279825737e-02,4.615320624043183243e-04,1.772061702208885606e-02
3.297786852696113838e-03,8.135591055020598280e-04,2.513010299196807070e-03,4.040356917380739021e-04,4.100972507365617764e-04,6.628397322153724552e-04,3.119359734356542957e-03,1.750755913075414949e-02,4.713261334701393393e-04,2.662021651928094673e-02
4.504258811713389779e-03,1.000411904658716740e-03,1.649833765037990929e-03,2.013365222207370430e-04,4.010204205455869943e-04,7.056014976584741452e-04,1.763603281931622538e-02,2.318526950351823199e-02,4.722883504333911966e-04,2.361942247458154523e-02
9.380587318245096201e-03,1.167212615761228835e-03,4.343378219300090518e-04,1.029959348212039928e-05,3.757260905540549777e-04,7.300577827085421787e-04,2.778018700869799504e-02,1.892206056904907618e-02,4.630719104347830227e-04,1.056633909521127040e-02
1.390296332466444892e-02,1.309386722022506727e-03,2.546029789608587066e-04,2.295789221917738212e-04,3.257351569341702057e-04,7.358752502445145473e-04,8.193802134867870374e-03,3.491833093039688109e-04,4.427553124587557264e-04,3.615542953931968808e-03
1.440952063206253457e-02,1.422978486013249484e-03,5.096111535724728641e-04,4.543339332058584160e-04,2.778898339634503487e-04,7.231741340568657991e-04,2.256357632690394327e-02,1.935334769249310791e-02,4.103114363528369019e-04,1.356733520988874508e-02
1.055276210013186659e-02,1.504747214930154692e-03,9.013641937383423024e-04,6.815446716491921743e-04,2.378088075412205225e-04,6.925228464356848832e-04,3.066536048300569015e-02,2.396129022431755032e-02,3.646352804675273302e-04,1.955306271083629907e-02
3.493949458146052879e-03,1.552246031423469477e-03,1.544774673075167493e-03,9.099694498805850976e-04,1.927074738111047138e-04,6.449215669588344952e-04,1.166278519677579721e-02,1.142839562337435826e-02,3.057676517332391284e-04,2.343096430785145817e-02
5.801314460923328274e-03,1.563880555879662310e-03,2.165822015659520094e-03,1.140300718508475497e-03,1.427475317968015080e-04,5.817753948300380005e-04,7.044394571322202050e-03,6.593729708836783970e-03,2.349243066654168992e-04,2.443005809200312489e-02
1.558338076062761902e-02,1.538945102465656082e-03,2.610550116018485727e-03,1.369682846974553964e-03,1.005409981768978637e-04,5.048577559745115548e-04,8.272851937640881073e-03,1.882991014035552760e-02,1.519093216502029309e-04,1.864184456722128500e-02
2.281218213347854795e-02,1.477637137380764061e-03,3.038713025438715548e-03,1.591363775073721502e-03,6.599459939330597691e-05,4.162649427710880964e-04,6.338849391178592689e-03,2.250892521058712667e-02,5.498988868801850405e-05,6.639821439645205402e-03
2.484932374093404631e-02,1.381052006214244848e-03,3.702206120242022055e-03,1.806513917089134710e-03,2.487040579909925988e-05,3.183629453359882941e-04,1.641951086577666391e-02,1.797142096139695694e-02,5.360123429520348166e-05,3.519231187515853591e-04
2.141088581314555886e-02,1.251154916773264273e-03,4.446632394505112447e-03,2.025387831982225322e-03,1.727130358629143546e-05,2.137279414840631640e-04,2.660094387573501765e-02,4.743197823783695116e-03,1.672998741687862253e-04,8.152019923672050236e-03
1.507682933200535716e-02,1.090726039339022686e-03,4.707054114628142494e-03,2.242209442218197606e-03,3.062221598212440312e-05,1.050819310739566819e-04,1.913587050042666812e-02,1.089314333055809575e-02,2.870220322139671208e-04,2.470940558814368679e-02
9.637779823970578363e-03,9.032869599670804344e-04,4.444625187754881745e-03,2.432115080460398645e-03,2.438093343043740965e-05,4.774898412681595949e-06,2.655156425643224322e-03,1.420551297119272346e-02,4.223441968219390167e-04,3.098371384621223870e-02
6.748552890309287774e-03,6.930210732547168991e-04,4.506492775926500965e-03,2.604771220956424247e-03,5.826204655971322347e-05,1.130334003749313831e-04,2.181706364068440162e-03,1.282630237019567699e-03,5.664184289372149132e-04,2.410877208630084895e-02
4.155576958951421977e-03,4.646757215280710200e-04,5.381062444572788997e-03,2.812348528811134743e-03,1.120952839010810057e-04,2.169445794811561770e-04,2.278850708784390874e-02,2.225423777751846244e-02,6.929231799931863910e-04,2.160741712732361028e-02
1.678382483334554419e-03,2.234253503094419595e-04,6.475131413449506691e-03,3.035234303672681121e-03,5.509258141810200496e-05,3.138868887388848771e-04,4.005597740300693294e-02,3.000194187760126668e-02,8.096961580530747998e-04,3.462445842678271712e-02
1.101397093418070294e-02,2.527111709832273326e-05,7.218501268521607291e-03,3.161883690011864367e-03,8.234361696453697547e-05,4.014300725940513591e-04,3.078577949249471785e-02,2.026079299191846719e-02,9.668005702466921786e-04,5.113883624905518621e-02
1.962117437862581637e-02,2.757648024533737802e-04,7.647722461750245705e-03,3.232333784373207872e-03,1.977735690806600220e-05,4.773940041851388520e-04,3.548726762520167111e-03,3.383052031173102402e-03,1.142343309786140841e-03,5.478630752526585102e-02
2.266722443615312374e-02,5.223232286705607784e-04,7.649110117789370035e-03,3.490448119745295005e-03,5.502521688420582710e-04,5.399010931675490539e-04,1.199994981237473279e-02,8.254980058628895445e-03,1.222292072320609393e-03,4.723594116281074062e-02
2.016970982437207849e-02,7.593549979502676236e-04,7.207501566483345314e-03,3.869051406000370563e-03,1.204588806253769186e-03,5.874210059586313466e-04,4.842262135000713688e-03,1.061123141180050564e-02,1.243943452314736405e-03,4.071571919101733827e-02
1.790970243718583224e-02,9.816170888072611907e-04,7.196059903077756115e-03,3.806249314901048644e-03,1.474814299304666844e-03,6.188066350626949879e-04,3.123177821632137311e-03,1.133749634759832238e-02,1.448436129979188648e-03,3.833713010151812428e-02
2.071394778949594770e-02,1.184163257288640709e-03,8.149669207076007393e-03,3.180785896010222824e-03,1.127375645252120953e-03,6.333204729224633850e-04,8.977483589039787076e-03,2.095095586858189765e-02,1.766199787021673507e-03,3.369061576754443788e-02
2.500259855350910401e-02,1.362306685586042124e-03,8.981725382614755282e-03,2.864086123264738756e-03,3.811186029606722283e-04,6.306507846937054818e-04,2.861091550492865163e-02,3.761595160939384258e-02,1.632925125271572544e-03,2.481088511880033196e-02
2.255427911689849088e-02,1.512109865842996455e-03,8.720952346819951795e-03,3.495153865164021996e-03,2.414055158380542750e-04,6.109172277509103540e-04,3.081229770507953186e-02,4.879522104274443273e-02,9.244589966892757804e-04,1.916242843616772565e-02
1.274784285200268596e-02,1.630822531325119406e-03,8.312214385313886761e-03,4.436913789406022983e-03,4.027480815725396034e-04,5.746658265488193253e-04,1.896572747977509285e-02,5.050226528711600910e-02,5.097964261581929045e-04,2.491808456090998866e-02
4.604303632800269344e-03,1.716148636888678971e-03,8.955097693758445193e-03,4.822700502215992828e-03,3.052573231280855627e-04,5.228534731274977814e-04,1.656926596857822773e-02,5.168839399467472367e-02,1.027196885644694703e-03,4.020434434890729491e-02
4.077643743102515872e-03,1.765542892417054687e-03,1.010807543495127400e-02,4.777520230214952514e-03,3.314603462045826896e-04,4.568223799910077466e-04,2.478218638753903330e-02,5.608759050437279320e-02,1.838723312079073961e-03,5.173661727024464474e-02
6.695400787171475361e-03,1.777951990924343502e-03,1.065922943312159338e-02,4.861996509778473280e-03,4.843102574766945364e-04,3.782651571020167504e-04,2.124435372730726704e-02,5.557246723225769958e-02,2.074257574755315747e-03,4.688821867279330952e-02
6.749720710211320161e-03,1.755495198568861369e-03,1.068424835279978106e-02,5.143707811569191157e-03,4.954553589080945477e-04,2.891814121826078777e-04,2.393519750048250273e-03,4.680888015183178041e-02,1.856701041651461241e-03,2.891567066013496501e-02
6.187686635504807166e-03,1.699858093127669910e-03,1.087688014393723909e-02,5.388185879956032716e-03,3.935564214261378399e-04,1.918269778540841665e-04,5.997442371489171420e-03,3.953166419805071580e-02,1.751433206703981345e-03,1.546964068326044453e-02
8.731797605682578220e-03,1.608612129288573486e-03,1.133530964658518991e-02,5.559937673183876737e-03,5.325327471768941980e-04,8.865704554506590297e-05,1.057605484736936878e-02,4.190659402349007634e-02,1.829479515687989014e-03,1.782024258912520004e-02
1.183683450901486765e-02,1.482757504044245923e-03,1.173061661476753822e-02,5.754547801364387656e-03,8.334236119621634721e-04,1.773536964900114855e-05,3.114585629934795916e-02,4.921739548656781094e-02,1.846589791923986716e-03,2.750414499051684683e-02
1.142864829493862172e-02,1.334653602095235963e-03,1.200757729467329116e-02,5.983918053996820433e-03,5.924327458518669712e-04,1.246841003029443230e-04,2.995982939735734873e-02,5.286575128970143894e-02,1.761430341562885858e-03,3.034138911529826385e-02
9.788608678525998266e-03,1.171930470374013674e-03,1.238254371644993169e-02,6.230208058781932547e-03,2.798325453336524622e-04,2.295160307857658393e-04,1.306458909694822347e-02,5.251433702082623778e-02,1.693590155271183740e-03,2.574942962085174578e-02
1.201005827748909474e-02,9.798903634618302654e-04,1.289478396603013603e-02,6.499619861496412285e-03,6.580606333588453214e-04,3.296171998702866475e-04,5.825671170374162842e-03,5.389951079761962777e-02,1.672791988177101206e-03,2.141027383488804114e-02
1.803171829417516553e-02,7.551161796378284960e-04,1.331026234719160685e-02,6.740766732215555147e-03,3.023540892416762358e-05,4.224971768907182499e-04,1.318455236080212992e-02,5.814321121526198205e-02,1.636502835053774575e-03,1.795166941444407624e-02
2.380642284913352807e-02,5.435988373549765443e-04,1.358123693037326628e-02,6.918313113020840670e-03,5.776368944013490683e-04,5.058501357368009937e-04,1.453726068923890877e-02,5.779433757175687913e-02,1.559090041783855194e-03,1.361447612942067766e-02
2.768736067896353584e-02,3.695900920273724206e-04,1.409635517298225491e-02,7.176663163798574323e-03,9.675857834572285224e-06,5.776111386900019840e-04,5.406683768272141886e-04,4.595904563270612059e-02,1.492324619663228016e-03,1.503571287898071082e-02
3.056833934575379011e-02,1.519281446545670650e-04,1.494112240148929086e-02,7.597624693608355517e-03,7.355226208985690597e-04,6.360062659984133410e-04,1.380974211165978197e-02,2.765206849532521674e-02,1.481082096463826178e-03,2.597579195051549772e-02
3.123056759891244122e-02,1.466065361392793198e-04,1.533613266078842456e-02,7.849401371316280449e-03,3.971546663135685964e-04,6.795953839582619550e-04,7.221966860855442288e-03,1.479752152905063067e-02,1.461890993911479138e-03,3.333381474880344614e-02
2.647844476364127897e-02,3.370884512769532879e-04,1.503443032892600416e-02,7.737039036264138636e-03,4.348479361661723936e-04,7.073065301309301419e-04,6.948704917062628085e-03,9.160137582172513809e-03,1.350780959533080371e-03,2.277276115381221197e-02
1.644677428198602562e-02,3.190709080517732795e-04,1.540320300992954403e-02,7.964921540155399382e-03,6.485244511598398879e-04,7.184611044940709393e-04,4.163475370884985732e-03,1.114459243961482028e-03,1.266938484485797189e-03,1.796170572991116071e-03
6.272419848516267230e-03,4.787200301775384982e-04,1.665190683197450075e-02,8.961126985099078512e-03,3.294892096189703775e-04,7.127892845503091190e-04,1.344004073474636823e-02,1.206909956506262496e-02,1.392623425798594902e-03,9.917222857967991634e-03
8.457436215316661236e-04,1.028073991802115703e-03,1.620011088164022978e-02,9.216011750706562533e-03,1.543276412748288131e-04,6.904353249867392194e-04,2.035386992474528742e-02,2.030931249159208599e-02,1.489358364449106832e-03,7.702659319463444135e-03
5.272971257475145366e-04,1.129287505637543206e-03,1.474942851684225842e-02,7.765923795115568969e-03,2.120382644168979688e-04,6.519526523662437295e-04,9.538695597118637334e-03,1.871090144690459867e-02,1.166393386759704501e-03,4.824377456687579599e-03
2.925092304939791964e-03,2.630228092073677972e-04,1.859939418784997689e-02,7.882166794699753398e-03,2.088263590489329016e-04,5.982889163804328957e-04,4.630175743975492586e-03,1.794605661816484066e-02,9.382632726336099680e-04,1.224384702460622198e-02
9.502613404552568560e-03,2.965495375348390240e-04,2.487417599898995510e-02,1.180348001310538644e-02,9.700464436106273874e-05,5.307614052718747982e-04,2.157273336348478759e-02,2.717642985274269438e-02,1.673345256057920004e-03,2.623294096283550897e-02
1.731338217508227029e-02,3.260456086102474227e-03,1.210914271460852842e-02,1.099148224334305264e-02,1.423264909723079574e-05,4.510234681041863755e-04,4.161085481604478303e-02,3.761206916398423389e-02,1.935002342250186861e-03,3.548844399457472959e-02
2.090820793193539154e-02,6.944566899585048921e-03,3.492873749957052520e-02,7.545945588215741823e-03,1.355089798427665327e-05,3.610228048193526149e-04,3.781324616423589052e-02,3.537720922575447041e-02,2.020486004102073439e-03,3.564934615018520297e-02
1.984594634805359262e-02,6.885881232924227595e-03,9.604824930833127938e-02,4.095446463700570111e-02,4.871693350650718767e-05,2.629526812142122085e-04,1.277102000654714575e-02,2.291505978123210135e-02,1.103207307483591339e-02,3.341998916465736824e-02
1.956200651775334004e-02,3.086104541347572776e-03,1.328107763809036612e-01,6.828842386047434543e-02,1.026407163968731456e-04,1.591972955333548689e-04,6.547181088759872723e-03,1.509983682961895182e-02,1.956650904791013695e-02,3.508282288952634803e-02
2.425772649357347058e-02,1.160256236506211234e-05,1.310807831531169976e-01,7.389594584894856877e-02,1.449318306509405263e-04,5.227266219857572873e-05,4.821795932726670453e-03,2.018531023301610439e-02,2.072948295349522768e-02,3.701651535061778464e-02
3.279404957567850359e-02,1.242206993407241923e-04,1.078321145847229434e-01,6.239794128612266566e-02,1.687082119318449556e-04,5.523551736428980539e-05,6.206906968499494026e-03,3.571719177152507529e-02,1.389393799884532446e-02,3.277666834539460367e-02
4.229255553460489758e-02,6.510512429575754292e-04,8.225156530912064445e-02,4.677267725058897874e-02,1.871081857513370666e-04,1.607354590829053833e-04,1.094163063568425603e-02,5.788680722994445083e-02,4.840962303447839642e-03,2.382767048439819041e-02
5.095235221783830926e-02,4.728489420988896737e-04,5.882928859870410754e-02,3.228154289685693928e-02,2.029122734170410946e-04,2.616928077343484834e-04,1.330145865451742154e-02,8.417995981722219134e-02,8.094512170460651341e-04,1.910044983227002571e-02
5.564195789562279004e-02,1.371674349008763756e-04,3.539649348351261993e-02,1.725649687381510325e-02,2.098111906849939594e-04,3.556924954683284837e-04,2.367897493193065958e-02,1.085381182049518223e-01,2.180854857288408097e-03,2.812080343520887565e-02
5.199201253894588509e-02,3.392710994688211308e-04,1.265552642311130668e-02,2.451476665670830266e-03,2.062109837764316211e-04,4.404974347383335291e-04,3.430882240342533057e-02,1.227233399832157734e-01,1.752404699804110651e-03,5.426025460325618194e-02
4.093862933503031321e-02,3.441111089687438852e-04,5.795168474288563999e-03,7.386195448800544384e-03,1.948161412237613360e-04,5.141026182710412484e-04,2.813263637066358222e-02,1.250070319821496578e-01,1.582144538218386697e-03,9.023534831513151111e-02
3.142947947675130138e-02,5.369953327372487418e-04,1.657375846906293873e-02,1.004119035016715934e-02,1.771003411410322745e-04,5.747833159411709462e-04,8.358729124912462824e-03,1.221587393378600894e-01,1.821398646404684234e-03,1.217070734523053865e-01
3.106542043346654028e-02,8.171741368528099474e-04,1.919188964823040008e-02,8.836200337588050180e-03,1.534309774927321833e-04,6.211362055514061883e-04,1.452145998883034618e-03,1.195245817547812978e-01,1.928736682296541653e-03,1.376062574802963123e-01
3.612432142974388721e-02,9.959841617916919115e-04,1.725991317850703033e-02,7.956169107191494311e-03,1.236207556258101447e-04,6.521124553637283258e-04,9.290684579555412784e-03,1.137819944729190763e-01,1.849999595689942860e-03,1.353168418834146680e-01
3.668074244271369438e-02,1.111466972888407395e-03,1.562167826478681569e-02,8.149649335954290558e-03,8.677801130255103268e-05,6.670419844540516428e-04,2.229285663656841929e-02,9.933206464750721221e-02,1.818461634974700156e-03,1.177761855535360142e-01
2.966396802309062206e-02,1.246146278847601752e-03,1.590342423156088439e-02,8.215382287656790988e-03,4.532802269387383603e-05,6.656483411710107344e-04,1.792663793357023375e-02,7.773766972002517373e-02,1.858719974633302879e-03,9.084029531238450861e-02
2.041905633153123095e-02,1.377637769976549232e-03,1.645682294979962379e-02,7.813528241612112402e-03,5.365808426323900540e-06,6.480538582255814190e-04,4.784778742535336117e-03,5.650759950328746589e-02,1.861440349411971808e-03,6.270680945023583697e-02
1.312028129951711350e-02,1.462275736432165759e-03,1.599316781453986175e-02,7.389227847930834869e-03,3.446258174489772705e-05,6.147749944744998257e-04,5.964568722160794659e-03,4.046559958345106317e-02,1.813164674441616626e-03,4.010034612430066203e-02
6.458881545306337929e-03,1.506200286053313055e-03,1.508642152927304469e-02,7.139024798811746675e-03,8.411607914081172118e-05,5.667080457574495559e-04,2.358623581621861753e-02,2.746461263458789548e-02,1.764526439062792402e-03,2.313920465632932078e-02
1.593120074264234038e-03,1.527159372666448854e-03,1.450304001553363517e-02,7.051862528766010031e-03,1.373799359200766825e-04,5.051056193244920231e-04,3.438544322049329888e-02,1.209156287651898080e-02,1.722446375611574702e-03,7.076046066947528149e-03
1.002647512296233993e-02,1.520820978028888546e-03,1.409429082525101920e-02,6.986578923396177462e-03,1.688154958468827613e-04,4.315444248318070085e-04,2.037453300840236237e-02,8.292472456866057523e-03,1.663692535234799876e-03,9.036643703553072157e-03
1.641722360900375530e-02,1.478285473310131945e-03,1.353662052984585910e-02,6.501140136898565271e-03,1.872321875344593826e-04,3.478851944920349792e-04,8.850327805001657194e-03,3.070436328033280399e-02,1.585508473373227131e-03,1.875646651376267071e-02
1.983655486439556484e-02,1.402083594595786168e-03,1.294048069560676216e-02,5.510838932489766501e-03,2.437139396586952031e-04,2.562258788540752968e-04,2.776849455279102596e-02,4.839052900764723164e-02,1.499865214144620621e-03,1.745074738721179991e-02
2.180854203600427962e-02,1.298153364547397501e-03,1.244894902177569838e-02,4.831444623594355683e-03,3.174608738293452402e-04,1.588493251791842217e-04,2.247724655570996696e-02,5.666685154954112513e-02,1.409659237868947368e-03,1.179366097793574895e-02
2.466708936653020864e-02,1.168204942673945141e-03,1.193070002776602107e-02,5.084310057707243369e-03,2.956054640549128773e-04,5.816646617873757200e-05,2.551825862297192604e-03,5.773037705876919723e-02,1.311079462531641827e-03,1.298633308729233923e-02
2.849188466558476990e-02,1.013311549980480675e-03,1.135399112139252355e-02,5.657376607637942985e-03,2.166680765219032817e-04,4.334364139938160643e-05,1.183316352390651263e-02,5.761556937267756084e-02,1.204740447308532379e-03,2.190245768435313684e-02
3.025949775770224101e-02,8.374313509773480138e-04,1.097491799824287795e-02,5.689673966215102845e-03,3.229949204604651227e-04,1.431948497092138230e-04,8.440297612170294742e-03,5.851739298545009793e-02,1.094663012244437728e-03,2.827507454278858218e-02
2.699834706345007745e-02,6.456498397169002732e-04,1.076098441007969364e-02,5.292126698139416364e-03,5.460909667582028405e-04,2.389543492294903405e-04,1.053145434878127208e-02,5.741035165460590950e-02,9.829966303818490209e-04,2.475169535449538161e-02
1.914921187266883928e-02,4.423709786635095882e-04,1.014265547243664058e-02,5.023112920806835011e-03,3.226584566698126148e-04,3.283022768316048285e-04,3.105818424934968583e-02,5.146355167329055152e-02,8.703764914471266625e-04,1.549785625427111541e-02
9.733849372062459981e-03,2.319642154524434062e-04,8.981456098285189524e-03,4.955426233200739723e-03,4.703151665618782889e-04,4.090894427002624749e-04,3.571604869872146287e-02,4.085825980931195867e-02,7.583409780192513399e-04,9.492731215039514753e-03
1.056370180130686894e-03,1.945373782203018906e-05,8.153716030409258533e-03,4.847049125099929523e-03,9.627820847767787219e-04,4.793890780188761773e-04,1.981343598964724687e-02,2.740400960196076249e-02,6.491349902555165795e-04,1.043404227352043127e-02
5.934136678115676036e-03,1.899493653485504515e-04,8.300760722492684512e-03,4.654781913278367191e-03,5.160185121417773697e-04,5.375404308422539971e-04,7.742008392604398520e-05,1.435510000712787032e-02,5.445170792739239098e-04,1.607674769940751688e-02
9.760644683910191244e-03,3.913522288185823303e-04,8.768142521153786395e-03,4.488052107027479080e-03,2.323002494697858750e-04,5.821888886477555097e-04,2.100423333525994717e-03,6.452999763670913026e-03,4.457804284629561997e-04,2.384386584471451589e-02
8.904506155593612179e-03,5.801430064327383262e-04,8.684766884368923592e-03,4.366095711942376105e-03,4.131470551878058161e-04,6.123237822027134203e-04,1.627785399672555464e-02,6.255290660188597522e-03,3.542584497294066375e-04,3.268657878367360603e-02
4.559333369257331792e-03,7.519242921635561037e-04,8.197885100275560666e-03,4.235338245749290659e-03,1.505046174461340241e-04,6.273007986103899640e-04,3.507187289396140883e-02,1.047041498874668256e-02,2.712725232524734959e-04,4.018692348272416559e-02
1.136624116043040769e-04,9.026906745161094626e-04,7.857256319601414740e-03,4.083395499769736960e-03,8.565818217610327598e-06,6.268436567242923266e-04,3.394441674267747316e-02,1.299829868132281949e-02,1.978517688623602805e-04,4.249579069171336571e-02
2.927207770828303343e-03,1.029009662952027910e-03,7.667367681811428949e-03,3.932476842400915371e-03,5.661600508691197215e-05,6.110509138193834710e-04,1.451369266061941325e-02,1.223354245805806026e-02,1.347180323227505213e-04,3.956855375413979165e-02
6.052872759601980214e-03,1.128071403297351699e-03,7.401993220091570777e-03,3.786013365029990141e-03,5.297533450116437065e-05,5.804187639476311462e-04,3.167904363194661010e-03,1.240941951939362846e-02,8.238849236684396278e-05,3.706764646809346947e-02
1.004275714062084074e-02,1.197715128625638590e-03,7.147183101987855322e-03,3.631175016046946698e-03,4.033567496592981310e-05,5.358243347564970024e-04,3.911976403804648741e-03,1.711399278222060921e-02,4.116381276212183128e-05,3.937013815506559822e-02
1.295698560353303157e-02,1.236494045868357381e-03,6.976849396730593067e-03,3.463970422969610968e-03,1.100497619977166235e-04,4.784450239334800121e-04,1.106546322016651804e-02,2.571248221411950169e-02,1.106856799255439422e-05,4.359520378859024770e-02
1.319930939274027715e-02,1.243726801544870961e-03,6.589053094149749726e-03,3.288446420971022788e-03,1.351513826340664881e-04,4.097326389066450916e-04,3.227439053975249272e-02,3.642470900522352950e-02,8.146335387970447318e-06,4.474431596770540170e-02
1.200044659700728877e-02,1.219504546571333710e-03,5.748096327847348509e-03,3.104988195234235394e-03,1.666945261256091711e-04,3.314992442261989621e-04,4.833621539386769722e-02,4.681748954808788443e-02,1.696912906869825401e-05,4.319233628838359956e-02
1.112364769167265878e-02,1.164676688264561352e-03,4.742660729231662139e-03,2.910603817843642957e-03,2.135747137748051424e-04,2.458647774321856745e-04,4.768127403200447118e-02,5.158123826140979806e-02,1.611248976250920510e-05,4.156217731097262835e-02
1.032905214726248522e-02,1.080829984192035109e-03,4.085418248284933794e-03,2.704447382370024546e-03,2.505592892465558765e-04,1.549411791718158856e-04,2.847174009448489793e-02,4.736759383536395113e-02,6.505739427952779300e-06,3.809735872847033744e-02
8.953348025159608634e-03,9.702508998012766492e-04,4.021170607889614640e-03,2.487782049579405266e-03,2.719043843036205062e-04,6.078685283423907810e-05,4.983105763703251506e-03,3.899680605772493786e-02,1.072992200323138383e-05,3.054458579273543195e-02
7.914053606050719045e-03,8.358654203193214291e-04,4.358734202864230148e-03,2.261409060739959752e-03,2.882831485791804440e-04,3.408338461128564899e-05,5.018448210214734515e-03,3.372294664033367168e-02,3.431657496980828411e-05,2.335250502608055695e-02
8.031890718781534155e-03,6.811627180003217629e-04,4.560161778723056600e-03,2.025655771325589240e-03,3.016673490281876284e-04,1.267613776025881150e-04,3.413044075024245991e-03,3.167149144543043859e-02,6.285290237022406223e-05,2.229506938975223465e-02
8.190877715235717060e-03,5.101078639446405324e-04,4.211645563195514502e-03,1.781567960318455792e-03,3.064791659525431750e-04,2.152158719486807037e-04,1.974446221173173713e-02,2.818423082328472273e-02,9.484748899566941809e-05,2.401629470004384981e-02
7.279221236055720759e-03,3.270436488485123599e-04,3.546775918495591491e-03,1.530905361321717060e-03,3.013832028590116095e-04,2.983719407284401537e-04,2.632030834217963938e-02,2.216203334174649681e-02,1.287566151408180560e-04,1.999415505042062557e-02
6.241391541639133497e-03,1.365823890615502846e-04,3.130657893566461507e-03,1.275546064444839454e-03,2.888986484219278569e-04,3.735782859330853212e-04,1.348220419994098675e-02,1.695504312263140106e-02,1.630244358852138854e-04,9.950524128946224012e-03
6.311845789652568983e-03,5.650884297472230178e-05,2.925359503345428477e-03,1.017432415961615384e-03,2.698696469321460920e-04,4.365421539033603748e-04,9.027244704907266479e-03,1.538534289922693227e-02,1.961220395942695578e-04,2.701975959683622190e-03
6.924777054105178686e-03,2.474259286526586882e-04,2.236911668769175736e-03,7.587898894826981648e-04,2.435748632924056702e-04,4.868956364002313339e-04,2.266481205247142944e-02,1.606034723772297584e-02,2.265849468448394560e-04,3.727395308347650899e-03
6.961860299558342811e-03,4.314453051336946516e-04,9.295222418289573671e-04,5.020867822192030426e-04,2.103162572131080685e-04,5.286236212704874043e-04,2.156415432086915968e-02,1.425285498299413631e-02,2.530493193812850187e-04,9.208307891533356465e-03
6.505520260578730347e-03,6.040390301932451562e-04,5.281248097503167538e-05,2.498556720561389286e-04,1.713802221048565087e-04,5.583122591437024180e-04,1.224618344459159694e-02,8.454802099145591887e-03,2.742857706672696726e-04,1.290039461291925607e-02
6.171509861614936018e-03,7.609856131185307104e-04,6.134107207083749208e-05,4.629165212601221539e-06,1.277803927463991773e-04,5.640313537957708859e-04,2.599107934362859893e-03,4.739454974461602271e-03,2.892294029473821177e-04,1.320525636451036836e-02
6.002913349313131718e-03,8.984735469470112295e-04,2.214941677516357472e-04,2.310616028389918491e-04,8.023449674199729887e-05,5.504808025986943206e-04,2.185717210629755172e-02,8.683335320726529027e-03,2.970054496194860991e-04,1.197088003247231275e-02
5.822100092571919072e-03,1.013192268142955972e-03,6.483996685660207114e-05,4.547425053210208713e-04,2.976510296976217965e-05,5.420862981752928335e-04,3.210323371965099343e-02,1.505632877510693426e-02,2.969501745245459461e-04,9.942386904896332450e-03
5.660872449227602118e-03,1.102408775762600025e-03,7.320240195459662555e-04,6.640811846102528254e-04,2.232266876876248631e-05,5.294012068992473910e-04,1.904050190828423042e-02,1.411632990377021529e-02,2.886264922754962973e-04,6.316519062400468947e-03
5.373231479144125432e-03,1.164034154616568452e-03,1.226462407229677492e-03,8.569439578698535148e-04,7.485825837676186054e-05,4.610883499337091939e-04,6.884984573596865561e-03,6.147747542033420165e-03,2.718338258879102773e-04,1.893444760794270668e-03
4.777139908210237609e-03,1.196677806558844393e-03,1.581617307028701297e-03,1.031433779773672284e-03,1.268346606462605289e-04,3.581532942312794753e-04,1.946809281442243508e-02,1.729030288319154465e-04,2.466120038274451998e-04,6.075509824504947594e-04
4.399298779398574596e-03,1.199675046179607320e-03,2.002599635817984506e-03,1.185934211489153263e-03,1.770483612230437079e-04,3.341255597137365169e-04,1.436368028288522239e-02,2.390744058699992118e-04,2.132391841690875825e-04,2.647718091219803706e-04
4.706099044916002387e-03,1.173088362333221451e-03,2.303011068137139801e-03,1.319153812567058987e-03,2.241303701455331311e-04,3.515527396512681149e-04,1.482710351554101039e-02,6.600674141186316062e-04,1.722238728467502750e-04,6.580286340924987321e-04
4.372507984720112179e-03,1.117710359188952727e-03,2.424774169243436740e-03,1.430157702291488678e-03,2.671958106770943209e-04,1.695329159342585490e-04,3.451705258474461330e-02,6.022562646548228552e-03,1.242912298389890204e-04,4.162032447774157567e-05
1.482612931777111970e-03,1.035067180119513246e-03,2.857377857400700272e-03,1.518387488642535888e-03,3.058688941777744060e-04,1.416395610692800563e-04,5.682669415047163219e-02,1.430573324570475618e-02,7.036403032973818439e-05,1.658417789761654649e-03
2.936841561187194735e-03,9.273626011358155393e-04,3.793994801219861043e-03,1.583674809665057848e-03,3.390711204721715520e-04,1.655659203867178536e-05,6.024299647567236959e-02,1.997306612667952910e-02,1.153878434354612960e-05,3.069577958373201961e-03
5.224990972680528672e-03,7.973652039202720190e-04,4.484809582831297305e-03,1.626247316219652395e-03,3.650123949473956506e-04,6.701558971648289426e-04,4.540502706504739860e-02,1.961885336495126572e-02,5.094238560813773415e-05,3.959090851145058258e-03
3.790291913019897853e-03,6.483691957770676114e-04,4.227335009609848974e-03,1.646724269142177746e-03,3.837949911997117370e-04,1.051003468441004526e-03,2.551180973357336512e-02,1.397431260841121292e-02,1.157234064848951038e-04,4.815937923761073013e-03
9.710167547681571552e-04,4.842311575658875896e-04,3.412634745423962900e-03,1.646102232849100226e-03,3.975483201578236558e-04,4.899477445733565464e-04,5.335054118671336311e-03,6.228733928199927695e-03,1.813686486614252212e-04,5.746238812691872866e-03
4.166651656476471656e-04,3.092090998199198133e-04,2.991220188939746824e-03,1.625732488115535146e-03,4.049317067496903226e-04,3.725843991855054744e-04,1.479771217033791671e-02,2.997006977760625912e-05,2.463991893954711591e-04,6.530704491870205179e-03
7.398072388941511921e-05,1.275980015419950003e-04,3.407487786613212343e-03,1.587290567978232904e-03,4.007313282765755558e-04,6.648172413504161620e-04,2.441464872748188783e-02,1.394904192821743143e-03,3.093300747006655425e-04,7.121357366549456620e-03
7.547164766376381062e-04,5.624691377091818785e-05,4.218799812072718605e-03,1.532738072551684564e-03,3.875929899361460484e-04,5.080553846171102826e-04,1.178506240360991698e-02,3.247261020591390122e-03,3.687076646801433553e-04,7.625122694071942084e-03
1.362594114291314652e-03,2.374635489961731609e-04,4.489520004310468097e-03,1.464277763872116325e-03,3.771877093707956844e-04,4.639486951939743244e-04,1.471192475723836178e-02,9.667458417558586967e-03,4.231460804607112855e-04,8.072179820433362379e-03
1.866471643760861214e-03,4.110664789081115971e-04,3.830815114103694810e-03,1.384303316189618247e-03,3.651758874438172978e-04,5.994363566960834349e-04,3.142979053546963997e-02,1.139845477635906441e-02,4.713618445805681364e-04,8.420561343559462147e-03
2.421983109326734246e-03,5.732609065779855576e-04,2.925406487103421587e-03,1.295344917797253050e-03,3.280378833378338587e-04,6.707463381080603802e-04,2.730662740596602467e-02,7.684915244100639503e-03,5.122059988259319635e-04,8.664468142239098794e-03
2.974794124988759583e-03,7.210039599266153095e-04,2.535004273192992524e-03,1.200011914021821731e-03,2.764173769627047508e-04,6.381113183672393807e-04,1.354233904989026772e-02,4.707446942425027453e-03,5.446929481224697988e-04,8.833273184135133349e-03
3.490505903578201494e-03,8.495207603131022835e-04,2.521866743288831304e-03,1.100933890920146371e-03,2.632363554479010101e-04,6.133576901748915514e-04,3.622538593869692805e-03,7.247821558566591195e-03,5.680250519052356404e-04,8.940607050600608494e-03
3.938296175020946505e-03,9.534895141861145489e-04,2.381188616043796065e-03,1.000701682944860928e-03,2.699177842855294759e-04,6.164413299052342232e-04,4.188078831977190726e-03,1.207469003517241263e-02,5.816122977882043745e-04,8.984000776208275404e-03
4.212213146157079736e-03,1.032661933600639761e-03,2.060597383760901478e-03,9.018097190535894012e-04,1.858826455539525318e-04,5.956544968339052204e-04,1.737932462746358611e-02,1.255856180282728489e-02,5.850871826687284276e-04,8.968510603076943269e-03
4.435872095973755411e-03,1.089728578541034618e-03,1.784071384636904279e-03,8.066010599979047541e-04,5.091382168514488424e-05,5.418682294620796912e-04,2.928979272559047164e-02,8.979951026501080749e-03,5.783146216644734997e-04,8.906957834011783315e-03
5.162117697287920901e-03,1.118468474693841809e-03,1.591279205791881063e-03,7.172164398135961452e-04,1.080933816172535819e-04,4.805064205323742333e-04,2.232988380801659289e-02,9.428451781032061094e-03,5.613953919698306313e-04,8.808653791958540036e-03
6.758902758217767877e-03,1.108161026513402453e-03,1.386786855090361894e-03,6.355485342175754438e-04,2.913970641634290614e-04,4.179233636936748432e-04,6.251839430277940368e-03,1.809053054199654537e-02,5.346626461437039559e-04,8.678939237863517175e-03
8.529173356819420501e-03,1.069121526678336277e-03,1.158014549302085550e-03,5.632025328667833106e-04,4.060285078832676781e-05,3.444590887396557907e-04,3.565545830292997376e-02,2.783766286758352498e-02,4.986742899696798353e-04,8.524257830199857139e-03
9.017583001884920194e-03,1.024005298047161311e-03,9.560705648044213849e-04,5.014639293398752981e-04,7.686182357098451890e-04,2.595303836432135552e-04,4.565142099852825125e-02,2.932817688485532537e-02,4.542023478769674255e-04,8.352248046888680055e-03
7.612884152058659384e-03,9.530517741585053200e-04,7.933106325294387445e-04,4.512742701062778285e-04,1.269740935642935629e-03,1.704440645508027827e-04,3.746152081594394251e-02,2.349601208988717077e-02,4.022138659392856695e-04,8.169201831741171663e-03
