5.189929705719993625e-02,9.217559734928817972e-02,5.043905637674057224e-02,1.102518097627691119e-03,1.374993740818096239e-03,2.478779517416565396e-04,4.603464244292233831e-02,1.264308979535276323e-01,1.785471546745172333e-02,6.292725922595061860e-02
2.151555574041893668e-02,8.156112837485195166e-02,4.119338885427409336e-02,1.302668698642374953e-03,8.992442339166241329e-04,2.176561415232539359e-04,4.754938140784192163e-02,1.272975603142848522e-01,1.855590678662074472e-02,6.115692977113015155e-02
3.070504901302055500e-03,6.372545380841861118e-02,2.924273770495114735e-02,1.495948666694017467e-03,3.188385875246319175e-04,3.136891692645185506e-04,4.679358725352878584e-02,1.407268308950731517e-01,1.600896363786585147e-02,5.544300253997910821e-02
6.109801495475385320e-03,5.198661083435831415e-02,2.588584176539469525e-02,6.610702660171009640e-04,6.987020295345467303e-04,4.582452332972774666e-04,3.911808949031149452e-02,1.599297772899807568e-01,1.259348542672311839e-02,5.017652220734484386e-02
2.642454476400152297e-02,5.343667433769577063e-02,3.371492653213613994e-02,9.732913397252951392e-04,1.554108995523871247e-03,1.672708431206051678e-04,2.547790560699859236e-02,1.707624631109964652e-01,1.095332154058534409e-02,4.680156613215984834e-02
5.741891652885645209e-02,5.575188964945529402e-02,3.944911130705118507e-02,1.884134394248302823e-03,2.044746156643936601e-03,6.906472115297062567e-04,1.449370074307374315e-02,1.639425565695874221e-01,1.071563343564295966e-02,4.313672854901233478e-02
9.036155551438312949e-02,4.146705183612737350e-02,2.790434183917132188e-02,1.346237132968571178e-03,2.071660476628827026e-03,1.227142748641887058e-03,1.144659713785597076e-02,1.404041492658384960e-01,9.428293129651823049e-03,3.742909491076910206e-02
1.083166386029194711e-01,9.086607181815729156e-03,6.583781137670285033e-04,3.437151301738117508e-04,1.701956574435216319e-03,7.756753399193104482e-04,1.149533926069033068e-02,1.072401538167319923e-01,5.945899349057972780e-03,2.904726073373690640e-02
9.843044307905220169e-02,2.843312975445567298e-02,2.568040802106432915e-02,6.482107045200865593e-05,1.164809626971498747e-03,1.073132991302821972e-04,9.112317798687787768e-03,7.108413976562663605e-02,1.699841709536439047e-03,1.843501535710877215e-02
7.210788907276999282e-02,5.571833115875867576e-02,3.662484754272466586e-02,1.270300238791873459e-04,1.149402588527592001e-03,1.667637033117003848e-04,7.201125112148813734e-03,3.322860789385630176e-02,6.228532514377463098e-04,9.856137836790939549e-03
5.373580322657494496e-02,5.962049393504557232e-02,2.964757175877206011e-02,8.943732170717334827e-04,1.650129824313578512e-03,5.068841934814341966e-04,8.853878567245700854e-03,9.301516188877992364e-03,9.312426924432833618e-04,8.825208532532336989e-03
4.502774400903841734e-02,4.012284236435487150e-02,1.309388097023794946e-02,2.488533707850146357e-03,1.618739551255890009e-03,3.809176515951916337e-04,5.597784039102100644e-03,5.388351015129671379e-02,5.639318447464502886e-03,1.384925514353143802e-02
2.299967452641273058e-02,2.306598551320426793e-02,1.215052676000614312e-03,4.139952460437160316e-03,8.977869841128653357e-04,4.608856415764380431e-04,1.393484803405025708e-02,8.760651375814912378e-02,9.580037482184276462e-03,1.808088462101273969e-02
1.705098923171952108e-02,3.829567307247519481e-02,3.388823295985686056e-03,4.591532875113089364e-03,7.155756869271082728e-04,1.698695730221996218e-03,4.371440517371332629e-02,1.025700505901510906e-01,8.824016789487016191e-03,1.958375158784819020e-02
4.708081273400428063e-02,7.798037738788872464e-02,1.393220563592398147e-02,4.277258850012755423e-03,1.495597629973882074e-03,3.140654845599627314e-03,6.206652037570361408e-02,1.127550661216119021e-01,3.964806230602234763e-03,1.852054226310326929e-02
5.838649086083740752e-02,1.016847572990780824e-01,1.774340486300849881e-02,4.680803726199083380e-03,2.176907318416042725e-03,3.094700003185821106e-03,5.855835258971816421e-02,1.411770507377100581e-01,2.861005085247046199e-04,6.369869425350114731e-03
8.924121893466992195e-02,8.765559836366122737e-02,5.862399018779324358e-03,5.762598564839923818e-03,2.154546943957210380e-03,2.097661018836709333e-03,4.687790385095833706e-02,1.871085613694515315e-01,2.831719651108212605e-04,2.465181147915647755e-02
1.584765015080327466e-01,5.296703309678361254e-02,1.732234909135784567e-02,6.350203433238688425e-03,2.194434286677608183e-03,2.166319799282937029e-03,4.353763670389200480e-02,2.188792580600590620e-01,3.534284066096597329e-03,6.163708961132780689e-02
2.142728322973607991e-01,2.060806206644011374e-02,3.688543851353894010e-02,6.309573968836031978e-03,3.091973174492106125e-03,3.445628764051282805e-03,4.537157842634281790e-02,2.084050105851666390e-01,8.032790846413321098e-03,7.829558644903113207e-02
2.024790916775779659e-01,3.786153916024140656e-03,3.668742566585619230e-02,6.376999912017161827e-03,4.407553063032846989e-03,4.245575885398779163e-03,3.857982838606686254e-02,1.665127930134603640e-01,9.763486671515905421e-03,6.432190966270616428e-02
1.424192048487068762e-01,1.697452783921416658e-02,1.492084025926349727e-02,6.924496781548938884e-03,4.854352085325623449e-03,3.898992788182668000e-03,2.129763412070442841e-02,1.323384316984943521e-01,6.904745567674390461e-03,3.513565457734317554e-02
8.039807156619251105e-02,1.063392686036204217e-02,1.046454030078852390e-02,7.955867964418661398e-03,3.882052583166061433e-03,3.279217506901493939e-03,5.536148127481632306e-03,1.271467726875372406e-01,9.514353735066310470e-04,1.287591859854944620e-02
1.595649383724430034e-02,8.546977544570916879e-03,2.118045429622148618e-02,9.062830812988333790e-03,2.733790717457268774e-03,3.130389780714383247e-03,1.676390429309150987e-03,1.320134859149351136e-01,3.035372996507326466e-03,6.979524531666309040e-03
6.034564358295545217e-02,1.704897409840106653e-02,2.079461563712181257e-02,9.446341436398475108e-03,3.158321421770027716e-03,3.503248983280588934e-03,1.033054744184172882e-02,1.189488410579835898e-01,3.185856492080133299e-04,1.107748356475826354e-02
9.656729416615192352e-02,7.695482632928372056e-03,2.958768815185304837e-02,9.267205768181113051e-03,4.910665817187974229e-03,4.353645820359021770e-03,2.507461873324835430e-02,9.072038101637931728e-02,9.227786826030688269e-03,1.128563657908497782e-02
3.095956096101505975e-02,2.899673506323330666e-03,6.037335619415419574e-02,9.754798153226398871e-03,5.910118469427226053e-03,5.682455354365812186e-03,3.582473579689519905e-02,7.638922143742492288e-02,1.082003694852169857e-02,1.059725534233914995e-04
9.918760498588649610e-02,2.072421482991888136e-02,1.041633405821621311e-01,1.082189086591764556e-02,5.309640357140532445e-03,6.888956811424613164e-03,3.498740220087383918e-02,9.538757566635026885e-02,7.434301559762505375e-03,1.481276852830600878e-02
1.830164832561654298e-01,4.814126117926147141e-02,1.379001184032665472e-01,1.080688806500481117e-02,4.657426166155637093e-03,6.792388905750742535e-03,2.603756275822380339e-02,1.364805071465541308e-01,4.006481843350206268e-02,1.733811860148636030e-02
1.728699892106483338e-01,6.140085098563359545e-02,1.459084201899401578e-01,9.488761099222026499e-03,5.320134934113473005e-03,5.459384991901137900e-03,1.959180948491131766e-02,1.683846884668094845e-01,6.631298396939078188e-02,6.015630876683015354e-03
1.219670715972270836e-01,5.362501548758060593e-02,1.327908217322269768e-01,8.507404048383748058e-03,6.508685547889322617e-03,5.003512640507615586e-03,1.960385285342656700e-02,1.679317638234842369e-01,7.238256065794936023e-02,4.336143124586243000e-03
8.474259062071595738e-02,3.151968341845520077e-02,1.129229597001536051e-01,8.393355106338210719e-03,6.738288766137945016e-03,6.681395038668402377e-03,2.432992764654082901e-02,1.411165697910695405e-01,6.192766018820833329e-02,5.297252570319847462e-03
5.857373457884277462e-02,5.426890821041330595e-03,9.606761864033538934e-02,8.399745895244076915e-03,5.883151431311382101e-03,8.531768761900346970e-03,3.893204570909208906e-02,1.146133899441624804e-01,4.620546089440544929e-02,8.707872440575126910e-03
3.846295470494256324e-02,9.255820739689136004e-03,9.038004852081435447e-02,8.999603128725901582e-03,4.991577342786019701e-03,7.980435803142853571e-03,6.918349607424290060e-02,1.038340829372525198e-01,3.545815019754627873e-02,2.916559866515710045e-02
5.204173795095098226e-02,2.657168800322493724e-03,1.027609912892644417e-01,1.089539883925611137e-02,4.890060583178994572e-03,5.376521318851958282e-03,1.018263479613432387e-01,9.672276852723862839e-02,3.699541865520834805e-02,6.074955944682582099e-02
1.063067974549491423e-01,1.313914059371626246e-02,1.239879675600480680e-01,1.217638327112200922e-02,5.397522337994759001e-03,3.093066697855275087e-03,1.109596709139759607e-01,7.587270554142609702e-02,4.923968840038628336e-02,8.120299709703672486e-02
1.574139347407945422e-01,1.859941163955073848e-02,1.324800136720875043e-01,1.026698254004816679e-02,5.615243983760503411e-03,2.308269681725297253e-03,9.021700318177135192e-02,4.741876520458574579e-02,5.996096377866250854e-02,7.804663696089636504e-02
1.651866849581074825e-01,1.356287242541593524e-02,1.224059849336803785e-01,6.166277163224649464e-03,5.130301673139358795e-03,2.300256738180256159e-03,6.347018919098372514e-02,3.324485907818062330e-02,5.924854976180636557e-02,6.271834577176382819e-02
1.342616724356309466e-01,9.576876627801702777e-03,1.070582462597673562e-01,3.466016415785478678e-03,4.690185249815376212e-03,2.186736449835002469e-03,5.477930355678864438e-02,3.777637182946420175e-02,4.946998085159253628e-02,5.512395866065337990e-02
8.342369817497430340e-02,7.723303618553748959e-03,9.096881028704677241e-02,3.508855687612057531e-03,4.886660040511663604e-03,1.843891043910951110e-03,5.855570859923697052e-02,4.110558071067502844e-02,3.690707718178363322e-02,5.984230796797378876e-02
1.516608750956549914e-02,3.303619208777763133e-03,6.372213375584676043e-02,3.944928953507886686e-03,4.983788951883161115e-03,1.349993614757660863e-03,5.153331732839205870e-02,2.953839356088735699e-02,2.266017560022572791e-02,6.421917108969246724e-02
6.553332370266591600e-02,2.180753102634185557e-03,2.544749945315007492e-02,2.105269063152511756e-03,4.287996640162232767e-03,8.148340236752810942e-04,2.828299075673705587e-02,1.513608935159156503e-02,8.089121145067027299e-03,5.670930450339024126e-02
1.269704758097162933e-01,6.644607193344142203e-03,3.932011222998545857e-03,1.433605141631713641e-03,3.317817038488811779e-03,6.554875689602745721e-04,8.904223220184564330e-03,1.480230704770611229e-02,5.616982931864540791e-04,4.030262966279869741e-02
1.271978447066088314e-01,9.937366949310473541e-03,8.558239502206162544e-03,3.031823058465007038e-03,2.436117850351165581e-03,9.652153084850688229e-04,9.667450571406657409e-03,2.431241680622695661e-02,5.179160630356810513e-04,2.771661652824203639e-02
5.943523593643813829e-02,5.346613686797294443e-03,3.567141202799200411e-03,1.648343511683619009e-04,1.229931718878285538e-03,9.547264598655226487e-04,2.175262373309681807e-02,2.622476687265371670e-02,1.643580642993097522e-03,2.669837110434530522e-02
2.663798906235004260e-02,1.784057756504988171e-02,1.148028609438024074e-02,4.605140282162911713e-03,1.001525266808937211e-04,2.905591694338318677e-05,2.682524621375602381e-02,1.394001912597721271e-02,1.683108927233264995e-03,3.292873084355012192e-02
6.516890078595465041e-02,6.047002041183387883e-02,3.264076370121713096e-03,5.611567825572870948e-03,1.663789615999101707e-04,1.228761775095548597e-03,1.990381529607091610e-02,4.683366523149028009e-03,1.070286096741698313e-02,3.808569376418353275e-02
3.959081246696358886e-02,1.071502428281682351e-01,1.851496223360106150e-02,8.065599958170508767e-04,1.008541288092646695e-03,2.022915930452371964e-03,6.572183836671618810e-03,2.115377773540756678e-02,2.175535319335297757e-02,3.921871790991057066e-02
6.945540420637505777e-03,1.328089213686036163e-01,4.366241742998291930e-02,5.761955064146265584e-03,8.898974097541908178e-04,2.406353522474362350e-03,9.868763363405249484e-03,3.371283242063913277e-02,3.260952524689971627e-02,3.663146080416719574e-02
3.099527618148698385e-02,1.208972069547621514e-01,5.855920593780627320e-02,9.419151322551630109e-03,4.544478214085562661e-04,2.784627551640768243e-03,2.741799191632569854e-02,4.446579794421193915e-02,4.059474113255989031e-02,3.098323425477059537e-02
3.704553516550051356e-02,8.374087350541953301e-02,5.285749135909991597e-02,1.014516273499110020e-02,1.668058195141768670e-03,3.345389958322429053e-03,4.201890102964996043e-02,5.394476360997790126e-02,4.225560247995722996e-02,2.714197763324303556e-02
4.922357749808407845e-02,5.689003160994639957e-02,3.144452469915206411e-02,1.029243599612387171e-02,2.351845146182109363e-03,4.191931219542348146e-03,5.418595544519613783e-02,5.810604951646414912e-02,3.909334812601635012e-02,3.125893020958124546e-02
5.701879969237606816e-02,6.070391186623802504e-02,1.379742346469025292e-02,9.854866622955036834e-03,3.112539713595590275e-03,5.027401824933432246e-03,7.026031876285307454e-02,5.341361662584512282e-02,3.795691464410479860e-02,4.066145093851383091e-02
2.792070628787200748e-02,7.603669813143516809e-02,1.517003437414406707e-02,7.855321179989540811e-03,3.466033327255795687e-03,4.900634923899480425e-03,9.087658789004178506e-02,4.385481855417326658e-02,4.206793436098354988e-02,4.549907853300311916e-02
3.044430630391919967e-02,7.242680480192346948e-02,3.168103333181866710e-02,6.338629503302661838e-03,2.673841666716760511e-03,3.448162729600410745e-03,1.058900298640993581e-01,3.589051729006929869e-02,4.672896522310937550e-02,4.029854273888196226e-02
6.473085074366573266e-02,4.992423737403476475e-02,4.664216355607397890e-02,7.642094257709435706e-03,2.010482528196988385e-03,2.054602045156856110e-03,1.057783078327461379e-01,3.003444415078566909e-02,4.705429660586425700e-02,2.628209883654576348e-02
4.189014102577653942e-02,3.326730219896115864e-02,4.965352690182381346e-02,8.937300987547984812e-03,3.315098674142990826e-03,2.533514118969392229e-03,9.324142945395785809e-02,2.554736323040880663e-02,4.474008754523047665e-02,6.293006964688797888e-03
1.444504183869746439e-02,3.201214774304066840e-02,4.588629004165950542e-02,5.482339008420701772e-03,5.954745403241779381e-03,4.849435074875189412e-03,8.046985380798107879e-02,2.603242647162491014e-02,4.260343527640288869e-02,1.428228017148881583e-02
5.951931425882280025e-02,2.938749433535498001e-02,4.507308296840915884e-02,1.604270278014864690e-03,7.409115579347704331e-03,6.982284739981311529e-03,7.673752355924406965e-02,3.187321071627585711e-02,3.701722952136290989e-02,2.582265279370413169e-02
6.741351782795128311e-02,1.131996295343984729e-02,4.825653692803138356e-02,6.511740780705469259e-03,6.304686885809931800e-03,6.919578311938959052e-03,7.941170458753607497e-02,3.616648176887180682e-02,2.362057178251086506e-02,2.293763856303927123e-02
3.814204520667040244e-02,1.242924656944089171e-02,5.194517150894287921e-02,6.283657914299772829e-03,3.795855573737123238e-03,4.623421945474512872e-03,7.799657867453740900e-02,3.576202251484652400e-02,8.380312405727752614e-03,1.419471777657738132e-02
1.743034070266307389e-03,2.321667871531231386e-02,5.699291927228804927e-02,2.111133687588689391e-03,2.586998885337502604e-03,2.186960920922557342e-03,6.744924859046991239e-02,3.734197910893111844e-02,2.918820099519575662e-03,1.508081366911418961e-02
1.486449836544341367e-02,1.883641669762615295e-02,6.417862798929738211e-02,4.791834237049650766e-03,4.672582700225573482e-03,1.681059228724867544e-03,5.305137885794087432e-02,4.505099154796414485e-02,8.614913777148069940e-03,2.818733489869638259e-02
1.443490748075571505e-03,1.491726259323613440e-02,6.858381722498853306e-02,1.348462260752906691e-02,9.201620376940651200e-03,2.881887337350353025e-03,4.075607453698117111e-02,4.993289830857031153e-02,1.503051448767873943e-02,3.849150066000135012e-02
9.370550644313200075e-03,2.479758772884170515e-02,6.690160693157140570e-02,2.108842548486952392e-02,1.308314994788621274e-02,3.990626222350497979e-03,3.104937804511868557e-02,4.162049684617408207e-02,1.458713500816384047e-02,3.401850552684249074e-02
2.204753682931489406e-03,4.581167608859926937e-02,6.523473632935489208e-02,2.503801260117198904e-02,1.454001169459051904e-02,4.473291559845932533e-03,2.529897372423184007e-02,2.664392285918230213e-02,1.022534785482992134e-02,2.237257218915471302e-02
1.061850219860209846e-02,6.573253475178797434e-02,7.312537889543857528e-02,2.674553524190566647e-02,1.508065240587466022e-02,5.838030928724637254e-03,2.785171507702696378e-02,2.398892455112488706e-02,8.242619851147103827e-03,1.841510089285896754e-02
6.941662982016381933e-02,7.668924392128506629e-02,8.984099724360154748e-02,2.925214142613111537e-02,1.696293354649661828e-02,9.117320323491348230e-03,3.723541354271023285e-02,4.248195389718697340e-02,1.047987138413765049e-02,2.396799826366418501e-02
1.197422474336613529e-01,8.041960384082216806e-02,9.976906220030544448e-02,3.249445937760252201e-02,1.981937674554658246e-02,1.286566978510064220e-02,4.502999787045217084e-02,7.310054678550464979e-02,1.421944656696453452e-02,3.054046886224307672e-02
1.063690772432725196e-01,8.385195977943483980e-02,8.729144044449135831e-02,3.425999381509367558e-02,2.129863067784111899e-02,1.496889353287710576e-02,4.817174729829280799e-02,1.053780684959096103e-01,1.549514971896752587e-02,3.589986185376097677e-02
5.597978222839414958e-02,9.122128779697326328e-02,5.725835159137022956e-02,3.395462153127917077e-02,2.068358107847745320e-02,1.556067284449193060e-02,5.211680835800334283e-02,1.386644500682062409e-01,1.227307569680623558e-02,4.491114852811630559e-02
2.750535217427184723e-02,9.681624133861405079e-02,3.248606999945914675e-02,3.291734191240880403e-02,2.023329942395732731e-02,1.635931584718905082e-02,5.694201051062237201e-02,1.706188712102598981e-01,6.478214638608205747e-03,5.647387934261454551e-02
2.372276648560668957e-02,8.708890300735337708e-02,2.868317812923572643e-02,3.300492960162276779e-02,2.212071280443318744e-02,1.786393888281515366e-02,5.395794021235496979e-02,1.890295458040743004e-01,1.941591924652301231e-03,6.337644723613632125e-02
1.794407612429544524e-02,5.784513426762882132e-02,3.993604842526213977e-02,3.488549808316041001e-02,2.513153389580145142e-02,1.915376357219583311e-02,4.342283541220866988e-02,1.866393511115665982e-01,7.294690868270880049e-04,6.524402231170386979e-02
2.583756463341305154e-02,2.670268125481469607e-02,5.088790965959849588e-02,3.557619461396746563e-02,2.610351803203517229e-02,1.968010465034952458e-02,3.870329242776151396e-02,1.703558678875399801e-01,4.639065532355383242e-03,6.796509244056944676e-02
7.158861184739229166e-02,1.641811138976639189e-02,5.680955116174916247e-02,3.090955425111793428e-02,2.420121895367967346e-02,1.944819055736646263e-02,4.216297035606307586e-02,1.469760378418834834e-01,1.032432471086664957e-02,6.994697045107235722e-02
1.153184072153107531e-01,2.716303906312449862e-02,6.714053026028068971e-02,2.269389055921610873e-02,2.136147860913967592e-02,1.785440931205016513e-02,3.487973170731764605e-02,1.173427998737824607e-01,1.286545605419846597e-02,6.357924205926719641e-02
9.838593899355282946e-02,3.839339782264370587e-02,8.904349388503406126e-02,1.756805857822841058e-02,1.826526801609983791e-02,1.356538249490961412e-02,3.926092470994131667e-03,8.945920141952012905e-02,8.762394533756387785e-03,5.115959949134931545e-02
4.368288730672847259e-02,3.803939192315040907e-02,1.147720557300569294e-01,1.727291083262516916e-02,1.293251800563115228e-02,6.099796599965653758e-03,3.618083462918898069e-02,7.562296379863867046e-02,2.111274759025990721e-03,4.481564178919331121e-02
3.286619205878167638e-02,3.579207297614349359e-02,1.343032535106814529e-01,1.806421718039565374e-02,4.769267167127441004e-03,2.368053094154903664e-03,6.305886086408557523e-02,7.229889414613738241e-02,6.179564080185280528e-04,4.845577687838078379e-02
8.620702789815332112e-02,4.326466176555984755e-02,1.507578104917117190e-01,1.968013085923874320e-02,2.905166063319737299e-03,7.829078073450835423e-03,7.292460379146513405e-02,6.263429007359898326e-02,9.714906798014896067e-04,5.172336893277441894e-02
1.330682140721196616e-01,5.416221234858924205e-02,1.658401977019230977e-01,2.384461602433974800e-02,6.934286803736590746e-03,8.287044370729797910e-03,7.403240065602079145e-02,4.124904701937440188e-02,2.915258753936522153e-03,4.475059626124634066e-02
1.154235377882503466e-01,5.501104529920843034e-02,1.637928671341942477e-01,2.445821649286211014e-02,8.735296940478601280e-03,6.079279515755871104e-03,6.707738936148884001e-02,2.051324574025204309e-02,4.501293899541823802e-03,3.017797156043031809e-02
6.433194691174330682e-02,4.679406542414589476e-02,1.367110805460103606e-01,1.308356328979765407e-02,1.159355003250577346e-02,5.003580275178168973e-03,4.705708515405304659e-02,1.331296886646279529e-02,8.250559943574566762e-03,1.713515137557740375e-02
4.582444180044485671e-02,4.048938538601944137e-02,1.065034700258915418e-01,6.191658873892006559e-03,1.557179834016128583e-02,5.988397063618870926e-03,1.695292069866275592e-02,2.153032267574983907e-02,1.368384216329294502e-02,9.965442341565110967e-03
7.422887892402151022e-02,3.524617760274882661e-02,8.602657734182293792e-02,2.178223125797647958e-02,1.875718459644118083e-02,7.633422067088881276e-03,1.267937950560950842e-02,3.598017642596918614e-02,1.747470522687916833e-02,7.870697510770390676e-03
1.115373474659663994e-01,1.919705777277101733e-02,4.786297088754838669e-02,3.203247374403424969e-02,2.137529697246940558e-02,9.946878230885266778e-03,3.504936927662431756e-02,3.970262504486066213e-02,1.935671551976020713e-02,1.088382667858622636e-02
1.213925516854286457e-01,7.576811354026801067e-03,2.119186271386820294e-02,4.270221317203749811e-02,2.440478838530458008e-02,1.396741700998523419e-02,5.043174683982288437e-02,1.942184904331435008e-02,2.206353760894909713e-02,1.921611228874576388e-02
9.863597088024718407e-02,2.866900261847865616e-02,7.406400804828011664e-02,5.175271155285227770e-02,2.626943496661649641e-02,1.801957464582594481e-02,5.832110122117217105e-02,2.295859559536518602e-02,2.611106258050149842e-02,2.818640165804411554e-02
6.602589701856022286e-02,3.300937747866170696e-02,7.125871538496561519e-02,5.188164572786511941e-02,2.499252827364816312e-02,1.852102512750182853e-02,5.175843192777639795e-02,7.443887507613285159e-02,2.963685115655299157e-02,3.008945426176463933e-02
4.984444803340289110e-02,2.642720231456257077e-02,5.193705885138946710e-02,4.403036974778247459e-02,2.152346805368327703e-02,1.499747499354923790e-02,2.514250170738071763e-02,1.175127624946807892e-01,3.177673995494324777e-02,2.226585576530499058e-02
4.368249517673050697e-02,1.896982332446249531e-02,7.049497407580165853e-02,3.552538996484420203e-02,1.764949779747556138e-02,1.080795727013096445e-02,1.216959646478955707e-02,1.297613474267304834e-01,3.165263677682221555e-02,9.981280505421874852e-03
6.034538853313737260e-03,1.280995811900116459e-02,1.054187585079110479e-01,2.829138763230601775e-02,1.302134306022355130e-02,8.336682985032917853e-03,4.017112819807228813e-02,9.947976178330014685e-02,2.659093133685820273e-02,1.874446004841703525e-04
8.579295950702779672e-02,6.425150248572777945e-03,1.051110486150276385e-01,1.968327005190000784e-02,7.268662919065351120e-03,6.451752904437862979e-03,5.323834432655460969e-02,5.231976096001031418e-02,1.671974405224994215e-02,5.528100653719551782e-03
1.906677035186085112e-01,2.058841511430525156e-03,8.629270660809622295e-02,1.231635241994177843e-02,2.703075331918824552e-03,3.769688635904070058e-03,6.962075162716585552e-02,3.896319624561655343e-02,9.268413531548167980e-03,1.013960557486033587e-02
2.360778305464426019e-01,2.835501366990322934e-03,1.055965742545318525e-01,1.225493376082207285e-02,1.718812229680800104e-03,1.750900955129162289e-03,1.037943664352819761e-01,8.049665405502717808e-02,1.194899687398049207e-02,1.430721738050728248e-02
1.945597247607969704e-01,5.503069237748925771e-03,1.564969754288746406e-01,1.789440993576365754e-02,3.127524071231943970e-03,2.162071245561819361e-03,1.406127331809234049e-01,1.412341566648362134e-01,2.223097653527191658e-02,1.412404094793454079e-02
1.123470833912464523e-01,2.577438064655079505e-03,1.723333775589329098e-01,2.083081637844218931e-02,3.718710760179443336e-03,3.236507116367000683e-03,1.542546362897324330e-01,1.677861989824010192e-01,2.895230320994036585e-02,9.428387243295636988e-03
5.954789689793659607e-02,7.512123308740587674e-03,1.245094764731003723e-01,1.809534264551158900e-02,1.769540947258752559e-03,1.464546981862301046e-03,1.448212009454514781e-01,1.437783892020821352e-01,2.534612914296137040e-02,1.074616846250879554e-02
6.162055377347862989e-02,1.902430442047186795e-02,5.710007675758636131e-02,1.397728653376121080e-02,3.073113823375224485e-03,3.712761688285911525e-03,1.352873693135621114e-01,9.690338489310114378e-02,1.541095272282919613e-02,2.827971575964033021e-02
8.438885126684747551e-02,2.922253194580358426e-02,2.555603002043564317e-02,1.062638635496482992e-02,1.018604999606214159e-02,9.244907585218923793e-03,1.353301511811278168e-01,6.163112104804347596e-02,6.725297942911654878e-03,5.421099386090558886e-02
7.803616679848264515e-02,4.004259720918457860e-02,4.222846745903107574e-02,6.932032585391357214e-03,1.529596603368947941e-02,1.124308987088354361e-02,1.305785924465059089e-01,4.576895301999635290e-02,2.320282228623815959e-03,6.790360140697594693e-02
2.461290931024376349e-02,4.560246609314983629e-02,8.219772799408120445e-02,5.071520585551120980e-03,1.204584834119823596e-02,7.626865287063110295e-03,1.095200871610714360e-01,3.156389049119925905e-02,5.617240114456360962e-04,6.027797641095507947e-02
5.320835617834771686e-02,3.207758128590957464e-02,1.171757426184567019e-01,8.336021384832918019e-03,8.382173023684879286e-04,3.656416367997313184e-04,8.040721175699712397e-02,9.167127486802151282e-04,1.876098610031544031e-03,4.199507920578259001e-02
1.120346626800811790e-01,1.189291677333352039e-03,1.348976733049791488e-01,1.365857047210188892e-02,8.523070599693949659e-03,4.931089456434388160e-03,5.657042286261320524e-02,4.619076855694852213e-02,7.439595604193667555e-03,2.708339992539080671e-02
1.114181430379151544e-01,3.368793867153838800e-02,1.298248693549028110e-01,1.395375169700218201e-02,8.353673586695403025e-03,4.496655621930491925e-03,4.006067708611724815e-02,9.451237947124116467e-02,1.457597120811983740e-02,1.894285240732773712e-02
3.644408613543843878e-02,4.671115388739732754e-02,9.228900785486959801e-02,7.649497415754524451e-03,3.249054699779570145e-03,1.140965733141571401e-03,2.470982268647995903e-02,1.238593728569581942e-01,1.861862193675387772e-02,1.395566688724758989e-02
8.418798747373655578e-02,4.250969880854199578e-02,2.821682742746010886e-02,1.165844833456646228e-03,3.130119955368419575e-03,7.566144339616889206e-04,7.597273342481008704e-03,1.149625304283143079e-01,1.849439293317374847e-02,1.075316028942382637e-02
1.861479187198343821e-01,3.274942867082045878e-02,2.202900774820686081e-02,1.244711388453581275e-03,9.280380822267921687e-03,4.686916224137999999e-03,6.238160996617111292e-03,6.046273297833786031e-02,1.865539370855752790e-02,1.097097907923729777e-02
2.123088703235442853e-01,2.119035154423442105e-02,1.819988291175761094e-02,7.554567383356303178e-03,1.391937994441274848e-02,8.584829387652556307e-03,1.143076871715415117e-02,1.864448234572975080e-02,2.089187604235939050e-02,1.354026296632323580e-02
1.541337353745583505e-01,7.280485982493026774e-03,2.824825899963482809e-02,1.430559305810741311e-02,1.242514500982630325e-02,8.603326910244377818e-03,1.356033438632458892e-02,7.965651964498876580e-02,1.989266501277563853e-02,1.428004337936330213e-02
5.305782109700896143e-02,3.867963249835459048e-03,6.504770744602374200e-02,1.718097778758017474e-02,8.852806987712569242e-03,5.591787488007820758e-03,2.409173210813314245e-02,9.668524963939918726e-02,1.226752607885600935e-02,1.217170970476814246e-02
2.976194492666291158e-02,6.236571788858257144e-03,5.626529359415640558e-02,1.614910667303846512e-02,8.236350388956752144e-03,2.673722842218430751e-03,4.097517340426286986e-02,8.497775381332609013e-02,4.126965643746134324e-03,1.099831119349328409e-02
5.527197478728670954e-02,3.635693898270248720e-03,9.308767809482098449e-03,1.242837697778872985e-02,9.439100265665335832e-03,1.225053481865090617e-03,4.752852386527083028e-02,7.344439400893755521e-02,3.219917905296206147e-03,1.357440093296170824e-02
4.096128236611690926e-02,6.920740899890807582e-03,3.821659450427842414e-02,6.463362656491431803e-03,8.567504954794772851e-03,7.249746240823488159e-04,3.782783165687634425e-02,6.487844961533806298e-02,8.388794979260665377e-03,1.796577679341159264e-02
3.681676081151825930e-02,1.862047625793469829e-02,4.491911284369630442e-02,1.252346979015088284e-04,5.910760744476249891e-03,1.500072267670042895e-03,2.802089599622858626e-02,4.440076399834903126e-02,1.255428521816749111e-02,1.906400852815180388e-02
4.823156354040421256e-02,2.591833779554355080e-02,2.214053194190926041e-03,4.789092315449912721e-03,5.331726091108601739e-03,5.013573525775475576e-03,3.192742050739726806e-02,1.601091500037508247e-02,1.202824100559997909e-02,1.263541622832582700e-02
2.932150834731810790e-02,1.553871566964974173e-02,4.818691674289966864e-02,8.133971645105122356e-03,7.348864878685154242e-03,1.020168451224720552e-02,4.109520481868050162e-02,1.949173990182628824e-03,8.229202424514183919e-03,1.550782351656622340e-03
2.367390488136766544e-02,7.916688170607800307e-03,5.576371595483510524e-02,1.281403046398381720e-02,7.552259718015355908e-03,1.261308786349165344e-02,4.156741844275966408e-02,1.140986976368515808e-02,3.523097090466847763e-03,2.118388551557860711e-03
4.895567238876642746e-02,2.956359397242797754e-02,2.217491293764346436e-02,1.690108170280062161e-02,3.814130652299439067e-03,1.034546157665119578e-02,3.507706067076499928e-02,3.446323831802920734e-02,5.716598135613378418e-04,1.117113072802727175e-02
2.374437535889837095e-02,4.647531866061022782e-02,8.924253693916792129e-04,1.506822786430314295e-02,3.542106830190811656e-04,7.697256656800992476e-03,3.006747031876899970e-02,5.867434394098317713e-02,2.655632220064294696e-03,3.390737548558533931e-02
4.314880999192349624e-03,6.539325827837103033e-02,2.986354500909763759e-02,7.920367427261175430e-03,1.097660801937498914e-03,8.821710102885597579e-03,2.549247217422659362e-02,7.244475516556397876e-02,1.734022563380907241e-03,4.788486859582225669e-02
2.678044847772190554e-02,8.129701397349174685e-02,8.165007153941178375e-02,2.961228724603526263e-03,3.138477312799274090e-03,1.106445554817351434e-02,1.750473046010657743e-02,6.360016513367111601e-02,1.398000883799651673e-03,4.588906302586479719e-02
5.615586427297886152e-02,7.991054133634066525e-02,9.980641601190946843e-02,4.858840691239649408e-03,1.211063123021648060e-03,9.356652004394633987e-03,1.164492562700335590e-02,3.082436515455116294e-02,3.342428524135331210e-03,3.703691833653972171e-02
5.724180744184293596e-02,6.155159274499179961e-02,7.170808657908581130e-02,1.108252460977113101e-02,4.467706546757572485e-03,4.151901958165049415e-03,1.528878758585247404e-02,1.045902777925076382e-02,1.885923478859104132e-04,3.003993862880459040e-02
3.259360454346778985e-02,4.165510074032412191e-02,3.108760525813344250e-02,1.816999299963990150e-02,9.650382415108802250e-03,1.475340662615947361e-04,2.479480831692418979e-02,4.087663317343056407e-02,7.078813246540567247e-03,2.258860114184810600e-02
1.434459527458825656e-02,2.675645557484316803e-02,3.893425889620496030e-03,2.649989281023718696e-02,1.315146299423206391e-02,2.282163266631618507e-03,3.043057518913914669e-02,5.077813892657748879e-02,1.109973699378932581e-02,1.059479936517215837e-02
7.437859010649773561e-02,9.493314625095375728e-03,4.571947846643356628e-02,3.594949063696126906e-02,1.667132335862890266e-02,4.153328269694521457e-03,2.934600988327749210e-02,4.110660307897066185e-02,6.429571119847278179e-03,1.562158500544193022e-03
9.949039869517997681e-02,1.059129359311567278e-02,8.473206694990001453e-02,4.030658321300205349e-02,1.821589862509349900e-02,4.965221859695531474e-03,2.661164483263671679e-02,1.902621221559478576e-02,2.783707879904050945e-03,6.419793153356008475e-03
4.702810119991196469e-02,2.030558289716731871e-02,7.717357166336649699e-02,3.148974527811485707e-02,1.256086719724679342e-02,1.286518956676096365e-03,2.764726484505368106e-02,5.049253545150148188e-03,8.417321159267307853e-03,4.474614149452658604e-03
5.047587916375038952e-02,1.260281917035078157e-02,1.038456907531945528e-02,9.659676487260264108e-03,1.950272329267384048e-04,6.423724674660066976e-03,3.402212468600116640e-02,2.145397507244703461e-02,8.718131247839608702e-03,3.080798020992558429e-03
1.104311039285829354e-01,1.929595398996675204e-03,6.578062080733201866e-02,1.592567010093468016e-02,1.245014590414756164e-02,1.245716951787984549e-02,4.241031706919166921e-02,2.605497626070429548e-02,7.479353847816602729e-03,5.508137159440229871e-03
8.904153369387277084e-02,9.781483351199903031e-03,9.790866028197071913e-02,3.606865807448608047e-02,1.712551589106587474e-02,1.216884147354719940e-02,4.562719510017505115e-02,2.402110022946365997e-02,6.460943848457912676e-03,7.989226505201474718e-03
1.936872529732031403e-02,9.033745276799138441e-03,8.370616748574945254e-02,4.665005684455332535e-02,1.385165279260917350e-02,6.260492699843038869e-03,3.881376433778965102e-02,2.929327593660757678e-02,4.770581204882151476e-03,8.415001970337168333e-03
3.388051874943099478e-02,4.267979654428063693e-03,5.457676642492296365e-02,4.758356883308737656e-02,7.687549883272319119e-03,8.499882197106809444e-04,2.460479477556897984e-02,5.054797190127863910e-02,2.603828452230663813e-03,1.009025261116504833e-02
4.434524090316159517e-02,2.825156255211056389e-03,3.618720330965195797e-02,4.305443670734774436e-02,4.718675417098242529e-03,4.393601220643451009e-03,1.009392000980011833e-02,7.269655581051558124e-02,5.455120365123561311e-04,1.389152137877519913e-02
3.519267288493931056e-02,1.282920939312898537e-02,3.388373229014644827e-02,3.912610275302071117e-02,7.213508737422488076e-03,2.476078874434808029e-03,1.309896033952492357e-03,6.729002089416624699e-02,1.287384472104451377e-03,1.482888850844136033e-02
2.277162880425516456e-02,2.478584412619278671e-02,3.568160703763716829e-02,3.669395606340569022e-02,1.185313583192527248e-02,2.302809573486466494e-03,3.372391323316747264e-04,3.021614196784589215e-02,6.489185773895506234e-04,1.128262818384997458e-02
6.294673309269424935e-03,3.540317736999278736e-02,2.645461374883435399e-02,3.130760414669590819e-02,1.431608955028511147e-02,5.615868959993829644e-03,4.102610400751020500e-03,6.384363219231694100e-03,4.700552870260006622e-03,1.019167204877288735e-02
4.743485234403944234e-02,3.880250141319057516e-02,5.207526413161134293e-03,2.178075980442168921e-02,1.402047588091044975e-02,5.775807177422993821e-03,8.313876963798958603e-03,9.508454863487114661e-03,1.060480802680504112e-02,1.695106288494868663e-02
6.806762990561507354e-02,2.895783322893789868e-02,1.670597285935454882e-02,1.292653779580162782e-02,1.262836133416871814e-02,4.291256206825811922e-03,1.425452080978795860e-02,1.782450952868697147e-02,9.142286424180081153e-03,2.641141158581721687e-02
6.373365010056912527e-02,7.239354116889055654e-03,3.336076796337639205e-02,8.139917373136433196e-03,1.105965355568244365e-02,3.138982419453034602e-03,2.598679895228854508e-02,4.115435163866025536e-02,7.314909483038116748e-04,3.017021867855685172e-02
6.116882806806563100e-02,1.484561952151064804e-02,4.998708863585239054e-02,4.985978173137750082e-03,9.566649542401611458e-03,2.523821965203377170e-03,4.013434527246066696e-02,3.188461446701967156e-02,1.116529371336353466e-02,2.766941993400205344e-02
5.749652552182605431e-02,2.584410250619361207e-02,7.148962680282491822e-02,1.678618080781945797e-04,7.886488640698692543e-03,8.276501848939797710e-04,4.611946537793178841e-02,2.999754073681898132e-03,1.475227105996144289e-02,2.438065134575765139e-02
2.405860964849725059e-02,2.532331780189328932e-02,9.437777297540865529e-02,7.687917124258591972e-03,5.058510697480919811e-03,3.031594977794306329e-03,3.888844584395916015e-02,3.179750840022921299e-02,1.109173376942661736e-02,2.252959910386292952e-02
2.585008603154603790e-02,2.046416972906794918e-02,1.109978137010213112e-01,1.580973935683838150e-02,1.272732002079726091e-03,7.147000810613660972e-03,2.590901021243668251e-02,3.697317452766425705e-02,4.070029732760128797e-03,1.833402883305856879e-02
3.924826645363466149e-02,1.571951612816797558e-02,1.164277787987639673e-01,2.197036756405769398e-02,1.467377443648379930e-03,8.442739086027026968e-03,1.868465574198798287e-02,2.948275916068407790e-02,3.287569867012000557e-03,8.069126450603810591e-03
1.330582624105583044e-03,1.139905965614246980e-02,1.108943683677661440e-01,2.202542022708169761e-02,2.200792804676752340e-03,7.187006172159810836e-03,1.973569164939521087e-02,2.130121227206618201e-02,9.600055494393560512e-03,5.446969759292540590e-03
5.828224085324831133e-02,8.710756155549535112e-03,9.861586841916866741e-02,1.252109405803669695e-02,2.194139963730903139e-03,6.558996974471206082e-03,2.033894651957308952e-02,7.204008882959434326e-03,1.237314773146347760e-02,1.502061305022628704e-02
9.564999066729969190e-02,1.021574638187744584e-02,8.403373311800362011e-02,3.844712157683023018e-03,2.492414732471208341e-03,7.446861762669747600e-03,1.163044495065972996e-02,1.308699826201753166e-02,8.200358868711947469e-03,1.772855803242891215e-02
1.102602632801787663e-01,1.637410096564938938e-02,6.759802537627870866e-02,1.829942052766194566e-02,3.318971197587317588e-03,7.783897978897939829e-03,3.129233414496610140e-03,1.900483020057625386e-02,1.984186312585228297e-03,1.665368719950667195e-02
1.046207159679568566e-01,2.393672576483063530e-02,4.752604919999010163e-02,2.417181114547098386e-02,5.815173881130102779e-03,7.303230530920535798e-03,1.040299611697039286e-02,4.875680413295360033e-03,1.102594416586486284e-02,1.354565613315775532e-02
6.879942761039972710e-02,2.746021612745266210e-02,2.713848745477166410e-02,2.238919237246952965e-02,1.076516938650507078e-02,8.305005583768208105e-03,2.277575918646432794e-03,4.193275882762891732e-02,1.236769899884979443e-02,7.358397770300947188e-03
3.112823431326584497e-03,2.311447486755771955e-02,1.594683462203025370e-02,1.743010197111688475e-02,1.592910347557806652e-02,1.116706345010612389e-02,1.277047166017762983e-02,5.793170811074964399e-02,6.671273230584561995e-03,1.052406029823275014e-03
6.539347700427779186e-02,1.119609014349798662e-02,2.053565867841330300e-02,1.162284533965883375e-02,1.821094048652848255e-02,1.323054044617934071e-02,1.930914334651005759e-02,3.784346975561005133e-02,5.852889916946059888e-04,5.429131999391276567e-04
1.077115891080211024e-01,4.813577714057573793e-03,3.658157393557300713e-02,4.970078486426369839e-03,1.809209937812559024e-02,1.296188567562192757e-02,1.348075538363535317e-02,3.001745661687600219e-03,5.743174489528686880e-03,5.047662095780673826e-03
1.241551942669230357e-01,1.881202476144630889e-02,5.061377974828808191e-02,3.019629812113088386e-03,1.862363730575702231e-02,1.229346018662399315e-02,6.378201466686538382e-03,9.652346197640323394e-03,8.991112695210986758e-03,6.586181653714603262e-03
1.364394996204425226e-01,2.391709305650167525e-02,5.093881969859593434e-02,1.286247537935201329e-02,2.048750693145091548e-02,1.369820826151471604e-02,7.587047397238508989e-03,1.284341184891895846e-02,1.167074392275522718e-02,4.806595922754825986e-04
1.536532161217862291e-01,2.048802234309226103e-02,4.048429245245228902e-02,2.406400922637467674e-02,2.138603955606250412e-02,1.642130341950698638e-02,1.121462038888270188e-02,4.495251627706064318e-02,1.436277636330354594e-02,9.634411043481665160e-03
1.604748537810803954e-01,1.860399051847191204e-02,3.485003648643066054e-02,3.319705766208690817e-02,1.999632316054772777e-02,1.702021733745357618e-02,4.205334328859255608e-03,5.335075938579889043e-02,1.710627236168418136e-02,1.769411411439278381e-02
1.436541673186330637e-01,2.393350129213368815e-02,4.049105390959687606e-02,3.443658359233957300e-02,1.721027975704754465e-02,1.333147638005775272e-02,1.421593926587520242e-02,3.616390037502403149e-02,1.920854239193814719e-02,2.163801499973248138e-02
1.177557331705701427e-01,2.730990803553329585e-02,4.196285178288344103e-02,2.464745798861731757e-02,1.377291791404708365e-02,6.588941672711244417e-03,2.996783978088787825e-02,2.229135277103167292e-02,1.912197516458621557e-02,2.351882139297899882e-02
1.071496519310188855e-01,1.848293761069728577e-02,2.266048082692827606e-02,8.660087108617835552e-03,9.811314003811719836e-03,1.670313910964724754e-04,3.269864817798546347e-02,3.639820711033480566e-02,1.585388911771102444e-02,2.581947136471864079e-02
1.096364418216897868e-01,3.067588393486185474e-03,8.856129147293320680e-03,3.143668993291687253e-03,6.323036579233113491e-03,4.425962220979539653e-03,2.924454030085717193e-02,7.507666558493783504e-02,9.712197923863727378e-03,2.837978530548017353e-02
1.028343874842880395e-01,4.291834928367582909e-03,2.776806399443958878e-02,4.023442634797909020e-03,4.701917352074593340e-03,5.479396698111161854e-03,3.289501850215410805e-02,1.145113354082177431e-01,2.005708584142240798e-03,2.877824765609893545e-02
8.027968165234103393e-02,2.342957009929133583e-03,2.311706131668849265e-02,3.993058793736310036e-03,5.264590402904041275e-03,4.510939259954525188e-03,4.355072523555374858e-02,1.320098622483118489e-01,4.104116595041448941e-03,2.592885568865238924e-02
5.321932528125578044e-02,1.633735569977933996e-02,5.784006189457790992e-03,1.417127564801476565e-02,7.395753384073730854e-03,2.843370783836555137e-03,4.708318791811424292e-02,1.222632422063497926e-01,4.981189510103772172e-03,2.160331728140160376e-02
2.555760857774124969e-02,2.745756789494959924e-02,8.756347866036641100e-03,2.172844153854249991e-02,1.010881434733675553e-02,2.379874925340637153e-04,3.473266376517098603e-02,1.007703170146726085e-01,2.292580907744559866e-03,1.707678838750437481e-02
4.344086422023029845e-03,3.084908272752640360e-02,1.398507084509149553e-02,2.569847445466151570e-02,1.182953703543157715e-02,3.583501374797041714e-03,1.430603190527645480e-02,9.035010835035472976e-02,3.546934619518706151e-03,1.131069167981604492e-02
2.650710859024099642e-02,2.943771952881660270e-02,1.221079445893037858e-02,2.618210952513552736e-02,1.071346785067977918e-02,6.730387659514345915e-03,5.512080296447455056e-04,9.893985493636971162e-02,1.238827689740567596e-02,4.084689948932359628e-03
2.985109368851168038e-02,2.796586460817655773e-02,9.920818895592254522e-03,2.282585886664663388e-02,6.288937532450634450e-03,7.060267215865768248e-03,4.284823648752215247e-03,1.122627871969403418e-01,2.284073348916927995e-02,3.409161332760881312e-03
2.343188871236637216e-02,2.571966837112711970e-02,1.241105616545665376e-02,1.726279103361352471e-02,8.263621876742881928e-04,5.453979063931977192e-03,1.436133561779290649e-04,1.102715471481900550e-01,2.753753603279261372e-02,1.220291286276894288e-02
2.857715162056878588e-02,1.908633676486856320e-02,1.855682821994637452e-02,1.391145735534256647e-02,2.241248541949089276e-03,4.268044789089783450e-03,5.680856170413335106e-03,8.464662906077981275e-02,2.649016951056152452e-02,2.402641892699157802e-02
5.285247315569936710e-02,9.872844782288503485e-03,2.141661230397724422e-02,1.557279332115138470e-02,1.917943852589699006e-03,3.452781407652243811e-03,7.862067037730234229e-03,3.933800516668491121e-02,2.349686128513066297e-02,3.531865276660355046e-02
8.032159676130146142e-02,4.868633659013112125e-03,1.657227894711813324e-02,2.080437965693164928e-02,7.755879518082844232e-07,1.685568394538593771e-03,5.451961752866120101e-03,1.229427896023827307e-02,1.910224293033020021e-02,3.917371696797624508e-02
8.395976047549605359e-02,6.699348982620893442e-03,8.560052750839285129e-03,2.728386190815865545e-02,2.273336858961043719e-03,3.682226181601266825e-04,4.108956769061545763e-03,4.579354159357192089e-02,1.165134734065743742e-02,3.416332316103354305e-02
4.924866274812034900e-02,1.057095141692679548e-02,4.719267913067879197e-03,3.412768834845426869e-02,4.742360486170961280e-03,1.827069988055326751e-03,1.099195955531384605e-02,3.961359426316683752e-02,2.529169974873047688e-03,2.572855594785932246e-02
3.421288483644575537e-03,1.210171273853955995e-02,3.823247264823977087e-03,3.971928963843426169e-02,5.393222353579297385e-03,3.920740366746441191e-03,2.571775559088896462e-02,3.500476067785097609e-03,2.698690829238655289e-03,1.893776510372000357e-02
2.577534114737840484e-02,1.337056852353063312e-02,1.517797297897975151e-03,4.092149440132673149e-02,1.311593184759614296e-03,1.902384568696277806e-03,3.895701582221740983e-02,2.078086725671204199e-02,8.939002283198729804e-04,1.455567148343728419e-02
9.188688698045717126e-03,1.621689645327303517e-02,1.117726283798850008e-02,3.544295806273136534e-02,6.458575020695082186e-03,4.192749530892046425e-03,4.070816844593383443e-02,3.006805240937044169e-04,1.110518179258344548e-02,1.125180121280784130e-02
7.000156978010024789e-02,1.381439496323338609e-02,1.713053593191419394e-02,2.359119788191321732e-02,1.299535580120991275e-02,9.481459801589124312e-03,2.906983760583224316e-02,5.506725937653899478e-02,1.934123652613284339e-02,7.809250312227568672e-03
1.003815354946241550e-01,2.073458927801483023e-03,1.791589435459190957e-02,9.038545969853765266e-03,1.513229877743803645e-02,1.121437273194003659e-02,1.178660689152698227e-02,1.072972218653545362e-01,2.019410879135185091e-02,4.136068996157926669e-03
8.358655225478726913e-02,2.659359129625270962e-02,2.014283061850296111e-02,1.752704377884720804e-03,1.368877612100246645e-02,1.042887147903165564e-02,7.424970805360148716e-04,1.288265958211460005e-01,1.657477681729398883e-02,2.030154948519499649e-03
5.272115301360220246e-02,4.443457675702489756e-02,2.387896227855411391e-02,3.828978143774182039e-03,1.033204081027971899e-02,7.883417944606105343e-03,4.956493351318679193e-03,1.184021099899650181e-01,1.300628177535960613e-02,2.980520676564416861e-03
4.503860252352540061e-02,4.799818725650110973e-02,2.165727742216097540e-02,2.274955414429792513e-03,5.792344603879237032e-03,3.859548301553311807e-03,6.155544435527543490e-03,9.425580430552549238e-02,9.367284132885568895e-03,4.267551357688571974e-03
6.342788030051502157e-02,4.376578656289602243e-02,1.396113865150541353e-02,1.265357364769768844e-02,1.417161618668283385e-03,6.232304490090816596e-04,1.103961802231591231e-02,8.619294485648268389e-02,4.098437430474873543e-03,4.864869792474456681e-04
7.975710112111168704e-02,3.872252961906100938e-02,1.014555427213468565e-02,2.350030192879893481e-02,5.709358285494567538e-04,2.662656337677872867e-04,1.911680280649514369e-02,1.159022652761052957e-01,1.915125899068895882e-03,9.592262316389417107e-03
6.912881128358681904e-02,3.029469049611738934e-02,1.242290091360732235e-02,3.015320526065795939e-02,4.064957440656801532e-04,1.443933956219720918e-03,2.240292157293607284e-02,1.672090887573412510e-01,7.282499778649037178e-03,2.082512108214970570e-02
3.868674433326899087e-02,1.495881067326684279e-02,1.403087895361167931e-02,2.773779725843524349e-02,2.225787084758103218e-03,1.693152674706871171e-03,1.522041509911700730e-02,1.958275967020995378e-01,1.151268367223386678e-02,2.747287213846639695e-02
1.565592335691670320e-02,1.359462984144495148e-03,1.405704775804932777e-02,1.744792455330742773e-02,2.770278006292536087e-03,1.088288403935011714e-03,2.200965025324358101e-03,1.827915180933031847e-01,1.321580275442551036e-02,2.800743365459810313e-02
9.710232464692179766e-03,1.076510204338143942e-02,1.908539857529436071e-02,8.459294781075125599e-03,2.376537070628802033e-03,9.797827884563685592e-04,8.164532467419972905e-03,1.539349756281558623e-01,1.094283834618703898e-02,2.412292978702189686e-02
3.641761165958227499e-03,1.747137172169044989e-02,2.865415303746594172e-02,9.027955874739649472e-03,2.368855480022127088e-03,1.326186737903980138e-03,1.434190234530363477e-02,1.349649255647712154e-01,6.364920499220469256e-03,1.942201443713187717e-02
1.735246116628722315e-02,3.137217418991279649e-02,3.298803819896160838e-02,1.747511816631857132e-02,2.743215566249426057e-03,1.510945790205351757e-03,1.956129348513482857e-02,1.149569147183462370e-01,3.258400576337811515e-03,1.933100595644484873e-02
4.303807449937634838e-02,4.519188573671587689e-02,2.806852366713412025e-02,2.444123740627040381e-02,2.895537503617557056e-03,1.839617867963638017e-03,2.441784883587212393e-02,7.200067692757763926e-02,3.247177680141806553e-03,2.684873288636733038e-02
4.879601235505771906e-02,3.469195968338641134e-02,2.120313031205535437e-02,2.257306378968293448e-02,3.181231408135496395e-03,2.505271380743817871e-03,2.906868637159648605e-02,1.672542600739181443e-02,4.786732986252171217e-03,3.623806004346299264e-02
2.063107695055308929e-02,7.766310713336695495e-03,1.783427195963150844e-02,1.246037802762040882e-02,4.015781307154914735e-03,2.833208854132570481e-03,3.616703230492208238e-02,1.182200032607268539e-02,5.781502926665920208e-03,3.524928784157040779e-02
2.957451588441647322e-02,5.544805245646035330e-02,1.302072757795794296e-02,2.967742842580590144e-04,4.606560341099103818e-03,2.690322638177362717e-03,4.448876363464446954e-02,6.828179630728839142e-03,5.635695495625975618e-03,1.744681227951032365e-02
6.890748308968493163e-02,7.686699147159288537e-02,2.021377876298803035e-03,1.258173844743315159e-02,4.170430339154313285e-03,2.752353388315230583e-03,4.584704686891030029e-02,4.758662946596100424e-02,5.360272528690478676e-03,9.072488961634813526e-03
7.036872486827525086e-02,6.967496745395573843e-02,8.227065760580083709e-03,2.660328752240908798e-02,3.367546372084868466e-03,2.868296353093064115e-03,3.460184562923012547e-02,6.743147889697927166e-02,6.487989924125840517e-03,2.839476566152544443e-02
3.936715675430113581e-02,5.216737326240575984e-02,6.964968706687366812e-03,4.443887123457905541e-02,3.164314665252481243e-03,2.366173829369151542e-03,1.634410734157836984e-02,4.764987194036067464e-02,9.382341565790774246e-03,3.201498300621100079e-02
3.543301144533848434e-03,3.456494210463017386e-02,4.238118178255430302e-03,6.217453137839858840e-02,3.306544740739100936e-03,1.825859464974327042e-03,2.360828908966674210e-03,4.044299978965461978e-04,1.267788830389369320e-02,2.508640465249514090e-02
2.271164171351840871e-02,1.412936892045099473e-02,1.310072848691472974e-02,7.221384446714548822e-02,3.120658856755327819e-03,2.177344849246415272e-03,3.334038308585368735e-03,5.530306258398185598e-02,1.480086025152122300e-02,1.820981450284019088e-02
4.494111816995434439e-02,8.613054804256293703e-03,1.503716879194878092e-02,7.081904912065055402e-02,2.908115002524493380e-03,2.745592038302761394e-03,7.605628441314193217e-03,9.719717996905960500e-02,1.493670131475777381e-02,1.675584113840359463e-02
6.092308080886173899e-02,2.404813931509884595e-02,1.955285962430667809e-02,6.163715310393969027e-02,3.367902660272886154e-03,2.348304396599600660e-03,1.773747929373395080e-02,1.145603498018654687e-01,1.205315432401717068e-02,1.937728934219465349e-02
5.487910453459905052e-02,2.582257189444521484e-02,3.386171009903541501e-02,5.124640388420518416e-02,4.133444504660225075e-03,1.318129147712946174e-03,3.098129929354308254e-02,1.144908972341400072e-01,5.293409131915816600e-03,2.261969393095950714e-02
3.016409601247121985e-02,2.076940259150311663e-02,4.945467079635626484e-02,4.238937720863608649e-02,3.999972395266990222e-03,7.983767796162332796e-04,3.769692491172088600e-02,1.165731601301951553e-01,3.336187231371801933e-03,2.311295574302689448e-02
2.157945250344450727e-02,2.058064949649564962e-02,5.274589678074413646e-02,3.398300096350997945e-02,2.681590072507234346e-03,1.063402647862424482e-03,3.288836619459903354e-02,1.289609610404598428e-01,9.017844571011426197e-03,1.863550918759425412e-02
5.461688555004967638e-02,2.563715625145751228e-02,4.302662219392641707e-02,2.650421599765258665e-02,1.367891779010455520e-03,1.597025260353603440e-03,2.171572774379140758e-02,1.421141160246528479e-01,8.953876971815360325e-03,1.163694330768432275e-02
1.076567507407388546e-01,2.486513924983168103e-02,3.130146112881773690e-02,2.222825258100403351e-02,1.040037675713728193e-03,2.023999955164148580e-03,1.401838131451751783e-02,1.486328507665434229e-01,5.729673230674890011e-03,8.036579711124052297e-03
1.361214065822570762e-01,1.373919927863795007e-02,2.481092820310026523e-02,2.078963760115367515e-02,1.268736107087340423e-03,2.220442447930310020e-03,1.502138671539567094e-02,1.528077783773998111e-01,3.756351993646037633e-03,8.319981457095731656e-03
1.282683940084691221e-01,2.429003674558456727e-03,2.119388767862633374e-02,2.023096451715367464e-02,1.430391717615442154e-03,1.928840510916255942e-03,2.170639379062007379e-02,1.566202436031712553e-01,3.469704631321593631e-03,5.283781539116754258e-03
1.133377744625169714e-01,1.510819841783996780e-04,1.649950024963152059e-02,2.128649441289233446e-02,1.764690992559426975e-03,1.030390502391432660e-03,2.715234869062535528e-02,1.531120081018734480e-01,1.756535834218469301e-03,5.402595570698975544e-03
1.103711645740321490e-01,2.087950707522052973e-03,1.062949044577260818e-02,2.534586391232694635e-02,2.263938434996474666e-03,1.860701062968949911e-04,2.730427223648098159e-02,1.401519203436826233e-01,2.489799263759229740e-03,1.864254603250565384e-02
1.003550705018620565e-01,6.026781775650760786e-05,3.731063460889358536e-03,2.969005361806100265e-02,2.059454173755112354e-03,2.785750656887344898e-04,2.355937634169993217e-02,1.264041641345012290e-01,6.717244120809737033e-03,2.665260281342063386e-02
6.795748783883159838e-02,4.002433818697756843e-03,5.761157571911383959e-03,2.845529500793044994e-02,9.843382333671504402e-04,1.022597222670003185e-03,1.966318399870345054e-02,1.154021961501877219e-01,8.942386871802279757e-03,2.668733244486445541e-02
3.516663027909081723e-02,1.611082697467612537e-03,1.636584724103211722e-02,1.755701647144920774e-02,2.721646265363661691e-04,1.290146870376307530e-03,1.778194176593702464e-02,9.712596613727984829e-02,1.003210961584084966e-02,2.146943747443074563e-02
2.350789946222542684e-02,8.708573974284631106e-03,2.207260843731520539e-02,1.103551456420547115e-03,6.804816198422016871e-04,9.474294976479531857e-04,1.825421737912945319e-02,6.646330635080344162e-02,1.078775271448704533e-02,1.607190568480035969e-02
1.784918986690842840e-02,2.068253945499844496e-02,1.973934469086263688e-02,1.856263842537610870e-02,1.319461392619206532e-03,8.495192306042863946e-04,2.015915879505438338e-02,3.623502570332713668e-02,1.036657288044808868e-02,1.340723592400072314e-02
1.459455319358563159e-03,2.804253378958155782e-02,1.446872950256158918e-02,2.464709412011862472e-02,1.300253196417423254e-03,1.063548594902701200e-03,2.012039964035987338e-02,1.753757993127535303e-02,9.014842079541313113e-03,1.166290254227477299e-02
2.664305250546426113e-02,2.996903560536439554e-02,1.360181669627721739e-02,1.776052344833142088e-02,1.086654892531525515e-03,8.681191983817614175e-04,1.447589080825235734e-02,3.409509852681999464e-06,8.845698648352077684e-03,9.035954213251821271e-03
5.045709968059051281e-02,2.876613264444729395e-02,1.770958013096821104e-02,6.223262210989526436e-03,1.177323404182704751e-03,2.315034738281945446e-04,5.351473648465433081e-03,3.371066108606417255e-02,1.023957179066921699e-02,8.342737538015756321e-03
8.607092554836004439e-02,2.437127278953906892e-02,2.127896336270188732e-02,1.475433966888502375e-03,9.563755988733075837e-04,2.500105118615183943e-04,4.921617127834358642e-04,8.234784463484733086e-02,1.065417811147234550e-02,1.087644351383305549e-02
1.302104556402757796e-01,1.500959536614547389e-02,2.141371546875435808e-02,4.050400535653034956e-03,1.025987743818874672e-04,2.677810843552887892e-04,4.041992619322098274e-03,1.250961827331672216e-01,8.814248221250930992e-03,1.054236060052116640e-02
1.457047228343368861e-01,3.542572414644442388e-03,2.179070759731149831e-02,3.989425733795813611e-03,3.371280106419169420e-04,1.865440011504195710e-04,1.089878867058911328e-02,1.431209059859167299e-01,7.363012879440815686e-03,2.536405969615602475e-03
1.113004460757512359e-01,2.807934285412953031e-03,2.562197611600873851e-02,8.786891799384577862e-04,2.730869652708439082e-04,7.991675937335030507e-04,1.348693460837011027e-02,1.380683722803072444e-01,8.678062756434198541e-03,7.803902645152458080e-03
5.571442360037200808e-02,1.573227906162428689e-03,2.814437731297125822e-02,8.839944760329940254e-03,8.194152182846965119e-04,9.438835818302678459e-04,1.171588098927673662e-02,1.253159712050143648e-01,9.427136403995024089e-03,1.303876513543816493e-02
1.450852086956312334e-02,2.003531653811701195e-03,2.165753092296043847e-02,2.530534965103412026e-02,3.659810539221670022e-04,6.547971897392020372e-04,1.223590377303047233e-02,1.104048541331596328e-01,3.236841406905871261e-03,1.353846308699583299e-02
1.513194856627645205e-02,4.004391808233365158e-03,5.988345992006784829e-03,3.952166784172136960e-02,2.539166333670129973e-04,6.994347391095081601e-04,1.842326587570871504e-02,8.492269624772338932e-02,1.020263312596396410e-02,1.242133733555665642e-02
4.564076493180593136e-02,7.693030462404852263e-03,1.187702622495520957e-02,3.848043120628831526e-02,1.065721805780101006e-04,9.964507697051970016e-04,2.502126998004126912e-02,4.739160764750546817e-02,2.279667937848888631e-02,8.544629298746995658e-03
5.564285226991012162e-02,1.607174549695329288e-02,2.590061593277439428e-02,1.999493099300741344e-02,3.083055016934952699e-04,5.877874867308595982e-04,2.454600385480954286e-02,1.099818688490999952e-02,2.708607586111527743e-02,2.507468736504438059e-04
1.824357217203951415e-02,2.300595235743179562e-02,3.352628142163495417e-02,1.729969375025789107e-03,1.238727480246671871e-04,3.707708733978097256e-04,1.723847589011789916e-02,1.372280288885428454e-02,2.364714989004178258e-02,1.056842509481040367e-02
4.447753297224348035e-02,1.793291615376903236e-02,3.382204126414062317e-02,1.100887621369959005e-02,6.650118722260194579e-04,5.343004111995021052e-04,1.137776341133238736e-02,2.932168543731021593e-02,1.728899365177743314e-02,2.045704778528416659e-02
7.773014565352368010e-02,3.843049412605945036e-04,2.768305195590341564e-02,6.691825025164461864e-03,1.318976267626901242e-03,3.475797171019009589e-04,1.264968848567798662e-02,4.166573830049706550e-02,1.067155700328271950e-02,2.408533251979829912e-02
5.770174220015249905e-02,1.500463688086097619e-02,1.760902973999916091e-02,2.030167052187089975e-03,1.035084624994430475e-03,8.856264988223965092e-04,1.676638856428214544e-02,5.030307354929493269e-02,4.748568526514039718e-03,1.358446919428391020e-02
8.602535762342039885e-03,1.378084550858661717e-02,6.017947816155302249e-03,8.840380897507712360e-03,1.177277013760752531e-04,2.281577726642911280e-04,1.524819581523613639e-02,5.016925381818877760e-02,1.068792444692228403e-03,1.272392786770594475e-02
3.504898413585755268e-02,6.037149763114574470e-04,4.094045832891171979e-03,1.120659213531373030e-02,9.905439761807904777e-04,7.555555627218704965e-04,4.388051824756279348e-03,3.808071403668730065e-02,1.156073208002876941e-04,4.247755621724911418e-02
5.820743267401595755e-02,5.093500863420839103e-03,8.480379001554313664e-03,4.271720887196709011e-03,7.690341571634437545e-04,1.022649934713351465e-03,1.409084390732311814e-02,1.758720574348055996e-02,1.005449966291686479e-03,5.917641182970285324e-02
6.134249611092581350e-02,6.126961208629704003e-03,5.255804793071703132e-03,1.491373874283164272e-02,4.650608993961519513e-09,8.178914142678906686e-04,3.512932084288406670e-02,4.476388740764395552e-03,2.887143680203544966e-03,5.821952481143962549e-02
4.554158566897727883e-02,2.246385702510250021e-02,2.136301310173744500e-03,3.842235806244950758e-02,5.665126920999187434e-04,9.261188033625594989e-04,5.007347163609898039e-02,2.747515135284319190e-02,4.325682280205394442e-03,4.649547758945741377e-02
1.055855724930620035e-02,2.847948430604290912e-02,8.380101736116168931e-03,5.243959723874334899e-02,1.110613784256882838e-03,1.331711570194890181e-03,5.091229797419578873e-02,5.293407055968245289e-02,4.229168784112423592e-03,3.090479267720736001e-02
3.462185070170216428e-02,2.461080456691220122e-02,1.114271611548295175e-02,5.162268493891009752e-02,1.720799344510793227e-03,1.342913023655499484e-03,3.724258238776281121e-02,6.952757313655250071e-02,3.918468017274344753e-03,1.477861805432814125e-02
6.944224534546633576e-02,2.203045801433279813e-02,1.073475447366254408e-02,4.093613439581837710e-02,1.603530947717690495e-03,7.601921507085183938e-04,1.506904692175320068e-02,6.244461278468019239e-02,4.908608367847411454e-03,1.367261524715317460e-03
7.750996743209945250e-02,2.470710685115817123e-02,7.386895493132126372e-03,2.558113665541244738e-02,5.867148924103235972e-04,2.392191535991520482e-04,7.967151016559237062e-03,4.168404009458488019e-02,6.395331755381029187e-03,6.425405239464596074e-03
6.038090270393735998e-02,2.597978240193833319e-02,1.011036397784313397e-03,9.363022699919277408e-03,6.317562935801984551e-05,2.935837969589461405e-04,2.113348103272330927e-02,3.523351533531025176e-02,5.787816722644421180e-03,8.519081057910264654e-03
3.032888934261858752e-02,2.150809824510843335e-02,7.397012043829856963e-03,3.091890144817598367e-05,5.035849035180064602e-04,5.635841954175053146e-04,1.302662946234080070e-02,4.952916917170614719e-02,1.658422319023251500e-03,6.806912467581060708e-03
3.861968510730139949e-03,1.612269917324511345e-02,1.522095882122756656e-02,3.167499869927677472e-03,1.544596791091815396e-03,5.627814721589953235e-04,1.487234973297073271e-02,6.268261120432599975e-02,3.859788092099648502e-03,3.911916111131478677e-03
3.434831222955320867e-02,1.462324694203788814e-02,1.962297868584783264e-02,1.173058988148709819e-02,2.072671235277333095e-03,6.009399020755711290e-04,4.379418530260608539e-02,6.011278136347114609e-02,6.729106359755081083e-03,3.311848361836873880e-03
4.402596348443713753e-02,1.339962794174727294e-02,2.027253723492869128e-02,1.267928392382420763e-02,1.890793284488345846e-03,1.277513971555861022e-03,5.576853667557998828e-02,5.307762819126361775e-02,5.499339551589443181e-03,6.550947837452367542e-03
1.793333424922756436e-02,6.577109351508870876e-03,1.957133543571802983e-02,2.844180528953076190e-03,1.184965876729604127e-03,2.299158850061216227e-03,5.179096470518908951e-02,5.550074979275249065e-02,2.424691002770810143e-03,9.963445137671313179e-03
2.999378132123682247e-02,3.889306961213294649e-03,1.856253482523897991e-02,9.784043166935697117e-03,4.874268391379457666e-04,2.515505430552897933e-03,4.632658556294026037e-02,5.863756210317346007e-02,1.403814634148810910e-04,9.052498026077378940e-03
5.972276088858353982e-02,9.241860491639811506e-03,1.483147125642245850e-02,1.851926434303664479e-02,6.946622735800689428e-04,1.413781149086712399e-03,4.778042802028471814e-02,4.225866207044409739e-02,2.005238842322881482e-03,6.200247596458256794e-03
4.879674453576731546e-02,4.435941071084623100e-03,7.198137906428271268e-03,2.501868188342316196e-02,1.807352463021162777e-03,1.032964632550823473e-04,5.036503644137379360e-02,7.403372326802505274e-03,3.351901532999402005e-03,8.178959468105234665e-03
2.024578999095446794e-02,5.180905266078691604e-03,1.618354968814139823e-04,3.326332602594440219e-02,2.359019361247431668e-03,1.009854360871767010e-04,4.441638635776119781e-02,1.976593902662973981e-02,3.539325679635624538e-03,1.571873353109463217e-02
1.040953043252176337e-02,9.502776472767350546e-03,1.907947279800224338e-03,4.036369551201878653e-02,1.523664386776766742e-03,1.374572811324169209e-03,2.886346738579774474e-02,2.271261322376845818e-02,2.912373642037756512e-03,2.228986140071497965e-02
2.264545117209147349e-02,4.505646952200748241e-03,2.133711283818565813e-03,3.803411242206109627e-02,7.847463447706342536e-04,2.483029798783672332e-03,1.074700775183395213e-02,1.525087120458710858e-02,3.228713531053270178e-03,2.368387617783269949e-02
3.430839101226317023e-02,5.701110327936565608e-03,7.736308270937198792e-03,2.487254649817321681e-02,1.677401232699793918e-03,2.413743343368020960e-03,3.943822652359948652e-03,1.869923251593036059e-02,4.710584412587805365e-03,2.106913518703594848e-02
3.500584071526393476e-02,1.600658923396836714e-02,1.142942777054779813e-02,1.153458582691833240e-02,3.041901394525766723e-03,1.372190333808827930e-03,1.497931485041545212e-02,3.378118508077882637e-02,5.047868323152420247e-03,1.417906995430431513e-02
3.150046246312625253e-02,2.445994802864600096e-02,1.264277787143781515e-02,8.157851146207728901e-03,2.868313974185086705e-03,7.142042980458834052e-05,2.428586644857712307e-02,4.424212475347481799e-02,2.771021524723549581e-03,2.888901688539422560e-04
2.567250954110861585e-02,3.008988372252358739e-02,1.236052841889302700e-02,1.187877794200648332e-02,1.674100262967659130e-03,8.797737178646428732e-04,3.163034881778180318e-02,3.962015739210202059e-02,1.096922249041183683e-03,1.871316493290093100e-02
1.215205168583982642e-02,3.192959127526624752e-02,1.153912814888599300e-02,1.375182100599723831e-02,1.332379355744699179e-03,1.006482458524565271e-03,3.664570877331721488e-02,2.753435577559272540e-02,6.041647891540460197e-03,3.533546673962271317e-02
8.285350467301468708e-03,3.042002427103151357e-02,1.051496912257562054e-02,1.208231164076781911e-02,1.750017351786458016e-03,1.604229389651539643e-04,4.158360171398371719e-02,2.413259157504448957e-02,1.318557137760658152e-02,4.351565750885850320e-02
2.908349901518187883e-02,2.642718604397300067e-02,9.385505171853436579e-03,1.045047557280193336e-02,1.504504439511602934e-03,1.060140579648977902e-03,4.500881720427427762e-02,3.547349203435285619e-02,2.149430003263801472e-02,4.274066899526939717e-02
4.639906885431543254e-02,2.029404970425930169e-02,8.612887320332445959e-03,8.492395645392763343e-03,5.911588271419257468e-04,1.652737870862712065e-03,3.575760537559573293e-02,5.150218188024433680e-02,2.641392958500160190e-02,3.634261094075531828e-02
5.658615091720872042e-02,1.365631965249451164e-02,8.534777502479220027e-03,4.134694874181971992e-03,7.846616145489374288e-05,1.392664138728774183e-03,5.434613210686585830e-03,5.708640548650397578e-02,2.483391385035190954e-02,2.857609682755313241e-02
5.105485950276707902e-02,8.086498924926049936e-03,8.571948307301303568e-03,6.629078599945260192e-04,1.316937394303040426e-04,1.127238653702294143e-03,3.322881768721751283e-02,4.525753823495862194e-02,1.886659094335766881e-02,2.237010601157658068e-02
2.653297539567525676e-02,7.554962807898177530e-04,7.920849890881088290e-03,3.328575169215349048e-03,1.603081496995006363e-04,1.369157882153397825e-03,5.451936931231512323e-02,2.113370121903097171e-02,1.276378478432482581e-02,1.826925655359824818e-02
7.198881076587392534e-04,1.276612676585438949e-02,6.367121569747363763e-03,1.145153717691020125e-02,2.639380319752350880e-05,1.301588630033221998e-03,4.844008367655698588e-02,2.578163503795756484e-03,8.333401556594850768e-03,1.510446198298360729e-02
4.844785808121802005e-03,3.032423514589747265e-02,3.622464758589968338e-03,1.916236863147682129e-02,2.855200798633550146e-04,1.616310336988932561e-04,2.992618878951789491e-02,1.370795926346824074e-02,5.033949638755956350e-03,1.098258591865298311e-02
2.023074378545603944e-02,4.330978815568572310e-02,5.844397184241623567e-04,2.195925812232244617e-02,5.461617332790214647e-04,1.086075814414833030e-03,1.885616596900950917e-02,8.435201306591215767e-03,2.331683260004263538e-03,4.060237451055801611e-03
4.958553841057641159e-02,4.588992976590367673e-02,5.167857842749875620e-03,1.948672661160623723e-02,5.847336685776390389e-04,1.023866824207909183e-03,2.055380941823240631e-02,6.254467242027667538e-03,1.322043096429621192e-04,5.558663953228307197e-03
5.161482983095050381e-02,4.003154151860178339e-02,8.370792181853570560e-03,1.412874111416484099e-02,1.195109835184048194e-04,8.422090007601543225e-05,2.578804955945453170e-02,1.776055379146335503e-02,3.118270582109954232e-03,1.467701719906541746e-02
2.056700831471669488e-02,3.078944430745908858e-02,9.568169859067698554e-03,9.662671436784779633e-03,5.409713916994466493e-04,2.941784653287472426e-04,2.252375386430348347e-02,1.440918826602752799e-02,6.468531838453472904e-03,2.012288551262677444e-02
2.090245598299802707e-02,2.043649132418411465e-02,8.727530055626476352e-03,9.792028049376046150e-03,6.088542160633383720e-04,1.000188346725593169e-04,7.650984846467345432e-03,1.018825327037271682e-02,8.312161381923794876e-03,2.196761650848975955e-02
4.951380771181621010e-02,9.323983848233973609e-03,5.793683658611315651e-03,1.553623542515929039e-02,5.137017667135933643e-05,7.077712153849174178e-04,9.629430357523395892e-03,4.906343365970236570e-02,7.489600824360289136e-03,2.044593473715790657e-02
5.938208944832798486e-02,4.457037242714410917e-04,2.122692220876984479e-03,2.437571375164421586e-02,5.339906193607704904e-04,1.453663753888096918e-03,1.755381917902093525e-02,7.695628321345746037e-02,5.800143648753157757e-03,1.358927269206925900e-02
5.185564503994784247e-02,6.210401290957653746e-03,9.560022154145048773e-05,3.279228605269997321e-02,2.992640197761441416e-04,1.948645673340789744e-03,1.483862267876322368e-02,6.758394408416919241e-02,5.700596875767222245e-03,3.402340987680278935e-03
2.921282070183436885e-02,8.759518210915074460e-03,3.113596830581084321e-04,3.864938165026063355e-02,1.686237931541362158e-04,1.269491254462441548e-03,1.024172424852090590e-02,2.425786318831110733e-02,6.678924303233637998e-03,1.667062646529939582e-03
5.551853450788155758e-03,1.142661448248021017e-02,1.247922059283777373e-03,4.029682363610389423e-02,7.527833218435305918e-04,2.456894055802582872e-04,1.052556676916322972e-02,1.511544499822452259e-02,6.492676144552600101e-03,3.153715868588232666e-03
9.204056310838626929e-04,1.528416290827597744e-02,1.540942372447494293e-03,3.522521291948364774e-02,1.122774571538253351e-03,9.125196291832320811e-04,1.419829394071193615e-02,1.504524192403565268e-02,5.066460116798460721e-03,1.275202461951527831e-02
1.611172718936443315e-02,1.850367255688418339e-02,9.711240813001999379e-04,2.264886214521003374e-02,6.476609627005986986e-04,2.331257797362931532e-04,1.656430124490131106e-02,1.700157943634905341e-02,4.213665400145112476e-03,1.936053328706473231e-02
3.197531266044708470e-02,2.010367426098942298e-02,9.838845134945431925e-05,7.094335802085767820e-03,3.179699188235290117e-04,4.001727836032069698e-04,1.576434943429583582e-02,4.072718585407968106e-02,4.414299550902814687e-03,1.880979207844469051e-02
3.724822797237959532e-02,2.064582997487781832e-02,1.818518354820780158e-04,4.192206453820722725e-03,5.723157883014023430e-04,6.505383579578574585e-05,1.273018439195142300e-02,3.488003585293152770e-02,4.680188193122102568e-03,1.074157409681956825e-02
3.835386785798017978e-02,1.986122456105568479e-02,2.490381942426812215e-04,7.828352368897919383e-03,3.112682550142501295e-04,4.613892545321184014e-04,8.777101285176561879e-03,1.681421262474859860e-02,4.723035801218253629e-03,1.499475633161635648e-03
3.822107624567009504e-02,1.806407862780948920e-02,3.956027046064518500e-04,5.632644737503026550e-03,5.697767415772253281e-04,2.071281428522975634e-04,5.481956515020541473e-03,4.434749778188206565e-03,4.966430534883857668e-03,2.474083452041074896e-03
2.621124396244837659e-02,1.828712865682456667e-02,1.413773876288499558e-04,1.504695453421065789e-03,6.917186625782546523e-04,6.379541336413585432e-04,5.151439465012775526e-03,9.161439041095580452e-03,5.102401606578212470e-03,1.505301453941385384e-02
8.822427380901177660e-04,2.055527900096922739e-02,1.145609917963286454e-03,6.791511612730788926e-04,3.610977270318420259e-05,1.058369050139654774e-03,9.276934996479274664e-03,2.853173599164083446e-02,4.409486996650232617e-03,2.329392264231142790e-02
2.701325575546192903e-02,1.681459949998237793e-02,4.129819680316454064e-03,7.579422811237647092e-03,3.412544933583754026e-04,4.661429360609152593e-04,1.729210026815814275e-02,3.777373152192677747e-02,3.289408625176911717e-03,1.353200615466181728e-02
4.021170302480530506e-02,7.979585319353984857e-04,6.948529825580308274e-03,1.922730898396477622e-02,1.153195528675719528e-04,4.125456954339391693e-04,2.816316015011081225e-02,2.958396004847125768e-02,2.937409084626026873e-03,4.751842242842529117e-03
4.939457992633938810e-02,2.008245726069383952e-02,7.015178866207449036e-03,2.633724995914168282e-02,5.279487334083866282e-05,5.214286170018305909e-04,4.195742091079483066e-02,2.430745291755230519e-02,3.233790164974087618e-03,1.026532783799176222e-02
6.111195059633927479e-02,3.291108054823886631e-02,4.363286198819100146e-03,2.519852609266703264e-02,1.504434059733202240e-04,1.690609647840494285e-04,5.718710676321558245e-02,4.199004331972820692e-02,2.801848332756900171e-03,1.689331772746543916e-03
5.862688860751131409e-02,3.533097383667534175e-02,1.196200570984954975e-03,2.088645117835945600e-02,8.620747165858986920e-04,3.675296829376558196e-04,6.694451002948735574e-02,7.362761350818687600e-02,1.661335351298485422e-03,1.438861485110821264e-02
2.750867339886229126e-02,3.345864328797101828e-02,6.370089590741491968e-04,1.684263204569537778e-02,1.376316179996260342e-03,1.041753758337249196e-03,6.280111084478313954e-02,9.169546420793803221e-02,1.436256851494425437e-03,1.427318350356024390e-02
1.219873304429595906e-02,2.910023970776962066e-02,1.026935354932556090e-03,1.241705115283130850e-02,1.125034085943599042e-03,1.431266611030948110e-03,4.543263801336559077e-02,8.099548066347790620e-02,2.404331297072508089e-03,9.861522277398086442e-03
2.669914768688865653e-02,1.948568774528173370e-02,1.018325843728482743e-03,1.115791338169582272e-02,4.725748409255174989e-04,1.365454577024818221e-03,2.601707826883803074e-02,5.304420083683458742e-02,2.951437205993479550e-03,1.829092215208379460e-02
1.347110218732838934e-02,6.170801173296247208e-03,1.409981554416771428e-03,1.805190760503997544e-02,6.327922931756889619e-05,1.007123622369917064e-03,1.272411156993696890e-02,3.003220997297692194e-02,2.290290193448475935e-03,3.880451189719049537e-02
1.364462612327040948e-03,4.698040385979123344e-03,2.080302107619430314e-03,2.883660657505960831e-02,3.204738945293358508e-04,4.074548662158799140e-04,1.806462725885402566e-03,1.986184898096321830e-02,1.507700978912146711e-03,5.237255441723624033e-02
5.727181296577185145e-03,9.940915902905102935e-03,2.377194955423611328e-03,3.457135788956101213e-02,4.875676726385058234e-04,1.509998840628822762e-04,1.248961424518171132e-02,1.381203627475464588e-02,1.806138466480505366e-03,4.760860874422355449e-02
1.356065540085997154e-02,1.139147840362413240e-02,1.786478688715118987e-03,3.401919049176844317e-02,7.931580407675106487e-04,3.669093550180448082e-04,2.623976560241781525e-02,2.743704101769731986e-03,2.982912169558391089e-03,3.368103854420557292e-02
3.230683015304352396e-02,1.130070664412281475e-02,5.670838466804965653e-04,3.072580696674807529e-02,7.856482818610620615e-04,4.244847090396849129e-04,3.133590485095607420e-02,1.431381071288624456e-02,3.657372034200685566e-03,2.484077688059412384e-02
4.330884744240853096e-02,1.030890281781902083e-02,1.507980028669436636e-04,2.389326724281360184e-02,2.152851712149128085e-04,5.087429996044413915e-04,2.668237307065050162e-02,3.280505429772179876e-02,2.863904843668069015e-03,2.428131395248925642e-02
2.622268624511991247e-02,9.117406619171321627e-03,2.739019501587001515e-04,1.276141053252487743e-02,1.456996449441966181e-03,3.695217400711125078e-04,1.747377975771524303e-02,4.749021213899164151e-02,1.470630276929547117e-03,2.655628684837336301e-02
1.063222555408957666e-02,8.217450837962263221e-03,7.219611639787510641e-04,3.573338807792412510e-03,1.256022420460409196e-03,2.163540919079031993e-06,8.252010170471583625e-03,5.760715923698343788e-02,1.339627219553369978e-03,2.669262303077998139e-02
3.811860252547689260e-02,6.840418582627912081e-03,2.859359566675203409e-04,2.681552916683488472e-03,2.437170491871274184e-04,3.158320232372350877e-05,8.233475641052862351e-04,6.671786130441535734e-02,2.911149032505436305e-03,2.336907705952998709e-02
3.869978510716581138e-02,4.817057703055497957e-03,2.258190994214208554e-03,7.526191834592650849e-03,1.010127942683974704e-03,5.251442241960279115e-04,4.501715513125064023e-03,7.502855807201365412e-02,4.415963876457333973e-03,1.697776070931211398e-02
1.833982423929788469e-02,3.656700580925280678e-03,3.351624555765322314e-03,1.034843600474817313e-02,3.961960310603208999e-04,1.122276358651883542e-03,7.854565419698759238e-03,7.705583385647016281e-02,3.721506978992269923e-03,7.605225522520544373e-03
8.841343300779652692e-03,3.935391945643078489e-03,3.024272298700654213e-03,6.751343006764654736e-03,6.948755150540740337e-05,1.046871070874056406e-03,9.798177810756892106e-03,7.084262156404404209e-02,6.382918035750552704e-04,3.177775165318618474e-03
3.149467293906032389e-02,4.020834937191858013e-03,2.508186609532981736e-03,1.477430811309585115e-03,3.284577803835903660e-04,2.415206038015619498e-04,1.272274561792016527e-02,6.353524963157081151e-02,2.692141441672905606e-03,9.595985355957323965e-03
3.927672938706484179e-02,2.735811024920581543e-03,2.759360705887508366e-03,7.815453059013755671e-03,5.380543729250504819e-04,5.029057296111507898e-04,1.980897753481971474e-02,6.073273371085132627e-02,3.752239304024569070e-03,5.298276062703999312e-03
2.906142198217296843e-02,1.011267174711306125e-03,3.364195602688307193e-03,5.922103590257965511e-03,2.610728659999977832e-04,3.059631830279255227e-04,2.967644079108498062e-02,5.511158277136028738e-02,2.043922475780667568e-03,8.600886504518158449e-03
1.451624516604413731e-02,1.092120315765974809e-04,3.616882438402775103e-03,2.908192812071705869e-03,5.849309724065160929e-04,6.191732492028753383e-04,3.393316269730646539e-02,3.659726837735073623e-02,3.289331177245154690e-04,2.146451676269308176e-02
1.389211722301533260e-02,7.939640111969098035e-05,3.603526478330301708e-03,9.789533760620281605e-03,1.606399932552296126e-03,1.106467263526560683e-03,2.423850312494955223e-02,1.007963467001476120e-02,4.681349734819648394e-04,2.138932469314481014e-02
2.796253845474058058e-02,3.734444208505595993e-04,3.819511174971845432e-03,8.860618880819563781e-03,1.906567214479270786e-03,6.580728028355659282e-04,3.304156154855905810e-03,1.104463066281758006e-02,2.236430189011662413e-03,6.677818020697895950e-03
4.263749225981160879e-02,6.566696357941443534e-04,4.183220894793827221e-03,3.131442760750580492e-03,9.055114585468816832e-04,3.279928176447281281e-05,1.495596619092357665e-02,2.447698054714426974e-02,4.937974576945030301e-03,1.124282072903911786e-02
4.991105396010741407e-02,7.531255840807192254e-04,4.004147714951167281e-03,3.323221477488653985e-03,1.969533019176118792e-04,3.801349067186821952e-04,2.059079956121416533e-02,3.579983521300704463e-02,4.647007155174167660e-03,1.773140279563464525e-02
5.432674373364656389e-02,5.076099530223332620e-04,3.141897861219563378e-03,1.235793509133305962e-02,3.496528316719015863e-04,4.085872243819093979e-04,1.844208161275466898e-02,4.296024144736067946e-02,2.278717461037804703e-03,8.245634547440348211e-03
6.168961840698296978e-02,4.293118513320419005e-05,2.534046838029139440e-03,2.523137194980569833e-02,1.237002189139989328e-04,2.599278579536694464e-05,1.775540727635685143e-02,4.348152359189830923e-02,1.326237515629302352e-03,7.968438599999926042e-03
6.902715500431633178e-02,5.634751646699043617e-04,2.869278811297087083e-03,3.328926678671173534e-02,7.012787716124577967e-04,6.531427894492279965e-04,1.830992299178048344e-02,4.840232608901491596e-02,2.895712839522867395e-03,1.684049296796544595e-02
6.567612396911653994e-02,6.222224212641342192e-04,3.462701690791046647e-03,2.248587603394755843e-02,1.332027220143282460e-03,7.884272302250420117e-04,1.595092008884413382e-02,6.620499946181022943e-02,4.324400078571143460e-03,1.217684296819493417e-02
4.500690880330628779e-02,2.224548144391397947e-05,3.339711077769050730e-03,1.061574753373405872e-02,1.596455884694089567e-03,2.207941997412535262e-04,1.379744123920649719e-02,7.925370829811187456e-02,3.045298939242934832e-03,1.015293369880045007e-03
1.492700060452580371e-02,9.834557266195401940e-04,2.689876894198709335e-03,5.059745356645962283e-02,1.041981513021555776e-03,2.371798267331607854e-04,1.652591234592075062e-02,6.194373991111425115e-02,9.068235183962118228e-05,1.568090523477645368e-02
9.341118383770408498e-03,1.871953568007481746e-03,2.323825060871343839e-03,7.506167338315103410e-02,3.666286706115365985e-04,1.372578568247124218e-03,1.878921239661521941e-02,2.201381458764001958e-02,1.503268608591591280e-03,3.038224865914860434e-02
2.283351691870675812e-02,2.412479446845535325e-03,2.225284663164480477e-03,7.440813768888404622e-02,6.031005218854800041e-04,2.148668049471464964e-03,1.050560746075849747e-02,3.988280907531779190e-03,9.487398625911485587e-04,4.408455030112369555e-02
3.285953945965747885e-02,2.796146508834680341e-03,1.602309188742538203e-03,5.679449838372312154e-02,1.478895098470947144e-03,1.478509433098814004e-03,6.176662668137369513e-03,1.564291141951757412e-03,2.617920391887514769e-04,5.049374720919516668e-02
4.440875820746481573e-02,3.059513992739741790e-03,3.457752394266817571e-04,3.557829269836181030e-02,1.827736818939967216e-03,4.468297557441982203e-04,1.322937381768040689e-02,6.913286507041593865e-03,5.180951813507632831e-04,4.641365051699426758e-02
5.465287629072474590e-02,2.922429384860385573e-03,5.614080770559577542e-04,1.699625641040642191e-02,1.198099618046042942e-03,3.396604191124775085e-04,4.072097756384091861e-03,6.873606927847649394e-03,3.584241485291072898e-04,3.959486062481962915e-02
6.259105386370628077e-02,2.448662019204348502e-03,5.393310190536258547e-04,3.118765362124943218e-04,3.233200694814647317e-04,6.292677809834972512e-04,3.722973149142602689e-02,1.292416593540042513e-02,9.218943658389325323e-04,3.846609306398164618e-02
7.168159017968704638e-02,2.346074366008602408e-03,2.515951992019711814e-04,1.789538206138646323e-02,5.945969863629179081e-05,2.765191906375877740e-04,6.150800192888638412e-02,3.072997665171379317e-02,1.840547947777865191e-03,4.103470560581237714e-02
7.912830494829539707e-02,3.115057940491287349e-03,3.787331024861292504e-04,3.191424766614074648e-02,2.278460675298706658e-04,3.249147141420407909e-04,6.141691637980865870e-02,3.797710056249053306e-02,1.468677384891675869e-03,4.381984997550267269e-02
7.297161553700247383e-02,4.017803816989126003e-03,7.864834650054069402e-04,3.661000372940267228e-02,1.278761136223572031e-04,2.432296124144950637e-04,4.153417923284406094e-02,2.316173230399177704e-02,8.134482453826823081e-04,5.204130033832810726e-02
