7.951735456471119290e-02,1.786030729714570752e-03,1.663415838759353649e-04,5.614823070148093837e-04,1.453391918629365885e-04,2.149027265010967132e-03,7.388531745155114093e-03,1.615831870671396824e-03,8.499398817279873574e-04,1.667669811101817751e-02
8.394615130190441477e-02,1.806576723991306201e-03,1.507662096917290273e-04,1.035272968623279950e-03,9.803016992723917185e-05,1.973433403199549400e-03,4.401113239701242262e-03,1.356837754334238363e-03,8.529830762226314799e-04,2.791716320629125669e-02
6.394551825730815375e-02,1.784246771033154606e-03,1.289228313263176098e-04,5.672104934014932315e-04,7.277127520078692800e-07,3.046911321284831442e-03,1.732934572758465172e-02,4.017934223699186694e-03,8.314379101099759637e-04,3.192325478415808382e-02
2.440003625801539719e-02,1.719804785748977943e-03,1.011908313571881543e-04,2.045576450267437823e-04,9.193839240532065277e-05,4.749093328718550881e-03,2.691548020967630614e-02,9.418424395851039341e-03,7.857237525565937547e-04,3.054491330711786232e-02
2.814548058831079641e-02,1.615063440813554194e-03,6.817958056388391292e-05,4.104717831471385364e-04,3.078976595448443677e-04,5.184515708920844554e-03,2.841899225593404535e-02,1.363465707458607137e-02,7.168495016333952842e-04,2.759047316270304973e-02
8.271929328169609630e-02,1.472840740539017044e-03,3.053509772288899674e-05,1.739349231821308032e-04,8.404318629243907066e-05,3.686561562213156763e-03,2.380640831551486189e-02,2.113479613311466249e-02,6.263871214306584480e-04,2.357852508496788291e-02
1.179810597393627092e-01,1.296891574456211001e-03,1.107018894020552960e-05,5.852647106335677371e-05,7.026172220076489167e-04,1.172996310310531762e-03,2.073049708484737269e-02,2.999739581498479454e-02,5.164317058618775498e-04,1.683758456576015319e-02
1.173099053723678509e-01,1.091815889076809022e-03,5.566271712929044300e-05,1.328994506602661197e-04,1.182184607814653829e-03,5.369658892496432471e-04,2.013921359874340511e-02,2.906785562705586218e-02,3.895491085772963442e-04,8.238274996920768450e-03
8.763234700513919395e-02,8.629456979201642055e-04,1.019958904691683745e-04,1.547386296482098950e-04,7.162523380107028818e-04,2.743295391411200630e-04,1.412783090923062056e-02,1.474059180888212528e-02,2.487124735459025232e-04,1.233107060906821900e-03
5.122456863910137409e-02,6.162136779315343727e-04,1.491533457165039676e-04,8.544159554783562632e-05,5.702655306529639287e-05,3.564705480151890947e-03,2.941158229940218048e-03,8.110438364783098021e-05,9.722926197190797986e-05,1.902422305975255299e-03
2.149002706184506908e-02,3.580065617549253059e-04,1.965707063052650309e-04,3.768023667381561483e-05,2.680003722483865298e-04,7.316809562121733349e-03,1.927746760704888117e-03,3.368123652090210599e-03,6.133940783911509000e-05,1.553428810691691005e-03
6.302641438472290913e-03,9.500691841171540319e-05,2.428444969765899345e-04,3.191696331687615549e-05,3.989657030079551259e-05,9.526008259057789848e-03,1.978463823266135568e-02,4.092534451927620429e-03,2.232651153764133364e-04,7.601606121728204241e-05
4.153012836059104956e-02,1.659727898899380875e-04,2.857364453836996237e-04,1.660048193208429060e-05,6.395968516608878428e-05,9.479632147957590613e-03,4.207501194579546522e-02,1.657597366749677045e-02,3.847420688889074199e-04,6.961322691165063373e-04
7.847478579363220685e-02,4.181597872955106644e-04,3.247901819885770256e-04,1.759426951379174128e-05,2.475832663693412343e-05,7.284147315984433428e-03,5.059389495041716894e-02,3.445685001846402612e-02,5.419784193604861499e-04,8.393871946454781532e-04
9.684630700378869805e-02,6.549900133259821790e-04,3.614727794948474106e-04,4.578581732109593080e-05,6.334536975365355526e-05,3.735496951897141881e-03,4.667553128151753772e-02,3.702425230824106517e-02,6.912867436105824470e-04,3.231886236717531648e-03
9.004147853653733657e-02,8.702724183170304885e-04,3.936766783602096151e-04,6.249387393525596298e-05,1.275520706542494201e-05,5.525472553189717147e-04,4.084296307735739429e-02,2.286692204262895378e-02,8.291715155365972107e-04,6.800423098846982567e-03
8.078821048049419917e-02,1.058344449472822585e-03,4.153528193401398059e-04,7.856116550212919507e-05,1.482683332997201367e-05,8.270720520179657663e-04,3.319671566927800271e-02,1.415466392275682543e-02,9.524114700335506141e-04,5.737100215891893958e-03
8.790848700308756536e-02,1.214214859972654638e-03,4.283136173401543554e-04,9.603206136752536468e-05,5.443829422792171977e-07,7.167658973390897111e-04,1.994532232102005226e-02,2.061292286145314373e-02,1.058134899882909362e-03,1.902713303937066374e-03
9.101507005518189031e-02,1.333690277518622238e-03,4.433896606061778667e-04,1.093022214148801419e-04,6.782256096520067467e-06,4.516517789790764096e-04,7.471677926499393184e-03,2.424870449445740150e-02,1.143886108314986529e-03,9.747530861630044133e-03
5.950702690990317123e-02,1.413482361209478320e-03,4.553104750137775014e-04,1.169083899372043379e-04,5.978574806064765101e-06,6.085407294563637730e-04,4.427252482632036343e-03,1.189736973323313185e-02,1.207681464327147640e-03,1.116289112812911266e-02
5.291089050833079621e-03,1.451292847950816627e-03,4.396244550142249245e-04,1.211440288604455996e-04,1.338886832699304313e-05,8.370883914751664576e-04,8.006102532856449253e-03,2.888085895922102870e-03,1.248053768504421611e-03,7.022093684960945686e-03
2.892284312252219047e-02,1.445874330042881900e-03,4.062978837885154238e-04,1.225408907432022361e-04,1.047973635106203167e-05,8.839081511095963880e-04,9.956421095630670071e-03,5.898421881333373515e-03,1.264083927516250917e-03,1.610527310871084352e-03
2.554612593071805410e-02,1.397065199293536604e-03,4.077180828036676245e-04,1.199851252816557608e-04,8.572298581785349367e-06,8.927364657128199644e-04,9.236113351866021351e-03,5.387440741364770205e-03,1.255419248447315478e-03,4.540434286782264045e-03
3.820998170511263892e-03,1.305797825932611834e-03,4.244351969519144919e-04,1.133029231916698055e-04,1.014502202771855227e-05,9.721937072371222670e-04,9.334245535869334712e-03,1.249239507071782385e-02,1.222277991952592244e-03,1.324369266614481601e-02
1.679973763939818232e-02,1.174079700751643526e-03,3.449490517638553484e-04,1.032346824660709686e-04,9.973230450509770468e-06,1.056713625100658225e-03,9.086285321350837801e-03,2.057964651806853951e-02,1.165440157884279010e-03,2.348317364689167866e-02
3.645632983176217562e-02,1.004947939093705318e-03,2.091646696918664336e-04,9.021770832801552520e-05,6.910148733778396792e-06,1.104644854394825400e-03,4.118335591741801270e-03,1.949399939252716152e-02,1.086224810380503371e-03,3.125329490944626920e-02
5.996777699807422091e-02,8.023982014884927308e-04,2.607873967332244064e-04,7.437413656350134160e-05,3.495374711447245130e-06,1.136127732402130710e-03,5.909944411704825054e-03,1.196162231488450724e-02,9.864545733725095175e-04,3.278393715937513025e-02
8.168761184440423428e-02,5.712897134338926902e-04,4.326102175752718115e-04,5.606869258935260795e-05,4.310401544595021951e-07,1.140765862195874556e-03,1.664846896734593212e-02,3.189108921787338260e-03,8.684082342726319849e-04,2.730334270647659725e-02
9.048137415980929410e-02,3.172286667027272248e-04,1.625475763287630344e-04,3.590659212475048141e-05,3.305626920778709137e-06,1.122714385780466083e-03,2.412475650577513425e-02,1.026973775277537949e-02,7.347626759255863589e-04,1.835494239021942531e-02
8.263310695749416512e-02,4.643283831390748728e-05,6.713011262562799692e-04,1.445566838012367740e-05,7.878262945415347867e-06,1.146594590371336798e-03,2.771074039786654980e-02,2.900062103092299060e-02,5.885256080521086711e-04,1.112604739480435936e-02
6.267043380765706384e-02,2.344192775103361962e-04,1.197959755844937814e-03,7.774408758553216970e-06,1.261684335317130742e-05,1.180372461239839570e-03,2.887435049352019348e-02,3.950179833234562093e-02,4.329607834923100674e-04,7.267186343029688987e-03
3.398664909042414806e-02,5.183511696484179379e-04,7.779809111271229153e-04,3.022187489212038058e-05,1.723268283512708869e-05,1.063575792525982321e-03,2.895662797136400526e-02,2.880880420115318821e-02,2.715075566035585327e-04,4.631359253367025100e-03
1.703218570617680977e-04,7.982588630888757999e-04,4.841596341285408123e-05,5.228214207204916490e-05,2.182634131175310903e-05,8.744700737364494766e-04,2.794594317013736340e-02,5.568886630392156332e-03,1.076967672676743020e-04,1.926420739625881460e-03
2.890299914608955231e-02,1.067085074720716328e-03,1.222117267685150245e-04,7.338013544135940029e-05,2.632393774821731964e-05,9.841811114690193329e-04,2.405596137994489223e-02,8.380753422762147672e-03,5.493498866721646743e-05,2.210414716661034725e-04
4.297972394312588734e-02,1.317992671694114644e-03,1.420067815068185100e-04,9.298717461104192986e-05,3.047172203413276996e-05,1.214225947532932524e-03,1.514112535848409317e-02,7.198654403834011013e-03,2.129306146305829837e-04,4.897481315118295576e-04
4.851294381690107044e-02,1.544533282857802345e-03,2.771625092657250904e-04,1.106068957978356942e-04,3.410501350108082743e-05,4.503879905426545283e-04,2.090202262311166050e-03,6.440010135171294649e-03,3.629952300022909928e-04,2.559708200931213890e-03
5.506891791816546228e-02,1.740806922489951088e-03,2.140790734624518281e-04,1.257855377053728786e-04,3.715886656325140535e-05,1.849056567054946365e-03,9.913568963672830109e-03,1.706209485491203340e-02,5.020743573902080627e-04,5.283305237903785506e-03
5.752291833625801376e-02,1.901608387357588657e-03,1.943693239226885127e-04,1.381353561549281724e-04,3.954676960821900165e-05,4.143598444678491151e-03,1.497617142739558066e-02,2.991935231599782488e-02,6.274257108651346915e-04,6.084433686339512336e-03
4.431635979248640944e-02,2.022556711798228438e-03,2.569713613057901806e-04,1.473447277663257637e-04,4.115821787227286373e-05,4.235881952561939418e-03,1.116355917686622304e-02,3.093184652074813801e-02,7.366828812178223508e-04,2.389068245972359502e-03
1.543434902221613170e-02,2.100205042376250900e-03,2.906097692668867857e-04,1.531795353362086086e-04,4.191898419823825525e-05,2.122897608505701448e-03,1.662390708030747448e-03,1.822389983115760281e-02,8.279094202848490689e-04,5.102889603903402321e-03
1.668302648484117079e-02,2.132128345319715158e-03,2.746877574835635254e-04,1.554879869505958992e-04,4.179586048745584121e-05,3.399782523544510326e-06,8.088212500698960597e-03,8.340774181303995706e-04,8.996420674279158747e-04,1.239800190721333968e-02
3.819486446265697721e-02,2.116985464313568977e-03,2.589665253512726437e-04,1.542066496913060644e-04,4.077065916603251196e-05,6.066032803603335199e-04,1.506473965578769038e-02,1.960916372060966112e-02,9.509221313142862545e-04,1.662460314723795615e-02
4.508361946396371306e-02,2.054553542244611820e-03,2.548324100263571891e-04,1.493618356962614412e-04,3.883908337387616098e-05,2.325163741481924300e-04,2.038495982015024396e-02,3.432201355621040950e-02,9.813143325384857379e-04,1.883290445783692563e-02
4.436265151230062154e-02,1.945736589201125816e-03,2.436872615577363526e-04,1.410672383386517216e-04,3.602350233363571752e-05,1.259001616470557371e-06,2.517090412130133098e-02,4.063915201557188189e-02,9.909127201509469480e-04,2.124354854498181761e-02
3.740244255941913704e-02,1.792548842218040029e-03,2.187506352055895210e-04,1.295205812766531876e-04,3.237344301084889460e-05,9.641407990058995783e-05,2.683898881240376344e-02,3.212271563582344558e-02,9.803335902989133814e-04,2.391768858203773343e-02
9.751099663904968379e-03,1.598067538648767190e-03,1.808145197150591902e-04,1.149989764733186658e-04,2.795861471071404842e-05,1.464245495735173430e-04,2.280665184957461622e-02,5.577991942650005822e-03,9.506956502800897489e-04,2.603952667050732361e-02
4.522497649922493923e-02,1.366354094608921571e-03,1.382245562657067521e-04,9.785184999673399067e-05,2.286681047465587778e-05,7.201955143264680782e-05,1.556038244846686021e-02,3.030467012560301293e-02,9.035879787481324206e-04,2.804615110204917994e-02
1.023632802135922559e-01,1.102357749691201252e-03,1.110882013345691109e-04,7.849178935132637236e-05,1.720462201509472149e-05,4.221156398355468834e-05,1.046082484365271070e-02,5.689887693544072589e-02,8.410266252090255364e-04,3.024116941691369631e-02
1.259926363363959578e-01,8.118088331304637237e-04,8.943672037926977481e-05,5.738413974328531445e-05,1.109522276393997255e-05,9.668290903988776424e-05,1.066095896118083447e-02,6.067154804256157802e-02,7.654009623335065668e-04,3.162691318640292737e-02
1.088779986428676655e-01,5.010783661605650464e-04,2.480102792707667214e-05,3.503553839699011647e-05,4.674190759610170462e-06,1.554529481092355864e-04,1.582875689486949733e-02,4.343574992026574821e-02,6.794111465807220517e-04,3.187919386133034744e-02
7.328011574612867951e-02,1.769964356764102157e-04,6.108646373843460656e-05,1.198139366299618555e-05,1.913837033911342416e-06,1.975738977893211172e-04,2.236280857216087561e-02,1.683151000406218553e-02,5.859982505039864871e-04,3.209280725737900797e-02
3.845281614159217626e-02,1.533112412300572476e-04,5.599859023088860684e-05,1.122735030412219594e-05,8.517996787004384143e-06,2.630205538091565055e-04,2.457037849639981744e-02,9.536551345560171505e-03,4.882687990694250840e-04,3.245826766570871630e-02
2.434568120813663562e-03,4.825396427347884969e-04,1.871312858544145014e-06,3.403770632084364341e-05,1.498471162440522024e-05,3.628392717364920320e-04,2.008099431095056175e-02,3.380910122694595621e-02,3.894155685089288957e-04,3.177925854424990676e-02
4.064353171726869940e-02,8.033875373889307970e-04,1.285704153533032352e-04,5.590807695535390099e-05,2.116163204853351913e-05,4.682963804429971367e-04,1.353910879068873953e-02,5.730446648895085732e-02,2.926365868519319397e-04,2.971582630032984854e-02
7.739408933389672895e-02,1.108859066500068272e-03,3.778675044312877480e-04,7.632136208677057707e-05,2.690131984185132965e-05,5.660623792103533199e-04,1.100502925310369029e-02,7.598802802887875962e-02,2.010543086540383527e-04,2.642693970650619728e-02
8.484860143294178925e-02,1.392428513555572659e-03,1.820783348806122412e-04,9.479741902000397738e-05,3.206466030431792008e-05,6.833910444196717067e-04,1.268418001762568886e-02,8.126333398058209478e-02,1.176369220326432932e-04,2.036690582082185952e-02
6.007220997760717024e-02,1.647937604217312828e-03,5.826717381687419439e-04,1.109045468241236817e-04,3.652418646395777719e-05,8.349825946877440994e-04,1.437000943059671236e-02,7.078220298928381005e-02,4.512368455460955300e-05,1.054144865045317236e-02
2.175630241600256393e-02,1.869753842957348278e-03,1.047396995773622764e-03,1.242697230230318931e-04,4.016720228702122335e-05,9.685547127941271589e-04,1.289320855332783122e-02,5.276568625094327225e-02,1.404392244304936816e-05,1.757432169878368929e-04
1.533758079182962961e-02,2.053469963948781948e-03,5.743453322666135057e-04,1.345873641828843742e-04,4.289852697007467481e-05,1.047157677229131664e-03,7.706108450256311110e-03,3.732911713897073963e-02,5.778358103879521507e-05,6.248868388126441013e-03
4.713793178756815055e-02,2.196011246903314517e-03,1.979604019250993312e-04,1.416264048867715462e-04,4.464281161516014685e-05,1.167130364600873745e-03,8.971127489128768485e-04,2.820949086262966934e-02,8.442461358182413317e-05,7.841723647509958942e-03
6.574661913088086784e-02,2.294512296306385531e-03,3.996702869271802848e-04,1.452355261372900816e-04,4.534637181603849118e-05,1.399580706241654229e-03,2.630122271806242373e-03,2.574633425770117556e-02,9.275031954512606854e-05,5.203821509229378250e-03
5.928354975159912804e-02,2.346357577148704132e-03,1.539892762691833850e-04,1.453464168510352442e-04,4.497847328681430998e-05,1.534734411993117194e-03,6.255658146860423874e-04,3.417791391141018070e-02,8.202919325715925507e-05,2.115923719970664273e-03
2.596124145114686588e-02,2.351804000249108333e-03,2.446316580200657052e-05,1.419750033121671860e-04,4.353214098134544949e-05,1.407158695653781041e-03,6.768230179286051362e-03,5.682882931202629800e-02,5.203431612896014410e-05,1.072880480966414453e-02
2.000695304278280948e-02,2.314103546772885728e-03,7.988242030627726862e-05,1.352206281899075049e-04,4.102450393209355591e-05,1.455661517962398904e-03,7.107642614548223894e-03,8.050015956815578799e-02,3.050505210587780625e-06,1.160983658652989074e-02
5.252215946608584929e-02,2.233960690019549857e-03,7.820114244390749146e-05,1.252632094111046101e-04,3.749640060937514902e-05,2.059913617535017501e-03,2.225524657522617075e-03,7.852471268284405559e-02,6.413090342655277613e-05,6.149698724052525718e-04
4.899833255946233618e-02,2.109093720347354501e-03,1.878503039852933299e-05,1.123584595558685357e-04,3.301117979517076233e-05,2.223467957774944662e-03,1.733597354601192769e-02,4.175603765528178302e-02,1.482294600738884576e-04,2.140444063150968509e-02
1.451732152483235089e-02,1.945941333390078208e-03,9.784462183423497646e-05,9.683129376386477767e-05,2.765331331062234412e-05,5.316775289303499706e-04,3.212810384856804730e-02,5.889969584271466385e-03,2.475047271535406215e-04,4.215904509283707746e-02
1.991894287267160016e-02,1.760702152876878965e-03,1.378069675399950914e-04,7.906759678573226221e-05,2.152702397789761515e-05,2.115971120543722050e-03,4.176935128435036587e-02,3.548644911559202531e-02,3.597963779460578685e-04,5.610468017405242924e-02
3.584466591378536460e-02,1.554078967349588856e-03,1.894448091717243737e-04,5.950455841704444183e-05,1.475369793894205037e-05,2.887222853328868990e-03,4.291406835448666190e-02,4.325241927055074875e-02,4.825742613921985675e-04,5.865116557494227945e-02
4.465497853635005954e-02,1.308045155982125955e-03,2.612474072203300351e-04,3.861982044202482166e-05,7.467745140403060988e-06,9.124368775091015998e-04,3.602917841089688794e-02,4.148338216513273308e-02,6.129971923333610425e-04,4.973248767015269606e-02
5.490108526648534992e-02,1.039279789178999434e-03,3.273335395196711448e-04,1.691970583022597076e-05,1.863012494823573098e-07,1.491000170443010754e-03,2.588830617811797158e-02,3.441861387489496965e-02,7.479790239955842355e-04,3.554605372517360973e-02
5.196629436855325357e-02,8.070017111029800013e-04,3.810889992256528708e-04,5.073178487277855156e-06,8.054457957702038253e-06,2.221800757214947332e-03,1.659331993900953206e-02,1.662717700381435848e-02,8.842603928454799899e-04,2.266834630585070828e-02
2.763731886189702350e-02,5.985355618041822510e-04,4.323795959681562694e-04,2.683266048736972914e-05,1.597744861113920304e-05,1.756375297977655261e-03,8.639610307671274567e-03,1.238863272987906529e-02,1.018484398953553843e-03,1.181168815614224744e-02
1.403403951817103115e-03,3.089183174332250361e-04,4.824464693355083730e-04,4.784173270395478513e-05,2.380035752491440392e-05,1.456788262710284609e-03,2.765456503576185429e-03,4.019376934817723429e-02,1.147274400513531188e-03,1.087380143991018098e-03
5.930687922448787085e-03,1.581336741741416686e-05,5.245138607475711978e-04,6.760498332658218664e-05,3.137537105039910258e-05,1.545215423672501552e-03,2.574254200742748591e-03,4.645540867298083437e-02,1.267312060968136178e-03,6.821266821545837744e-03
2.908714433736705150e-03,1.263749502941126401e-04,5.556090220136341738e-04,8.566042853044149535e-05,3.855271078831879351e-05,1.538530095257822656e-03,9.469309773928669821e-03,1.867108576357834338e-02,1.375413791987026334e-03,6.066052158783656958e-03
1.629093456195138470e-02,8.509451694171181707e-05,5.774147314423155137e-04,1.015904621629526916e-04,4.518585658356754026e-05,1.339440989461784977e-03,1.778637158678365165e-02,3.266556200463619636e-02,1.468603784947049599e-03,3.384006768223993700e-03
3.147613413942135230e-02,4.500349873141030674e-04,5.907967269840090022e-04,1.150316620308443739e-04,5.116192277790162384e-05,1.170490226062114499e-03,1.976865748653616750e-02,7.920409627646674000e-02,1.544181916124336054e-03,1.317869832348287848e-02
4.600927468107578189e-02,1.340035924014389580e-03,5.933541222814945389e-04,1.256832213589331596e-04,5.640147265575733122e-05,1.081460190670285784e-03,1.425815316113127063e-02,9.883547155850053167e-02,1.599784944040776686e-03,1.522286841578684990e-02
4.987368672145083698e-02,1.882048719748958664e-03,5.819085613472469104e-04,1.333138087853006704e-04,6.080287042231099479e-05,9.708102853094038257e-04,6.547526143295337095e-03,9.102309527359830899e-02,1.633439587865657397e-03,9.521423401255732846e-03
3.743164447920133142e-02,1.435606657939956067e-03,5.580156688427742725e-04,1.377666996217613712e-04,6.424928348534340926e-05,8.195202125772560508e-04,8.363198418425137493e-04,6.884947413062136867e-02,1.643606279125929982e-03,1.673885733273409396e-03
1.663039536503930702e-02,6.379517191138367200e-04,5.271496048519749063e-04,1.389630640551853410e-04,6.673439917963687028e-05,6.816860027082579125e-04,3.387147697378036035e-03,4.374671440653216115e-02,1.629212610136111013e-03,4.592872700425102914e-03
1.043551134888713464e-03,3.590049171263026435e-04,4.869165720698590927e-04,1.369033434366746479e-04,6.835591022463839727e-05,5.657788177218731410e-04,8.001741760606698867e-03,2.086511910608264755e-02,1.589675755807876166e-03,9.953993087602816883e-03
3.063365611336576599e-03,4.769907609100764822e-04,4.264757621436282087e-04,1.316666926831716817e-04,6.905036157176129888e-05,4.421399103237013783e-04,1.250980902737398870e-02,1.105456121683971813e-03,1.524913414615895789e-03,1.559437598164030610e-02
2.496835893107392495e-03,4.311914173660097937e-04,3.516691495232940660e-04,1.234085139482435638e-04,6.860189917560170899e-05,3.181852167479036052e-04,1.453078045626233356e-02,1.963131638185537653e-02,1.435343092879198205e-03,1.968132332803341350e-02
1.013515801232848547e-02,1.569866651536145242e-04,2.878298438421509112e-04,1.123561529574688950e-04,6.720873006392074625e-05,2.263979612126882008e-04,1.281010671970527967e-02,4.512616615383198415e-02,1.321869837410351387e-03,1.929437140567998032e-02
2.883095385266251642e-02,9.819635353710624002e-05,2.261576731552427798e-04,9.880287363228631222e-05,6.547738922407335134e-05,1.468460762109417557e-04,8.660135457077841950e-03,6.395540060296027451e-02,1.185862798282272734e-03,1.438770610941470483e-02
4.514379938070444548e-02,2.896834541154100955e-04,1.158093527749848989e-04,8.310026778197716207e-05,6.320926006197443478e-05,3.070095279792225311e-05,4.403519769979648453e-03,5.297363506435205649e-02,1.029121269340939771e-03,7.809707487527610230e-03
4.407066258951143622e-02,5.232584183672519445e-04,2.187304726144574587e-05,6.564929374415434747e-05,5.937590210833417289e-05,7.287147479499489272e-05,1.557242766565275363e-03,9.052153671142659092e-03,8.538311026765608210e-04,2.126035254324266585e-03
2.840678261200459132e-02,8.118435820158861416e-04,7.324172346499441331e-05,4.689017002230883361e-05,5.470314922928769426e-05,6.415611568208228128e-05,7.945252567201113421e-04,3.749680208872862436e-02,6.625126186573552459e-04,1.669058347606825225e-03
1.889041507713443840e-02,1.095876845840730108e-03,7.585338094699201669e-05,2.729137645300259716e-05,5.178304785892441972e-05,4.709708928269805590e-05,1.947581414502823870e-03,5.551169532976975296e-02,4.579613303498196041e-04,2.874390198613251818e-03
3.255605098678457376e-02,1.357745323040759552e-03,2.709116445660932982e-04,7.338035626008916019e-06,4.954873886469533188e-05,2.345851113010746032e-04,4.156027153446479119e-03,4.385496171075189270e-02,2.431829656733370745e-04,7.692286792422748948e-04
6.307579488932704703e-02,1.613967120777781879e-03,5.886100111671914567e-04,1.248003927475780724e-05,4.288089459238286777e-05,4.063771443554042872e-04,7.729507933050628124e-03,1.901034049059822581e-02,2.132439805066946672e-05,4.086730727248944449e-03
8.827672388087953737e-02,1.861787952057246355e-03,4.642015063889660476e-04,3.168033762936936287e-05,3.438599188419477748e-05,8.153179296599809690e-05,1.335119792141889299e-02,9.675378097045422149e-03,2.043978163573628010e-04,9.138396522825923199e-03
9.460853610285419046e-02,2.082461497737194203e-03,2.268676888463357208e-04,4.979939369216144704e-05,3.553266217685237044e-05,2.287981282171968700e-04,1.687706185505101139e-02,3.881726267517146556e-02,4.307695499837627508e-04,1.012413721491148451e-02
8.277078861486503181e-02,2.266565852231122811e-03,6.161230926473165725e-04,6.640399402516570810e-05,4.151563372877333408e-05,1.111171568600845868e-03,1.037654142276261786e-02,5.745458169338504839e-02,6.546501132804332128e-04,2.966059538485017483e-03
5.310072112318795640e-02,2.413037047353939167e-03,6.641385585741310031e-05,8.110158069571607605e-05,2.816123639085347624e-05,4.563318863132226517e-03,6.995429864405895877e-03,4.974222523873904345e-02,8.730404501212123873e-04,1.171567317515678254e-02
7.316236076637884674e-03,2.517546036769837021e-03,7.829964217502243667e-04,9.354960200376028596e-05,5.517385759894562940e-06,7.771803507379614756e-03,2.476163235318799144e-02,1.381821146997412077e-02,1.083146888979892412e-03,2.628346578202774703e-02
3.275382744952021197e-02,2.573029312359830824e-03,1.061523169233248489e-03,1.034635895314250150e-04,2.585582019645709016e-05,7.766752142860967878e-03,3.205431354711864300e-02,2.760855472205147806e-02,1.282438936641298703e-03,3.180008725480628490e-02
3.466591887037691333e-02,2.575329366060156912e-03,8.917831537947546513e-04,1.106237725449483837e-04,6.941580676780573082e-05,4.550010692531906986e-03,2.778924039176704219e-02,4.464455406333991266e-02,1.468699748430814028e-03,2.638151524408675203e-02
1.358407067205818011e-03,2.523173385023149730e-03,8.368211434883176527e-04,1.148800774129506136e-04,2.419081431020441122e-05,1.094977111100070132e-03,1.807631567037838033e-02,3.116030833059654087e-02,1.640068096098236308e-03,1.569953074481400535e-02
2.563706555357852732e-02,2.415652917006282877e-03,9.647588032652744134e-04,1.161553998191182580e-04,7.060694329006489542e-05,2.392397401766622350e-04,9.353397776260609017e-03,1.087952048294148905e-02,1.795070880959988291e-03,6.023773585357872912e-03
1.192934401133152744e-02,2.252283809896416314e-03,1.032774013445677706e-03,1.144470801467715136e-04,2.787729527647115203e-05,8.869865891432025199e-05,5.273385155082349965e-03,7.570760312751905266e-03,1.932645471572003431e-03,8.744914500977442589e-04
9.878502480506617944e-02,2.034225254097528791e-03,1.002354931377491629e-03,1.098265564482610193e-04,2.514520438513804710e-04,4.460363866493426664e-04,5.036075379192038980e-03,1.758652886833345780e-02,2.052151366930285090e-03,6.348322762162699265e-03
1.681490796468987914e-01,1.764261231654018275e-03,9.868568067350484870e-04,1.024372138060533556e-04,3.690874253274632164e-05,3.238214685365210658e-04,3.945327373821657865e-03,2.278972539675592004e-02,2.153370953214217131e-03,1.097488458063348819e-02
1.737170426341173579e-01,1.446181011124922757e-03,1.006803051860955759e-03,9.249049256496492087e-05,7.388976476522227284e-04,2.043885814324319949e-04,7.917144956132403377e-04,2.158157623761966515e-02,2.236499449692449810e-03,1.346072431063755070e-02
1.314864176013291752e-01,1.084689643898639495e-03,1.010051574746443021e-03,8.026035981066927669e-05,1.206267631185763828e-03,3.096536094251094553e-04,5.915877686908537804e-03,2.614392453881863795e-02,2.302124390738036555e-03,1.264904744302007555e-02
8.093856567256822732e-02,6.855653695118160695e-04,9.886049535128319746e-04,6.607628758232597687e-05,7.270092069081619682e-04,4.284573375792370600e-04,7.147511249770011586e-03,3.338911263697380560e-02,2.351195110077849114e-03,9.211260506493302788e-03
3.343908054869852708e-02,2.555343615575619083e-04,9.706802040188893714e-04,5.031491670467560834e-05,6.049720236011458662e-05,4.561784281856416830e-04,5.844153118405661512e-03,2.353108104226378852e-02,2.384982951758935453e-03,5.128767439961724392e-03
2.175766861265926444e-02,1.980050084604158115e-04,9.615584347248245503e-04,3.339061597081450627e-05,2.863075955616456491e-04,4.897421343611141819e-04,6.645581643727642603e-03,1.158310559587206849e-02,2.405033437343482607e-03,2.258958474231546540e-03
7.773461837029593813e-02,6.671545492203785838e-04,9.462575859322609794e-04,1.574517198028806578e-05,7.330357597954505048e-05,5.786132531787597068e-04,1.104610681619360400e-02,5.654266763505005206e-02,2.413111776037191441e-03,1.723275177076255809e-03
1.045271871410528158e-01,1.143642820440882168e-03,9.263982742777339234e-04,2.163135350293323485e-06,1.545791619603644840e-05,6.768353824060238189e-04,1.698772161423334898e-02,8.664912599654171765e-02,2.411142652351176349e-03,3.796399425588550293e-03
8.813453431554811590e-02,1.619018067125128219e-03,9.201342919733683035e-04,1.987080317776682270e-05,8.815903576153246899e-05,7.588377009132557657e-04,2.230347127186121589e-02,8.364647604337258069e-02,2.401145412786829386e-03,7.200237731341399723e-03
5.218701726671838570e-02,2.084866028136812214e-03,9.252090487592315405e-04,3.692044677893777880e-05,1.410775713654418889e-04,8.438482277405648119e-04,2.538204191068764784e-02,4.585766432403794168e-02,2.385167177535366719e-03,8.949542656051452313e-03
2.678491990885392693e-02,2.532995128326172296e-03,9.162711500637151125e-04,5.287193590494924532e-05,1.037151742810299209e-04,9.422342915078646321e-04,2.452848458897180159e-02,8.270673150051713329e-03,2.365216364647868171e-03,6.897788211804907130e-03
1.591113024383415675e-02,2.955620830069703026e-03,9.039244167541559934e-04,6.731305766960209624e-05,8.813052009229643076e-05,1.042380084607279168e-03,1.939696529661695534e-02,5.355175556407438392e-02,2.343196320249713981e-03,2.830016666292298113e-03
1.181696539583555403e-02,3.345565035055837570e-03,9.424602079716574727e-04,7.986945024898839244e-05,1.145538725052061720e-04,1.135199908192363475e-03,1.237272559463860333e-02,7.667775572978194343e-02,2.320838842744580698e-03,7.280532116593788159e-04
1.932450485240181509e-02,3.696406452632631200e-03,1.013040850036720474e-03,9.021357084212436859e-05,1.303897680100963164e-04,1.222941366010969104e-03,7.233546563795646873e-03,7.656443641831205127e-02,2.299643320062083694e-03,1.520655641421920883e-03
4.563949323483602882e-02,4.002576156420012236e-03,1.003750573180695266e-03,9.807248613376429852e-05,1.244529622406011845e-04,1.309020541378106989e-03,6.232185482157420221e-03,5.666121033848879607e-02,2.280826992742129074e-03,2.610321346743983001e-03
8.248331478384418602e-02,4.259514270832707658e-03,9.541457554377480487e-04,1.032343032757120196e-04,1.215533844754650351e-04,1.388962947889646861e-03,8.433396471830384780e-03,2.933675744544968211e-02,2.265278907182515650e-03,2.631274740517983591e-03
1.138867886773780036e-01,4.463870954527951462e-03,1.107103868261019412e-03,1.055530934086279298e-04,1.290196208299985406e-04,1.452556162692278732e-03,1.104321216387726262e-02,1.672070821482862096e-02,2.253509839833340352e-03,2.518139359192302171e-03
1.288373337329482837e-01,4.613497016134739635e-03,1.393779766600152436e-03,1.049521971325366747e-04,1.342693019380710470e-04,1.498541260152295908e-03,1.219252487793831725e-02,3.243734437632014161e-02,2.245617632764025737e-03,2.277732267880296698e-03
1.168342164813286205e-01,4.707254944346029452e-03,1.250846048526234799e-03,1.014258411756732096e-04,1.295532910849883320e-04,1.539598324715861066e-03,1.169464634383294427e-02,7.087017889079225141e-02,2.241288121499416565e-03,1.463752679379392825e-03
6.665028411151849297e-02,4.745187395108332006e-03,5.554148770183310645e-04,9.503903682680512395e-05,1.225997739624529474e-04,1.573625185317476796e-03,9.852360465563057834e-03,1.227453161161419226e-01,2.239793205199344401e-03,1.741265881505623791e-03
1.657597305559366588e-02,4.728982926084940135e-03,1.752270115856540344e-04,8.592577247185158198e-05,1.259720215486090540e-04,1.568255583033230805e-03,6.979612197125326101e-03,1.842136753137610383e-01,2.239943793060208532e-03,4.080549417221615051e-03
1.023001445019825484e-01,4.661589501622619147e-03,7.450511372972289711e-04,7.428555379709909175e-05,1.323223922597746138e-04,1.520750914709264245e-03,2.904732887946414460e-03,2.403165618326852382e-01,2.240079729367009786e-03,4.827668807596758802e-03
1.548221294734409004e-01,4.546077237170309364e-03,1.627244634013320923e-03,6.037838490063804467e-05,1.168226360619318443e-04,1.494817403257885481e-03,3.847893113217364970e-03,2.625467153757561900e-01,2.238189426948402651e-03,1.072620285956889501e-03
1.589463956816191126e-01,4.386210702238296788e-03,1.955171916527247665e-03,4.451832073724670813e-05,9.064696175503608353e-05,1.494337907593656792e-03,1.335490431951135391e-02,2.387237524966933089e-01,2.231985839427424838e-03,1.362195743382955612e-02
1.234958581346403961e-01,4.188582650768270590e-03,1.845619267633077541e-03,2.706575510814768730e-05,1.063869814124898032e-04,1.377835698998501656e-03,2.052538653148425901e-02,1.882075025950141201e-01,2.218735005746824349e-03,2.686649843155567222e-02
7.181669545868624160e-02,3.961058637873900341e-03,1.849430619979302486e-03,8.418638001242719255e-06,1.438035853548915301e-04,1.121784866008591463e-03,1.925231808319850108e-02,1.365107997898140635e-01,2.195200171235564372e-03,3.399822115711507997e-02
3.267760284664333881e-02,3.707721851933782828e-03,2.042191860519708066e-03,1.099715916695086291e-05,9.082624397281482476e-05,1.066288102264486681e-03,1.110622467641533481e-02,8.887603886296185918e-02,2.158143519717891073e-03,3.267488425823667636e-02
2.493029309279312308e-02,3.431547510360209025e-03,2.201674462943337997e-03,3.073809253439442927e-05,1.295001831882744219e-05,1.514839602754209204e-03,4.256099103068426356e-03,3.817319118391519772e-02,2.104618592605027056e-03,2.598984024306176532e-02
4.208239024803923228e-02,3.144708015004325438e-03,2.267449891619634835e-03,5.035355773834271034e-05,7.558560749493437774e-05,2.122102876449449317e-03,2.696934802094832183e-03,1.059364677183072777e-02,2.031085615368372326e-03,1.895191941095096186e-02
5.820254022502439895e-02,2.862538516217621575e-03,2.301133493026065197e-03,6.939660637837058183e-05,2.882944135235113062e-04,2.130786375210318943e-03,1.960632186590169010e-03,3.793117827681597581e-02,1.932958156455099772e-03,1.431537290783470480e-02
5.286188552507435634e-02,2.580763249531227953e-03,2.361023912129820747e-03,8.743450756116523338e-05,6.208467834284861855e-05,1.378549353587605339e-03,2.436186798417370753e-03,3.483905612109595984e-02,1.806685382107720613e-03,1.194937554545289979e-02
3.078843148843536659e-02,2.287179179062084899e-03,2.498473161413711577e-03,1.040589002875577727e-04,7.258681117638005357e-04,6.612276559185774989e-04,7.147227701367717297e-03,1.755099701389216393e-02,1.650985069881086807e-03,1.145222075733678437e-02
1.580302769088424292e-02,2.010001805277584173e-03,2.619415540311905832e-03,1.188952940029413288e-04,1.205478930337900313e-03,6.184579808984141339e-04,6.245117676034398282e-03,9.606290139624787394e-03,1.462640273776952141e-03,1.322112721753515227e-02
1.981251435340251887e-02,1.793608234187110380e-03,2.520811795654481074e-03,1.316116922101862085e-04,7.384085238499514493e-04,6.886343809129648330e-04,1.476048390442721544e-03,1.969697667860657170e-02,1.233963835138393366e-03,1.638389063013317298e-02
2.458712504615524416e-02,1.594125894661036500e-03,2.378098073538573165e-03,1.419261364538743054e-04,3.693599259913054559e-05,4.384345684399445803e-05,4.403770267612097731e-04,4.241626920082683383e-02,9.619077204196511445e-04,1.832828836527831962e-02
7.270117437816393802e-03,1.328041080616878481e-03,2.667598524641197864e-03,1.496129946927033706e-04,2.510325361912669421e-04,9.964176719125519485e-04,5.183780954420421846e-03,6.948042306694141024e-02,6.539011008932783505e-04,1.738357339823238742e-02
2.895831642673563772e-02,1.096195714768206540e-03,3.033233081759525995e-03,1.545078499543916617e-04,2.759086353641681670e-05,1.589702538333239226e-03,1.036214310926407596e-02,9.606243491379089228e-02,3.087166653321784062e-04,1.379841548575848863e-02
6.566813771519322551e-02,1.085783244275478855e-03,2.425434004754756234e-03,1.565108813674923939e-04,7.044092783543888796e-05,1.726331176286331889e-03,1.318185064416560123e-02,1.235717487749195403e-01,9.634959545908763196e-05,8.065914188218713601e-03
9.106597563638443860e-02,1.086431456099031054e-03,1.584628986958053730e-03,1.555886659848720562e-04,2.401982169987712805e-05,1.948384194641284480e-03,1.629745181914890248e-02,1.560240785693081389e-01,5.648275458287407716e-04,5.042968874347123018e-04
9.519019121962440932e-02,6.771516058287884712e-04,2.875094036516135515e-03,1.517743653803968105e-04,6.874722079460847835e-05,2.382974900637413115e-03,1.854798449248306474e-02,1.899185074234614468e-01,1.052537191072793529e-03,7.877723966401161890e-03
6.767513601253685729e-02,3.126780383116825384e-04,4.657812410689247257e-03,1.451663020037016814e-04,2.700989407129742687e-05,2.795963519471064522e-03,1.145987134521782649e-02,2.141743637102680731e-01,1.553599094499339686e-03,1.522176295305904467e-02
1.753494093773669271e-02,1.222833707822675682e-03,3.533946584524963420e-04,1.359249758627876809e-04,9.624695323287467332e-06,3.117695837228850672e-03,1.084446102212259858e-02,2.233757400082754530e-01,2.163595316891752784e-03,1.902872577935916729e-02
2.464673086816864325e-02,3.325380061580623155e-03,1.536106514471474727e-02,1.242686060954906603e-04,3.110160592368030899e-05,3.453521780453645048e-03,4.382662755725517251e-02,2.198350932421285764e-01,2.897394234285732059e-03,1.777925545324464396e-02
3.588283056458422410e-02,4.522528767127300536e-03,3.173282663621037475e-02,1.104673028803199164e-04,4.163868695103140180e-05,3.838026515389677575e-03,7.635211654475672349e-02,2.002913570497532880e-01,3.549117652594187960e-03,1.404587036918709606e-02
1.710845016338206209e-02,3.351485867108191640e-03,3.771320001644973274e-02,9.483601460849132162e-05,4.251807017167765417e-05,4.222035295835125344e-03,9.762144311031220600e-02,1.597823851650089777e-01,4.079944574083758241e-03,1.343460262954509522e-02
2.096595240589336703e-02,1.007163000815298939e-03,3.140388959861339924e-02,7.772645467804814915e-05,5.297082549308597247e-05,4.583156025728014026e-03,1.012202242035399463e-01,1.149583084442300507e-01,4.939428145409252395e-03,1.808287746196460613e-02
6.676983660446605962e-02,3.848926267579898686e-04,1.953932725580555599e-02,5.951822160966960197e-05,5.349597141580025904e-05,4.941136248385605972e-03,8.807892150852521251e-02,9.923219505156365139e-02,6.209847190112517852e-03,2.438101646854701210e-02
9.903029839433112602e-02,1.040635948891291916e-04,8.319233392701191540e-03,4.060927847435565958e-05,4.254892053520817254e-05,5.315883818860100800e-03,6.618996231359224047e-02,1.203753844714826882e-01,6.588960291507509580e-03,2.905105082526059090e-02
9.402970376592231783e-02,1.265850454259240471e-03,6.482299103243091554e-04,2.140600049432576633e-05,6.968287535246095476e-05,5.703230852797703219e-03,4.467057892528251278e-02,1.426354800006342516e-01,4.642509712048459650e-03,3.290640963090345900e-02
5.359253935368551297e-02,2.836935512939870764e-03,2.420637547336811513e-03,2.313150363375845225e-06,1.201578176559953826e-04,6.073359794201810616e-03,2.771207643015695041e-02,1.281027849481990166e-01,1.378553793199842423e-03,3.638558175490348712e-02
8.922250392073930239e-03,3.676892647674648035e-03,2.125191443417204229e-03,1.627591654987895433e-05,8.295168082573126729e-05,6.416843649662355362e-03,1.460262978758718362e-02,8.241949576491028329e-02,3.606946230918400050e-06,3.711867116237237835e-02
1.029001297034656121e-02,3.047487326723261059e-03,1.284642103299169467e-03,3.398882607234252941e-05,5.376508244179328676e-06,6.791498846219701062e-03,3.822209051015644423e-03,4.354070448199961335e-02,2.396281256914359684e-03,3.499854754818723657e-02
4.082675963662686994e-03,1.080185820100880651e-03,1.328228831644986041e-03,5.048343875315540051e-05,9.726384297338595342e-05,7.228376250868020700e-03,4.560806677229951520e-03,3.740881569063515821e-02,7.190068975840382438e-03,3.377973948132823728e-02
4.605632890850108740e-02,1.152108852922447508e-03,1.641979910947884407e-03,6.545604040305761338e-05,3.236894881246024213e-04,7.609246568522072367e-03,9.980232385510264675e-03,6.274582485896716688e-02,1.162528789461693933e-02,3.487137651875523575e-02
9.864968328220094507e-02,2.699701353707131823e-03,1.599243625361528379e-03,7.864798298983499138e-05,1.108895676985768836e-04,7.862101859250868185e-03,1.356798126289258943e-02,1.068854942725792484e-01,1.416839157261704299e-02,3.557883674747077535e-02
1.295004473077587259e-01,3.467988129752875952e-03,1.452719535440932580e-03,8.985172711246213601e-05,6.648561143714927643e-04,8.239686596708680269e-03,1.822738731939782184e-02,1.531013430129965214e-01,1.483211040851983853e-02,3.511388522356835573e-02
1.112847369583592899e-01,3.733531785907426813e-03,1.496034815869009757e-03,9.891680030266999978e-05,1.133983383483502848e-03,8.919119390685278925e-03,2.598677553028270332e-02,1.807137863059205540e-01,1.454893549135198756e-02,3.623355797327536959e-02
5.513694655990356019e-02,3.885348369810714443e-03,1.615971515902155748e-03,1.057531882827042219e-04,6.580181865674019498e-04,9.346114754143829834e-03,3.601490081043733776e-02,1.794023533030102424e-01,1.453110398649878378e-02,4.021559830455468526e-02
3.283656242153124190e-03,4.612498169658907181e-03,1.673779200388472981e-03,1.103306270914774823e-04,1.247908344091076208e-04,8.816291490348340462e-03,4.527096252900156964e-02,1.575682560943267585e-01,1.422299769552529125e-02,4.481191255699021325e-02
1.788706965012267988e-02,6.107268164597169126e-03,1.720085734041048101e-03,1.126787936464159552e-04,3.445287951872682782e-04,7.632573173032975236e-03,4.994480755471532307e-02,1.250765610017704199e-01,1.015359098021226952e-02,4.622254352483679690e-02
1.865223207645368142e-02,7.411818914358617172e-03,1.819304782277705607e-03,1.128916420615843063e-04,1.242674400075439447e-04,6.417657307482394803e-03,4.793974278964985986e-02,8.017986043922860351e-02,7.609101766717601793e-05,3.983742727817261853e-02
1.767567885257771698e-02,7.645508651705391553e-03,1.946879029356916087e-03,1.111252554380864584e-04,2.729400915358882296e-05,4.618962857425608706e-03,4.238792471087506064e-02,2.282218622698212185e-02,1.203577156423610989e-02,2.134179935160498282e-02
1.722758899006993430e-02,7.242762011920984844e-03,2.070259731040587081e-03,1.075820719047757815e-04,1.218806051663215466e-04,1.451763466245096796e-03,4.010619522726140140e-02,3.284690429853905774e-02,1.886636196458134698e-02,8.546285475073720633e-03
1.590531227503911432e-02,7.270687976419076305e-03,2.198083846032855299e-03,1.025041830144155999e-04,1.652476943422876170e-04,2.285025340988467053e-03,4.363833628317494162e-02,7.061377758344936084e-02,1.738954486858069332e-02,3.980603132036565628e-02
2.461815022622437441e-02,8.234411350720794928e-03,2.342965880491893176e-03,9.619183571797740675e-05,1.183414583975120847e-04,5.045072472757212989e-03,4.749248430732298798e-02,9.072811672466228605e-02,1.079583815230307671e-02,5.728404252760523757e-02
5.272514465445395787e-02,9.909488177370921053e-03,2.498062692128400278e-03,8.899947036415820566e-05,9.340984687103613356e-05,6.094619922835004498e-03,4.464284391698539883e-02,1.066977008296712964e-01,4.040906140833470245e-03,5.312746483531749497e-02
8.979218757919937843e-02,1.189619344691338239e-02,2.654202747884310074e-03,8.127407516185862458e-05,1.104447946482359954e-04,5.302449353980291137e-03,3.444595598129591291e-02,1.239639002683621399e-01,1.955798667706582644e-04,3.396126830329018742e-02
1.162150698722642650e-01,1.409937051735218883e-02,2.811213424909575313e-03,7.333728906297461256e-05,1.173856052620972525e-04,3.374030162632416299e-03,2.259747884562311737e-02,1.306365655580978280e-01,2.548250417953257674e-03,1.318313442718871235e-02
1.218906099460661113e-01,1.638518570363049418e-02,2.970314630480224826e-03,6.558972908135237735e-05,1.045069731011801525e-04,2.511780559307915869e-03,1.507032820353033931e-02,1.128990726673097938e-01,5.379451293529118050e-03,7.173411158443677646e-04
1.038606686584950117e-01,1.779318360364342058e-02,3.128684418794095822e-03,5.852362982298609103e-05,9.641797987237850408e-05,4.298547855416554216e-03,1.322753765802875056e-02,7.378801359777664715e-02,9.312499191108356694e-03,5.756700420055122641e-03
6.402223131446753424e-02,1.701776058649343698e-02,3.282627953760866059e-03,5.247131000813814441e-05,9.819218422779795873e-05,7.095528034798908798e-03,1.429327532640064721e-02,3.720334509836575182e-02,1.209312867237114647e-02,2.752400837967454005e-03
2.310771743213357182e-02,1.375251910240738937e-02,3.430489373873020758e-03,4.754250816380697946e-05,9.843060084000468033e-05,7.775130537577067819e-03,1.569647766169023420e-02,3.701766532163271867e-02,1.201748477304303252e-02,4.229043676206472799e-03
1.475630784235325808e-02,8.805250498003978910e-03,3.572152205756532785e-03,4.413147650506072533e-05,9.495928805191590754e-05,5.733886564118063564e-03,1.723885123311293469e-02,8.826870357400988520e-02,1.007369379900938805e-02,8.646678253040227316e-03
4.633596111051680594e-02,3.873768312088489690e-03,3.707216070979454242e-03,4.303692647337027048e-05,9.374890947549633518e-05,3.602336865345090976e-03,1.871328999191982506e-02,1.595459311694454874e-01,7.164362439741237855e-03,8.657166749044818352e-03
8.310719018084342102e-02,1.664714059624857433e-03,3.833367470844821316e-03,4.435706745587620757e-05,9.591898662943101255e-05,3.759864247778564508e-03,1.916950293220371498e-02,1.985215949751181486e-01,2.433711779066942762e-03,8.928453062403446383e-03
8.908826832522682981e-02,3.414621664951202236e-03,3.948300218674960158e-03,4.718206955492242608e-05,9.795683003131624370e-05,5.084474821679195455e-03,2.033386185821718650e-02,1.974346185619950678e-01,3.933460969219593206e-03,1.063471526118877492e-02
6.710242836331672955e-02,5.632217876859387309e-03,4.054591314489196588e-03,5.192639010731251234e-05,9.981315765454988446e-05,4.740370748352839593e-03,2.543096535205686959e-02,1.982243622367300395e-01,9.074113305809716062e-03,7.955219285270031040e-03
4.249287893042956454e-02,3.218839198811123195e-03,4.156737761569727178e-03,6.103054842300232718e-05,1.052091818107763697e-04,3.192239609149938318e-03,3.155308044119485567e-02,2.213515666640973045e-01,9.793721999127768391e-03,1.663205484811627975e-03
2.793445151693156256e-02,3.432220772710882842e-03,4.250096377019323829e-03,7.398651821576628465e-05,1.135566546115173038e-04,4.329067450643360980e-03,2.983508784724245994e-02,2.377469812094342716e-01,5.098167738661057470e-03,4.996373437245105707e-03
2.405543395716815830e-02,8.474903194668110401e-03,4.326447825052729020e-03,8.570144776090319585e-05,1.189290167260247122e-04,9.189153733455213482e-03,1.762401825096441069e-02,2.261093829324672122e-01,2.828898605994851351e-03,2.420026983651574898e-02
3.304117265487094973e-02,7.864545003440573043e-03,4.397984003788296681e-03,9.707548561384586258e-05,1.229718497225470032e-04,1.313563797107031132e-02,4.026558361353126635e-03,2.034643632790181511e-01,9.119384354046832994e-03,4.355080220322420786e-02
4.730609481612810946e-02,2.750933628547230000e-03,4.486194205238311361e-03,1.187733192537495719e-04,1.374551365764202352e-04,1.167561615605216228e-02,9.764342004934612254e-04,1.803751480311711342e-01,9.994073337798923401e-03,4.386245299399041397e-02
4.348396358849877102e-02,3.262213853138403157e-03,4.570120847056246757e-03,1.487376623459434955e-04,1.587883059394550966e-04,6.212955174071031067e-03,2.709249658776994273e-03,1.390428282618437483e-01,6.936745469693789308e-03,2.786968171429478683e-02
1.165523147678607270e-02,6.250876093188899134e-03,4.608512633340788173e-03,1.635573000066732781e-04,1.619217802361276972e-04,1.556585601429831154e-03,8.723370416817548614e-03,7.550029354640033774e-02,4.354504277028427468e-03,1.362462179335592431e-02
2.601947199892414020e-02,3.293370803087020821e-03,4.650822235310468795e-03,1.662788973988370809e-04,1.536734409681318053e-04,2.770083466567863128e-04,1.331826583520922744e-02,1.972433305870719897e-02,3.159849299608871297e-03,9.130029334227657278e-03
4.478488570239549937e-02,4.341299929576141609e-03,4.792677666704608583e-03,2.061121221054340211e-04,1.871376424427814082e-04,1.094546068774709512e-03,1.666329401848438974e-02,5.717188937195277765e-04,2.196475979913855821e-05,7.195082262509507401e-03
4.627904497405321144e-02,1.100484027626397014e-02,4.937320950054084265e-03,2.768487330540084484e-04,2.486195240076197383e-04,2.274801261544528996e-03,1.659328898813591802e-02,2.209328252496648923e-02,7.425926748937459153e-03,3.249256929501909748e-03
4.203386421495189373e-02,1.225812124730253118e-02,4.883986258908677366e-03,2.720184700348860776e-04,2.238029333097544280e-04,2.663103089175371078e-03,5.610852102406457820e-03,7.304017368289300594e-02,1.647386479936039511e-02,5.641543732089767879e-03
3.061264403302883796e-02,8.540693269289117290e-03,4.842256141609596956e-03,2.006729848679964206e-04,1.381282829112331532e-04,1.166726272435540364e-03,2.123714716864333329e-02,1.322384862019385932e-01,2.130772001403145183e-02,2.329907073002971535e-02
9.565641808607201757e-03,2.035777882602246396e-03,5.266144143592788214e-03,2.917221618829601718e-04,2.382301968362110685e-04,1.461879451174062650e-03,5.586696779931529799e-02,1.724804769032509122e-01,1.758619531285520246e-02,4.926250173869066440e-02
8.205696409757377505e-03,6.096640790961574408e-03,5.703063282436067992e-03,5.397531058749613798e-04,4.847177284966096224e-04,4.247207667320613937e-03,8.130426982766067456e-02,1.800916250957719233e-01,8.067139024456711910e-03,6.411629266146925965e-02
5.443316092843319964e-03,1.291131976322528255e-02,4.847722195417511655e-03,4.118005980401120958e-04,3.064509022203064890e-04,6.841431937939603837e-03,8.872031794905145541e-02,1.606499473841491166e-01,2.948591628945387497e-03,5.713256072999774171e-02
2.271547858640751011e-02,1.291284177685047933e-02,2.766219830682194354e-03,3.497588807964365268e-04,4.820995985867341008e-04,8.142063019837548002e-03,8.360589681800703610e-02,1.171995424014166398e-01,9.704904954715690493e-03,3.959233013187657413e-02
6.398722398302508774e-02,4.801337767425714262e-03,1.703294385192978370e-03,9.446585024136428281e-04,9.966605788617017517e-04,6.467688650004456592e-03,7.404389242776915347e-02,4.467916677381028601e-02,2.267378961883643324e-02,3.244690655685894543e-02
9.071163842309294678e-02,4.548061633941470443e-03,3.142409345389365199e-03,4.478769193320807237e-04,4.634277988101955957e-04,2.078789915324440966e-03,6.302953251144126356e-02,4.455956397388496915e-02,2.889299262056098036e-02,4.156774733260629184e-02
8.118892886431712530e-02,8.299903900327740280e-03,5.548808332604298829e-03,6.690195080339012695e-04,4.602713489416937888e-04,1.920600976716231719e-03,5.386927539491282585e-02,1.152705261052302255e-01,2.397902793142026034e-02,5.146499904508299028e-02
5.417841087012423285e-02,9.165562284798709283e-03,6.698502620855423771e-03,8.938564357371368580e-04,5.739784342701992814e-04,2.229912768319251663e-03,5.094146982163851728e-02,1.440088108292409963e-01,1.569844517199298073e-02,4.548580620380194423e-02
5.515008108584650015e-02,1.439153741299521727e-02,6.635550081596839136e-03,3.204624856952157990e-04,2.124338786491467576e-04,1.369171164138124289e-03,5.222106105696438377e-02,1.402316971391353584e-01,1.223001840425894451e-02,2.505610930157375904e-02
8.718252390663450146e-02,2.331932981806536520e-02,6.663169133615826772e-03,1.640516822188240083e-03,1.007994467332268707e-03,5.890740311331236177e-03,5.038683892787467616e-02,1.223692828264918570e-01,1.319649722545311946e-02,4.712737206613215948e-03
9.303111147816876814e-02,2.763196301591266946e-02,6.997062090453648985e-03,1.524034881509922197e-03,1.182116819644862165e-03,8.250586377232398821e-03,4.134377100753255235e-02,9.393762011303374848e-02,1.271927596354497335e-02,5.678894783402868920e-03
3.857693686557762264e-02,2.321918322895998726e-02,7.160090654634866311e-03,2.652145837110009199e-04,7.902651919858485075e-04,8.070213527338459050e-03,2.573689142889346720e-02,5.904233730758251530e-02,6.413065730831675471e-03,8.248755702145213475e-03
2.672682298694160213e-02,1.422508339275510222e-02,7.449715507552302253e-03,6.597583150614578064e-04,2.052467142467593046e-04,7.388381859330606961e-03,7.040179346917643625e-03,4.424785198246253964e-02,5.351530030489049829e-03,9.731665805811799685e-03
3.683556395992181043e-02,5.626312031175729166e-03,8.159309972160737334e-03,7.303867229008570916e-04,2.611633779459704386e-04,7.938814761763980654e-03,7.637806856393898093e-03,7.939583337812315678e-02,1.745949746279572973e-02,1.280016031211012560e-02
3.989646332886072344e-05,1.555633754069264338e-03,8.249007813775952047e-03,5.131365629242521081e-04,5.453185576127237214e-04,9.186152201369243708e-03,1.216744094568997583e-02,1.563837733205413472e-01,2.332195033084425231e-02,1.697843298367510134e-02
2.549406337684017101e-02,7.749524190961673380e-03,6.811949034359322114e-03,2.997863864771716283e-04,6.062753858494483988e-04,9.558210706158358494e-03,8.024189584899714747e-03,2.257288184816572119e-01,2.131906063110147742e-02,2.299823306007604123e-02
1.701618662718576772e-02,1.275144700997274567e-02,4.801088664624908291e-03,4.520504871572906733e-05,2.304968495924400299e-04,8.798685397859726601e-03,4.666975872686888321e-04,2.419387480487890374e-01,1.638440963008298834e-02,2.984372244012545652e-02
9.460311042449704669e-04,1.619839507224238653e-02,2.685940834985805267e-03,5.270167458122029542e-04,4.090066446537589839e-04,7.562969627522703187e-03,1.247867321265790780e-02,2.049692031955594740e-01,1.198829721795859754e-02,3.175260614230840384e-02
9.678921807150013545e-03,1.656984813634682779e-02,2.304902281617107404e-03,1.109105380364380170e-03,6.361333780501491177e-04,5.478519467785820767e-03,2.481607472426488117e-02,1.529743406250843041e-01,5.130833194159677493e-03,2.633063329441978975e-02
1.572918432425906426e-02,1.089969916994364824e-02,1.324291269947613925e-02,1.591421908798033120e-03,4.057826172152095910e-04,1.551769312643935849e-03,2.868633702360593937e-02,1.193839199670611861e-01,5.816346623310039883e-03,2.143281880594905681e-02
2.463853909331724379e-02,3.228615720559651226e-04,2.821013627603672844e-02,1.384458761520397825e-03,4.220075415776250991e-04,4.003269185269858754e-03,1.982900080097921292e-02,1.049691729170567772e-01,1.463219317652174507e-02,2.606217725174512362e-02
2.772959513168303872e-02,9.919752840008972533e-03,4.039681539161295992e-02,3.594182394186385267e-04,6.704470432918259752e-04,9.743606717572558806e-03,3.721727688622078825e-03,9.417473231576933834e-02,1.482903424397691988e-02,3.885884694478745210e-02
1.450564203365303784e-02,1.171690384181653562e-02,4.401651786552949336e-02,5.869570876363527489e-04,4.155642341484252524e-04,1.422723822677732577e-02,1.273395383380529315e-02,8.544250801028156761e-02,7.985700458097863552e-03,5.154556517672365112e-02
1.575889257249195319e-02,9.822382108847607304e-03,3.945933406054936976e-02,6.710912623704879277e-04,2.624375869369308827e-04,1.664979019610622266e-02,2.694170382135493980e-02,8.955445409475909502e-02,2.693732738127990918e-04,5.898463819732099878e-02
4.991523548830449630e-02,1.320411323198788199e-02,3.183143728179143456e-02,2.569779750291407896e-04,5.731834591678465441e-04,1.727318937546519842e-02,3.777954002026020358e-02,1.061624451285368420e-01,7.342052411593480606e-03,6.161645079911669265e-02
6.622729693835764653e-02,2.241694579156929337e-02,2.480280576413352103e-02,2.069348541227651172e-04,3.960230683769042494e-04,1.733878992964227664e-02,4.475673524598827030e-02,1.209347578649470345e-01,1.339183349849356122e-02,6.121719040404851458e-02
5.385995572899249934e-02,2.877028477463823911e-02,1.805544271471788698e-02,6.359877952077809928e-04,2.520016180505882625e-04,1.730659934844200332e-02,5.015439816502133275e-02,1.241149407540933780e-01,1.791616701174931353e-02,5.723530271069215969e-02
2.506436277830804277e-02,2.531897217400647798e-02,1.086191697359918489e-02,6.556041794173971243e-04,3.297227832338990821e-04,1.598497711330083837e-02,5.635522937280716682e-02,1.186047856891983970e-01,1.928515929541919915e-02,4.823121546423930067e-02
3.067828509169080254e-04,1.275443221942484592e-02,4.615308798347686828e-03,4.003246399491469220e-04,4.034694133792723230e-04,1.328322088595733190e-02,6.181297741895977471e-02,1.091103069362705652e-01,1.672051857138096356e-02,3.659400331579436977e-02
1.503147111469917488e-02,3.195031041645570325e-03,3.689779407093913936e-04,1.663497978274075138e-03,3.612325766468226450e-04,1.198440356779296480e-02,6.441259297611919010e-02,9.171333979209207732e-02,1.215581854139341500e-02,2.828928812109607338e-02
2.245497296708143936e-02,1.500851480938729735e-02,3.033534358392850176e-03,1.634711322352390720e-03,3.150090943301408586e-04,1.360773314645801792e-02,6.678454430579158774e-02,5.986451643362717540e-02,9.664146155865471766e-03,2.639286182716726187e-02
2.463500162129536597e-02,1.725546016986117398e-02,6.583520888792156016e-03,3.749395844466572175e-04,3.548512438708446826e-04,1.452008768009339749e-02,7.243331137592418090e-02,2.021524294951085321e-02,1.182211502265904934e-02,2.865885274807125627e-02
2.075156237308680221e-02,1.173642133922535649e-02,9.185702294930236933e-03,6.134101786592767143e-04,4.115832143087833723e-04,1.036111288903602927e-02,7.797375875250724120e-02,7.287150826350462934e-03,1.684609011686812735e-02,3.236490823346909601e-02
1.156898098162195340e-02,6.028189375277072208e-03,9.673252385998452191e-03,6.205990256502287930e-04,3.643819605578465268e-04,2.903972655453439244e-03,7.531885808865326770e-02,1.417627356871517530e-02,2.090869192059040607e-02,3.638154226504043687e-02
5.639414167223368544e-04,4.978259973465039984e-03,8.982715470684292380e-03,3.256133169522959937e-04,2.798426961671927763e-04,1.851286037654397993e-03,6.169211346398746632e-02,1.543651921617720038e-02,2.290896015890528034e-02,3.754276484840741307e-02
1.384593289164912956e-02,6.752691683348454980e-03,8.822568565113356534e-03,3.237824285911016799e-04,3.845241892903654662e-04,1.618400660926716441e-03,4.289780958167029729e-02,1.945306304736821312e-02,2.417753710595981972e-02,3.268583157339875755e-02
2.283148343627716681e-02,7.550666988937197038e-03,9.133834499246882080e-03,4.529042938174855453e-04,5.867253292601617423e-04,2.140983822878565583e-04,2.658369688492330518e-02,7.375158274151225740e-03,2.326746464036468301e-02,2.745910006261843145e-02
1.492414345072031086e-02,6.986151252596721657e-03,8.283476982014252588e-03,4.870072121241974064e-04,3.739973927319014064e-04,3.462007263207397302e-04,1.648806272960357672e-02,2.843643489541301805e-02,1.563636116165742149e-02,3.290386208130220008e-02
1.455054587536227031e-02,8.037359421997373674e-03,5.769844513362230864e-03,4.734210974142568566e-04,3.422682095774565820e-04,6.711615078109217647e-04,1.352564149639676541e-02,5.259509619359686861e-02,9.491003415485772116e-04,4.618625737357882899e-02
4.556214705821863553e-02,1.263063649159268560e-02,3.532860879001084673e-03,4.322247919705762918e-04,8.085703713840073064e-04,1.478840434441657924e-03,1.710746216277756609e-02,3.101770530230173878e-02,1.351139629358502625e-02,4.677701943344749619e-02
5.379448463733506325e-02,1.826998121493159100e-02,3.760081097652684737e-03,3.814359328868236810e-04,4.566132026998953077e-04,3.184132947342765106e-03,2.260265523410167829e-02,1.813494568366338933e-02,1.992483410884937634e-02,2.354018821464564162e-02
4.535674787382423107e-02,2.069080918551803594e-02,6.030824861317870059e-03,4.961152968549062056e-04,3.273702780164995836e-04,6.924707426559779250e-03,2.186229579302986087e-02,5.162743745125499689e-02,1.781399374935835334e-02,6.180072762391856239e-03
4.423716659936031970e-02,1.908377890526367915e-02,7.525780701067508877e-03,6.974662860049442217e-04,8.371240734213355973e-04,1.039443847811169670e-02,1.117746583128221595e-02,5.643402464538180285e-02,1.339607386243435450e-02,1.829134041110856007e-02
5.099460322854965783e-02,1.574392969506768769e-02,6.246758107088157611e-03,4.642069585927666815e-04,6.256158759308336637e-04,1.013934088772995047e-02,2.610487127208063838e-03,5.252704361206692041e-02,1.317160933057136447e-02,1.193676261048377124e-02
4.639981011384285148e-02,1.179037259018368526e-02,3.897373797044827691e-03,2.802658400644399681e-04,4.037945036420175393e-04,6.319584221495254915e-03,8.518114410120247032e-03,5.997778732813630748e-02,1.818040856902438177e-02,4.885182072607132178e-03
3.233299814070696165e-02,6.810139095179097886e-03,4.160740040579217515e-03,7.073438953496422260e-04,1.566068347503534949e-03,2.132907724966888463e-03,4.395840330335333557e-03,8.175878341294656737e-02,2.312843791719254236e-02,9.115367557658068248e-03
3.395179846740538354e-02,1.173315899214406790e-03,6.763425182304711250e-03,2.903788960708950464e-04,1.657451553902099424e-03,7.645783565567384771e-04,9.572699023676382521e-04,1.063457726118038210e-01,2.176271718312391620e-02,2.289102142439259496e-02
5.764095765797425108e-02,4.294778632936095859e-03,6.064153421869440501e-03,3.939689601423191322e-04,4.400150981562545895e-04,2.976341987153811354e-03,3.861362590251555225e-04,1.160051756009839730e-01,1.332040941726253536e-02,4.016591912097834671e-02
7.786691275215434915e-02,9.185606616599169966e-03,1.268994384095831164e-03,7.225783404334634079e-04,8.404301195868786774e-04,3.925280959600042398e-03,2.859217886163585055e-03,1.013073807220581102e-01,2.766963964933088181e-03,5.777854188217265013e-02
7.337630971825742643e-02,1.270262381094558642e-02,1.053008511353382276e-02,7.127975686780596521e-04,8.354983987845477581e-04,1.577910025773191383e-03,4.039751139952790955e-03,7.481150993913132652e-02,4.163654527085799625e-03,7.445214228624266739e-02
5.141805940062176006e-02,1.423065315938987566e-02,1.478617542536947091e-02,3.532660528844613792e-04,4.547630781434096672e-04,3.672700683344703836e-03,8.576058744015145618e-03,6.301156121606871219e-02,4.977597915925044414e-03,8.796456071688914247e-02
2.960829651864149356e-02,1.480789025319118393e-02,1.292422631015164268e-02,3.360240761515663694e-04,1.681993811255094685e-03,8.217273643705343134e-03,2.603898776912681387e-02,7.775712068518148001e-02,1.581115357277362117e-03,9.515286209009998775e-02
1.409901756343613123e-02,1.567349619201588787e-02,8.354110940037202254e-03,7.008706277896014757e-04,1.600494205754565127e-03,9.409989499811869523e-03,5.451709539319407605e-02,1.013017206501331952e-01,1.274355766504987105e-03,9.303565371366141756e-02
1.319345064926014631e-03,1.570954248756151889e-02,3.378798443105713277e-03,2.988846179505973968e-04,4.480772351527791521e-04,7.840613985549069187e-03,7.805170386155049767e-02,1.064019433813340326e-01,3.439108843191520911e-04,7.941498442149219628e-02
1.147564828510403909e-02,1.223764049749861277e-02,1.473660031492746245e-03,2.810579960402642945e-04,5.717302513963687860e-04,4.981936806643542069e-03,8.154090343889369707e-02,8.816827526364606760e-02,3.459223153914248953e-03,5.605394968537890515e-02
2.274668925751535328e-02,4.322606360288354377e-03,5.160715818108372460e-03,5.237470530643577836e-04,7.736491758528738806e-04,1.759503208491716882e-03,6.677319867895067929e-02,7.063929337652817553e-02,7.648694302559159303e-03,3.173192937519816320e-02
3.237820049870948624e-02,5.198164616374824354e-03,6.456343496901435601e-03,6.551361920870072807e-04,2.538720562137825824e-04,1.101881564568864508e-04,5.129461542310308902e-02,8.135598283209793946e-02,1.047179225774034876e-02,1.598242548621690157e-02
4.824782230273627626e-02,1.088920686099683136e-02,5.530358670740352124e-03,4.851928351589867390e-04,5.400230727484001212e-04,1.018267897665486432e-03,4.959889250137908961e-02,1.209322188299915418e-01,9.212524247813371966e-03,9.117867418771638879e-03
7.734716307802802504e-02,8.975874450647368386e-03,3.580345238119338885e-03,5.403479552773194283e-04,9.007778463834047265e-04,3.695605541771573160e-03,5.847771678971387666e-02,1.592771176445536285e-01,1.046686072764967243e-03,5.778979096189729853e-03
1.064183173170174801e-01,1.361184794417141103e-03,1.821669582910409764e-03,1.669435758604168344e-03,4.432579548498396735e-04,4.388316973433056996e-03,6.384361030503214740e-02,1.657556410330313368e-01,1.153154877961946705e-02,7.285071518125381743e-03
1.067157022128754906e-01,5.784889102927486502e-03,1.356748689925936112e-03,1.512350959035105649e-03,2.621271728572076255e-04,2.231948138413692925e-03,5.716868536830631287e-02,1.436650397563712656e-01,2.061242464648938358e-02,1.966172020738523804e-02
6.990310774789287862e-02,8.445939972517810604e-03,2.570701601250518012e-03,5.223665551920434000e-04,4.642296581291507082e-04,1.310016201472066462e-04,4.106426794952440507e-02,1.238368311623583712e-01,2.138062987829323150e-02,3.923747222994479478e-02
2.457250216341515942e-02,8.587160757166152625e-03,4.317839445267097898e-03,3.052122903625820323e-04,2.562982796534511850e-04,5.348540362858556938e-04,2.434821718447819153e-02,1.220414441672786759e-01,1.712299806162674576e-02,5.218539342270009374e-02
1.751406942839031622e-04,1.032408962124711088e-02,5.043213567312054488e-03,7.884538359471933520e-04,1.459495343998105715e-04,2.426295717554348592e-03,1.686491907909637780e-02,1.267527557431228913e-01,1.342766288808148502e-02,5.095798674352379487e-02
1.041387266311227106e-02,1.386071882544315584e-02,4.639722000167077059e-03,6.596608132342995185e-04,2.149294154953102919e-04,3.272264227132892778e-03,2.432098495869256666e-02,1.335801859424110838e-01,1.181464718766831422e-02,4.206631215999988294e-02
2.932154554329088891e-02,1.621307748581321539e-02,4.121315148410142210e-03,9.817990286098922837e-05,2.468257812523798962e-04,2.077705219427090650e-03,4.237554084641595442e-02,1.535599667934832713e-01,1.193235939906450195e-02,3.529332082594482944e-02
5.015787803329618821e-02,1.668345111997177402e-02,3.978569982718340239e-03,4.469047574304015231e-04,1.966598082195948356e-04,3.066734419134229924e-04,5.806318683978962947e-02,1.768920060667485694e-01,1.501298501670954820e-02,3.212321503838533321e-02
4.680559380077180254e-02,1.701759682529861359e-02,3.874845283296957967e-03,2.167134680822094370e-04,1.642444125138682468e-04,2.471098981424561108e-03,6.117405903374126264e-02,1.693181992865223640e-01,2.120910681289843100e-02,2.750833201652155141e-02
1.632060830331535234e-02,1.691078627095102954e-02,3.536484648090079327e-03,4.080653839388154907e-05,1.721355188949945901e-04,3.447630344532246621e-03,5.237126056916198424e-02,1.183888723339763527e-01,2.745741203770842714e-02,1.836557424569865843e-02
1.698366953714362804e-02,1.417090194986608993e-02,3.158671086527346968e-03,1.244708608536497908e-04,1.740306229361588319e-04,3.293012325825543304e-03,3.778210938109707179e-02,5.229259069430663986e-02,3.078841483452198283e-02,6.588276695380436074e-03
3.530176877238012240e-02,8.596519190944366604e-03,2.986086033293543912e-03,1.940152062575595531e-04,1.588688187124236454e-04,2.839921542808359917e-03,2.111689629633942480e-02,2.177537501010549242e-03,3.030406793340552699e-02,3.902927230116159680e-03
3.899921061864139449e-02,2.316755892327065740e-03,2.839901877087778852e-03,1.457522827992180944e-04,1.482293295073492962e-04,2.650981336759240456e-03,6.110106332701152783e-03,2.993756481338082781e-02,2.536092632391264909e-02,9.294695590518525091e-03
2.709135415312463949e-02,2.251836345881993301e-03,2.363371788467523004e-03,1.053382579702311550e-04,1.475135630605319513e-04,2.598308497392337515e-03,3.596588616063250282e-04,5.229190920843111712e-02,1.617473985361475575e-02,7.141475686317266466e-03
7.643325672421980368e-03,3.265203427589442528e-03,1.834333722266090093e-03,1.228578599942402425e-04,1.465697301536414453e-04,2.443369903403830833e-03,4.167299448191881354e-03,5.443395145754012510e-02,6.006307964289689556e-03,6.899639885643944412e-04
5.686519015716623437e-02,6.805555030861096689e-04,1.967375995770217090e-03,1.399541388464434525e-04,1.426583594495967305e-04,2.231643214148891930e-03,1.164895956905071667e-02,2.531488542057155552e-02,1.508298736155977253e-03,8.523311196610629248e-03
9.082078955069633475e-02,2.982866566032880973e-03,2.229798133014265250e-03,1.322097746277682280e-04,1.404372937189151945e-04,2.072247844910928265e-03,1.158936713232571088e-02,1.149747977686289141e-02,6.763060449632915527e-03,1.298340626588804364e-02
8.807034269053275188e-02,5.688596341092358108e-03,7.553145930367295181e-04,1.263520389166188009e-04,1.410050533533646774e-04,1.944439700902331029e-03,1.904939972387942326e-03,1.584154279989346409e-02,1.262274240566065714e-02,1.542102269981046603e-02
5.735587775787543557e-02,8.761014265884018923e-03,2.505304396703079105e-03,1.338042359318791579e-04,1.417878012044359562e-04,1.795991157439783470e-03,1.160819393640430061e-02,1.953480081862898551e-02,1.927937050498822538e-02,1.674548616131412218e-02
1.987229096736264911e-02,1.344330004042906812e-02,4.454934633241243100e-03,1.418140961453603444e-04,1.421169331204124469e-04,1.635157898339115916e-03,2.274446029217609688e-02,6.774681033294090160e-02,2.373115368613761683e-02,1.440061755918681068e-02
1.269012711382543415e-02,1.615893781286872888e-02,2.973380861915595180e-03,1.444705743788904286e-04,1.433493383477173829e-04,1.485875542288491672e-03,2.909369072599091860e-02,1.089039967276760057e-01,2.419840105397150568e-02,6.573900076160006829e-03
3.354101785144428943e-02,1.143098600541336135e-02,1.819809905865627441e-04,1.472684523591836537e-04,1.453179459183422215e-04,1.344162857544904319e-03,3.176590661869209409e-02,1.442622063695484236e-01,2.236750756524688924e-02,4.530062030061040093e-03
3.794375581667423780e-02,9.249746499641192665e-04,8.323323481299079027e-04,1.526485140873188229e-04,1.462293377556273932e-04,1.198569972294837114e-03,3.371500895617116078e-02,1.776298147149448226e-01,2.071273211929262545e-02,1.581349416402137373e-02
3.746272890001686728e-02,1.454278246817933447e-02,1.296749048244990232e-04,1.576485854982116871e-04,1.463511650015623760e-04,1.050843552483435176e-03,3.765882282995616781e-02,2.079598746281619281e-01,1.974462342266487813e-02,2.667689463809900380e-02
5.251299130969604156e-02,2.258066199320631073e-02,4.313297382759549541e-04,1.606600259187918761e-04,1.481849604725927788e-04,9.066006796047660450e-04,4.408118317434683159e-02,2.344662012838828191e-01,1.873284502807496740e-02,3.757743862761788595e-02
7.712085625242733056e-02,2.363179696717528089e-02,3.285028806276234963e-04,1.627167489415207039e-04,1.504364696281665359e-04,7.655289508948943120e-04,5.075889867675806993e-02,2.512124341856220022e-01,1.745592424692828798e-02,4.778088061387159025e-02
7.811112043307898156e-02,2.133540289982260862e-02,2.512084022534279387e-04,1.643494942709742147e-04,1.475984382743247424e-04,6.256188169604520732e-04,5.445378385788807868e-02,2.464372110258909176e-01,1.623557884443214971e-02,5.589292062029817265e-02
4.470574111708869314e-02,1.936612648599806905e-02,4.461238363570843211e-04,1.647444346195283619e-04,1.419751865846210939e-04,4.877843685828909918e-04,5.364187723826020077e-02,2.231931802756658978e-01,1.517731498042421655e-02,6.092618943876428050e-02
8.088642568475969477e-03,1.844030956651059733e-02,6.015501374013120742e-04,1.632213148171422052e-04,1.448432155109857886e-04,3.539139966112409322e-04,5.001143356065789608e-02,2.051277085981092208e-01,1.413247669777954046e-02,6.249555988871030587e-02
6.457643895389685029e-03,1.767796675142193838e-02,5.999032477437583888e-04,1.600937186788716903e-04,1.512101284065840690e-04,2.246551867066387119e-04,4.653239561484761450e-02,2.014526052443017523e-01,1.304995553937039580e-02,6.109584574775172444e-02
1.248018978121140030e-02,1.646799534347958074e-02,5.869047378431156703e-04,1.559842982045061080e-04,1.367154654050063982e-04,1.002695213871233611e-04,4.346828859924775634e-02,1.837372105692828828e-01,1.199867584070666779e-02,5.813719645579260714e-02
2.536415257495778022e-02,1.467475044033177481e-02,6.213229936960576200e-04,1.504700895464328918e-04,1.112749726710035337e-04,1.835251403470007604e-05,3.819587199913369174e-02,1.234630005930179852e-01,1.100339951064759937e-02,5.526106886954112313e-02
2.799664286554959941e-02,1.286601179058731101e-02,6.380521649861229175e-04,1.423779168226423910e-04,1.270914170300167681e-04,1.301137518989765179e-04,3.029344003420826603e-02,3.886829735144069903e-02,1.003221746846470752e-02,5.339374773822059411e-02
3.526328857957767345e-03,1.246261880052395091e-02,6.115403330776917733e-04,1.324414655118602482e-04,1.643804397706534004e-04,2.342254494499838369e-04,2.378235216894621085e-02,2.188870765951811403e-02,9.073300819235510448e-03,5.224555622909812791e-02
2.467352209090949156e-02,1.369848758468047295e-02,5.750149746213314419e-04,1.232661791608212379e-04,1.111545979520989002e-04,3.300502782297402718e-04,2.179720340967834444e-02,3.561845163878041287e-02,8.141719289665404896e-03,5.110014172146119110e-02
2.029334228108901211e-02,1.327250103814910619e-02,5.441233104857759592e-04,1.137690683049568524e-04,6.688950535079982423e-06,4.168923799075922344e-04,2.212888759382206083e-02,2.001616413687978477e-02,7.243604620122428943e-03,4.961166021399809195e-02
1.190471010764381637e-02,7.170306752049611376e-03,5.069148054648816605e-04,9.885351182781667147e-05,9.394587108482227087e-05,4.940994419339294610e-04,2.127778274361056404e-02,1.016249473189019537e-03,6.372532200511532054e-03,4.664109693073845153e-02
3.174880018065578957e-02,2.623579798867885053e-03,4.593941396563472638e-04,8.120381398585445657e-05,3.048993994444396246e-04,5.611905530019897261e-04,2.014263977449408383e-02,1.338611911648458427e-02,5.526263124962365984e-03,4.007064249645094639e-02
2.121687540281294929e-02,8.064048487527675224e-03,4.105748712739936833e-04,7.238767048901596215e-05,7.655777980528404513e-05,6.178347578277594695e-04,2.165582127722537331e-02,2.472428318937027955e-02,4.708642566915843992e-03,3.032954244542889963e-02
6.042865477916635648e-03,4.691160760917915257e-03,3.658119624635063115e-04,6.770890931017973439e-05,7.140036907374306329e-04,6.638115979292400198e-04,2.449372514738364787e-02,2.818028958226588554e-02,3.921776760965227544e-03,2.176870010968835756e-02
1.245251864181707267e-02,2.469772396491878678e-03,3.241333661499276467e-04,4.312502295185903918e-05,1.196863724226154358e-03,6.990367225363592956e-04,2.374935310326420357e-02,1.595840393955665765e-02,3.165035571753519600e-03,1.745594890760961831e-02
3.057216567826001943e-02,6.149129039588294154e-03,2.859421241496163898e-04,8.838531202860682519e-06,7.335175819415435013e-04,7.235917253970061257e-04,1.789919895643475242e-02,8.751922368792398182e-03,2.438684679307699058e-03,1.539762030241123569e-02
3.531383911747825594e-02,5.956324791890863467e-03,2.543395273655143954e-04,1.728839252763179852e-05,3.804643683649665763e-05,7.377183001801237592e-04,1.114400929264334865e-02,2.815639154190695964e-02,1.744372969566466720e-03,1.289147244530586614e-02
1.887976533988409630e-02,6.108202285814647199e-03,2.314728753974760610e-04,4.888635316144642265e-05,2.481416052061526708e-04,7.418045874945153719e-04,7.975054850430911974e-03,2.388778499329129168e-02,1.083409011739946059e-03,1.121223264755550307e-02
1.396068213504441519e-02,7.762792789572496924e-03,2.177261684213415251e-04,8.197080572099823767e-06,1.976841397384471047e-05,7.363827440765608346e-04,8.583858580877134353e-03,5.802584546275905975e-03,4.564791039060685143e-04,1.255018760498217284e-02
5.886422927180279263e-02,8.612669564750416451e-03,2.133894376626102271e-04,1.145686050312999949e-04,8.360055967273141708e-05,7.221250510002230356e-04,1.050059927636449141e-02,4.804612180994639187e-02,1.355849479901922137e-04,1.532699655774467234e-02
9.896738638654042908e-02,7.918888442412789358e-03,2.192392562049549898e-04,2.719458375223234790e-05,6.878537034050722621e-06,6.998297589585457607e-04,1.184278101006849479e-02,9.006777859305349632e-02,6.917024660858814636e-04,1.609200582347759118e-02
9.981384141064715554e-02,7.291339490368173998e-03,2.357413849014016632e-04,1.858996264795635960e-04,4.817598436781386290e-05,6.704028870105020049e-04,1.163870064793762378e-02,1.196982596243165581e-01,1.210941464022871009e-03,1.341036589735273427e-02
4.671838014578563042e-02,7.157658910244948762e-03,2.623246334382038853e-04,3.834336415234705219e-05,5.770698418478724867e-08,6.348406683525148388e-04,9.134752345629637213e-03,1.195838961587429861e-01,1.692611507920966469e-03,6.864710536626794646e-03
2.243908913220218904e-02,6.026384678220500675e-03,2.977630034444191630e-04,8.229230205819488327e-04,2.475432311847764326e-05,5.942103840706356105e-04,4.509511680028938443e-03,8.237828790204394791e-02,2.136117586912867142e-03,3.856322731449637973e-03
5.299208116911249822e-02,3.485648525017493501e-03,3.414888300375461087e-04,1.298005136057682344e-03,3.937400439664118926e-06,5.496280371640996278e-04,8.849160481889501405e-04,2.723346586833491970e-02,2.540952047171714419e-03,1.543869480192047033e-02
4.031060278858574625e-02,1.389033734982732899e-03,3.934733291787937933e-04,8.253038712164311331e-04,9.120374911264276082e-06,5.022346495488995335e-04,6.253552334215376624e-03,1.699761680459655616e-02,2.906797482097615761e-03,2.160762493539678669e-02
2.821463748681035666e-02,1.333500435264515886e-03,4.516347824304641888e-04,4.314568030729474537e-05,8.148079762056752086e-07,4.531727199987118054e-04,1.175543369332616127e-02,3.660623154355755610e-02,3.233562808026994428e-03,2.126189891777844482e-02
3.935586626077734740e-02,2.620832979719513872e-03,5.118435014800545293e-04,1.785960705443542893e-04,7.044676944785299366e-06,4.035628465473947886e-04,1.606592491199048192e-02,3.047805549771287481e-02,3.521362241384057810e-03,2.066118633203437721e-02
4.844819099348363078e-02,3.476027757755638641e-03,5.735090513185013561e-04,3.711583289809750974e-05,6.608742758201977788e-06,3.544806205457350307e-04,1.648478237574498365e-02,5.392407351064216862e-03,3.770519830462579734e-03,2.395386032850889760e-02
3.495563645466417957e-02,3.242476946093692750e-03,6.399829082734363739e-04,1.272574259850306477e-04,2.376347627369862367e-05,3.069346068548269415e-04,1.322259290976454324e-02,1.458368820207157739e-02,3.981595411493467872e-03,2.733536115190158058e-02
1.678032953715598297e-02,2.638752312219009612e-03,7.068187041232742345e-04,2.383225866068125086e-05,1.752209205061323839e-05,2.618461524215558861e-04,1.013348743336130002e-02,3.583190657333955483e-03,4.155392774533763454e-03,2.632322704968666563e-02
1.125292329299547311e-02,2.261256233316110038e-03,7.607025235889810187e-04,3.010318885019848612e-05,2.928788608158743281e-06,2.200313821111179557e-04,9.421886957665116455e-03,3.142935714443040318e-02,4.292951171588021281e-03,2.295251399342889548e-02
2.946885279951626767e-03,1.645958208918949731e-03,8.046434351249938301e-04,4.861017169266421980e-06,3.319605970529188369e-05,1.821857009050056029e-04,9.127315303998505616e-03,5.957011220083753555e-02,4.395538367151779514e-03,2.165706036655304020e-02
2.415551769897869919e-02,3.045804891345238536e-05,8.611081621781811182e-04,1.690686458696196424e-05,8.584372553514702821e-05,1.488712158708060582e-04,7.372441096735902685e-03,6.822292163004749221e-02,4.464644898345387913e-03,2.301187623959456002e-02
5.132894456473146433e-02,2.929449963440770507e-03,9.184739559119792923e-04,1.354877096840453819e-05,4.801415911476037372e-05,1.205074126952853248e-04,5.780072063619768122e-03,6.972427420931306963e-02,4.501971144622035279e-03,2.496941458212338996e-02
4.802515591004432455e-02,7.595477734709118849e-03,9.230724229294341374e-04,3.407133819450609759e-05,4.016930033040582305e-05,9.736526689428057517e-05,6.960475874097961368e-03,7.787723618389209845e-02,4.509407534660147751e-03,2.600354451790355334e-02
1.526095102951302573e-02,1.371470303432330631e-02,8.934858791030480217e-04,3.446994753882035348e-05,6.423968180925001496e-05,7.956488674036653157e-05,1.094773467668579831e-02,1.003477989225070310e-01,4.489012243874876580e-03,2.470961160064432879e-02
1.417088932628702766e-02,1.862210378440048997e-02,9.407908177734629297e-04,3.879852718639951217e-05,2.923430427304001401e-04,6.707673287206005548e-05,1.553273565502000936e-02,1.363380633789103291e-01,4.442986830599842708e-03,2.014882441940111721e-02
1.270799740227467230e-02,1.855980247038777065e-02,1.025115914846170010e-03,5.176789795191601043e-05,8.064435039211760581e-05,5.972637187846393972e-05,1.858289964473087280e-02,1.671416355652828867e-01,4.373648445656181175e-03,1.408795667493175502e-02
1.526513863296128856e-02,1.306711452223774036e-02,9.032385359684889925e-04,6.184220677913305011e-05,6.938501346981482305e-04,5.720261918877718140e-05,1.934917004668596646e-02,1.703358679194042213e-01,4.283399160666163767e-03,9.458533879528590455e-03
3.931193273894521834e-02,6.015046351101833826e-03,6.432913762143375059e-04,6.637658529279872699e-05,1.161417039389893782e-03,5.906884483958939759e-05,1.859723627416211972e-02,1.483536032887952660e-01,4.174693919326430240e-03,5.871642128728414914e-03
3.504986508350121932e-02,1.468732877664215763e-03,8.087359708369556283e-04,7.048143329390428764e-05,6.840026312532733552e-04,6.477714754764735171e-05,1.736052429108978987e-02,1.185044073471767379e-01,4.050007799730915604e-03,6.053854074468175556e-04
1.212148768854217316e-02,3.056486240794035504e-04,1.523265615468365501e-03,7.524387274984999400e-05,9.998116936571675392e-05,7.368503451998568933e-05,1.539720752565340404e-02,8.089481577339899254e-02,3.911802862602909055e-03,5.031463148483195265e-03
2.095725103642247233e-03,9.961381705192798308e-04,1.918015054414042627e-03,7.812042011186848809e-05,3.207304546612941014e-04,8.507418203884622879e-05,1.245973802081790441e-02,3.150708054664245333e-02,3.762495261043691253e-03,5.166092927348923079e-03
3.198438592970555966e-03,1.447334376333774030e-03,1.355921228313452295e-03,7.846059126029875509e-05,1.013075084339889185e-04,9.817080365574857442e-05,1.036415166830399227e-02,2.299490111938289755e-03,3.604423486891557282e-03,2.494675508699054252e-03
7.679194708829051308e-03,1.905293039241870781e-04,4.767597331953441668e-04,7.739273810691749860e-05,4.858563916686384177e-06,1.121671182293974486e-04,1.069939413471739618e-02,1.395589742090769941e-02,3.439818422152324251e-03,1.256562456421504541e-02
1.639525901680056325e-02,1.445084708570382615e-03,1.520463104604661468e-04,7.523708511710158395e-05,9.957926045762373357e-05,1.262433864725430726e-04,1.164550159083058839e-02,6.508735751949976112e-02,3.270775724639003387e-03,1.900551934394554762e-02
1.385457241269316860e-02,1.043418231977822968e-03,2.606157944165881334e-04,7.152703252381229198e-05,1.426867746134256713e-04,1.395899733964761017e-04,1.055139136739632541e-02,9.858203372862645031e-02,3.099231107698984314e-03,2.197984697919216565e-02
1.834373873205228647e-03,9.638727250363037305e-03,2.413552446262679006e-04,6.621884495760759349e-05,9.508550125450838844e-05,1.514288968384820602e-04,7.966576784894055518e-03,9.053231894612326358e-02,2.926939055804878877e-03,2.458921559877193935e-02
1.732987733751868015e-02,1.852518344924026367e-02,2.824798376451078752e-05,5.969324046429939131e-05,6.893915852745854695e-05,1.610343386465757645e-04,6.097330113894390211e-03,5.960440086708503754e-02,2.755455402005717314e-03,2.692162827941821726e-02
2.503641228663221543e-02,1.926307946074365743e-02,1.336474011282437154e-04,5.218454119168797445e-05,8.421180538036860785e-05,1.677516238566435910e-04,5.522229081231771336e-03,2.454151505313473952e-02,2.586124084028986869e-03,2.688615214272580684e-02
2.703252990995927071e-02,1.093895872050966271e-02,2.029435933749402729e-04,4.376741540463779462e-05,8.887593203513507046e-05,1.710142137005685658e-04,5.634418124640667123e-03,1.084330416678597545e-02,2.420068320011549857e-03,2.384309770422747901e-02
2.759126598192403190e-02,8.763506397581985897e-04,2.895524867286878396e-04,3.461751484473949049e-05,7.315802825512197655e-05,1.703583098194966477e-04,5.837964379119519806e-03,3.494783310809999877e-02,2.258186356884964423e-03,1.872110060125718387e-02
2.931317948690281144e-02,4.374325322818724097e-03,4.112672129612167404e-04,2.501357446231935726e-05,6.153027609614394216e-05,1.654347282344337223e-04,5.211926790705838884e-03,2.877428678524868860e-02,2.101151834392267839e-03,1.321571938752393732e-02
2.674919797573658414e-02,4.808282727544421938e-03,5.140214489883188857e-04,1.520749307451954010e-05,5.911489378769697433e-05,1.560177707289984929e-04,3.620000489291766346e-03,4.839319224355110791e-03,1.949418700060278264e-03,1.023243660832509790e-02
7.855678647249553920e-03,4.096599604374763157e-03,5.861891249796587645e-04,5.413448757710595702e-06,5.476811735725945737e-05,1.420108966164660542e-04,3.027096324621146757e-03,3.663287082887142776e-02,1.803230513505362214e-03,1.158763012391634054e-02
2.603961541102278732e-02,4.799691503096916584e-03,6.506193072942855708e-04,4.139918648073933107e-06,4.620763667737206465e-05,1.234490775920148750e-04,4.700061882415196637e-03,4.193437022966782501e-02,1.662633884177356497e-03,1.429719776199314847e-02
5.134824304975219023e-02,6.624135740982047167e-03,7.110764111791661752e-04,1.321228637651003012e-05,3.887393744379530482e-05,1.004978005210246283e-04,6.125928373505616295e-03,2.104152007037134176e-02,1.527495694295211625e-03,1.339209034549282244e-02
4.761125183029911445e-02,6.646043862726759739e-03,7.553584765213063826e-04,2.158441543914711540e-05,3.414358998024328396e-05,7.344876552304860286e-05,4.352521209587172958e-03,1.160215125798717134e-02,1.397523675124752885e-03,9.043545978192363971e-03
2.330298492687847556e-02,1.671611486630709617e-03,7.804501275496071849e-04,2.906513137942023527e-05,2.970263266344258448e-05,4.271240756098439867e-05,1.055329169694069376e-03,4.143753481749299500e-02,1.272289833166636826e-03,5.814224271222289200e-03
2.896602072291639546e-03,7.739979451950174463e-03,7.913953237478772154e-04,3.548334070070497222e-05,2.506627649916678377e-05,8.807446982274958025e-06,1.779718794578154586e-04,5.462044595017651744e-02,1.151256162644432668e-03,4.382431310993455814e-03
2.750474272673554890e-03,1.704230325069576793e-02,7.895196574093600508e-04,4.069115663748406437e-05,2.148790321525721091e-05,2.765225378965074186e-05,1.959795881448940166e-03,4.099307605268642796e-02,1.033802032553155599e-03,4.027316210960859427e-04
2.160769104698496285e-03,2.259976566843923534e-02,7.728160625893889212e-04,4.457323159043470411e-05,1.936670489398097117e-05,6.597318568400857433e-05,3.484859453605603473e-03,5.421167651045683683e-03,9.192526025253407781e-04,6.748637057837275806e-03
1.443926905022444376e-02,2.416436341343581803e-02,7.414550855042561497e-04,4.704989739143248178e-05,1.820997099877600433e-05,1.053996430282841688e-04,3.427542645747059559e-03,2.960700052622993947e-02,8.069076029574213417e-04,1.087573027654947268e-02
2.805138412642403656e-02,2.169423955671018894e-02,6.976517422813239503e-04,4.807615462322708952e-05,1.784836018393007792e-05,1.451326850045001635e-04,2.314854084355199779e-03,3.980683398929991956e-02,6.960698111213259277e-04,7.958476482388864015e-03
2.698112587295865838e-02,1.404067803119688450e-02,6.430517193052106163e-04,4.764226812948569830e-05,1.856389347472976048e-05,1.843501307386040064e-04,2.358927590173807640e-04,1.874082985751246433e-02,5.860725662441520264e-04,2.417449960443133344e-03
6.307473999722187918e-03,3.050845557680433896e-03,5.787177218699694758e-04,4.577504078478981947e-05,2.051534369141130490e-05,2.222270875909632354e-04,2.340764177389369205e-03,1.854876711641146800e-02,4.763056926954800240e-04,4.091722565888688233e-04
1.326538711146528493e-02,5.344014740315694394e-03,5.063026400887968856e-04,4.253704782943364707e-05,2.346450660231945889e-05,2.579565019643725692e-04,3.837137282107898686e-03,5.066109012408521323e-02,3.662392409213345600e-04,1.901891450597974036e-03
1.544046125271691765e-02,7.446428414168569827e-03,4.280160429516419477e-04,3.802425439124246037e-05,2.705208846240257572e-05,2.907692242762633804e-04,3.859021757566864948e-03,6.627558573547015497e-02,2.554445095458693815e-04,3.671727996426255372e-03
1.507288083560712547e-02,6.000994059653770585e-03,3.460083992455585677e-04,3.236334642460112453e-05,3.137445090355613932e-05,3.199530945245881259e-04,3.550863121903673810e-03,6.338846242360143823e-02,1.436118778326467196e-04,5.671791627288138779e-03
2.827310934157316671e-02,5.378688531658623768e-03,2.622993268939923612e-04,2.570867563022435269e-05,3.685760625961472491e-05,3.448705816788022894e-04,2.780790722264449635e-03,3.977702790507366831e-02,3.056505398000132576e-05,9.307889875812467434e-03
3.430995422895199293e-02,5.634197238847346925e-03,1.789933376717279666e-04,1.823830393290617343e-05,4.304370823234460463e-05,3.649745482228058079e-04,1.547352799945479751e-04,2.053432747352477213e-03,8.372857022120015497e-05,1.234128390111554306e-02
5.422921976815679376e-04,4.292569744638947277e-03,9.826268803974442991e-05,1.014932204503660601e-05,4.863038529912648024e-05,3.798217595673351573e-04,3.983566454177963484e-03,4.409226584580249603e-02,1.991516759898708010e-04,1.096182191833429583e-02
6.608366840819214494e-02,1.655680704552316748e-03,2.216961558011094403e-05,1.652840494390128567e-06,5.406457239970772675e-05,3.890838154905562965e-04,7.595779186160888340e-03,6.504167096273288928e-02,3.154350065073985472e-04,5.999987974771605476e-03
1.251632656250663278e-01,6.304636498555539698e-04,4.744466517872965837e-05,7.031251215777292152e-06,6.163451556327021689e-05,3.925552457984685453e-04,9.543164681797560930e-03,6.386509523415211109e-02,4.321596102912367027e-04,2.560346736155888654e-03
1.523205135432602053e-01,2.010553310851340321e-03,1.089415865759750746e-04,1.567975736828308575e-05,6.995049815707001710e-05,3.901585833844835576e-04,9.768971034999350198e-03,5.548187453538264147e-02,5.487632618058379316e-04,3.393253555017728979e-03
1.530093818010012374e-01,3.444360499853498913e-03,1.607986271745175891e-04,2.407173204652500865e-05,7.357189835583808778e-05,3.819463030369975461e-04,8.130424216036429008e-03,4.372694290911293552e-02,6.645508849026875555e-04,5.920322546213698835e-03
