8.645616337735376189e-03,3.523844613041975798e-02,3.148071599963268852e-02,8.401309666240099148e-04,1.186098217856167988e-04,1.862324529573899273e-04,3.595981036799810598e-02,3.861685822897766712e-02,1.350430500843756432e-02,1.738476062354059673e-02
9.634736431996545822e-03,5.331253206765212277e-02,3.401682762772492014e-02,1.239682560948133843e-03,2.664430975580403917e-05,1.060598660748829076e-06,5.253266504872804166e-02,4.947403607704459194e-02,9.757747338858573788e-03,1.864675077663525971e-02
1.050017402907599262e-02,7.094499293930645045e-02,3.645478877045917748e-02,6.773522332012157053e-04,6.782600560781260578e-05,1.895407473532841622e-04,6.081466729038650237e-02,5.025890069643405844e-02,4.718210651579783643e-03,2.140336383405322743e-02
1.157399658188718386e-02,7.373023627796540524e-02,3.858460534520637836e-02,2.082304230991483852e-04,2.091316849462906448e-04,3.809381071492317521e-04,5.668248117252861623e-02,4.381496465836916959e-02,1.935209955154777988e-03,2.156448494718131437e-02
1.273647967596125939e-02,6.388565630571342580e-02,4.083096928954765836e-02,5.560585884005021578e-04,3.737033744958724330e-04,5.684215034251982818e-04,4.857565168858499205e-02,3.913610071200049334e-02,7.172268604964683256e-03,1.570882507770070963e-02
1.345477099741077161e-02,4.829012043016064210e-02,4.363073253082104530e-02,4.810522403581764380e-04,4.558473893704690283e-04,7.475080940169571151e-04,4.775984096750942459e-02,3.965731516542197327e-02,7.858440032077453063e-03,6.784281087059058392e-03
1.348036416577099751e-02,2.972866842627021680e-02,4.607212197852561530e-02,5.168900663782136822e-04,4.860415266222390795e-04,9.140261580170513413e-04,5.644538322464828090e-02,3.963169433121217777e-02,4.950012615196387918e-03,5.204708373374760310e-04
1.343427047405508154e-02,1.513146230107793172e-02,4.718941009575674389e-02,7.367561793632743192e-04,6.792349677300551841e-04,1.063827222630120330e-03,6.706119849829696167e-02,3.187588034353435601e-02,1.673491571123500964e-03,1.833895380434946449e-03
1.426327246028611523e-02,1.667028939538544099e-02,4.893141521413790773e-02,9.484441480952197912e-04,9.739766397274865744e-04,1.192947797834193000e-03,7.163003245113211404e-02,1.758051863052548236e-02,6.577835962866161127e-04,3.196003247440782052e-03
1.592241016633035716e-02,3.721049855809941548e-02,5.349782754473603880e-02,1.090403743896660622e-03,8.547876036076088556e-04,1.298558579410106053e-03,6.980131862329456982e-02,6.339608675544261204e-03,2.414655899526807134e-03,5.162537682258943814e-03
1.678451821855026643e-02,6.645278450937698589e-02,5.624232456542858916e-02,1.152645597751748375e-03,1.728220307809511045e-04,1.378947357365404788e-03,6.577216610146406628e-02,4.890763607615635986e-03,2.887307407179945992e-03,6.615094626184828130e-03
1.504592633003261348e-02,9.290681076700800511e-02,4.883717151003710844e-02,1.186298079248281675e-03,3.157332554643664654e-04,1.431760705055131269e-03,5.858891144293484204e-02,8.027993551694780766e-03,1.155805976000730956e-03,6.378385402631438043e-03
1.134723726031719795e-02,1.087011571346861993e-01,3.357691157494253897e-02,1.390633376391584193e-03,7.026044389340510088e-05,1.454222797499251339e-03,4.228305995680285007e-02,4.673811155120798956e-03,9.276911973651940854e-04,4.764639992929273725e-03
8.806074030281304046e-03,1.070599327809062667e-01,2.409205118630114092e-02,1.692930715744052610e-03,9.311554963862290210e-04,1.447077497182646354e-03,1.799734278446857641e-02,7.805003126367822050e-03,1.710395052443516731e-04,3.486262431436806374e-03
8.941110161672576745e-03,8.646162755064601413e-02,2.511815219053111642e-02,1.525573613075599088e-03,1.314976137336565333e-03,1.414353555157805715e-03,2.639952861648154833e-03,2.057370323772658716e-02,3.645353061221873539e-03,5.011368788176030070e-03
9.332564851585022775e-03,5.196016223980579746e-02,2.503457723855891451e-02,7.491037011126261674e-04,7.863653138593352469e-04,1.355014221051793061e-03,1.176997625320340760e-02,2.631198145818811757e-02,8.388804748321654348e-03,1.103995497640817246e-02
7.611837087354694428e-03,8.822695052403571256e-03,1.777869057079543846e-02,2.754934592607989597e-04,1.861225571355299758e-04,1.263258142558516383e-03,1.536007963990634884e-02,2.938104418120981998e-02,1.433414436384796223e-02,2.094878044072535916e-02
5.490429909518560955e-03,3.281954851660607436e-02,1.367604059750665742e-02,7.821332790260216491e-04,6.732758364936994831e-04,1.146319955005402043e-03,2.326781931422205324e-02,3.796948507940089979e-02,2.323912030551474051e-02,3.128836218648562567e-02
5.622881290005690182e-03,5.085002117281477163e-02,1.410843571729326201e-02,1.519452531079654774e-03,3.379671331134857272e-04,1.024194305660921676e-03,3.647061690784499099e-02,5.130222789871117378e-02,3.118713620968063122e-02,3.685636174094408801e-02
6.494670591365131473e-03,3.321650904115520248e-02,1.466527671756180217e-03,1.525670905204385211e-03,1.643504176116927415e-04,8.914600022666833209e-04,4.878023505030373158e-02,6.125841253520412921e-02,2.896093906154482631e-02,3.422287700055628989e-02
4.426182093091898632e-03,5.304165215444975670e-03,4.228233006286463702e-02,1.171456419867141245e-03,2.107044885562190609e-04,7.166688168110633972e-04,5.322889108241792011e-02,6.206958981309267098e-02,1.401206180788133575e-02,2.543121380640914891e-02
2.128513063855091525e-04,4.548276120197640437e-03,8.297512796403608282e-02,1.240306043885120411e-03,8.129005079270150902e-05,5.236139874416797764e-04,4.453724189710099590e-02,5.298944229703200781e-02,3.737634601006813856e-03,1.664848584404470325e-02
3.361539552269905348e-03,2.567141012339614614e-02,9.499886614672829743e-02,1.245750099989196072e-03,5.182142859776742898e-04,3.944686924861142731e-04,2.571595219504063667e-02,3.758776585569276185e-02,1.295325838802523916e-02,1.217433729158820012e-02
4.675620206407985445e-03,2.770933829966672896e-02,8.039887678902644941e-02,1.702266406777092826e-04,1.228133233460743535e-03,2.958462734257883038e-04,1.196550893744203863e-02,2.514142700704826219e-02,1.281069470633525685e-02,1.097910933792337410e-02
9.320746712843502521e-03,4.251371992475208236e-03,5.837498554499180592e-02,1.433467516681326964e-03,2.114573982077925726e-03,6.692610504894744869e-05,1.471668326437146866e-02,2.442498026106293407e-02,1.018043023905479405e-02,9.377231841431476339e-03
1.922564271946883632e-02,1.709585655749690019e-03,3.874005490904153942e-02,1.743942990512784919e-03,2.691720999227628034e-03,2.071357992774211325e-04,2.398007552897376410e-02,3.133014550780945096e-02,9.552395094196730260e-03,5.529851227635415416e-03
2.805627346426416147e-02,4.483683642887382331e-02,2.066354655848820152e-02,3.687167748205508709e-04,2.629213319775390665e-03,1.510386816731300926e-04,2.163250819011022091e-02,3.229636576889827887e-02,9.116511890815632083e-03,5.105189297839964925e-04
3.006887950546221350e-02,9.216465704087109523e-02,1.828254980811060484e-03,6.789575803955185361e-04,2.135256091940102973e-03,5.871913099371330427e-05,8.593262012644325640e-03,2.335964194291198850e-02,4.585530592804309968e-03,4.083087384792359435e-03
2.890253243404885403e-02,1.025296601745410707e-01,1.715964596325041808e-02,7.300851272797658290e-04,1.751421913732907230e-03,6.863981385992652673e-04,2.830549618744277081e-03,1.367336026874626381e-02,4.142674700772042660e-03,7.795732158160387226e-03
3.147664518555953750e-02,1.001315453144704104e-01,2.646361625064386214e-02,4.470131448382928460e-03,1.789127854794697863e-03,2.926822996151467668e-03,1.321565911398644814e-02,8.355037048345751935e-03,9.515675615706032514e-03,1.000504002505949244e-02
3.733720276228093965e-02,1.269810443952286705e-01,9.028815152728963955e-03,8.360504195136014491e-03,2.063672432623035822e-03,5.131068597162392365e-03,2.907867262234783978e-02,2.132439889893443519e-03,2.669748243434300495e-03,9.443360406595198084e-03
4.004918968573613347e-02,1.700192153310621512e-01,3.668887700268322338e-02,1.000727098007964631e-02,2.245148482616450905e-03,5.100770891185769408e-03,3.414190810279217614e-02,9.069810349262272947e-03,1.434170764705208420e-02,7.468538680553062081e-03
3.606248711451938427e-02,1.834594349831374926e-01,8.305999927820731377e-02,8.440155747311314793e-03,2.240896245279737093e-03,2.811977195941374463e-03,2.198531844208912248e-02,2.358408116244558456e-02,2.784359900032239848e-02,8.715599730211881502e-03
2.728252842803174233e-02,1.519511589649349959e-01,9.890102150094366718e-02,4.805680830304688393e-03,2.181666016042502036e-03,4.605331476111031944e-04,3.995895258799122066e-04,3.851284694058255270e-02,2.804240454331313401e-02,1.437322535251208191e-02
1.766394650441577979e-02,9.320928207334877591e-02,8.230143599498619678e-02,1.563128859534428225e-03,2.230224837622685023e-03,3.676822460521002789e-04,1.374248563841412411e-02,4.655384718344697526e-02,1.963721197861370560e-02,1.847688954838698147e-02
1.129451377127646192e-02,3.138929996316457138e-02,5.500375090264338074e-02,3.113317475815206457e-04,2.326866899909515746e-03,2.193901739623373723e-04,8.477101001629020610e-03,3.646214897439321173e-02,1.339914865935086519e-02,1.623910096049276108e-02
1.098536286538215508e-02,5.606927307763645563e-04,3.371023675591841573e-02,4.808606981511684419e-04,2.139595147005888143e-03,3.123316898995754038e-04,8.810438362226745423e-03,1.031238715853549821e-02,1.346496699415217213e-02,1.158806861229014565e-02
1.523305167954410073e-02,3.009428630921468645e-02,1.929785255639332800e-02,6.188277451350840223e-04,1.673356035354448728e-03,8.203899156548220741e-04,1.657771598990321130e-02,1.191911527378611453e-02,1.606329908489443486e-02,9.950242677182662143e-03
1.879191144193964255e-02,1.115327337288685577e-01,5.968251999703622773e-03,3.098776111911609021e-04,1.666239258629849656e-03,1.150931320233797165e-03,4.051690578474773444e-03,1.861693172111099012e-02,1.530726360760392701e-02,8.926697175447629445e-03
1.825587621206568520e-02,1.824817143793336371e-01,8.629686657597248484e-03,3.709892727179195989e-05,2.430583202531786963e-03,1.228195532527311595e-03,1.631921956786794650e-02,2.081459608025308661e-02,9.190430610743321668e-03,3.909972971122337333e-03
1.510309793756403271e-02,1.976106218739978326e-01,1.675919638906098186e-02,1.183084881512022873e-04,2.734593106506427382e-03,1.695290926587988967e-03,2.557171762089219605e-02,2.821022350424538111e-02,4.051724608851450631e-03,2.684271244445350906e-03
1.277247543138388709e-02,1.724953329633288623e-01,2.487983718406211291e-03,3.019123318530313746e-04,1.485497343939683927e-03,2.573646696885597586e-03,1.793722098101922097e-02,3.240873893377822085e-02,1.011458807795011239e-02,6.154949880704049456e-03
1.292639665053046082e-02,1.457831042707369296e-01,3.931927845186396209e-02,3.727575128933941330e-04,1.394992767270298683e-04,2.407164448849222378e-03,2.780000126929599996e-05,2.672596253818226505e-02,2.845682200703386275e-02,8.010456211204934618e-03
1.463620939719963501e-02,1.227977341792577115e-01,8.692061098430599320e-02,3.082806655960120424e-03,1.179883648893912404e-03,2.407553269336286557e-05,2.036650017657078149e-02,2.152084404677015103e-02,4.812211750539817368e-02,1.192549209051123847e-02
1.532309756802842197e-02,8.066087396438674506e-02,1.086340525588643524e-01,6.643139688040098148e-03,4.253280744358468000e-03,3.237007712898460829e-03,3.747949027615190415e-02,2.640935877795366760e-02,5.878617238963010361e-02,1.648584178065029202e-02
1.251897898384432030e-02,1.981225441293973238e-02,9.557514536435256225e-02,7.648398209705658049e-03,6.207019467641920231e-03,3.899431410798319484e-03,4.596163461208914447e-02,3.238504664017983342e-02,5.889217204495147961e-02,1.842466389327012885e-02
6.420988796984508640e-03,1.546797168929189142e-02,6.618491939023145310e-02,4.758698282701574397e-03,5.181111943691444829e-03,7.964025371066175193e-04,4.645706086898239440e-02,2.495555501430310116e-02,5.117635316914488641e-02,1.808025367771655748e-02
6.597353080444005868e-04,1.410198317796446110e-02,4.211215416496814218e-02,1.138091835546341680e-03,2.587183154744975358e-03,3.134756166014764263e-03,5.694609139074713333e-02,8.214856748900246919e-03,3.874941806196877808e-02,1.703689377626434881e-02
1.193982787489453971e-03,8.563196129355120367e-02,3.119890332931493995e-02,7.618035356191745801e-04,8.081188863663087227e-04,3.618804172950452775e-03,9.867417832419886348e-02,2.758629232083472955e-03,2.584149205125078896e-02,1.511674634595222208e-02
4.579459467416589942e-04,1.355821311272518426e-01,3.035943438610790718e-02,3.416234506458575796e-03,6.343724066858206709e-04,5.501998006896863420e-04,1.598593683892136907e-01,1.899918805334464139e-02,1.658349266406291753e-02,1.281580089824717675e-02
2.591112225889899250e-03,1.332426928660812027e-01,3.320344494979927952e-02,5.564940544666105611e-03,1.335530954117706420e-03,6.653808030769158693e-03,1.987761844261547728e-01,4.410020007569279143e-02,1.260889510751864867e-02,1.253490960573267789e-02
3.575423370455074485e-03,1.001724090370244430e-01,3.315823257114509232e-02,5.606637196903186716e-03,1.959557749431934271e-03,1.110960290265520199e-02,1.939302780492927480e-01,5.880160754692428243e-02,1.253588049925339135e-02,1.496758828867679122e-02
3.471023707191126136e-03,6.351399431782388250e-02,2.516036138757241081e-02,5.189220124530991018e-03,1.725113845257052842e-03,1.231129855861345240e-02,1.632031549996198483e-01,5.686670368630922234e-02,1.145236495398600785e-02,1.709504668573059646e-02
2.245594470004042258e-03,2.724435722983390915e-02,8.258653805982348051e-03,5.351045785506364401e-03,4.795373330440957194e-05,1.090321576398051509e-02,1.308171724203660291e-01,4.539311946234873135e-02,3.111697064737834958e-03,1.558192445012540964e-02
9.002459913746728220e-04,1.027891043451770528e-02,1.266295078246605643e-02,5.602358783715181284e-03,2.455073137525744589e-03,8.779610757751788591e-03,1.056117246689751155e-01,3.625975726839960472e-02,1.142339242635216461e-02,1.064927968699308676e-02
2.195687060411775395e-03,4.172392698385968962e-02,2.980645388698090897e-02,7.101209950766327467e-03,3.657404304075700333e-03,7.884630970002557554e-03,8.885214051031919968e-02,3.894267711460804027e-02,2.040422854657978485e-02,5.423654560011663753e-03
6.532714864221825408e-03,6.203765992004021262e-02,4.008754791340131407e-02,1.155016260190125377e-02,2.243748862578245212e-03,8.665233783506703577e-03,7.744630457215977148e-02,5.242686331744710743e-02,1.529278702579232006e-02,2.269517283477619825e-03
9.456260025216442835e-03,7.719432125882545737e-02,4.823107314316432692e-02,1.645483834174357382e-02,1.518745179945240405e-04,9.391604468064553707e-03,6.423913048199754450e-02,6.353110847529611083e-02,4.724006238262629456e-03,8.663086522734100760e-04
7.009832758178533539e-03,9.401783622834623821e-02,5.899040684707921450e-02,1.687742141006806987e-02,7.577200539260638395e-04,8.140758274849120568e-03,4.924573698473917044e-02,6.017841518762320763e-02,4.428309528047768770e-03,4.796303856710148594e-05
1.213263987282251627e-03,1.100850944191732045e-01,6.957527373385843927e-02,1.250811521430817905e-02,4.815756087507746521e-04,5.607902685861214723e-03,4.065100360472932717e-02,4.453351827098122467e-02,1.596201866620691745e-02,3.438384420416283008e-04
2.941024341396482247e-03,1.195192143027654641e-01,7.468346909976367187e-02,8.067732122038066486e-03,4.565595811895036861e-04,4.324940407806092055e-03,3.915382259942459808e-02,2.735589152856176751e-02,2.559581292942708641e-02,4.961669356134076371e-04
3.813531396758450091e-03,1.230560796674034785e-01,7.542813164316637675e-02,6.315141925197608440e-03,2.929844199358223097e-03,4.763465127759761684e-03,3.417399584229822290e-02,1.315003382429672484e-02,2.302446004226901821e-02,7.208167976926606151e-04
4.070682521389250297e-03,1.262917361150845963e-01,7.707398225355900634e-02,5.211715625038805880e-03,7.368968894749207063e-03,4.371679221122876796e-03,1.684284642136279694e-02,2.172690901149688415e-03,1.262421543110188969e-02,2.343984026580568387e-03
6.762689103815468054e-03,1.306570477035953470e-01,8.065207461077274209e-02,2.318798668411149733e-03,8.433013417999995348e-03,1.188037623725734116e-03,1.218957055887718612e-02,2.082826245863771478e-02,5.927892974094823610e-03,7.499267630648362090e-03
1.224228387192201860e-02,1.320415633344754758e-01,8.342420627841960756e-02,1.959123204898802900e-03,4.711013519369059918e-03,3.691370493587551715e-03,4.296428728964757360e-02,3.817906776294347632e-02,8.898910904999321470e-03,9.702583662903606007e-03
1.887833526739661483e-02,1.281882867864392594e-01,8.569939096499773479e-02,6.010440387208913077e-03,1.013253791733079254e-03,7.960484904330638462e-03,5.911182055538066055e-02,5.015312241804006921e-02,1.795209007880250313e-02,6.674018283201299528e-03
2.574158778214515400e-02,1.220107720155015341e-01,8.946228443725956492e-02,9.328963076171351357e-03,5.658359841166690947e-03,1.062673293177171692e-02,5.089780634804119686e-02,5.819624256756440739e-02,2.567168331394041603e-02,1.674132896484023351e-03
3.314159072541526807e-02,1.161784014484940619e-01,9.015558531161448064e-02,1.254696086825225418e-02,8.811910362115121798e-03,1.193900503380583913e-02,3.025176415169716221e-02,6.175488076466297688e-02,2.834442108055562279e-02,2.091946311801423132e-03
4.023968816132318660e-02,1.099963888182738797e-01,7.899373984391223902e-02,1.581604057058875329e-02,1.105633670424755605e-02,1.210031495773495128e-02,2.320062379151243206e-02,5.385952881015885346e-02,2.731847194131758333e-02,4.942463927788766191e-03
4.425827298958434630e-02,1.041896459047663703e-01,5.807494961749386231e-02,1.780374897273988288e-02,1.178725243619384300e-02,1.116987800264910950e-02,4.375919687753194315e-02,3.322440803391963488e-02,2.547139050001469285e-02,6.704012108513893696e-03
4.398363362593249448e-02,1.017550187707144949e-01,4.390172186917554870e-02,1.724544557202763173e-02,1.054838432154097706e-02,9.689940963590710013e-03,7.972642057325871057e-02,1.328347726201314048e-02,2.524589981013748360e-02,4.870359952375983084e-03
4.265465455458903460e-02,9.924856404781107200e-02,4.437915435586575058e-02,1.505652070230354550e-02,8.890119410594265331e-03,8.454666915548697190e-03,1.044562999866917724e-01,8.273916326567791121e-03,2.659370955678429238e-02,1.083093872771859808e-03
4.393761664072191875e-02,8.559153965179459866e-02,3.930416729797515940e-02,1.353708440461349506e-02,8.972047174063579877e-03,8.087252202911485860e-03,1.046690817785534550e-01,1.757712441124927027e-02,2.322137527540621416e-02,8.212966671141354660e-03
4.437997096717140322e-02,5.728326433622742825e-02,2.706214627558488003e-03,1.371204534760191683e-02,1.073795798636001907e-02,8.837154008579307246e-03,9.700656698475706996e-02,3.253858542061335846e-02,7.105981451379510087e-03,1.341055747930567331e-02
3.452974662672095296e-02,2.688986737027223434e-02,5.762994800287304237e-02,1.413146607628965740e-02,1.154064129984969794e-02,9.389132174370845574e-03,1.041627986658813232e-01,4.653414425631759860e-02,1.885310790721257679e-02,1.418321055527513135e-02
1.140431928929349671e-02,8.518608101201091340e-03,1.049648674810776533e-01,1.237963627018615585e-02,9.032266182038197616e-03,7.003011459106585172e-03,1.151821754795770147e-01,4.980129329051238840e-02,4.020340254317913281e-02,8.644669159894919144e-03
1.426146082656116337e-02,3.049905945991509409e-03,1.171240362109780969e-01,8.389389349773889240e-03,4.350352779298934450e-03,1.478938441407214553e-03,9.813964369072705751e-02,3.257208071070756550e-02,4.586518225397501203e-02,1.232338887669273133e-04
2.837390710721608700e-02,4.036831809693219864e-03,1.033699558447324779e-01,5.741832257405930437e-03,1.397677365879256093e-03,2.952543648417840869e-03,5.657732202059492094e-02,4.547972777952180926e-03,3.597615349414822611e-02,3.855577397447118842e-03
2.797036328179754866e-02,8.055267451430900977e-03,8.135417385624962860e-02,7.609361009506847816e-03,2.113301508171637304e-03,2.838025253199521342e-03,3.370609178192867511e-02,9.006037665518277363e-03,1.667886621045878287e-02,6.067948980597063710e-04
2.080886613722736714e-02,1.277065416228349848e-02,5.991962882000877871e-02,1.188623206023203122e-02,3.794127855910482249e-03,2.200260288486776891e-04,4.805124562589152548e-02,1.864501852339422311e-03,3.028656132191664529e-03,5.639020594281214313e-03
1.330597816872608995e-02,1.474245977059480614e-02,4.241947225034175400e-02,1.345719825339557196e-02,2.942964045637740285e-03,7.447362394816195051e-04,6.562543666213768723e-02,3.947050144432598384e-03,1.374706520511466586e-02,3.718479112288510750e-03
4.536416476431517214e-03,1.520689375869860652e-02,2.860159816791462209e-02,1.165005396229231230e-02,5.652021769110130746e-04,4.235896727913824331e-04,5.243685302661052483e-02,7.293992640096453282e-03,1.488624735832954141e-02,1.807303657479400688e-03
7.642545996939805603e-03,1.976521251111200070e-02,1.389647332260627796e-02,1.157026120398958052e-02,8.030946240580592085e-04,6.065002284074323419e-04,1.826224983927236811e-02,2.435918224200745580e-02,1.601128033939841835e-02,3.573808319225376534e-03
2.078693863809889797e-02,2.841682925884935623e-02,2.573396119606276636e-03,1.554499307187657067e-02,4.481028631945771501e-03,2.278642633217934678e-03,6.829039065931324926e-03,3.047200866257453178e-02,2.282218613304422966e-02,1.416292265157036720e-03
3.083823760779570364e-02,3.332922773830995083e-02,1.259634839304911436e-02,1.679869302976054468e-02,6.760913794341965807e-03,6.263850755463901999e-03,9.156624190625954618e-03,2.297013807791460985e-02,2.936691551043566981e-02,6.620401773775018168e-04
3.398605014382029971e-02,2.898838105141778032e-02,9.069554621207088010e-03,6.948460367872624777e-03,2.279282897808005987e-03,7.009975418197194642e-03,5.463495410766690263e-03,6.499680037148987746e-03,2.797723265329595324e-02,2.791209550113155774e-03
2.379947118760689442e-02,1.873050744883602084e-02,2.003506525452013447e-03,1.116194182062795089e-02,8.652454941478739114e-03,2.478331138890805824e-03,2.214817838967825941e-02,1.349174971727069156e-02,1.966015980832490004e-02,7.023802774833993838e-03
2.837002962412778304e-03,9.954125215628080794e-03,6.354494254789768738e-03,2.424553868059909495e-02,2.012132174035419566e-02,4.353585686946011453e-03,2.854209342097777449e-02,2.815602676574952001e-02,1.237276219622877697e-02,1.136382341425370805e-02
3.507742127873587912e-02,6.440843919556050144e-03,2.295347956542967763e-03,2.403815282402307560e-02,2.655468920682222539e-02,8.284843321789948922e-03,3.088831477822097382e-02,3.240303740535063065e-02,1.274544926424017385e-02,1.248737845121467190e-02
5.551999001264221884e-02,5.667619627212449121e-03,1.540388622904194024e-02,1.645523363518749602e-02,2.736302245978052688e-02,7.496479757315897829e-03,4.629902107221514629e-02,3.269181949777365953e-02,1.973107113511415878e-02,1.110407833742377455e-02
5.874239976379865696e-02,3.101650499181989214e-03,2.184552606713804912e-02,1.142423493963885470e-02,2.528935478060004988e-02,5.244453589680836761e-03,6.665306035723911338e-02,3.407332076364821133e-02,2.748577245226035623e-02,9.837703440339245695e-03
5.127007248013797092e-02,4.209831011727852013e-04,2.339511914219608024e-02,9.004992732720795354e-03,2.151990778663512641e-02,5.085382173194858899e-03,5.779660948889007305e-02,2.799001563906983875e-02,3.569007578010152670e-02,9.261945334512499892e-03
3.731007618690318495e-02,5.382094958907689825e-04,2.947338392295028447e-02,2.850612870934299704e-03,1.443976727699295554e-02,5.775970491094350144e-03,1.326033563416055723e-02,8.717768539752361601e-03,4.870066396914582429e-02,9.596891703396597667e-03
1.825185277488670238e-02,5.423850259794349253e-03,3.778897909322900817e-02,6.177322534128054134e-03,3.738924057557112962e-03,3.506004505248609942e-03,2.435973396948361291e-02,1.005853802778858622e-02,5.993447489746329265e-02,1.199244715228494143e-02
1.087815954358189487e-03,5.545940108853245065e-03,3.472776030510126011e-02,9.996919374873902697e-03,6.621388096001693327e-03,1.699950978378907390e-03,1.808236324625093691e-02,1.243950844064576483e-02,5.254917889158000621e-02,1.532018720731332870e-02
7.919569131064082765e-03,2.552202400353521545e-03,1.801481068542112526e-02,6.577271900652928091e-03,1.212116867594966937e-02,5.924887739173727644e-03,1.866287672426922284e-02,1.388468637962652664e-03,2.558840328679741483e-02,1.662255671087304459e-02
1.390292471806711672e-02,1.106213032648250584e-02,2.233604644712872209e-03,2.825376959422042783e-03,1.290376100073141810e-02,7.476385503068218481e-03,5.071919341565188366e-02,1.199049947840998692e-02,8.797234515777963221e-04,1.666112821328845708e-02
2.465063406899353771e-02,1.402934997004728727e-02,3.473898287249228313e-03,2.773886004546451036e-03,1.245631601067822940e-02,8.318010581880148913e-03,6.405167124926165745e-02,2.579119951766324637e-02,7.830501938055609013e-03,1.959065705813489364e-02
3.742179084509177772e-02,1.594108415987424698e-02,6.014576051766656710e-03,2.797823432779570057e-03,1.261670167997766719e-02,9.332287371109547480e-03,6.413773707979171512e-02,4.201417838133508081e-02,1.116511493115263445e-02,2.556449362362818445e-02
4.660030694892378089e-02,2.113352142601650913e-02,1.129587956485711767e-02,5.898427433980120210e-04,1.286611743168522212e-02,8.963882789180210170e-03,5.869186297614427394e-02,5.780004256354673992e-02,1.812905528112528780e-02,2.928433842030857270e-02
5.490378704597895232e-02,2.547631572218702484e-02,1.368724630890767388e-02,2.710437326249074633e-04,1.304129863015567742e-02,6.933854498568006904e-03,5.390005518180130545e-02,7.000350967612867237e-02,1.850472347996818742e-02,2.784753059339464473e-02
6.380880876433152327e-02,2.525394147301345329e-02,8.448497176618665130e-03,2.777092209576292187e-03,1.372035406838853326e-02,5.176916114328971794e-03,4.893938230581108134e-02,7.770985307726752112e-02,5.100321260516141320e-03,2.461351880990551508e-02
6.437201831460766244e-02,2.462126972465768227e-02,3.534854326699124385e-04,6.858351717689147205e-03,1.448133439297419507e-02,4.555652654112724367e-03,3.425575908018624327e-02,7.857146810728657393e-02,8.265509622061996409e-03,2.279822790425144532e-02
5.166886361873889583e-02,2.731871613101918492e-02,5.679304785604591399e-03,8.530739622628624730e-03,1.370789483058051927e-02,3.644906186080070463e-03,1.043765615339209418e-02,7.188649321072197729e-02,6.015006155970212265e-03,2.028114920509044294e-02
3.679518685930383004e-02,2.901385940809442926e-02,1.200055217548030850e-02,8.353071661797814573e-03,1.036271958369423297e-02,1.370459598469925613e-03,4.249737874917963558e-03,6.330217752903972983e-02,7.092341865837328320e-03,1.366808643906362863e-02
3.192406281128729040e-02,2.492761802837784382e-02,2.130618578926590442e-02,8.335264948376306521e-03,5.607835651428236257e-03,8.887350897171249859e-04,2.608120395021680527e-04,6.019696978229975570e-02,1.622196714206503368e-02,4.007933257101403517e-03
3.504662586735159124e-02,1.887537344798357469e-02,2.958455784880285183e-02,8.181598209258395329e-03,2.461693746636368224e-03,5.260210547092104665e-04,1.436781250999531571e-02,6.529903088713720494e-02,1.810849515552435257e-02,3.387214316116863959e-03
3.931114627703844594e-02,1.824346433958036473e-02,3.089254080025307519e-02,6.946804337580657872e-03,3.101257898133100502e-03,3.195552729283945240e-03,3.469943896433336228e-02,7.670984870994276839e-02,1.978938413414791167e-02,3.505381856367497436e-03
4.487550851906301624e-02,2.466944715779238739e-02,2.481299091596424200e-02,5.578840986115905787e-03,6.090258716736896699e-03,7.683663581714729636e-03,7.116199248251400822e-02,9.149583912415397424e-02,2.332635941088089665e-02,3.097010688496856616e-03
5.202934314387223230e-02,3.425742129114919821e-02,1.542008066399768590e-02,4.326475303449589874e-03,7.540687734787669856e-03,9.465372159871671132e-03,1.163947577151608348e-01,1.086785863334230606e-01,2.434120216876577841e-02,9.265204184375245081e-03
5.370135309588419670e-02,4.247552853956441249e-02,6.481088304221352403e-03,1.079803887783013392e-03,6.042525537389336135e-03,7.917284314865984107e-03,1.408635154064316608e-01,1.256168845855053229e-01,2.069490314865980382e-02,8.556235405745352823e-03
4.513635026899998071e-02,4.586050608303646886e-02,6.684050311677800079e-04,3.780899534213409512e-03,4.568894122282669661e-03,5.454311168515111469e-03,1.337598246729139184e-01,1.299047370149380987e-01,1.255161611011773419e-02,3.471213433519901304e-03
3.347226305999791846e-02,4.306507828558102380e-02,5.484195048519095944e-05,5.182060356055909200e-03,5.968750756563874146e-03,4.496301015666110193e-03,1.222367391302820600e-01,1.061653360058722184e-01,1.109093667246915287e-03,1.892613641508745235e-03
2.784483826899127046e-02,3.621907992599755072e-02,4.677474742007397407e-03,6.588624926963315904e-05,9.294124344425178444e-03,5.509371331299577068e-03,1.313372021237319831e-01,5.783214205156834986e-02,1.858704241395474008e-02,5.745875890441523581e-03
2.673148170970020970e-02,2.861191134348894938e-02,1.277952155664387364e-02,8.931620135532053820e-03,1.263374230067978478e-02,7.617523979155813897e-03,1.445434931777541399e-01,1.013120285075219153e-02,3.401136524816936180e-02,9.589409167913480123e-03
2.573938674993193898e-02,2.100791306546921297e-02,2.282207451356310646e-02,1.711205939959246913e-02,1.627616583478367490e-02,1.021833596277335089e-02,1.306821009252560062e-01,1.383553200666398468e-02,4.468975908716623507e-02,1.120373841107053133e-02
2.902454137245832205e-02,1.329329910296538075e-02,3.172239352909320825e-02,2.294144578610129298e-02,2.025913722167584780e-02,1.356522680233827015e-02,9.799256154939531283e-02,9.975792757742118003e-03,5.224017796851787576e-02,1.525067596787386785e-02
3.825206516573228382e-02,9.179614143219758104e-03,3.239130240695505675e-02,2.429860208481800232e-02,2.159411915468735510e-02,1.716564395782387703e-02,8.266166399018654021e-02,8.746377569051473969e-03,5.371739579935826819e-02,2.216364672445253828e-02
4.017846921924737164e-02,1.396358749153590005e-02,2.038094385405200826e-02,1.844841693918450667e-02,1.757410114192639594e-02,1.858279652418382347e-02,8.389918952067992874e-02,1.773762226139537213e-02,4.338545055875497880e-02,2.205697523928440776e-02
2.465713852697069136e-02,2.534807735285453736e-02,3.470986724231520364e-03,8.250105051429999781e-03,1.085100951966433760e-02,1.606576630635713279e-02,5.877264160049317648e-02,4.627907032141851361e-03,2.770265292478634594e-02,8.153412967073284806e-03
5.046217583661001017e-03,3.214115704241658072e-02,4.056942194953459639e-03,1.769058731092547614e-03,7.198951275264103486e-03,1.122759264254433176e-02,6.630375512622218963e-03,5.353999237098960862e-02,2.444318741754721719e-02,1.111644007062669720e-02
2.974633964312947600e-03,2.768026433694422556e-02,1.181736668482380632e-03,1.771699750213309721e-03,7.288150485807456079e-03,6.050035525974347891e-03,7.281365133361039632e-02,1.004794869975672994e-01,3.905827838151956777e-02,2.391030535576804325e-02
1.224061372463959227e-02,2.019658764609392684e-02,7.948403954110764072e-03,2.412208399652307229e-03,5.355106353702560398e-03,8.114013425739406834e-04,1.109809978587998347e-01,1.257309614261362951e-01,5.520856319685642222e-02,3.111774112936341666e-02
4.519709225718653717e-02,2.240194696262748017e-02,5.844299668896334871e-03,7.879254386768165812e-05,1.532451972358397788e-03,1.069009157896799733e-02,1.383148898272698046e-01,1.324792830916740050e-01,5.717955665186004455e-02,3.938366782382593523e-02
9.338067896172277949e-02,3.447730316035853282e-02,3.881578363191902879e-03,2.205074453726365517e-03,8.893938693572059698e-03,2.032675469340090163e-02,1.696897449537471958e-01,1.284601228148611052e-01,4.681476459965819292e-02,4.727189191147690428e-02
1.255405008975561676e-01,4.582049386395904006e-02,1.493073585718657573e-02,2.638770074920521961e-03,1.297870444101560661e-02,2.536832040130406959e-02,1.864646196143802392e-01,1.149156610224992270e-01,2.934504850918066843e-02,5.018569659914305647e-02
1.299175924680477934e-01,4.962295079817734267e-02,2.367550255044603008e-02,5.949894951597780451e-03,1.607629563326319969e-02,2.622751911882358761e-02,1.766938188943245336e-01,9.747555851815581374e-02,1.986221842750784342e-03,5.010301863958147028e-02
1.222645377735675498e-01,4.672768527855823695e-02,2.698259399623967325e-02,1.218956898610278061e-02,1.955028120673850400e-02,2.602096047311762070e-02,1.616672173660470835e-01,8.829284614371683826e-02,3.032200314389059750e-02,5.045274595414712959e-02
1.160517384440673400e-01,3.950141431055839009e-02,2.246747801523519758e-02,1.437410393486860533e-02,1.982627346566891158e-02,2.513683321784448629e-02,1.569481633077671745e-01,8.689696278640897387e-02,4.926377205375204876e-02,4.897200386591517990e-02
1.081071884650287168e-01,3.046635640294712011e-02,1.455233004009276812e-02,1.054839402847358894e-02,1.572356864687285416e-02,2.229050165884146825e-02,1.420187679341304576e-01,7.318170216139019413e-02,4.849983539502823737e-02,4.239994849738419613e-02
9.437059371615430514e-02,2.270956653211383958e-02,9.701564452038012251e-03,6.056780399332145799e-03,1.137875095041944798e-02,1.854266106485444668e-02,9.839165767302121557e-02,3.681442379058198072e-02,4.212052893307106222e-02,3.216642108796535782e-02
8.003008565878481917e-02,1.585752716620307534e-02,4.558815795676472542e-03,1.666429577800031866e-03,8.427980045584390276e-03,1.613300533245165189e-02,5.759310887448143568e-02,5.245746738604949687e-03,3.616924245610510236e-02,2.194756214416166556e-02
6.833288552766225710e-02,7.486260367737650016e-03,6.437281968577996880e-03,5.038241812692027984e-03,5.201600185292506832e-03,1.581481338471548911e-02,7.512554748192708243e-02,1.809554295093429577e-02,2.321914360963652293e-02,1.438797371196470429e-02
5.429654181034194310e-02,1.281366324017357144e-03,1.218936287855641384e-02,4.909988147639950291e-03,6.559171845642476975e-03,1.829162767315100496e-02,1.527073995022711905e-01,7.444356366368083677e-02,1.617838918328357370e-02,1.134129757317086512e-02
3.782276102215530872e-02,4.448633074411219822e-03,5.351732475381310375e-03,1.617267210043712294e-02,2.161366251864074717e-02,2.450540414455156316e-02,2.203062256372841643e-01,1.307734932055551469e-01,4.451139985023419565e-02,1.301191563384285731e-02
3.218295331442858065e-02,1.428796161417829856e-02,4.031866269473772385e-02,5.168480867739205786e-02,4.679880440871451996e-02,3.188996377034884755e-02,2.182453736908037401e-01,1.520597777474088363e-01,1.009699604053155148e-01,1.596633843272974446e-02
4.878577821214272886e-02,1.786684528653640150e-02,6.321117353390938443e-02,7.509828042163013695e-02,6.416255988377565778e-02,3.467181521048657428e-02,1.677106560908985244e-01,1.406091244536345208e-01,1.377242454809753658e-01,1.550785502345496981e-02
7.929584239285662750e-02,8.474900434549972883e-03,5.651400169581602406e-02,7.150225602670344516e-02,6.228499044611712776e-02,3.024464276021020248e-02,1.286197717857661960e-01,1.163402220922060415e-01,1.319228937219508735e-01,1.114192557780623385e-02
1.032976158845973075e-01,6.143784223147937852e-03,3.380578050781161970e-02,5.255134975380060941e-02,4.827577521647751640e-02,2.159296862733108002e-02,1.181792134543014627e-01,9.350346081737355430e-02,1.124250952559346234e-01,6.309191962504581697e-03
1.097203256525350751e-01,1.446791976399925198e-02,2.021633395921987666e-02,3.634817906639530027e-02,3.482338110699478850e-02,1.231416309283369856e-02,1.107437230487486185e-01,7.727347699387586422e-02,1.084385823979447938e-01,1.809431603003726179e-03
1.007181540201036035e-01,1.440709570857116872e-02,2.450844871903340785e-02,2.586731636603897475e-02,2.464496352868037268e-02,3.168257545851213899e-03,9.156830983588395978e-02,6.505652795602417937e-02,1.096751773425260756e-01,5.130912712697428477e-03
8.027042478418805471e-02,1.422215524559901183e-02,3.425283221625459451e-02,1.288020423776672051e-02,1.281239380155434378e-02,5.275860181340066499e-03,6.931871322115967793e-02,4.957901768501123824e-02,9.121233184297088126e-02,1.326568891888011553e-02
5.206635705358482469e-02,2.114897427128846139e-02,3.551900942826489993e-02,3.804003411775875795e-03,1.016399049056993572e-03,1.033166200602934903e-02,5.369999739620800322e-02,2.836428728972144320e-02,5.233805728538136470e-02,1.583171199250189842e-02
2.515633231563469199e-02,2.891960345312518527e-02,3.104829336361600647e-02,1.274925204532709015e-02,9.432631440351096214e-03,9.804826561607329211e-03,4.987697306244888440e-02,7.224352085733347362e-03,1.731431244891169438e-02,9.847359675090681247e-03
8.993265970447795327e-03,2.184861047773411363e-02,3.190448374092702544e-02,5.445615088163293510e-03,7.324549162460732010e-03,5.095931948683641785e-03,5.837167348887780521e-02,7.801081814554525901e-03,7.199283068925305465e-03,1.285725316446414794e-04
2.850569220842055426e-03,4.342331603673806745e-03,3.775586933818738528e-02,1.028771989180993912e-02,4.088387925786193984e-04,5.884361352659090577e-05,6.770727553178541858e-02,1.490087995297628351e-02,1.967026726716558649e-02,9.570089003350785301e-03
1.724223202086781759e-03,3.372852311662880714e-02,4.006632655971648777e-02,2.106376599616034684e-02,5.870099244310986522e-03,3.163212778334421535e-03,6.669826002037314294e-02,1.282207746278413683e-02,3.740813430378994026e-02,1.725054035478202144e-02
9.272951162783284879e-03,4.758539339353224512e-02,3.912533660788430206e-02,2.484069478485471938e-02,8.033051314581695149e-03,3.939856743102382840e-03,6.141629129713869345e-02,2.689728051126305183e-03,4.916978599304896308e-02,2.024776263772487539e-02
1.810114818123334177e-02,4.172701557059681210e-02,4.078549950608833380e-02,2.662438990923520279e-02,9.474672909269701154e-03,2.347303213873696334e-03,5.650704481113446448e-02,6.451992769564608363e-03,5.350872761909862552e-02,1.539816879656560021e-02
2.625422930859696441e-02,2.397432686903619090e-02,4.223455489141358932e-02,2.555241473045528899e-02,8.741090529238392665e-03,1.993397995612108432e-03,3.694278481049496216e-02,5.631055001388171090e-03,4.762386175883630973e-02,7.069552623469100780e-03
3.225078478680976773e-02,4.953110330075178279e-03,3.688462153253348197e-02,1.761004986513805409e-02,3.205932626534326035e-03,7.672445794350966908e-03,1.707992767333159009e-03,6.203825010270506285e-04,2.705666861357134204e-02,4.280269933093772128e-03
3.367263375709188961e-02,7.278242161792672880e-03,2.644645804931373620e-02,4.582589179516650436e-03,4.897897380415458697e-03,1.146482845612607597e-02,3.295435344829419910e-02,2.364824578521624449e-03,4.232185357573711379e-03,8.068510501144965028e-03
3.129222270070843026e-02,1.185551992964066492e-02,1.630090527218160806e-02,7.803994048431170394e-03,1.089620547708113410e-02,1.207041980864367869e-02,4.347151609550740925e-02,3.016216502136464736e-03,3.351222382408729911e-02,9.312134748959515623e-03
2.957980125238068511e-02,1.487919258231402628e-02,7.825696292285503133e-03,1.491106088418295977e-02,1.239765952946741273e-02,1.137508656756245490e-02,5.797701533381328931e-02,1.127375970273795762e-02,4.916103915345232389e-02,1.545377866928865839e-03
2.953000399407327420e-02,2.230559129493046508e-02,2.816817207355962801e-03,1.302746795289623331e-02,8.995708260113676955e-03,1.059988878024540129e-02,8.255097037255756942e-02,1.904477304771411139e-02,4.744505433326281357e-02,1.015341456807558607e-02
2.815921386815352367e-02,3.493143765088651403e-02,4.574947246523207445e-03,1.646844508212699527e-03,1.914272541805147904e-03,8.598065002743064678e-03,7.528115706338987800e-02,1.208290114571745552e-02,3.310384861890228181e-02,1.646573431903655335e-02
2.661288337813992599e-02,4.741783823581401103e-02,9.453901263723751835e-03,1.210433766533917932e-02,4.535540009570990932e-03,5.527203076499320397e-03,1.798249114642034782e-02,2.121267291632321188e-03,1.653233020350191457e-02,1.538557058918599285e-02
3.041548051904459024e-02,5.006334409490322684e-02,7.276283379962323467e-03,1.805428788797438372e-02,5.503770253538788765e-03,4.152555530127849219e-03,3.748318169773929426e-02,4.239305166451758262e-03,7.575362223502303885e-03,1.186988823941267056e-02
4.095536814283694954e-02,3.906725182414341052e-02,6.838767898035492260e-03,1.279152711395131412e-02,3.084080098071760459e-04,5.670244344013118838e-03,3.933522523428721607e-02,4.703215700696037824e-03,9.511276513678492903e-03,9.475813464423665788e-03
5.317635546834296317e-02,2.589489378270286996e-02,2.750268461711209700e-02,8.777693265466916285e-04,7.951562429680668342e-03,7.727449278347666047e-03,3.654323056159723693e-03,7.704668124614108549e-03,1.919375840667386993e-02,8.112695954577706439e-03
6.098749164382544219e-02,2.634392506899528932e-02,4.553303018687509390e-02,1.119988793374976192e-02,1.591675968522907395e-02,7.738125701294892161e-03,2.256645875390303826e-02,1.277689027591886713e-03,3.126009984881678028e-02,7.564399970495397016e-03
6.157624965995568689e-02,4.163931130778403961e-02,5.546520393628868312e-02,1.871524063586845962e-02,2.115486185175998596e-02,5.622441527555455641e-03,2.437713918731797963e-02,3.636802438308724128e-03,4.042035304954463837e-02,7.295087246928583929e-03
5.714368496798321456e-02,6.066762069211753539e-02,5.822716061584123221e-02,2.009788950481653305e-02,2.264623873236868562e-02,3.329333164393262316e-03,2.097641783227630757e-02,2.211291362121052539e-03,4.304887300352411988e-02,4.848824648206033830e-03
5.392219079882558386e-02,7.738548722696807214e-02,5.749893585905844345e-02,1.818537992854210583e-02,2.191065833473406291e-02,3.516226258135521539e-03,3.493521254774367701e-02,2.837887080711597003e-03,4.058565644735796785e-02,3.639740661426720501e-04
5.625293276783926294e-02,9.543022977324823464e-02,5.307623788719209590e-02,1.761317689135600065e-02,2.137011556085299455e-02,7.464241386891171809e-03,7.102831745983712031e-02,1.224009266492515416e-02,3.932311542947555111e-02,3.926224554193767993e-03
6.168997751757397674e-02,1.167476899236315896e-01,4.178611851553901135e-02,1.950794901883708826e-02,2.120238630054562326e-02,1.254318121726133439e-02,1.091590960116181064e-01,2.768256701595908642e-02,4.318950754770932432e-02,1.417722306773946256e-03
6.467723486645954312e-02,1.339553742517227419e-01,2.581649150757720293e-02,2.123537584562201069e-02,2.017845586231229588e-02,1.386688886336602533e-02,1.227539000714626266e-01,4.548676502274961314e-02,4.847425063691850056e-02,5.684490317157704989e-03
6.336758551300868125e-02,1.385855358232851442e-01,1.369684494792981072e-02,2.145011043622625790e-02,1.870409336084539326e-02,1.050573560743577918e-02,1.141233517650478563e-01,6.164213781161945876e-02,4.905203109455148064e-02,1.261934837735825821e-02
6.019779239840075680e-02,1.343591051811647841e-01,1.177169774958420484e-02,2.213640602513927344e-02,1.800065600459899162e-02,7.304378918052293300e-03,1.126374905169506419e-01,7.618558276691320130e-02,4.538627159134119016e-02,1.762549051836125730e-02
5.779879324345570807e-02,1.311260474337717918e-01,1.932969572435617317e-02,2.494271372632489783e-02,1.747920859020471451e-02,8.229293968187292863e-03,1.281762153449592656e-01,8.814528632697322952e-02,4.415343997890441158e-02,2.219875302862826805e-02
5.640740315008080374e-02,1.201388783446463854e-01,3.053105096742047067e-02,2.813298650847495877e-02,1.596078238113115416e-02,1.122265140032002555e-02,1.346992556073274838e-01,9.315492819107912270e-02,4.752569948722273896e-02,2.622605424845884589e-02
5.393931058346573826e-02,7.244769858634231285e-02,3.837290252647774375e-02,2.873710685598765413e-02,1.416955916285741156e-02,1.223185314327536639e-02,1.130810237575461813e-01,8.907206246364679503e-02,4.696891842667173800e-02,2.627331167790407374e-02
4.830538078037974886e-02,2.040891699130130757e-02,4.071414000832983965e-02,2.649576107558651583e-02,1.342440145414473124e-02,1.089377752646521896e-02,8.116729511204701097e-02,7.915461352593380906e-02,3.364061931024039248e-02,2.006766025482765309e-02
4.075355338955260337e-02,1.181784302397460573e-01,4.156353919173133571e-02,2.389713172754187251e-02,1.326434077316003719e-02,9.438278140422369511e-03,6.576951975036451903e-02,6.826963862575854969e-02,1.274782309145093204e-02,1.088464572723478463e-02
3.539096027899200914e-02,1.671271150687512752e-01,4.062276869818368108e-02,2.261529360971881175e-02,1.243528873295062474e-02,8.765149073062470861e-03,6.761682152958577163e-02,5.909137785655942110e-02,8.696599919171023318e-04,4.912657427054940851e-03
3.392872615274336590e-02,1.545623420113861057e-01,2.863683596958924160e-02,2.183873615495074069e-02,1.100022266891160193e-02,8.169557102619729588e-03,6.951076286448786001e-02,5.282337355839554494e-02,2.743968490391511528e-04,4.752497163253802462e-03
3.344592411009989635e-02,1.099160732889783582e-01,3.227432173873319085e-03,2.036211812547531266e-02,9.892061576304424925e-03,7.234280492179463035e-03,6.418638024087353067e-02,5.061962576001542702e-02,9.046178422376514178e-03,7.968931380550541010e-03
3.124307097564388291e-02,6.328996619198506979e-02,2.046624315796442481e-02,1.838867289031077476e-02,9.161057995759353673e-03,6.190324395129352501e-03,5.785521934493505214e-02,5.128025451558584219e-02,2.001666025793118545e-02,1.132292452971408667e-02
2.852664599326142081e-02,2.090811967999955251e-02,2.645222881406302656e-02,1.663428748057468529e-02,7.944783375922163590e-03,5.271174497294735771e-03,5.453035653832710022e-02,4.971207637934889345e-02,3.008197617484673070e-02,1.354383939372974868e-02
2.641911383890254914e-02,2.557699632805457077e-02,1.584550357686087887e-02,1.513342694883881845e-02,6.061319507822583372e-03,4.568313390144133207e-03,5.442352445375596426e-02,4.265941619812147617e-02,3.733334621086577959e-02,1.440284525887718624e-02
2.212994045625271342e-02,7.579127846117837686e-02,4.763892531355071527e-04,1.357421756071186883e-02,4.525484121243508046e-03,3.927908116077235418e-03,6.041162732705910449e-02,3.394401700335318572e-02,3.847772592526497309e-02,1.383669743219989937e-02
1.320076184155600033e-02,1.076238849148923871e-01,1.141062407083869024e-02,1.193519113165950746e-02,4.009625123722214066e-03,2.864104541277249279e-03,6.601095084993657824e-02,2.820225201110649824e-02,3.274740548179302241e-02,1.217552477055079858e-02
2.188512547163750169e-03,9.873199759802282760e-02,1.789377383728301546e-02,1.036576627859297529e-02,3.810079125659636412e-03,1.302431908460051054e-03,5.038975230755177864e-02,2.312307847915716363e-02,2.392235629722511137e-02,9.696558827836697717e-03
7.053690294817164218e-03,6.489503579438336833e-02,2.033903674215425256e-02,8.884881393229657892e-03,3.048866971969725094e-03,8.452611209578092359e-05,1.060975435103106261e-02,1.478472629342333575e-02,1.602887515268890117e-02,6.253497876477742169e-03
1.458494700779645707e-02,4.796264559023610818e-02,2.103506880212965488e-02,7.427515289171298871e-03,1.895324392422930403e-03,1.668226855644936932e-04,2.035436699006127476e-02,5.983804733452878846e-03,9.373075004356981599e-03,2.432195545474365173e-03
2.225221192968427145e-02,5.119309968522559734e-02,1.897557138343664365e-02,5.986000403076814982e-03,9.201666020474679082e-04,6.932392808590504343e-05,1.598652625239129627e-02,2.378949731605895651e-03,3.282367758530327535e-03,2.824544454430020536e-04
2.941728096098244344e-02,2.604338325675957522e-02,9.111411888787508684e-03,4.599110819094745159e-03,1.581305027686399044e-04,4.788268637301465545e-04,4.306301582178498344e-03,4.538055901709348722e-03,2.562914090807368039e-04,1.386200881171730827e-03
3.365237012626312585e-02,5.106174089484401268e-02,8.992308174011401714e-03,3.286442949397962252e-03,6.227640434994820545e-04,1.276592164337470286e-03,4.649116657912108486e-03,8.610687198486359842e-03,9.952145772264154450e-04,4.487551606272842039e-03
3.327416416439736568e-02,1.303535556567692877e-01,2.535179203734921893e-02,2.032946538000653895e-03,1.398677375615923427e-03,1.900341293065371502e-03,1.785255603287649873e-02,1.141617163430492729e-02,6.061499496305950037e-03,6.565107876635094958e-03
2.810157200389803295e-02,1.496002161040879130e-01,2.885279572582240271e-02,8.170598237895428453e-04,2.071631383412759868e-03,2.273681267938591939e-03,3.682973178367590639e-02,1.232273503365475392e-02,1.207700686967541626e-02,6.540046684207496963e-03
2.041144354034619968e-02,1.091740465331821619e-01,1.901366090678154736e-02,3.399947789231713355e-04,2.733444814475214073e-03,2.636657445033023170e-03,3.454237478182450860e-02,1.250837604991608329e-02,1.685448775166453056e-02,6.535095279937348789e-03
1.488497251838182336e-02,5.815182504868335323e-02,4.096333655860817657e-03,1.381033848051885487e-03,3.395166572759217901e-03,3.034241251977291484e-03,1.589714687631418183e-02,1.280859200054700747e-02,1.881710576345319019e-02,8.199263052909874436e-03
1.438214922185710939e-02,3.185451535670347223e-02,8.160156822818346450e-03,2.325486250621385496e-03,3.820310910690726761e-03,3.352848075877668151e-03,3.944204857903433822e-03,1.044725666493432140e-02,1.626062522483345471e-02,8.674085121763401227e-03
1.657768785136643289e-02,2.501086038771131725e-02,1.551141290290239047e-02,3.282781676108330153e-03,4.050880053990664129e-03,3.561337507904678741e-03,9.688960227656175095e-03,1.399842369621973753e-04,8.654491720017212786e-03,3.241350833152218704e-03
1.732268187228675274e-02,1.549912118357973066e-02,2.092536706094280663e-02,4.209715351851352899e-03,4.645086002343293621e-03,3.717851389103056948e-03,7.119378889200580346e-03,1.947385961547854621e-02,1.056599597738309233e-03,7.255322702065743028e-03
1.535984801201243678e-02,3.524698497735413369e-03,2.668027734193586728e-02,4.861342834400776171e-03,5.737664637329530255e-03,3.859268794465744827e-03,3.799778433425408941e-02,3.823977892298296294e-02,7.342322699610251760e-03,1.544032462403371365e-02
1.201821021529283356e-02,1.697443644211747704e-02,2.638326079976461083e-02,5.305420755488538843e-03,6.461900100428905232e-03,3.954673946618764840e-03,6.010244060364664659e-02,4.547280572642802693e-02,7.259626174047486419e-03,1.564982947045671230e-02
9.378930501668408803e-03,6.673928952279251092e-02,9.529019839523632587e-03,6.104895252633484384e-03,6.175853725187111995e-03,3.950564346414288906e-03,5.821587314740507557e-02,4.026621486343536643e-02,3.690260429834826914e-03,9.808555834574050544e-03
9.871050663078029253e-03,1.148179524216962066e-01,2.132132072414416948e-02,7.382963192621418147e-03,5.519227271802426733e-03,3.882348883556422780e-03,4.150925356821966866e-02,3.118094534633591985e-02,1.680944343534429824e-03,4.010667663209090822e-03
1.430614857765362055e-02,1.133022201237645216e-01,4.691208455938813970e-02,8.271019080383348529e-03,5.367522145704825380e-03,3.869484171668209019e-03,3.235092771191604849e-02,2.570173579209163520e-02,2.882154926223452589e-03,2.360592024398513056e-03
1.974637751753541628e-02,6.357472267803197796e-02,5.172985905494095066e-02,8.132977435254241938e-03,5.602047112038761705e-03,3.872847559457244862e-03,4.019744757221515447e-02,2.392479604580511135e-02,5.298039091049547289e-03,4.896979641190782849e-03
2.198145862802750733e-02,1.386621138218462404e-02,4.050031300655185934e-02,7.609976373706374940e-03,5.662908888329947280e-03,3.653906966872036595e-03,5.267596293177101430e-02,2.127548463629385864e-02,7.036890339797868300e-03,9.240847315502722856e-03
1.992407342795522035e-02,3.816312228623080192e-03,2.815326022473810599e-02,7.575291384373941152e-03,5.486626757858823963e-03,3.288994512475279172e-03,5.203689638064460526e-02,1.419179771360963571e-02,8.161532877067898331e-03,1.292520828807850602e-02
1.595306001080403283e-02,2.572341328278612491e-02,2.036770101378521103e-02,7.910054165400349363e-03,5.321932270895638958e-03,3.347667569925489098e-03,3.356946389785303575e-02,3.136964469622027796e-03,9.370931555996133561e-03,1.437029653498166082e-02
1.292827120305437699e-02,4.066051839502973775e-02,1.136537470744137905e-02,8.055951315330708157e-03,5.213726176118670987e-03,3.957567210183845531e-03,5.372897385481929106e-03,8.613812726949443555e-03,1.060650949295733302e-02,1.296671260346282835e-02
1.192075877130843037e-02,2.860748525965590983e-02,2.364095745742118317e-03,7.950158361525606898e-03,5.055496017854948891e-03,4.254090309913872645e-03,2.496423677149193360e-02,1.890578264670122674e-02,1.137464915425386199e-02,9.553089104085667888e-03
1.200112750392584235e-02,1.688803190227227205e-02,1.366119409638373063e-02,7.841276686424487885e-03,4.833290780659809001e-03,3.604653698032747686e-03,5.644981467086718913e-02,2.824572791971100005e-02,1.176565603352046872e-02,6.100684238954210900e-03
1.175594714596745263e-02,4.580682545948273204e-02,1.324082283305047861e-02,7.774569591728198829e-03,4.605224269842497081e-03,2.652449909084356270e-03,8.516525146783981981e-02,3.638056742855730330e-02,1.247671032221451225e-02,3.807338450168786751e-03
1.080564319823013562e-02,1.071111346981247353e-01,3.692602395658791444e-03,7.644275405185732043e-03,4.386725864509264695e-03,2.271275703722915127e-03,9.711050415695977878e-02,4.032658201096335493e-02,1.364065268417899782e-02,2.217544857362202179e-03
9.224337792803962224e-03,1.447803674405012953e-01,2.081603464282224224e-03,7.436946105639533414e-03,4.158780491861101269e-03,2.341633548075493058e-03,8.241801641703005998e-02,3.781399399186717580e-02,1.434511325938543289e-02,5.334447435628212296e-04
6.707676334000381262e-03,1.252447868802253894e-01,1.582168803349967177e-03,7.211121466900335258e-03,3.921796433770044152e-03,2.303457007735723160e-03,5.326890036804677458e-02,2.857972789439350639e-02,1.396784615275457539e-02,1.450552196007145979e-03
3.988593733398827258e-03,7.305881385521298399e-02,5.515759041836451257e-03,6.982968220967827357e-03,3.691697063955434992e-03,2.090890676757888641e-03,3.308456510206748968e-02,1.128319801755355012e-02,1.318909535795912032e-02,3.810109868099312378e-03
3.201787001168699028e-03,2.608302995570165386e-02,8.167584492833183420e-04,6.734176015274194807e-03,3.474097764435854670e-03,1.948279448287470973e-03,2.702549157912110395e-02,1.430830187660187686e-02,1.289378340013850460e-02,6.534570490298232531e-03
4.737040567390267236e-03,7.799412606966165187e-03,7.388378541203305394e-03,6.465445411604657695e-03,3.266918977268449924e-03,1.915584412147854163e-03,1.681244349012896502e-02,4.091504704939675358e-02,1.296139577849604249e-02,8.926075100146967436e-03
6.081462444786138628e-03,3.482000127171447357e-02,8.469958529426264635e-03,6.193303740836706914e-03,3.073366295360140978e-03,1.880818330899151642e-03,1.073583475528164938e-02,5.641821760583604767e-02,1.284323886628486316e-02,1.003584625319555931e-02
5.634512879589372199e-03,4.959101267798345092e-02,7.758694317305693663e-04,5.924892129405292217e-03,2.898251565927037997e-03,1.823480305309504394e-03,4.175374204027847147e-02,5.483907682134514516e-02,1.249077527023586577e-02,9.888704757458680744e-03
4.680983635238540261e-03,4.724301736954591990e-02,9.775874086330849089e-03,5.659036669198967175e-03,2.739750203567018708e-03,1.794382216446982047e-03,5.189046125444241736e-02,4.119332888183573765e-02,1.215975661783358190e-02,9.455716727448269451e-03
4.293408191897779211e-03,4.207560131219687666e-02,1.908072783023949393e-02,5.397975378972132490e-03,2.596400430352199633e-03,1.801477766335172733e-03,3.829876579720534885e-02,2.607237627509609648e-02,1.189823046952390509e-02,9.375357192944220458e-03
3.811897948205012626e-03,4.866685579267429618e-02,2.487309773499534263e-02,5.146929539934910758e-03,2.475641565773265256e-03,1.817941301086968726e-03,2.123032373124403641e-02,1.760660695473219989e-02,1.160429325717352370e-02,9.435761785226572107e-03
2.994176070374644349e-03,5.118761838777199924e-02,2.169879449514830472e-02,4.908560036843038349e-03,2.379278983806468011e-03,1.835833732949856013e-03,1.455751669899817483e-02,1.661106804662681319e-02,1.126812805648998682e-02,9.311828028618742217e-03
2.310882158944312353e-03,2.020677680633787415e-02,5.843834826557446627e-03,4.683076987694255802e-03,2.289280527232667988e-03,1.863105858954839864e-03,1.066551357551676592e-02,1.734554214845723460e-02,1.094909670280400961e-02,9.173602354709221515e-03
1.828341651593155988e-03,3.862260070075374668e-02,1.439640613948982642e-02,4.470837788047132833e-03,2.198563172858098227e-03,1.898575049345322101e-03,7.746692183490918107e-05,1.417015003597870901e-02,1.066199792210949931e-02,9.342014080416115654e-03
2.727133271888481422e-03,8.267913115243483158e-02,2.364562009845530902e-02,4.272352408856797470e-03,2.140286079553888575e-03,1.933174886501890519e-03,9.599844417997147050e-03,8.134208327469147695e-03,1.038628374710408482e-02,9.581712789533911381e-03
7.412540773646434690e-03,8.333504680143312415e-02,1.870807368221411027e-02,4.087114949812755554e-03,2.123071185464254010e-03,1.961846349209509129e-03,2.011568340126836454e-03,5.684360906815969817e-03,1.011941685775077059e-02,9.147878648954613917e-03
1.496786699657049781e-02,5.081463651128859116e-02,1.348482476700166126e-02,3.913656612527274294e-03,2.067950961692197921e-03,1.983259376260055034e-03,2.524368527170420262e-02,1.072456476637161787e-02,9.873236328306153609e-03,7.850058446168870982e-03
1.989306232919108020e-02,5.681456119257977284e-03,1.943077109036876055e-02,3.750182988980959968e-03,1.945371766340618994e-03,1.994401383465563369e-03,5.762389630475217572e-02,1.970381353818541695e-02,9.649035245708313321e-03,6.681364032855598850e-03
1.864619504680421758e-02,4.491150388267256544e-02,3.095313738502881648e-02,3.594663959649105085e-03,1.913426661582604644e-03,1.990795984400605800e-03,7.610596243876809053e-02,2.542222046195797072e-02,9.439159142352531590e-03,6.466365240717820637e-03
1.420776051574096366e-02,9.323844742732810553e-02,3.627252313549156337e-02,3.444657895666099721e-03,2.029320161800000737e-03,1.969184755007567008e-03,7.102294694153075960e-02,2.413198771483715879e-02,9.238894977689874471e-03,6.001303645649770993e-03
1.144695272010728959e-02,1.204666616872745039e-01,3.240967130317617961e-02,3.297400387562450692e-03,1.944251112200380419e-03,1.927589924957451078e-03,4.773572394986323741e-02,1.734344294401938061e-02,9.046017309247755822e-03,3.122309272010550564e-03
1.092370098251025344e-02,1.210147654089566149e-01,2.254299257606294862e-02,3.150028681720215898e-03,1.505185664191924580e-03,1.864175688412398300e-03,1.995961477236351742e-02,8.918554888640661468e-03,8.855504564897169126e-03,1.987744945571351743e-03
9.832661984951029943e-03,1.191518383492416455e-01,8.425243371243031770e-03,2.999688406764087177e-03,1.477205763603229574e-03,1.777302333063108478e-03,2.688309893099760650e-03,3.907172016547639549e-03,8.660204888675498980e-03,6.546711542781996629e-03
7.138471568983338275e-03,1.359686837345693566e-01,6.766307601181359953e-03,2.843576157541591320e-03,2.495371761083820666e-03,1.666136288052625074e-03,1.713114727516185445e-02,7.490391445952073769e-03,8.453640773218812007e-03,8.920339988381039559e-03
4.905244601239056382e-03,1.545786835107112733e-01,1.541596109627167872e-02,2.679033601856004206e-03,3.515916842266609763e-03,1.530685450116003442e-03,1.822836551008103628e-02,1.930357525578737382e-02,8.229631932312575504e-03,1.055885389312784250e-02
4.746732239899156131e-03,1.458631286501757274e-01,1.313213915942552761e-02,2.503665881856430298e-03,3.116919369176068735e-03,1.371542996539494054e-03,1.412203941367708507e-03,3.128918861637160903e-02,7.981331197097809790e-03,1.361310380217306375e-02
6.099502985528163120e-03,1.127073947463980985e-01,6.087839321462544355e-03,2.315426438645877202e-03,1.973186006170516392e-03,1.189871968045568516e-03,3.752479906791413022e-02,3.715186533123723128e-02,7.702676717340182361e-03,1.856769702869716376e-02
8.861264538036997540e-03,7.745296116546103449e-02,4.787552417601491188e-03,2.112677184898947153e-03,1.677618226798205728e-03,9.875045363298951516e-04,6.996027395494390511e-02,4.010525484269162472e-02,7.389198511314381060e-03,2.444776140524559938e-02
1.372121804491061199e-02,4.333923790364414136e-02,1.091739186794003259e-02,1.894248451501744047e-03,1.863996004446568473e-03,7.669058132387281124e-04,7.980784773066411375e-02,4.483805322570658114e-02,7.035634626333360855e-03,2.951746999715535585e-02
1.835939919711193635e-02,5.699675416820421461e-03,1.499424946645566692e-02,1.659492449493240847e-03,1.274597373249343685e-03,5.310594172724322770e-04,6.404582838915158505e-02,4.718121083893203616e-02,6.635728374378745478e-03,3.175732877753965899e-02
1.803494934136452496e-02,1.209714944899378808e-02,9.655240418857503198e-03,1.408316814639889135e-03,4.825988702485643897e-04,2.833944202076706521e-04,3.240311668359870806e-02,4.011254481273511530e-02,6.187895216148400074e-03,3.025131312759862107e-02
1.203988114977901265e-02,2.051608638607067131e-02,8.850443225249370743e-04,1.141199586602251008e-03,6.628309938032984384e-04,2.773065425653388526e-05,7.076145070759780678e-04,2.598751653787417792e-02,5.695855325436762276e-03,2.608350184296808622e-02
5.411468088449852484e-03,7.961612053182326454e-02,1.020105317463659844e-03,8.591910510880954857e-04,1.104128246466056992e-03,2.318111495645955246e-04,1.441657566941989890e-02,1.389388397380720078e-02,5.156940131502323402e-03,2.089331009497794392e-02
2.385085098130908243e-03,9.170727567424791227e-02,1.709093713178191270e-03,5.639015560347810513e-04,5.242269829789465360e-04,4.909211178448396381e-04,8.216483127563088684e-03,6.982768432327773715e-03,4.560943769978764370e-03,1.521392083927410391e-02
1.630163801137930312e-03,2.688793766003833019e-02,2.433795671829563217e-03,2.574729879692097155e-04,6.291020033039731790e-04,7.452052051884784905e-04,4.037344203301993298e-03,9.938117689200672011e-04,3.915266300969378471e-03,9.361026848472408374e-03
5.494498830948726497e-04,5.163360057956275367e-02,1.519118825531479144e-02,5.746491195818780300e-05,1.183405541433388362e-03,9.902855725405512472e-04,1.166688454625707666e-03,5.957263130271478468e-03,3.248008092604492362e-03,4.953194330010587607e-03
5.443613759504682161e-03,6.878680854612433115e-02,2.476113910856760081e-02,3.778509720917069305e-04,1.168889210058091360e-03,1.221906033143957664e-03,1.922164520531990939e-02,1.099058554674760269e-02,2.554318000397535170e-03,3.616904684528854386e-03
1.155238063751525684e-02,3.314902726755000750e-02,2.203517281147011203e-02,7.002604589765697163e-04,1.322049872291214357e-03,1.436037829026502212e-03,3.434506905846699404e-02,1.324371034533015565e-02,1.788282150027135442e-03,4.458137797702486568e-03
1.605625676885981054e-02,7.758571475143182308e-03,1.060032610231821139e-02,1.020983240648562322e-03,1.730967811341807246e-03,1.628977392945447434e-03,2.044503165743492140e-02,1.472250785008689250e-02,9.770530887609435531e-04,4.876497451470998210e-03
1.616392943471945537e-02,1.631008380590816265e-02,9.324335569380044850e-04,1.336110178226952673e-03,1.980642178816486697e-03,1.797434604450086869e-03,1.530237896231407407e-02,1.499820429173041349e-02,2.409133595443616657e-04,4.095936759911866613e-03
1.186092103628706707e-02,2.761033403991222657e-02,9.134943043709519914e-03,1.641625275687336964e-03,2.054871627277554333e-03,1.938612066897521524e-03,3.726279488195988199e-02,1.238953415009203841e-02,4.503705296117533913e-04,3.663695380510525665e-03
7.049462692656193949e-03,1.935058077160452944e-02,1.612817003694202306e-02,1.933501291993169890e-03,2.327228991340660798e-03,2.050273074659555040e-03,2.331264234706639793e-02,9.757225012183906240e-03,1.330172527443690411e-03,3.959414348485791948e-03
5.523456835218413033e-03,1.214760730576059690e-02,2.292855008853013354e-02,2.207796541829543623e-03,2.733374072055811191e-03,2.130795360307677789e-03,5.838682597465475084e-03,1.247521294170621936e-02,2.320525117007163872e-03,3.037325685824127097e-03
7.136026550431015178e-03,3.326913803130638475e-02,2.439288222362096664e-02,2.460750445099305767e-03,2.652606311786600939e-03,2.179209506244874240e-03,1.110674094797172058e-02,2.004194763479154665e-02,2.848369563795342344e-03,3.774051358526925217e-04
9.777297994157030034e-03,7.521895221703811529e-02,1.353139970233819232e-02,2.688875374141269040e-03,1.996333298411698438e-03,2.195221713678482001e-03,1.738464695204670896e-02,2.540264972608997918e-02,2.780873766115335780e-03,9.685635748679830535e-04
1.260059530179792782e-02,1.044466481474424918e-01,7.351521531101447293e-03,2.889042512058105205e-03,1.643033589673273875e-03,2.179220345013667751e-03,5.007447990848409858e-02,2.513290440869816317e-02,2.978434510575698330e-03,1.518867738511545454e-03
1.534991319435021449e-02,9.546163527542426974e-02,2.480653375317925721e-02,3.058559613370504318e-03,2.125619980869499805e-03,2.132265852109114113e-03,5.355440150950884631e-02,2.550954915784130889e-02,4.070512954234412929e-03,5.407831649092859419e-03
1.700599453340997241e-02,4.752515197097564870e-02,2.776885015769645082e-02,3.195238733055127435e-03,2.830521305049214526e-03,2.056064423370024177e-03,2.571037688638319260e-02,3.320399754254656915e-02,5.410774024414582474e-03,6.040281071024099571e-03
1.699517894217322453e-02,1.802093821806495869e-02,1.821514036866156774e-02,3.297452229937571349e-03,3.127079017108581969e-03,1.952926183676724015e-03,5.343265503719543327e-03,4.241432342630239993e-02,6.122336912145217788e-03,2.776854451850746964e-03
1.618420390648115520e-02,7.141879766434119925e-02,4.973034884707386652e-03,3.364175656145842585e-03,3.077756790671932075e-03,1.825709015273699852e-03,1.221286872698293738e-02,3.906538706691829038e-02,6.322320490610140384e-03,7.818554458165725973e-04
1.553356583683102379e-02,9.382674733989086746e-02,6.931606894952961444e-03,3.395016477107624074e-03,2.686436625634496846e-03,1.677749368743197082e-03,2.960476721646125315e-03,2.027074861955485349e-02,6.569203583533332787e-03,2.501165419052919607e-03
1.483010509031104998e-02,7.991108468413332666e-02,1.658711625099614992e-02,3.390227913804349028e-03,1.897010218658880254e-03,1.512781814363472858e-03,1.267566908261674209e-02,2.056227683659705551e-03,6.927841186443782842e-03,4.083534077924157353e-03
1.327593957429035187e-02,2.610330818488261484e-02,2.261925256007195004e-02,3.350707560704642950e-03,1.337045681646681621e-03,1.334849377589491289e-03,3.115481945722402540e-03,6.552171832696690110e-04,7.153511371309279748e-03,7.263015038227535122e-03
1.030829474571986343e-02,5.775523161785081627e-02,2.339673102049640713e-02,3.277980803631703501e-03,1.610785450560930357e-03,1.148206889407273664e-03,3.544085971484268321e-02,1.162766466999329285e-02,7.206652814462419405e-03,1.075085100975966927e-02
5.782015246883889792e-03,1.294864793479268694e-01,1.913108349703006306e-02,3.174169441291186007e-03,2.198430272592070793e-03,9.572197326567685174e-04,5.787152631991694662e-02,1.713516664794725516e-02,7.200449054192326233e-03,1.235571437580227847e-02
6.492363070598819452e-04,1.436926607459710348e-01,1.159014816846731452e-02,3.041946288693310810e-03,2.252022405393359732e-03,7.662604821715531716e-04,5.183384386526652260e-02,9.910333693674082053e-03,7.157333357435840572e-03,1.239170896852324205e-02
2.708117031283506938e-03,9.786673733777334627e-02,3.923585162848935125e-03,2.884476869973214962e-03,1.841087619841689626e-03,5.796059826067511377e-04,2.075296276378427521e-02,1.525488601538661521e-03,7.029139406781042231e-03,1.303952337955034159e-02
2.272808214505035989e-03,2.190482058462203674e-02,7.503714008270840913e-04,2.705349590955283962e-03,1.525857717840411066e-03,4.013373784813674319e-04,1.424901575207336048e-02,8.898418090685696752e-03,6.811263599931258010e-03,1.427985319776896821e-02
1.407209249103284852e-03,6.044256865404206563e-02,5.821074946779582551e-03,2.508496083939049538e-03,1.414502560342761547e-03,2.352455232278043737e-04,3.090053290415788190e-02,1.226800671413832804e-02,6.534537125208251737e-03,1.260561647750448391e-02
5.504462737622017182e-03,1.276619447647892591e-01,1.834737702509005655e-02,2.298103719511796622e-03,1.268266108378024101e-03,8.474405305983992876e-05,1.987472143459478868e-02,1.192389970861240829e-02,6.211482119127011148e-03,5.994749639357624740e-03
7.466695579058491017e-03,1.435995098610567677e-01,3.092963625629496782e-02,2.078522417475934646e-03,1.016395463008934810e-03,4.720778602155595912e-05,1.281451593523838008e-02,4.693509312196402633e-03,5.839229193490644981e-03,1.329746445704421427e-03
7.219116976632120042e-03,8.936545639784254647e-02,3.307969559972905732e-02,1.854167878727459601e-03,7.823048353517935392e-04,1.581707214373121373e-04,5.038561100332920872e-02,8.358522956424953299e-03,5.424457570942502194e-03,2.966476192454335029e-03
6.412292059320240552e-03,1.693825775231640532e-03,2.178010980968387786e-02,1.629423541785090818e-03,6.467367510129990458e-04,2.462779078421506711e-04,7.343655673324987754e-02,1.902627920389890481e-02,4.982048021554006181e-03,1.324557174904148751e-03
5.451852918210803485e-03,5.679869080964546763e-02,7.363302928476119294e-03,1.408543902233722360e-03,5.419971008024797613e-04,3.102730422956563594e-04,7.259834462257795662e-02,2.011844450993789668e-02,4.523084249340706200e-03,5.749444393708351767e-03
3.067462916284806676e-03,5.727216177554403376e-02,2.310157440698245006e-03,1.195561586664697007e-03,3.463849936926753810e-04,3.495332859616467934e-04,5.556744852141596441e-02,1.201398336328125989e-02,4.055022062644412367e-03,6.805945630837525323e-03
4.077012288331281244e-04,9.831829602293253728e-03,5.965426543919323879e-03,9.941998070352644351e-04,1.248068830619663617e-04,3.640765158040858737e-04,3.772928293251727461e-02,5.312227134890242950e-04,3.586991377812639992e-03,6.712336975197815900e-03
2.177868094728129325e-03,6.405098077477626439e-02,8.110104744733210788e-03,8.077921077745627053e-04,1.274298614375928918e-04,3.545528275084696280e-04,2.590863256906156958e-02,8.042645345039785981e-03,3.129467610690907058e-03,8.197775792463299002e-03
1.102743452513117684e-03,1.269496015035736225e-01,4.882497416142295502e-03,6.392125705037238030e-04,2.761511703457455178e-04,3.222206001180105846e-04,1.417649356058845421e-02,1.022199253958371544e-02,2.691482475281256007e-03,1.054150651224803649e-02
3.649459144211650730e-04,1.242012885254646370e-01,1.225306128188754107e-03,4.908185125073239764e-04,5.773892967065837652e-06,2.689077915784065338e-04,3.449981164131542960e-03,6.448496500992873665e-03,2.280459981580234066e-03,1.183198551560036248e-02
2.925265276926254741e-04,3.796402106846025887e-02,3.383487451555670586e-05,3.644043152331370413e-04,8.023026913351014337e-04,1.969594918327148775e-04,1.951999367252297765e-02,2.840260696047440005e-04,1.903262037427253537e-03,1.157430991794443018e-02
7.322225688141952189e-05,7.408561843495151122e-02,2.847164947989045021e-04,2.611665173639711761e-04,1.279087577063460534e-03,1.091731357358314896e-04,1.934613583425993585e-02,6.522350111574611205e-03,1.566050915607383135e-03,1.002882008838314014e-02
1.441803224637812223e-03,1.332761752414813594e-01,1.535275845237995922e-03,1.816866758495703409e-04,7.893729341247620159e-04,8.723082184679232468e-06,1.047421547848966482e-03,1.003855315743044062e-02,1.273607367284097184e-03,7.321076340754783911e-03
4.275968454585652757e-03,1.166672003353481785e-01,6.584628557715082806e-03,1.259344492456485661e-04,2.887231737259423302e-05,1.009235713858178606e-04,1.878710940018533948e-02,1.188545737668346251e-02,1.029236833338994378e-03,3.895851708122633102e-03
8.288834750412093708e-03,5.383571320652077996e-02,1.006228971012138040e-02,9.327857580157018508e-05,3.030402071011015393e-04,2.160978820903696070e-04,2.153179624964891153e-02,1.537078158028479767e-02,8.349817275584330359e-04,8.048894806590314952e-04
1.273584355615389914e-02,2.115233854510103345e-02,7.550130735503385142e-03,8.250057269450911113e-05,1.473381461704423724e-04,3.330242584324849000e-04,4.482956828798525216e-03,2.083112369282873882e-02,6.916082413688019216e-04,7.742808218467703459e-04
1.434618796927968412e-02,7.825518315073995423e-02,2.470674010923145161e-03,9.183662494646050020e-05,1.243536365753582695e-04,4.479174198201311746e-04,1.642757028554834436e-02,2.499777588936800965e-02,5.984942682439348561e-04,5.465310823806947705e-04
1.020950628658367880e-02,8.155506989485301894e-02,1.434361271907611327e-03,1.190575624079013867e-04,3.125071941756035017e-04,5.570789575406942182e-04,2.097511096214707549e-02,2.667783918362988393e-02,5.536687816712535480e-04,3.482693067234934013e-04
2.558659931834341480e-03,2.098384788447249516e-02,7.445936976478060958e-03,1.615299334350304874e-04,4.595186662495804762e-04,6.569914621345763735e-04,5.971783325968144443e-03,2.657206847259090468e-02,5.539452025818871611e-04,7.180112873443273216e-04
3.446336757760245541e-03,5.655303169563646176e-02,1.762247513204810712e-02,2.162317207848222871e-04,4.931471954657424281e-04,7.444073810562908946e-04,9.003001986757661751e-03,2.089777201868663059e-02,5.950284964314029798e-04,1.030120431047433895e-03
5.900278551004449652e-03,8.943254442927063563e-02,2.586373444460910928e-02,2.798390208974835475e-04,5.341984679290283670e-04,8.164296697375395418e-04,2.958243721162560815e-03,4.190119931329064178e-03,6.716180663649984773e-04,2.375730613159157505e-03
6.271609283771001526e-03,6.421578253801231428e-02,2.593647611950943010e-02,3.489377631363902994e-04,6.625550316700954756e-04,8.705833739171721505e-04,2.229920682765274692e-02,1.968438967017591829e-02,7.775587087071554864e-04,4.406611919167548012e-03
4.901617785590182790e-03,7.304843385063182828e-03,1.905967469208427745e-02,4.201073871852528479e-04,7.981061651094120690e-04,9.048780842446275691e-04,4.537288399568594616e-02,3.759432634493133085e-02,9.060247902068789463e-04,5.951772416049205643e-03
1.435906538490011077e-03,5.034460461874961518e-02,1.050017611564025254e-02,4.897478451084392960e-04,7.916582956423955358e-04,9.178574811462386325e-04,4.804223146293241931e-02,4.057038684535023421e-02,1.049707144004185513e-03,6.766464598266624421e-03
1.125319361387917046e-03,6.571786947966046233e-02,4.493628943781937529e-03,5.541802110448043909e-04,7.140545173847271743e-04,9.086311979037879974e-04,2.796863504067518408e-02,3.125993127000296912e-02,1.201002857396862118e-03,7.128077804265343584e-03
1.019242646165493139e-03,3.061969923655811013e-04,2.180421798384038663e-03,6.103024619427516954e-04,8.631308806918383970e-04,8.768930917688995625e-04,6.441243244298295277e-03,1.735767082179655307e-02,1.352215437082821253e-03,6.878164710219718952e-03
5.395638418534640449e-03,1.102625110833026084e-01,1.949232542657567714e-03,6.556683364098783457e-04,1.137915947421682533e-03,8.229333859686797361e-04,4.514931075111783959e-02,3.544637110412649297e-03,1.495758334230480342e-03,6.172458953529214379e-03
5.186674125502803955e-03,1.702960349840920706e-01,4.808472783921623195e-03,6.873516665024071923e-04,8.595954637942770709e-04,7.476344001210667636e-04,7.928944879682624236e-02,8.728615685884866596e-03,1.624351153527527503e-03,5.692533825141964793e-03
3.591813906578392775e-04,1.469671817416845772e-01,1.635958089593092524e-02,7.019908898356884159e-04,5.104262126603935622e-05,6.524330498570770232e-04,9.831725426327278528e-02,1.773880116612917834e-02,1.731204731844433655e-03,5.030216755572471457e-03
4.000537407039969628e-03,1.021924490537431951e-01,3.621188984555882839e-02,6.984320543302442123e-04,4.801625741975114933e-04,5.392721625983930116e-04,9.026256303560271921e-02,2.011599334878100623e-02,1.810193351917848466e-03,2.676073193181206442e-03
1.150666843777462239e-03,7.632667379858104617e-02,5.129352730616684036e-02,6.778879258809563865e-04,1.404341662515806895e-04,4.105787511417448711e-04,5.310640544375547223e-02,1.321916810659673654e-02,1.856009611886021496e-03,1.557168779342676165e-03
4.087563740904677674e-03,3.728836408742917247e-02,4.934609995690797390e-02,6.384471853526484802e-04,6.097755936185294493e-04,2.692258772677942136e-04,5.748948795572922030e-03,4.946221612254610503e-04,1.864297055034476978e-03,6.176828944020519400e-03
6.394781782633478413e-03,2.341113056551908170e-02,3.417127257246056760e-02,5.747016725048617472e-04,6.226853869708800279e-05,1.183992399404129863e-04,2.398355468977661498e-02,1.281750638795115319e-02,1.831757667711048608e-03,1.025571347674375869e-02
6.505664974618441919e-03,4.602411408129488540e-02,1.925964899020903703e-02,4.895315371722445920e-04,8.804531341725790883e-04,3.853632545104972076e-05,2.531894207177073919e-02,1.584038672986521137e-02,1.756232410583344816e-03,1.342961287563215755e-02
7.661409839222084288e-03,2.306918484187736595e-03,1.037477529555035603e-02,3.952341513767059335e-04,6.413469856902327725e-04,1.979941134987417927e-04,8.405520033815810921e-03,8.824591631298301514e-03,1.636752953924815006e-03,1.411409342982212350e-02
9.940991426435490802e-03,6.983215918949259304e-02,2.340069163217316141e-03,2.883664679600814076e-04,8.765743090157320297e-05,3.561392025435689392e-04,1.468079670696539364e-02,1.079393093226099255e-03,1.473563293257046034e-03,1.095769555730609010e-02
1.123090441188779286e-02,9.414301642702208039e-02,8.356557988690213601e-03,1.466159799226208625e-04,1.973104469794107255e-04,5.092535281226404391e-04,3.579983981540128812e-02,5.109886780700471400e-03,1.268110970975133657e-03,5.770779587358829295e-03
1.043020026747221336e-02,6.884435925293769243e-02,1.634231353590352362e-02,1.765572754100624693e-05,2.250646340562172240e-04,6.540839093921186481e-04,4.129175082029081650e-02,1.685682855447850556e-03,1.023008470774042526e-03,2.186585604194400678e-03
7.770278535941303744e-03,1.418950569171331666e-02,1.626409037332236102e-02,1.494691322581521043e-04,5.008663870944164015e-04,7.873543984911813339e-04,1.936820392603619961e-02,1.553567006537185779e-03,7.419659292640277352e-04,1.593457144793679163e-03
4.125317737008940729e-03,5.708345451320635811e-02,1.175046652689240058e-02,2.655523379421834140e-04,5.385985597138340328e-04,9.052868986049908114e-04,2.046241642890370138e-02,2.784741868865593054e-03,4.296969488460118799e-04,2.382933777822216631e-03
8.615825734322886918e-04,1.179418260709797495e-01,8.671923060709399098e-03,4.746301111005702322e-04,6.297687164817463877e-04,1.004893525706374675e-03,5.260925528715124783e-02,1.239006003715428794e-02,9.180000304993059679e-05,2.803235114372668296e-03
1.114585442493384133e-03,1.215806361900774180e-01,5.410273223249097325e-03,7.340386753161582539e-04,8.201473591463029952e-04,1.085277900530542223e-03,6.236525924986711239e-02,1.908315352104845292e-02,2.653814754216926000e-04,2.727351295511022591e-03
2.140447059853890256e-03,5.453811216927088867e-02,1.600045135668842072e-03,7.973886249157226876e-04,9.702845508361292821e-04,1.145127289799629730e-03,5.592892120334170408e-02,1.922784435432092071e-02,6.349167683823249073e-04,2.691684060040593768e-03
2.293126599363049141e-03,3.243940996166100321e-02,7.843170015735870942e-03,7.293477771935919082e-04,1.052593844925215835e-03,1.180055384318985873e-03,4.411100490643228567e-02,1.598151599238685147e-02,1.009459356922026317e-03,2.745125259470387186e-03
1.713656908596695311e-04,7.500229669126280696e-02,5.409872742740347989e-03,1.089698898388157325e-03,1.128115878858218252e-03,1.188040701122908011e-03,2.817398986887744913e-02,1.324655507072823590e-02,1.381427944296960246e-03,2.658466403851350753e-03
4.699317574065723507e-03,5.582050079356156574e-02,5.958765315461573078e-03,1.998331880982695541e-03,1.207211744589585870e-03,1.175356203454750023e-03,7.306165999980146313e-03,1.070158078419015425e-02,1.743192536295236480e-03,2.422495211949461658e-03
9.478727934753508264e-03,3.310890712262731794e-03,1.953834141020830556e-02,2.582545465727056639e-03,1.258760075954656020e-03,1.145180868905149854e-03,7.423890616712247939e-03,4.860210289541689460e-03,2.087261012945631957e-03,2.145772639295404592e-03
1.054120414937520858e-02,7.905186309864715988e-02,2.956930083293479034e-02,2.201500936623052018e-03,1.275570666648159377e-03,1.084667081929091646e-03,1.293694232167995513e-04,5.150929039871384243e-03,2.406461647268962750e-03,1.831012604769640967e-03
7.769215519055986882e-03,1.477001621030739897e-01,3.332670147361870699e-02,1.491350187424176016e-03,1.270926023862377482e-03,9.889089494738445302e-04,2.853055809351246960e-02,1.443630625194912594e-02,2.694117152803164866e-03,1.459569865438148199e-03
4.569485414029576115e-03,1.754969996641456420e-01,2.950591000755826282e-02,1.320225045638830563e-03,1.247917488767112584e-03,8.891283657722815923e-04,5.630261728852696546e-02,1.806089471956203243e-02,2.944206075576756218e-03,1.078897770687274301e-03
3.906173726865328974e-03,1.452336658783673073e-01,1.984318968811535355e-02,1.563898122158116069e-03,1.200702090982492263e-03,8.021223286887911932e-04,6.610777205342764640e-02,1.758336012974553303e-02,3.151507682559533206e-03,6.779794282555956942e-04
5.264644255859739393e-03,8.185572640670256417e-02,1.043632436837372765e-02,1.658590010261209351e-03,1.128912115394504426e-03,6.686033778323264426e-04,5.775366924380814088e-02,1.620206907330721049e-02,3.311726924993978194e-03,1.802823750015953479e-04
5.548264249644543553e-03,2.751278636421366358e-02,8.047568946730658881e-03,1.536077762817791847e-03,1.037210388179057906e-03,4.593795395279003774e-04,3.569875791271027998e-02,1.026151567414811810e-02,3.421596559952600185e-03,3.143076523954228384e-04
2.578007399139159873e-03,4.049031638023194851e-03,1.453269247556843863e-02,1.439727109459405753e-03,9.283938721575241658e-04,3.097426416394524025e-04,1.595717074395754283e-03,5.255953444492256210e-03,3.478954085824674438e-03,5.950840294140116553e-04
2.723872418064671001e-03,1.204187179782862174e-02,2.431374835924876229e-02,1.409786648039906788e-03,8.034595996803927656e-04,2.961270275615238970e-04,3.585906683890022206e-02,2.333933474902042185e-02,3.482791773119779839e-03,8.527683375204992387e-04
7.432342566848318052e-03,4.061546380533839068e-02,2.754413278966008974e-02,1.335787196288419501e-03,6.649631064631933734e-04,1.401294358212186182e-04,5.837650003387778730e-02,2.783995022546198461e-02,3.433278734697724210e-03,1.522716011859247005e-03
8.542165590435135680e-03,6.173830900742276889e-02,1.849769998872426505e-02,1.199972959899738793e-03,5.169295226073728064e-04,3.293093630899298274e-04,5.107251304022483035e-02,1.168840374085879617e-02,3.331754662869880219e-03,2.143765556490901270e-03
3.861189206377531932e-03,3.976747151164392036e-02,1.492317911447857675e-03,1.057041021411551669e-03,3.627331285041600697e-04,4.773278771864251056e-04,1.199678987389875100e-02,1.709790454161782408e-02,3.180695548443558240e-03,1.412925033825554108e-03
6.125999559684956394e-03,3.297727488048949468e-02,1.394348695389987895e-02,9.198261511538346731e-04,2.050036162433347515e-04,3.856488725111022588e-04,4.722356061214758732e-02,4.652670110410074555e-02,2.983652372100054160e-03,6.124181228301399296e-04
1.638525682295437561e-02,1.210585653040799209e-01,2.334147220894444708e-02,7.672365940467832518e-04,4.744676844296001356e-05,1.515959184435970069e-03,1.022687295215211623e-01,6.656150182040689034e-02,2.745164405101256384e-03,1.717673321876085537e-03
2.036923329110440148e-02,1.757783730315619075e-01,2.942697991448523995e-02,5.977712944826116693e-04,1.051907715014584633e-04,1.408235072491220144e-03,1.253070290484912808e-01,6.806461438217140114e-02,2.470649358752208605e-03,4.231754720273670357e-04
1.622558652592253486e-02,1.745655127584248845e-01,3.461995498005295685e-02,4.263468607524950778e-04,2.501161938929435729e-04,6.478353679360441880e-05,1.058221167197335860e-01,5.079223798459588796e-02,2.166273166142054785e-03,1.787065247906905949e-03
8.122302843381720011e-03,1.328520646209528366e-01,3.644603269549845370e-02,2.590792870347204862e-04,3.867217939725535285e-04,1.004467145415007933e-03,6.193546288507202624e-02,3.031657022137349694e-02,1.838802652731330849e-03,2.693098168938444503e-03
1.132203593992267511e-03,8.487595566581249140e-02,3.216737196717876779e-02,9.433701344351870651e-05,5.109827640834823520e-04,1.051454834239114048e-03,2.436127552698614390e-02,2.400593234326516695e-02,1.495444743397948304e-03,2.231639085798487344e-03
3.373319177284124504e-03,5.073123994729199226e-02,2.355636106761098761e-02,6.556319757058975311e-05,6.150704415882745236e-04,7.616162737758006484e-04,8.253309662293470406e-03,3.218963973923274352e-02,1.143676153737400352e-03,1.701826083233418455e-03
6.645294347831258094e-03,2.526230653483902897e-02,1.439617217595341378e-02,2.148295983773386582e-04,6.992680341022733739e-04,7.660330535005975636e-04,4.636648255339673175e-03,4.172465108573459452e-02,7.910677161611113237e-04,1.563264611429196742e-03
8.811415920923586914e-03,4.643239439594906877e-03,6.511394490183581435e-03,3.497957568558678759e-04,7.732841827505395867e-04,8.903120000762750150e-04,7.651448750637104487e-04,4.231419189175108370e-02,4.451075924675092221e-04,1.376072584074073497e-03
8.588914130492612820e-03,2.160807469191755592e-03,1.463480791785409232e-04,4.688772570190483818e-04,8.311171082789691562e-04,8.532389115157967396e-04,8.051921511213824822e-03,3.263231604449996770e-02,1.130276223651841558e-04,9.411641273916488554e-04
6.026586000885306160e-03,1.867808922897442464e-02,4.543025585635022262e-03,5.700480530619498817e-04,8.477266370008669115e-04,7.290248291451794814e-04,8.721502977919123184e-03,1.784658236064840670e-02,1.983630472867961266e-04,4.685021903871994220e-04
2.949449704748273015e-03,2.411594874427748850e-02,8.035389159924997277e-03,6.509160182262469820e-04,8.326637490613474340e-04,6.513766096665005037e-04,5.482832599038689296e-03,5.293024136798756690e-03,4.828331117070857508e-04,6.738672862372866172e-05
1.088208527553715353e-03,6.321363887853200664e-03,1.155375359795640308e-02,7.099765076750592929e-04,8.386308491992768011e-04,5.901911868809086442e-04,1.353536707035887104e-02,3.039143936176896647e-03,7.348693926094008013e-04,3.434034837522320573e-04
1.406741151259630019e-03,5.759767932323687362e-02,1.443751985103430661e-02,7.466464078934605510e-04,8.472035524850358426e-04,4.859634471653284291e-04,3.749884707109522874e-02,1.196798796851271905e-02,9.497989977816688814e-04,7.997180797738004561e-04
3.793398949212084710e-03,9.609051779125914183e-02,1.276673230421568155e-02,7.607135735156883832e-04,7.474089341971124328e-04,3.559692854654391897e-04,5.987457876088559533e-02,2.304258522770830792e-02,1.123890554889877538e-03,1.247362838237999535e-03
6.426056607174089955e-03,1.121626737800737184e-01,4.668369227411190911e-03,7.523312207828005338e-04,5.791351044572222136e-04,2.325926331158132733e-04,6.482367251042565892e-02,3.092837500839627773e-02,1.254432241861227863e-03,1.652355799256266956e-03
7.518748006866517349e-03,1.256814432967210959e-01,3.789141380384978934e-03,7.222734314922718731e-04,5.880366386849638629e-04,1.127431635830153530e-04,6.199579347478953451e-02,3.363163835617334618e-02,1.339784910596264955e-03,2.023584407595364724e-03
7.666063512516090202e-03,1.495599919431994662e-01,4.037023726973647773e-03,6.719194974329472519e-04,7.109012971963124842e-04,1.400274746120905101e-05,6.881397355649436498e-02,3.576105577358063697e-02,1.379409212025966940e-03,2.361859984705121703e-03
8.347297250053158785e-03,1.607531342609018199e-01,3.445133603303010810e-03,6.030940951359666869e-04,3.862168145731915492e-04,1.414932306051881793e-04,8.040947048015088805e-02,3.957881655941890287e-02,1.373866263652866095e-03,2.649108494436697592e-03
9.204545050649451388e-03,1.257471874900326358e-01,9.301640882808952585e-03,5.180151119906338140e-04,5.112050420891184679e-04,2.600060557345232424e-04,8.037554548819653144e-02,4.378102358889358892e-02,1.324792040266803330e-03,2.872434698824460637e-03
8.710221716893590260e-03,5.309283269140977618e-02,7.694317698707912705e-03,4.192941997152459287e-04,1.106010253619797842e-03,3.677208633634247888e-04,7.123521002988783546e-02,4.925098792708322570e-02,1.234846299039670577e-03,3.029686210458531863e-03
6.250137323377818674e-03,8.377905530091423608e-03,2.764290438384116744e-03,3.098733203495214385e-04,7.456140596181559188e-04,4.648826217534270219e-04,6.789930902076894703e-02,5.454422587503524045e-02,1.107637456548914200e-03,3.118518846453022502e-03
2.390015995424381486e-03,3.230772599366760894e-02,1.597329605748447259e-03,1.929237695001365799e-04,6.991053378931163414e-05,5.484633617574203625e-04,6.859518811006604100e-02,5.141351817598565493e-02,9.476254030241241730e-04,3.134071096199863606e-03
1.710358975194282245e-03,4.267937986132325917e-02,5.812277987863699938e-03,7.176514209558853879e-05,3.061782173523075880e-05,6.149242089792304961e-04,5.908377732826543272e-02,3.689497437600577218e-02,7.600047548631533182e-04,3.074194924352861760e-03
4.411297569366297820e-03,6.255740177782760647e-02,1.195088038784824017e-02,5.020475117987271502e-05,3.084120980201877113e-04,6.628302271608540325e-04,4.127411236875173223e-02,2.234957476675754687e-02,5.505714981881939564e-04,2.940250474633034853e-03
4.275401632394006807e-03,6.871369245200580067e-02,1.612188652619024262e-02,1.695931677490896848e-04,4.701498955822468184e-04,6.916557332782056295e-04,3.177779115521196102e-02,1.859347136751593466e-02,3.255763535081041384e-04,2.734694969031069116e-03
1.856109291540929303e-03,2.756424526467151498e-02,1.595126602234326826e-02,2.831020465117247299e-04,4.033364087384154169e-04,7.005956210365251943e-04,3.266276290908883689e-02,1.918801664564269080e-02,9.156848589481186829e-05,2.461587506201876746e-03
1.687502241658868710e-04,4.096202353228781123e-02,1.073016948940109724e-02,3.876095860584970014e-04,4.584852143449031671e-04,6.891430299758246909e-04,2.832531957603260514e-02,1.000014513351625035e-02,1.447666099927211593e-04,2.127630518954345788e-03
1.656210510561535298e-03,7.073753733458013060e-02,2.083389617161675225e-03,4.802439131671143425e-04,6.352870589583498170e-04,6.576675359067883642e-04,1.472865181501307671e-02,9.598280973239680519e-03,3.767711094508645786e-04,1.739755823852261749e-03
4.725504121542601667e-03,2.643717549584610402e-02,6.307456161542032702e-03,5.584527810185103622e-04,5.830353869090330009e-04,6.071477504643914150e-04,8.085812478592070002e-03,2.580919162612884191e-02,5.979767856417632973e-04,1.304308908071886899e-03
5.167915312654309049e-03,5.343591432734928065e-02,1.080708743268495378e-02,6.200666946418801045e-04,3.470320564635725265e-04,5.388750278174496986e-04,1.667497255341307549e-02,2.854361864949190794e-02,8.022609893502916393e-04,8.322192528534241070e-04
1.302522470903528162e-03,1.062935438068075833e-01,9.858455472509236941e-03,6.633512523640164695e-04,5.312182418680226484e-04,4.545350937930776316e-04,2.530289513389935921e-02,2.106521687846328594e-02,9.839929763873795244e-04,3.394056744844781777e-04
4.197962122337115659e-03,1.149217637234084821e-01,4.381787351759427844e-03,6.870478476712093586e-04,1.273958056526137018e-03,3.562912336733160563e-04,1.985839280180158248e-02,1.123144083745120439e-02,1.138167138551063459e-03,1.652170237392973666e-04
7.902725063247083986e-03,1.035903228510823282e-01,3.208936096017333747e-03,6.904030352912864099e-04,1.706344535385420072e-03,2.466754374659407161e-04,8.609201789592150697e-03,2.015402702498654205e-03,1.260520035027312431e-03,6.812877271032714019e-04
8.900824181789574602e-03,8.405732500460340317e-02,1.033097791633296424e-02,6.731857158756850926e-04,1.176559369381710530e-03,1.284632219965143446e-04,1.930574908349390936e-03,5.154614065005797691e-03,1.347628534118944840e-03,1.192124313313647948e-03
8.201742923142582922e-03,3.938619644898375127e-02,1.507731253077462807e-02,6.356911642472232128e-04,2.838054154630487678e-04,4.627102540974519483e-06,1.202811262580159510e-02,5.416509086333280709e-03,1.396986849743889203e-03,1.661811692876596826e-03
7.298679681665471222e-03,3.561407194762118006e-02,1.670997953090920182e-02,5.787319023839243917e-04,7.768650937181089940e-05,1.217099694859641204e-04,4.702969412407777272e-02,2.598670586530541990e-03,1.407060781355376575e-03,2.089185929807520822e-03
7.835523837223240876e-03,1.019662457311369952e-01,1.625403529084962218e-02,5.036159587003866643e-04,7.825881710546625091e-05,2.473639968656678222e-04,8.688374666728686246e-02,9.773410473516900773e-03,1.377318026816085148e-03,2.516247289184322857e-03
1.029648083522442109e-02,1.076255754341269022e-01,1.579286277431412797e-02,4.121130842199089632e-04,1.508027184944837006e-04,3.691830610544888629e-04,1.011279656738163085e-01,6.671357874226940994e-03,1.308234021535016741e-03,2.913889725351709922e-03
1.226270914975045000e-02,5.115712606486709502e-02,1.516131147526246503e-02,3.064096651483558275e-04,1.656991234919358074e-04,4.841208253315944557e-04,8.504241177731881873e-02,2.275216013209238868e-03,1.201273349636422126e-03,3.161646679149404844e-03
1.026062770827011229e-02,8.918319500396865510e-03,1.056451990895501160e-02,1.890534227490180098e-04,5.565940620071451773e-04,5.893056016975854565e-04,6.123414542975147423e-02,4.878693747835954539e-03,1.058847359763814572e-03,3.291926741364484266e-03
4.374053764545550275e-03,1.965376928409208468e-02,1.780292323745255251e-05,6.288933592268517673e-05,4.176140380266384956e-04,6.821133427554067728e-04,4.784712546423260104e-02,1.124180458399336949e-03,8.842491852663933016e-04,3.543166316088222807e-03
1.277642201447255418e-03,1.098256398058641663e-02,1.141851723331892970e-02,6.901148998945921115e-05,2.650250255754335398e-04,7.602349326616834923e-04,4.401113596759963914e-02,7.254620304054912143e-03,6.815679024918425448e-04,3.844043373549470115e-03
3.625868205057625367e-03,4.020976880989757252e-02,1.618054103982912925e-02,2.034282407128100542e-04,6.052118184582575781e-04,8.217313335753353466e-04,4.171992916502244297e-02,9.139588456202676903e-03,4.555840491442471373e-04,3.628351907171613582e-03
3.462868423763428450e-03,5.501613477354986431e-02,1.221437696237425569e-02,3.370704838944939426e-04,1.970179973894794389e-05,8.650788709101198733e-04,3.602542221831845498e-02,1.030922099772139076e-02,2.116491557836280553e-04,2.772695728587886571e-03
2.661981716879188720e-03,7.682527210645662130e-02,3.387133758794526849e-03,4.666600174724192711e-04,8.411379416264167528e-04,8.892058746330106650e-04,2.525846254799629306e-02,1.198612979642644724e-02,4.444769236780161042e-05,2.151963065985232695e-03
2.218679985294641759e-03,9.838767359065950235e-02,4.797905857155814087e-03,5.890118690811602976e-04,1.129616110265379680e-03,8.935181556553739449e-04,1.287363239483720403e-02,1.133941464648356191e-02,3.066229573107801735e-04,2.409489005539157142e-03
3.083351403148082426e-03,6.721546939660280606e-02,7.954071044127366749e-03,7.011122958978553091e-04,9.715576263611198264e-04,8.779116456105436408e-04,7.958376539902153879e-03,9.532985244296030350e-03,5.686479006078754179e-04,2.905986182360380862e-03
4.831074847131210104e-03,3.323837527550910220e-02,5.917447135077862248e-03,8.001931429666636142e-04,9.174935047847152404e-04,8.427727094312060423e-04,1.477774064938104821e-02,9.712387746235172023e-03,8.243003516418959727e-04,2.775867692784787875e-03
4.432248835148542079e-03,1.357839578189311280e-01,4.465261628905045979e-03,8.838011416084639183e-04,1.032738029749164128e-03,7.889667035533967426e-04,2.391570234608933476e-02,8.703000036914921439e-03,1.067515324141801291e-03,2.164380183310238986e-03
8.610995530342990638e-04,1.707511755868112435e-01,8.731611440748077158e-03,9.498577710399475158e-04,1.078905986493365089e-03,7.178147697116515078e-04,2.384488288499055780e-02,2.501493702949044492e-03,1.292530868488872249e-03,1.650630122500599661e-03
1.122824413925355060e-03,1.484097007777470667e-01,1.398498019020394563e-02,9.967073164592660153e-04,1.016809280088814584e-03,6.310592475255639598e-04,1.944392630177019590e-02,3.436337595901561848e-03,1.494025688746649727e-03,1.284036333572232021e-03
2.869489261969275073e-03,1.132804319079149663e-01,9.576630543039855309e-03,1.023157694394420886e-03,9.570676259084173569e-04,5.308187786237049659e-04,2.627153972534283094e-02,1.489537685393472642e-03,1.667245276983324656e-03,8.185492062306086664e-04
9.087918619853717350e-03,6.851048925749181340e-02,5.845777079351821906e-03,1.028515182028999107e-03,9.222678552449633345e-04,4.195343828140936826e-04,4.612562373363056356e-02,4.826261611495533121e-03,1.808113617263111365e-03,2.886739089798517617e-04
9.863745262079844089e-03,5.024771566677789687e-03,2.099284181471472097e-02,1.012600051843316100e-03,8.614880814716502702e-04,2.999078122276993509e-04,6.284804178298268595e-02,6.807434317005759544e-03,1.913327879881947290e-03,1.494834166003319821e-04
4.238287150616791045e-03,3.626102690417360580e-02,2.722121112785171743e-02,9.757379274276986158e-04,7.615409252269177620e-04,1.748336920446474430e-04,6.475905328818298834e-02,5.473230925780457438e-03,1.980433953642681075e-03,5.964327681254051172e-04
1.282686341198702000e-03,3.386376044503235268e-03,2.788251383121556279e-02,9.187529766295414544e-04,6.507422375400602650e-04,4.732719334184503236e-05,5.615836541402460802e-02,8.268453596069995706e-03,2.007881139495311558e-03,1.166110036870299065e-03
2.142293513537726207e-03,8.074941288189904642e-02,2.806270399282581249e-02,8.429741285026220868e-04,5.476172740109769115e-04,7.955092120757184938e-05,4.336619608547125776e-02,1.396137425579235466e-02,1.995054840926182866e-03,1.575997271669794071e-03
