8.854446124634703791e-03,1.218768976355617990e-02,1.179569791413817223e-02,5.749391205034448150e-03,1.956969310688321667e-03,1.666985601412651402e-03,3.473489788203368983e-02,7.243332221862856801e-02,8.095696176835909079e-04,1.084952823545262540e-01
9.753457308871470166e-03,1.313656333036294921e-02,9.650497282672736848e-03,6.111532202909773434e-03,1.645588575289193148e-03,1.538959860450589369e-03,2.811738011535526091e-02,7.855978906959913688e-02,8.715743092808959924e-04,1.026215310062133373e-01
1.170732845244242849e-02,1.390518790517286316e-02,1.654439630049546819e-02,6.407213440468021576e-03,1.101113013149638414e-03,1.396080564615261727e-03,2.322665204770016714e-02,7.083156694523114194e-02,9.473344935432295938e-04,9.931923144613893917e-02
1.678161624263859591e-02,1.447636912292791719e-02,3.753892669683504824e-02,6.628997094637451709e-03,1.151014381612899167e-03,1.239072645891161435e-03,2.106909728574225468e-02,6.211866815738213005e-02,1.035130980799747833e-03,1.016083342262080191e-01
2.229814457509304848e-02,1.483707310134025313e-02,6.139864228486847236e-02,6.770754052104749690e-03,1.426655957520281794e-03,1.068714062741052493e-03,1.943371871651626906e-02,6.033141206620059455e-02,1.132792614747123302e-03,9.389005127518389171e-02
2.199801771286163249e-02,1.497872194346955635e-02,7.144214916633495616e-02,6.827795717912806678e-03,1.430829005961187488e-03,8.858141294906371390e-04,1.546890567405784407e-02,6.123305878314388301e-02,1.237744842652102432e-03,7.121943357548500553e-02
1.415279535126081310e-02,1.489737657072769117e-02,6.438018207382190106e-02,6.796968384405002207e-03,1.656868030141358736e-03,6.911944886695858175e-04,9.925535760894860227e-03,5.608525083519931564e-02,1.347063886096697659e-03,4.904586557032317856e-02
4.199879750079554136e-03,1.459380920581983092e-02,4.987609469594835726e-02,6.676688640677230085e-03,2.469611063577423302e-03,4.856498923041756960e-04,7.245420383878271864e-03,4.485009202678681695e-02,1.457539449639308309e-03,4.055265790189234443e-02
2.252704482946656962e-03,1.407346767740785300e-02,3.585112218583732385e-02,6.466945960927518965e-03,3.037933659770663056e-03,2.699021563713323649e-04,9.730745751646107181e-03,3.721560259994498299e-02,1.565752974971867028e-03,4.122325534195570018e-02
5.089508469177201830e-03,1.334631612437799444e-02,2.328348793171375331e-02,6.169313956900402719e-03,2.611580191541650661e-03,4.459859188196608923e-05,1.477329908315432212e-02,3.973884506461722310e-02,1.668160389267767454e-03,4.280412445516303122e-02
7.069143618705669985e-03,1.242654527988201578e-02,1.244211541553359203e-02,5.786913216520957713e-03,1.809713338303493412e-03,1.896701144678394142e-04,1.921538291075384694e-02,4.717991315246401057e-02,1.761158613437584014e-03,4.653874257778745777e-02
8.872548696248859848e-03,1.133219215784146520e-02,5.478906939835628993e-03,5.324236188380291820e-03,1.555566418448493500e-03,4.324406819315626776e-04,2.139000414099875846e-02,4.942926835215689929e-02,1.841153032904339296e-03,5.355130237296597956e-02
8.962472398738329654e-03,1.008470053476049656e-02,2.631712475675297355e-03,4.786957101129343285e-03,1.737706627339941599e-03,6.834840681930829526e-04,1.865683522035832889e-02,4.362998071341833706e-02,1.904664575406249481e-03,5.677530215325942570e-02
7.163528154780119880e-03,8.708362177126732426e-03,1.172910332962680095e-03,4.181927590453719118e-03,1.770861525351001943e-03,9.427142824245878265e-04,9.322880152104808318e-03,3.494195788131443381e-02,1.948434508332222643e-03,5.045112635884668045e-02
5.958288814678808741e-03,7.229602224755690525e-03,1.092027614468155799e-03,3.517109519368240723e-03,1.584670384732040542e-03,1.210003839032421091e-03,3.315016638258478244e-03,2.563518260485684111e-02,1.969437257780210036e-03,3.493607932575914371e-02
7.386322734280349918e-03,5.676275140495385015e-03,4.027424053704862540e-03,2.801021316512873963e-03,1.436341842653964017e-03,1.485407141907171564e-03,1.393788568007865540e-02,1.013981218825947550e-02,1.964882525314464064e-03,9.163566269302781189e-03
1.021501101858244241e-02,4.077099009975327683e-03,6.876228273738915070e-03,2.042231078040464970e-03,1.370456171607699770e-03,1.769580335845503082e-03,2.102344106532963441e-02,1.453159205346082547e-02,1.932394924722988542e-03,2.721754198703306080e-02
1.198633748826785639e-02,2.460926532125024598e-03,9.671873847032785160e-03,1.249830601031333161e-03,1.272867040467503706e-03,2.063320838764188744e-03,2.694300502608068526e-02,3.995199920448905262e-02,1.870197529765880344e-03,6.329969053777935450e-02
1.338123902448986116e-02,8.556262114155726130e-04,1.272827888650064979e-02,4.337928574731669167e-04,1.126476072453142397e-03,2.366649713326122745e-03,3.443480867968714415e-02,5.545999820700675542e-02,1.776888519433626659e-03,8.397170931417970163e-02
1.770982034200693778e-02,7.127310793873350070e-04,1.601465046882834947e-02,3.967927175618836421e-04,9.896314975955488973e-04,2.679747545533310918e-03,4.461461682368059178e-02,6.171650701884164730e-02,1.651167392023225339e-03,8.888994209101683253e-02
2.429681712505113791e-02,2.219820305605406385e-03,1.936827915835160480e-02,1.235296918398569961e-03,8.749043319207176067e-04,3.004900794343217524e-03,5.671247366224654168e-02,6.789920881749322845e-02,1.492394642348361536e-03,9.107533372538005600e-02
2.581991099800878819e-02,3.643557482549028038e-03,2.276333567838615193e-02,2.074576972919559871e-03,7.590026142528717061e-04,3.344502632367045945e-03,6.894133611109738713e-02,7.895230411154723071e-02,1.301244808859016236e-03,9.774284229109589384e-02
1.746921072797082836e-02,4.966318298652724027e-03,2.623302145428212453e-02,2.904253494021075653e-03,6.417901705969976216e-04,3.696780457529260343e-03,8.027377966273291365e-02,9.241199027871672966e-02,1.078544966529830203e-03,1.061635102289874566e-01
6.429945869128420553e-03,6.175841814757315924e-03,2.979787769141307996e-02,3.717662104998491288e-03,5.391297634211570820e-04,4.059879247007759477e-03,9.084708022853209275e-02,1.055594803505298662e-01,8.238294390270807380e-04,1.154788236268389501e-01
4.640543573142113208e-03,7.262178977721486448e-03,3.346603907363152747e-02,4.518455183943627905e-03,4.501064741170101137e-04,4.441008664612562662e-03,1.003064454212022477e-01,1.190710035245399617e-01,5.377262143593218319e-04,1.278861482129047544e-01
1.299643242814698882e-02,8.217062820883384508e-03,3.715024667052844315e-02,5.306450909793960537e-03,3.663921710135459330e-04,4.847870040808168260e-03,1.074458721809709583e-01,1.331512458965020684e-01,2.250151184555110383e-04,1.401014455509205225e-01
2.104795063606693106e-02,9.041469109963739398e-03,4.074064767641660118e-02,6.063592626078161997e-03,2.983405681270256417e-04,5.268801556411107333e-03,1.124269576221850336e-01,1.448715010154353888e-01,1.105111724338581395e-04,1.453175320680792637e-01
2.231693688116018204e-02,9.747870764701398183e-03,4.439685303985075465e-02,6.784124699514687377e-03,2.572234354595987729e-04,5.690469833083727953e-03,1.177879466196217750e-01,1.522076277874873929e-01,4.728627941643637200e-04,1.423839809861902062e-01
2.188488967635050450e-02,1.034449381501975108e-02,4.837018188501050059e-02,7.505571651556862227e-03,2.195089089231697338e-04,6.140634622165608812e-03,1.260720596983590236e-01,1.585758403590817600e-01,8.632300653179941644e-04,1.373950135661511918e-01
2.729034152272901553e-02,1.083005633708475704e-02,5.232687153634511118e-02,8.245187307134650354e-03,1.632322483214238061e-04,6.651384642533317119e-03,1.370308887420307598e-01,1.689338337345128171e-01,1.265344421006945079e-03,1.386202124691415793e-01
3.765471896530357687e-02,1.122683737344759569e-02,5.566686602065823442e-02,8.932097896643145102e-03,1.355520573952870831e-04,7.166755231996858704e-03,1.478592874428239223e-01,1.821650708757428794e-01,1.667990439973756050e-03,1.504922011456905073e-01
4.500374835746188962e-02,1.159198480951858720e-02,5.884292363697297273e-02,9.541098544727469322e-03,1.769984748326204767e-04,7.618746938082667126e-03,1.567290809619338587e-01,1.939601837959724073e-01,2.097073671458026412e-03,1.691775493153293008e-01
4.404779161924486652e-02,1.194604527012081002e-02,6.284138427902719037e-02,1.024080952881981262e-02,1.797925711497503406e-04,8.126545909337949333e-03,1.651855102434443279e-01,2.055093949125118558e-01,2.568600004311300325e-03,1.859579333492483444e-01
3.694173456444993509e-02,1.224547635797161756e-02,6.710199768030822298e-02,1.111128601616316949e-02,4.602954409094171681e-05,8.839323279784481666e-03,1.730664739580062839e-01,2.176449872771088201e-01,3.019180769920214169e-03,1.955896984608426481e-01
2.906543249855453315e-02,1.253267572429893860e-02,7.077883787407314442e-02,1.181895501383249322e-02,7.176166371109868737e-06,9.506218028830741920e-03,1.712176903790048332e-01,2.182212109925960875e-01,3.404848212756288964e-03,1.947034916823034145e-01
2.491318747696123076e-02,1.299630796683786359e-02,7.562686175320626480e-02,1.221228744967878081e-02,2.231998038823729020e-04,9.799990025409479819e-03,1.490578668309285038e-01,1.924085421941575114e-01,3.852257778435543446e-03,1.737099593242603379e-01
2.782538042926599800e-02,1.365233182470522964e-02,8.148532980433238759e-02,1.305021147939518233e-02,2.591491815120793691e-04,1.025156067257647352e-02,1.128675642441738652e-01,1.464094274758930003e-01,4.451775478230562619e-03,1.237523544927968955e-01
3.705560034278975595e-02,1.421278648249797195e-02,7.887266907302314944e-02,1.473633110289138994e-02,3.949657738597943846e-04,1.161071431311926083e-02,8.275350138816683909e-02,1.039256625129033329e-01,4.929046128620134803e-03,5.464841780270610072e-02
4.469565873825303431e-02,1.472583402523241353e-02,5.675380818980010206e-02,1.529226484035445428e-02,6.664211504466791437e-04,1.269895216173053121e-02,6.617761083272086231e-02,7.904514863223022214e-02,5.078159138847052403e-03,4.137107309602563315e-03
4.282827665969132780e-02,1.564342396057756546e-02,2.047444559952117660e-02,1.177156474152888863e-02,1.381825251089494836e-03,1.094713574005646596e-02,5.261310311823715752e-02,6.824042838035432323e-02,5.480141565496579256e-03,2.394464853600009741e-02
3.315065914338071601e-02,1.599426181525604243e-02,1.117961841828239711e-02,4.175691781398779487e-03,5.628997632651211967e-03,6.169561128031116580e-03,3.862435972411658314e-02,6.285295552059129431e-02,6.610042819139626789e-03,4.429039677149824994e-04
2.156969509318353365e-02,1.282010185349013315e-02,3.067605000506076068e-02,4.179001600652864148e-03,9.535118633790995793e-03,1.219968491755819969e-03,3.268561962258243608e-02,5.104229908951082861e-02,7.172041210364947343e-03,3.431526273955409767e-02
7.233154006214878758e-03,5.583446319709932729e-03,4.727292275744452571e-02,1.001891073141768229e-02,1.108750656752743521e-02,1.998337235908656962e-03,3.015148021509912735e-02,2.019596266231898918e-02,5.535623948488001614e-03,3.217053132211875055e-02
1.194758643567104747e-02,4.083677422894380071e-05,6.357083001254143495e-02,1.160219962973498865e-02,1.005809101286047648e-02,3.992308289431225482e-03,1.249371090054685919e-02,2.291326052982518846e-02,3.281937904371657819e-03,1.960696083047604524e-02
2.946335661610099965e-02,1.876222790424467504e-03,6.709222829120864429e-02,8.432995640373275661e-03,6.887861748877472517e-03,5.293242358832488982e-03,2.610331421232364724e-02,5.499683428872043089e-02,3.986467766520538497e-03,8.454376941262276013e-02
4.005179646762079687e-02,8.083525566771370546e-03,5.304117647082675496e-02,2.560872144592560642e-03,3.044118129171334390e-03,6.699252372121952334e-03,7.838183498274715888e-02,7.479641033434604458e-02,7.435078031024612913e-03,1.365801798959432323e-01
5.071070844201747835e-02,9.865337912517166061e-03,3.499847550848232680e-02,1.911121786165268519e-03,1.234640268187327987e-03,1.075305462563126008e-02,1.410848935196163667e-01,1.062078870646521178e-01,9.262072036828578048e-03,1.960295000456543091e-01
6.696452200476242511e-02,6.554790959893917399e-03,2.367366025551612824e-02,3.623116292797847176e-03,2.176928588090902648e-03,1.813121955502760771e-02,2.037400242201158618e-01,1.504344208775759695e-01,7.934201868002976887e-03,2.738914825268882747e-01
7.916248450795919378e-02,6.150217358729295758e-03,1.352427118860582630e-02,5.548744191986996165e-03,2.927758534921586549e-03,2.412037281166730385e-02,2.370984457502815224e-01,1.754762991735402955e-01,7.192383428042249324e-03,3.266842708466953793e-01
7.586800283518323196e-02,1.124671355817228116e-02,7.378752340951664612e-04,9.406251282372565456e-03,1.240820186614099725e-03,2.356733249564360588e-02,2.217066436003755359e-01,1.642112467889782490e-01,9.155427449423332587e-03,3.081134366979234041e-01
5.909917591851820279e-02,1.495428792972526739e-02,1.105659302238377537e-02,1.242138957410910544e-02,1.014832669068630594e-03,1.768399213741226467e-02,1.740788811165346894e-01,1.339087672128839723e-01,1.011252047506435228e-02,2.320527777901823518e-01
3.807762332378002157e-02,1.279853905698099745e-02,8.715185914596872488e-03,1.206965637457651022e-02,1.442298431725166311e-03,1.167405527849986642e-02,1.254073243256288717e-01,1.014355027346737631e-01,6.484675203104819929e-03,1.519242071226212243e-01
1.993460070689744706e-02,8.216938975249252902e-03,1.486657773895805681e-03,9.731766138644659322e-03,1.101031932038416209e-03,7.609775539894332412e-03,8.724042142773737185e-02,6.339731454679606304e-02,5.106005824931194367e-04,9.960793111791550747e-02
9.147977479401036074e-03,4.595100474765322941e-03,7.731432652273575318e-03,7.517803983407652171e-03,2.237366107606369309e-03,3.912947333681467826e-03,5.120288168550924529e-02,1.561528048575221150e-02,3.369574432313034076e-03,6.817275038453368685e-02
5.443018546146388519e-03,1.269289319087925187e-03,6.936853823939529221e-03,5.482435091505767286e-03,4.425955787143397852e-03,3.809821421766729742e-04,1.439418474942955745e-02,3.168969067417985730e-02,3.946596066195773821e-03,4.246877335409360993e-02
3.125065242460065267e-03,1.605429164679989277e-03,8.547599363957096574e-03,3.454974976131832028e-03,5.269786211691746859e-03,8.021548483056043823e-04,7.222899036816127910e-03,6.133487656311311514e-02,2.048826475887289764e-03,2.240817090612894427e-02
2.367869373474219743e-03,1.209422466398250677e-03,2.053714094490573586e-02,2.527520760531488161e-03,3.984886379496698806e-03,6.880174913323924921e-04,3.977992030143852331e-03,6.242762420049783462e-02,2.272505118829170646e-03,1.285154123980947888e-02
1.173004522083795180e-02,4.442397166899288499e-03,3.547046091992222400e-02,3.877471836152282785e-03,2.969748458727489073e-03,1.806346448423516542e-03,4.179075865171430482e-02,3.883387059946646902e-02,7.621469628398709444e-03,1.107707837467358791e-02
2.377757310321476289e-02,1.330165693043124792e-02,4.080161688865361486e-02,6.997680283731803723e-03,5.042321319667890031e-03,5.287870371916768937e-04,8.195030317602350345e-02,2.982214066443656525e-03,9.222558498806550376e-03,1.489492959574011469e-02
3.234843343518031822e-02,1.826024176536723484e-02,4.061384956637859728e-02,8.742879563942526633e-03,9.107963790883792654e-03,8.267273499212588264e-04,1.127992368886373969e-01,4.191481246877862277e-02,3.656577538985900013e-03,2.642594999181829482e-02
2.843682430658141941e-02,1.186475710354495394e-02,4.916240720165661326e-02,5.965086057661282519e-03,1.097040777676561336e-02,9.280347018761826066e-04,1.385027372941620982e-01,9.681501092945739295e-02,5.329816418825755568e-03,3.849664010496388344e-02
1.415756039447658640e-02,4.109763154033640661e-03,6.376932220933850815e-02,8.374356218679693178e-04,9.615779804466793174e-03,4.771657467800816642e-03,1.532129445679299706e-01,1.428022252712577433e-01,9.801833780204447302e-03,3.669381754416102537e-02
3.876382898056097634e-03,1.770267023095701067e-02,6.621891353338094088e-02,7.778613232825512536e-04,8.968782977207087614e-03,6.917125900912959348e-03,1.456127280229479459e-01,1.574234551109073843e-01,6.491607732885160478e-03,2.671475452972500025e-02
4.113333933988223834e-03,1.895739699995269145e-02,5.045459415504148504e-02,1.051143880968620145e-03,1.140504850381097654e-02,6.335769183729213910e-03,1.282524205525635008e-01,1.554611820493050356e-01,1.187570105923218752e-04,3.794602687044931755e-02
4.345955136067088456e-03,9.413890411042406120e-03,2.698552103645449410e-02,1.287022405335099765e-03,1.371495269363965687e-02,5.426043938228322476e-03,1.225910182437866258e-01,1.672347584939634368e-01,2.992085011108403924e-03,8.150979614793102401e-02
6.408636733608105360e-03,1.657732545816707672e-03,2.716198818103366698e-03,1.159866425498817105e-02,1.187121370211956413e-02,5.674445398603341489e-03,1.182560458018763749e-01,1.818242267987702498e-01,1.967019996979527119e-03,1.244757269985677095e-01
2.435367521621493656e-02,6.081612663697375833e-03,2.159528294322450928e-02,2.408108309707041733e-02,6.208505657494349343e-03,5.968036740302326733e-03,8.693093769265050619e-02,1.630427691883850894e-01,1.419942220174652374e-02,1.280899160355019051e-01
3.800093581623582850e-02,9.666478545460660196e-04,3.772649738873773417e-02,3.202534346648273217e-02,1.213543049324723429e-04,5.153952917637157072e-03,2.913636722198015630e-02,1.117254195267759626e-01,2.817669957310969114e-02,9.583462149321013424e-02
4.330015048555839463e-02,1.135912100651206152e-02,3.692170968019511251e-02,3.490716614812124780e-02,4.926246663999985648e-03,3.570254993794617915e-03,2.801685582172700612e-02,6.311023708470668570e-02,3.551496387634861529e-02,6.202378344713333630e-02
4.425679587789721481e-02,2.458346105936583953e-02,2.770172300368330121e-02,3.437531866249692036e-02,7.623660750920574838e-03,2.002877256610140384e-03,6.646221341705553509e-02,3.556711487350197598e-02,3.187414469718206217e-02,4.545271262461489381e-02
4.293298267992848999e-02,3.277342211537020294e-02,2.319273832878714775e-02,3.123579185644506651e-02,8.553133145420780542e-03,1.230775055477509013e-03,7.898526312822592987e-02,2.626266780842242271e-02,2.201066507251955157e-02,3.535431183255981907e-02
3.857968041439108209e-02,3.680400207839278764e-02,1.501260121117449151e-02,2.865093070686274696e-02,8.919386587750030571e-03,2.116409627434057486e-03,5.571255883502869433e-02,3.931590199099609106e-02,1.439658263426318689e-02,1.702862385692972130e-02
3.392332611402950476e-02,4.227324844532751036e-02,1.255004728401636939e-02,3.021735461561840877e-02,9.467913095813438457e-03,4.175728660676175305e-03,3.493124863365320437e-03,7.322853697929659900e-02,1.119512510415704258e-02,7.336811316110379566e-03
3.237376439949744833e-02,4.882178599100171074e-02,4.734852934952057946e-02,3.312589545852457490e-02,8.914851343015693652e-03,5.352922988006007278e-03,4.257019909528889784e-02,1.004969246770417157e-01,7.775777436164981946e-03,2.608944683652433122e-02
3.135931328894107917e-02,4.918735580003627539e-02,5.948550636450607165e-02,3.065590431535195060e-02,5.995242215763169069e-03,4.926007342710734399e-03,5.988294803384709708e-02,1.026972557683175497e-01,1.642360540856389016e-03,3.558879802168844059e-02
2.572928215817155834e-02,4.050259526049943687e-02,4.274897353501409814e-02,2.152177477878518957e-02,2.227490702196835773e-03,4.255257321114850125e-03,6.564345425170801940e-02,1.022365886659146739e-01,3.931105388101314817e-03,4.221903853281587515e-02
1.448465141265175941e-02,2.650042270720493962e-02,1.644295024906876346e-02,9.551693572736084242e-03,7.565848497662410214e-04,3.264028233315305859e-03,7.585850036273987518e-02,1.204966453596654635e-01,6.037584418141520894e-03,4.740614782454715542e-02
3.845258554790579632e-04,9.020952184883810135e-03,7.623809938970790498e-03,3.627300202784670101e-03,4.687556173455196228e-03,2.105798156751723885e-04,7.233500874185580520e-02,1.355988129289826816e-01,6.138676180010540356e-03,4.060885647919288549e-02
1.256114378299234835e-02,9.510217349145609622e-03,2.761328375985726280e-02,1.671168807914204940e-02,1.038493155844440533e-02,5.564950729427553013e-03,4.156718369838983962e-02,1.226386515581908837e-01,6.284363101671053796e-03,1.734793168832790555e-02
2.025049780536106181e-02,1.734387472752784223e-02,2.694468911073104322e-02,2.249693374618609229e-02,1.275515397643505779e-02,7.842968462487767342e-03,1.023208953462275903e-02,1.021088364857854203e-01,6.439832320785991888e-03,3.841212208309014668e-03
2.170565329821145736e-02,4.702103026360639378e-03,1.358745874266645802e-02,1.484722749326627955e-02,7.189387144865447971e-03,4.363701093749539593e-03,8.488969259645595677e-03,1.036717621092245190e-01,7.124430713983318821e-03,1.285677467462208526e-04
1.940011369129454252e-02,1.658323739666852162e-02,7.415350677535612056e-02,1.253464122259911537e-03,1.309447610455749793e-03,2.549324416303312951e-05,2.619797016209618121e-02,1.123704040329070730e-01,9.695873513768771268e-03,2.568196521291389589e-02
1.351526187909306981e-02,2.375776036382436229e-02,1.043054963742119506e-01,3.088209355791139352e-03,3.414613948016579238e-03,1.405838182125736116e-03,3.151878919502711790e-02,9.435568903429042420e-02,1.228427973526324823e-02,4.996067254051674705e-02
1.638952267870387707e-03,1.454831383076960437e-02,8.663372659994719727e-02,4.454428871630114299e-03,1.288212707153891818e-03,6.799264100433366660e-03,1.251735972340000530e-02,5.077933377931818926e-02,1.037331053413044143e-02,6.584062369432545914e-02
1.348768704675042292e-02,8.764528822567204183e-03,5.991074643175602760e-02,1.026607893263552750e-02,4.093444655215511090e-03,7.461035790344764870e-03,1.274789145607825233e-02,1.120722083846270242e-02,3.454916382247028885e-03,8.380062063842605435e-02
2.358922701569181671e-02,1.686732836831689869e-02,6.246148158873459505e-02,4.537527589705775063e-03,1.124814272464221021e-04,5.773738278841194973e-04,1.456609400950797419e-02,4.394112168729518569e-03,3.351154075565796094e-03,9.921190396326437511e-02
2.372523511550081454e-02,2.628557641466871750e-02,8.111090656859093473e-02,5.278693742765459482e-03,5.747640205674598053e-03,1.107881704292901746e-02,1.871911177162972895e-02,5.552353458591537463e-03,6.250466304888411921e-03,8.892808459918430386e-02
1.497764607845741835e-02,2.292279327242941964e-02,7.563850775893631029e-02,6.478805916158812683e-03,6.913890813231179239e-03,1.567589116540878125e-02,6.287274581331214751e-02,3.015024744055897973e-02,7.238729926460889946e-03,4.855575089716295673e-02
2.927769264162879926e-04,9.304625020498469637e-03,3.263824658954917607e-02,2.396285092611364492e-03,3.155566208639089786e-03,1.277272273894854669e-02,8.022510030341531428e-02,4.443065500323497424e-02,9.447789429167166922e-03,7.191229419976532221e-03
1.942998222260183469e-02,4.735730304423463495e-03,2.417730596051647154e-02,1.364006638436960316e-02,1.824437145441087926e-03,6.269262924747004938e-03,5.851656617278418876e-02,2.252695584684558799e-02,1.150491089691443869e-02,5.641104223705031145e-03
3.793802806905046537e-02,1.721048814164504240e-02,6.790282990126975116e-02,2.240292368055804215e-02,6.499292048642823540e-03,6.440281500196153768e-04,1.223339326056087882e-02,3.463565504037820209e-02,9.207894816399667809e-03,9.894082453792177670e-03
5.235613466282426631e-02,3.255576062697639050e-02,9.774974353539882255e-02,2.995274636264793830e-02,1.219321194065275948e-02,7.633271733924979451e-03,4.469859910603578984e-02,1.001324708439998851e-01,8.798376861251822360e-04,3.537268877018415192e-02
6.296734798592718008e-02,5.087983065336055405e-02,1.291188078982477561e-01,3.775315860813491936e-02,1.916023323386808683e-02,1.508590259327296200e-02,1.051822016822909350e-01,1.553175138574509062e-01,1.053438065272777405e-02,6.021094021166127630e-02
7.048317593452577134e-02,6.449300346647852955e-02,1.591637417383202080e-01,4.299623150951166484e-02,2.424180051926108290e-02,2.182442019052255322e-02,1.552424001009181098e-01,2.026095745196505038e-01,1.943106856543612079e-02,8.290596116458390230e-02
7.263415685595618621e-02,6.503058214414494942e-02,1.604114902550799748e-01,4.072025474589958255e-02,2.328392684897335682e-02,2.515215897440084558e-02,1.782496724944542810e-01,2.371817498202749008e-01,2.190916528726762069e-02,9.770548905070652879e-02
6.717755583910042794e-02,5.338258613609443010e-02,1.213811823103458087e-01,3.034204314849324111e-02,1.617498990836322911e-02,2.389712977586932671e-02,1.753957720988720548e-01,2.358003829339867519e-01,1.982250855841978521e-02,9.927897373594322949e-02
5.674008307769373705e-02,4.287748527197327714e-02,7.607108278717766847e-02,1.953855313883675823e-02,8.858170992709571076e-03,2.119644928768268238e-02,1.658149864996208700e-01,1.933663897323798231e-01,1.865982458784952447e-02,9.607458764790605121e-02
4.856676399991492060e-02,4.942616435198354113e-02,6.925134381937383954e-02,1.820019943117119621e-02,8.211664699188350042e-03,2.178611785454025868e-02,1.627828680934833572e-01,1.458972644874686475e-01,1.967538740915242973e-02,1.017364424320170158e-01
4.936627681295795850e-02,7.377194633162510728e-02,1.018584893037488281e-01,2.683556245186678735e-02,1.412022041244258633e-02,2.629471989402064336e-02,1.625306463505707122e-01,1.343121372979142747e-01,1.815011864045880385e-02,1.148462604285915983e-01
5.931553321232791581e-02,9.597473919525316421e-02,1.345040488473094042e-01,3.483921983758086344e-02,1.912227731135877906e-02,3.078314739278009693e-02,1.590672398108120278e-01,1.609539399646587876e-01,1.206179451118261949e-02,1.205312658751614141e-01
6.987490211773778048e-02,9.505003281774300483e-02,1.390285459610190455e-01,3.274469391611790903e-02,1.731429208147190063e-02,3.175719275685491561e-02,1.575518992618794301e-01,1.985685958583093824e-01,6.523709128110239362e-03,1.123992463912808215e-01
6.912960566911530158e-02,7.305821917867369453e-02,1.215166560203218699e-01,2.211837482164312474e-02,1.064873282506438763e-02,2.931965030280699047e-02,1.666258544060505997e-01,2.264364338470529203e-01,5.411320522336377122e-03,1.008677384710083835e-01
5.178608552367822832e-02,4.997549946469272142e-02,9.465254497956128443e-02,1.034094950822131952e-02,4.269383924713045578e-03,2.517124714947210559e-02,1.792388432986878888e-01,2.356145456157563156e-01,4.895219496011044870e-03,9.325409715939247945e-02
2.414102517210841084e-02,3.347476680857245507e-02,5.366342296542100238e-02,3.203783115933232610e-04,1.487468218872641836e-03,1.880637574051518407e-02,1.655582907634657597e-01,2.086505701694269244e-01,2.478796904148850965e-04,7.536331520043454413e-02
1.969108858849855613e-03,6.959032783514543588e-03,9.946679354452920077e-03,1.423921150282054029e-02,1.097990698802294926e-02,7.666699079369568119e-03,1.001277295742467599e-01,1.283713489764658489e-01,6.768423878525257724e-03,2.850123332150998612e-02
2.024091222293656830e-02,4.338941704598681809e-02,8.775156513342777242e-02,3.428226873541152797e-02,2.586572984251551965e-02,7.488129554129333183e-03,4.169686423225932304e-03,1.581975498153811305e-02,1.222373674425764750e-02,3.637228565811269354e-02
3.339351455231851645e-02,1.004207509581775404e-01,1.569061926711390054e-01,5.461913275471248080e-02,4.057724043240637513e-02,1.998876308659451942e-02,6.153881809044287055e-02,7.087365937087058976e-02,1.627509741802091875e-02,7.978031864996766587e-02
4.502514709329445697e-02,1.299015294891618377e-01,1.931807444033221410e-01,6.325615477077545235e-02,4.649864031383403595e-02,2.356457071524540453e-02,6.270829495056615133e-02,9.352697698487505429e-02,1.981536925915666075e-02,7.786895168677918089e-02
5.229320498454936156e-02,1.189561981978340677e-01,1.818557643058770212e-01,5.365970084807705071e-02,4.043730912978461822e-02,1.957622367246355383e-02,2.890556508404946295e-02,7.196761047053953919e-02,1.943531655547330733e-02,5.158379938227219269e-02
5.179997532327606374e-02,8.800665726845842418e-02,1.306827421069598483e-01,3.305621128112726237e-02,2.807762239608737123e-02,1.494002608226811281e-02,9.173923819920996175e-03,5.407437175247699346e-02,1.146849843474546590e-02,3.666796256721084613e-02
4.812405083680446755e-02,6.485220518031827031e-02,7.097646385449704609e-02,1.560673114754744691e-02,1.819699805608643306e-02,1.424406590858794293e-02,1.260130637155642067e-02,6.061901982497380770e-02,1.491570768158416872e-03,3.580642797019784052e-02
4.792589029956362962e-02,5.686441415289947288e-02,3.222450128656318552e-02,8.205252313907361594e-03,1.422999325235377657e-02,1.622668672971718656e-02,1.116452527787945709e-02,6.902510534758157790e-02,1.237212659938488266e-02,2.582969237433987639e-02
4.990679834374227297e-02,5.271886703428568799e-02,1.916044824717345191e-02,7.676093873104691129e-03,1.326112549894750345e-02,1.705646106164461842e-02,1.387911013156862584e-02,4.896652877692608818e-02,1.652701583306697558e-02,6.914429372688194256e-03
4.949087228950808243e-02,4.435622655527918234e-02,2.074477751372590800e-02,9.761595710830645728e-03,1.205558577113093055e-02,1.496807999909173341e-02,4.837316040473629147e-02,4.187111983803781801e-03,1.483206666311624039e-02,7.998340697104373842e-03
4.758109383568474848e-02,3.555053507549651992e-02,2.640218951419043281e-02,1.271311315619445825e-02,1.015925302184352529e-02,1.108530033027718339e-02,6.688193161304717416e-02,3.373675609627670158e-02,1.128925591103244544e-02,3.647163589343738188e-02
4.617349881079785279e-02,2.839267527982079764e-02,2.551469445079086740e-02,1.250997755868279993e-02,7.029036244649011778e-03,6.645800565778553666e-03,6.445318117568554772e-02,4.879843264022647176e-02,8.529268097795970546e-03,6.178009208443499545e-02
4.278529118934486924e-02,1.647418558492750110e-02,1.367057381383586859e-02,4.821893215101310734e-03,1.291490390707401067e-03,1.629674487865712465e-03,5.664377841508669992e-02,5.591753393718650045e-02,5.243708581698687185e-03,6.445219526435334856e-02
3.749867330769290213e-02,1.391001655244457867e-03,7.593281489305000499e-03,5.696145932357776602e-03,5.107436963495329448e-03,2.742421794941579671e-03,5.101970254429358254e-02,6.853699023663666068e-02,1.024157070415772537e-03,6.353664288773305802e-02
3.796902112980928695e-02,1.552892988977065333e-02,2.622472809614799158e-02,8.128822353260760011e-03,7.092029188201277173e-03,3.135927434626526768e-03,3.253946588551174385e-02,7.076494352204838745e-02,8.462903976120681598e-03,7.730482901151305986e-02
4.930570845865404200e-02,2.255196269665376424e-02,5.209409995390130999e-02,1.276266742378118040e-03,3.845690013312933354e-03,1.290442378406159206e-03,1.425605109216571478e-02,3.680046653119735389e-02,1.164065110590478853e-02,9.282824607265324768e-02
6.372971046875838819e-02,3.303238789840379219e-02,4.552690707512570961e-02,2.975516699176826343e-03,1.207595821074267280e-03,6.106985665437741906e-03,7.533543151059018950e-02,2.544147360513619380e-02,8.925190975724158968e-03,9.252376426554806410e-02
6.647533377603974392e-02,5.339454789986360084e-02,6.630893707106140685e-04,3.569964592572087442e-03,3.797589358970443300e-03,6.559352603202655424e-03,1.145293358699437242e-01,6.907404918523271653e-02,5.181851765094876681e-03,8.029833658580366740e-02
5.033980408966348685e-02,7.534983623186386481e-02,4.859103437072510856e-02,1.551823094541364065e-02,9.734402721162370778e-03,2.635419567583554331e-03,1.149013547839502075e-01,6.273285456318683506e-02,4.645219037392516945e-03,6.779055652360857498e-02
2.088033857230680440e-02,9.055184447878900089e-02,7.939687008453998052e-02,2.526087996543210576e-02,1.564224585695931161e-02,2.916330460616344510e-03,9.727608311987200052e-02,3.271860252404645147e-02,5.149851078949008350e-03,5.824313007362044714e-02
1.095785704311371365e-02,1.014700691610032901e-01,1.011361659246891725e-01,3.377332691785613072e-02,2.156786490973520640e-02,7.976284164917638725e-03,9.071821365167358209e-02,2.513164538415300214e-02,2.583867542253532115e-03,5.195093073813761980e-02
3.526227961213731360e-02,1.106181181280807141e-01,1.218728200092848157e-01,4.316504849877034894e-02,2.754876217541904135e-02,1.011937189813799653e-02,1.037562415768186336e-01,4.947842621511615996e-02,2.222091167537846267e-03,5.059308240551367575e-02
4.227846992818869165e-02,1.089138245028689889e-01,1.223526863426981914e-01,4.593676963117487855e-02,2.905247156198622130e-02,5.997021648173180008e-03,1.294911746471921754e-01,8.847288913666523369e-02,4.298892986598299056e-03,5.093363019808727632e-02
2.573241480366526140e-02,8.279868218868975671e-02,7.676093772042912045e-02,3.105799322758850262e-02,2.045320078705188671e-02,4.868427879930385324e-03,1.547055128445830874e-01,1.296992524585541262e-01,6.183966142696533785e-04,4.470764163488315929e-02
6.323461330397644846e-03,3.192663666127847771e-02,8.690742980093103462e-03,3.140101820478607107e-04,3.219832134095452787e-03,1.742879611389413358e-02,1.621716909461768108e-01,1.599401385641013307e-01,6.639890423602246884e-03,2.912621139688105140e-02
3.242470053833557131e-02,2.557749208639384028e-02,9.008420521947485549e-02,2.880326985258596303e-02,1.290034193703865767e-02,2.521461318093906959e-02,1.475334936844174549e-01,1.666321285339602554e-01,1.284639488606617932e-02,1.158618473828727444e-02
3.900140190842823346e-02,6.926631547805564559e-02,1.252222985501136587e-01,4.070248007947109559e-02,1.952896217545484550e-02,2.647137946681614451e-02,1.284321888823457547e-01,1.615519676474866106e-01,1.602653386507162797e-02,1.160826137461885843e-03
3.532063412449023415e-02,9.279503103096119199e-02,1.111018702696575516e-01,3.753370264614797752e-02,1.833088232930105144e-02,2.440932102002166260e-02,1.190837595298964852e-01,1.672642986686012911e-01,1.738823356746400234e-02,1.327545874818601528e-02
3.773328175581279476e-02,9.983148602083312395e-02,7.462057285582139599e-02,3.199766280006518387e-02,1.678514087060844692e-02,2.243180791617545994e-02,1.119469902394677890e-01,1.821214411217921270e-01,1.716806739413721111e-02,2.973603502954098518e-02
4.499340472793957046e-02,9.341927752552368902e-02,4.048072695880962357e-02,2.931295163913999816e-02,1.760253476919166130e-02,2.103874733585589865e-02,9.692125921979034830e-02,1.876387435067073950e-01,1.382906666236967050e-02,4.164352457872870505e-02
4.167057828670817088e-02,7.783561590681788156e-02,1.996206590175968187e-02,2.479650473113860845e-02,1.709420970678357521e-02,1.896709546259764054e-02,7.563148351751411425e-02,1.727689889252194133e-01,7.701058657903192203e-03,3.795812852152427586e-02
2.201129613163449461e-02,6.265025954959947685e-02,1.392744645292012459e-02,1.639136527794095993e-02,1.297742697288225763e-02,1.576106472489200924e-02,4.837819427831387131e-02,1.317071575609947975e-01,1.488176412118209693e-03,2.810884698807894835e-02
3.810101259648685564e-03,5.623166381154536680e-02,1.287251018802511131e-02,9.559139473856569785e-03,8.365188311131128637e-03,1.228537167485747005e-02,9.494386498631995561e-03,6.234308720233987244e-02,2.726134267195189434e-03,3.249210325061493987e-02
2.595269355597732211e-02,5.774075615704767073e-02,5.715895456261034513e-03,8.492624487103200490e-03,6.748006197860392970e-03,9.013830788054412110e-03,3.803172880537647460e-02,2.235124888987136127e-02,4.113474347565992256e-03,5.185691162103982232e-02
4.320516035086659906e-02,5.892855049162795678e-02,5.783433979013561342e-03,1.020276043644528438e-02,7.260462110255969798e-03,5.552687116742846887e-03,7.820409892833429799e-02,1.003460759644129452e-01,2.055254462188625328e-03,6.694815571756654315e-02
5.371786361224634848e-02,5.312462109291763573e-02,1.174478349548027135e-02,1.015898998234894546e-02,7.112786302481760407e-03,2.504742880217785284e-03,9.586208324324435592e-02,1.571089330022713282e-01,3.042226832217459313e-03,6.762102978500848793e-02
5.141293076352962399e-02,4.074264371040815791e-02,1.278967272011850669e-02,7.700138930264640962e-03,5.395382269147958043e-03,1.537364028000445977e-03,8.887815484548999834e-02,1.851588527901579517e-01,8.552459986439404221e-03,6.139100124870129627e-02
3.742638546078595058e-02,2.529424485883409804e-02,2.134405000057818663e-02,3.205547292403250047e-03,2.507057403704399806e-03,2.499730447662774392e-03,6.869571440230318182e-02,1.810615986143576939e-01,1.057901177663813676e-02,5.426855019485464504e-02
2.457621717252560234e-02,7.643793302919522220e-03,4.206668802054349537e-02,3.559869673181935337e-03,8.397225738223618001e-04,3.069544484589271059e-03,5.212868551507626735e-02,1.548864925168478845e-01,6.905693955965584545e-03,4.447775802816177071e-02
2.248424332561273220e-02,1.151973629681610212e-02,6.320666573998044713e-02,9.898185002254682868e-03,2.707597438158235344e-03,2.230894964204810371e-03,4.755611523054940198e-02,1.283682013944178191e-01,4.255550977749545695e-04,3.363908963227603410e-02
2.568457786613211405e-02,2.753560600222518251e-02,7.297203916524078182e-02,1.179242254910587914e-02,1.695801641228336740e-03,9.751499804712906614e-04,4.739404381695355717e-02,1.145816356807940611e-01,6.812737723937250557e-03,2.301590568790090260e-02
2.409938720747879445e-02,3.579930736139106534e-02,7.042139587893365971e-02,9.702631879772568788e-03,2.581860283461102196e-04,8.686906036228994729e-04,3.922730240177838695e-02,1.077675465355839857e-01,1.033137279655293311e-02,2.053041558227237245e-03
1.787308012751964714e-02,3.547087690262128168e-02,5.280820521133536977e-02,5.771924848666231365e-03,9.855617774192910845e-04,4.318373051773479084e-03,2.141280584117230545e-02,9.315376607284371613e-02,1.255897000357962187e-02,3.771945970538159720e-02
1.399387238140583842e-02,2.525536569050524510e-02,1.099574090664621161e-02,2.114156534799203468e-03,2.438322110859726926e-03,7.874964641862826700e-03,2.678902627815897292e-03,6.274300320987577506e-02,1.292126541123083013e-02,8.117793873886393341e-02
1.573340699624955347e-02,4.344008253881845999e-03,4.926416509789371262e-02,1.461685386154408517e-02,6.530842475143410104e-03,9.753185564224633314e-03,6.260857161263525851e-03,2.912071184178705724e-02,7.086764851104907642e-03,1.014269087888822612e-01
2.262927675844443598e-02,1.739904582309203043e-02,9.552701896017208594e-02,2.314054407058427007e-02,8.974501875759655078e-03,1.267327531830540234e-02,2.248477548216631840e-03,2.042170866001180932e-02,5.555005273761879497e-03,9.005359855687650183e-02
3.315769587385086759e-02,2.301827427383982411e-02,9.647511488475409014e-02,1.858122715402414638e-02,4.348949269471031817e-03,1.981182510587120235e-02,2.375517087340302605e-02,4.282326581662773690e-02,1.742999496955566219e-02,6.230673684278290742e-02
4.128454207309142227e-02,1.121358307748881143e-02,6.263120253105368407e-02,6.019867045758962518e-03,3.925914975164725845e-03,2.692568650859678697e-02,3.642702476285451796e-02,5.769466810620071245e-02,2.067912395472637846e-02,3.649125162187117494e-02
3.915321622396139567e-02,2.091960796371673380e-03,4.100260682264077888e-02,2.574923402408936263e-04,6.432433752927968658e-03,2.636892753258259642e-02,2.221985136924756882e-02,3.065692884573531854e-02,1.660550919070066800e-02,1.874160812670871284e-02
2.952256811560084737e-02,9.115298224248696846e-03,5.617421704619229156e-02,6.708736515264905262e-03,9.213447527295306637e-04,1.874251643529789221e-02,5.142978090367379684e-03,8.070616667137342840e-03,1.260995615052285315e-02,6.751359641979056032e-03
2.603104654594359801e-02,1.909887436664988933e-02,7.725464851346845740e-02,1.564881852779797036e-02,4.647569929905505728e-03,1.236916721299192827e-02,1.461078837988930706e-02,2.925840261875137325e-03,1.173783670043906588e-02,5.309921086052052201e-04
3.382075342253795802e-02,1.211141442590941107e-02,6.307047329429944782e-02,1.604707808088290041e-02,3.555904640559752299e-03,1.097152715574055762e-02,7.215837559391359742e-04,3.861463417503829820e-02,1.037064281456160503e-02,2.779960447185936441e-03
4.009124928645817210e-02,1.130511220039520821e-02,1.715865793334742095e-02,7.812521765888367706e-03,1.527906896090941999e-03,1.015094005740954132e-02,1.389239790904481242e-02,6.040594892116481207e-02,5.904963277361958106e-03,4.378790397696487313e-03
3.337582896345332728e-02,3.328043468304847652e-02,2.547650609112343811e-02,1.045299287166368777e-03,3.988591558927788265e-03,6.521644961245985639e-03,1.777839803865468790e-02,5.010420507056294326e-02,1.203454061770953222e-03,1.251746945929829366e-02
2.182219512579905429e-02,3.918854952248566892e-02,4.627336641586411031e-02,4.812834612749543155e-03,2.111106557939171607e-03,2.325222514214007365e-03,2.179604820279688188e-02,4.678504710548710144e-02,1.082324240435637343e-04,2.804743532845469650e-02
1.924286352929093641e-02,2.778897391724416063e-02,5.265426778677913949e-02,4.905960518384253066e-03,5.872515712341071139e-04,8.530584205563890472e-05,2.982859039812340088e-02,6.197651881087382075e-02,2.286064877697210895e-03,4.287600244035894709e-02
2.198438296747283818e-02,7.784067903771593570e-03,5.106802105049131763e-02,5.091914060084515824e-03,1.499929499269687765e-03,1.047706431206248253e-03,2.635416582582793266e-02,5.894547191445533019e-02,7.771091183549111610e-03,4.752199296012950269e-02
1.598977584994884862e-02,9.505481870619492818e-03,3.738297668057725259e-02,5.872440057740295656e-03,1.761185880447483981e-03,2.818812626643392959e-03,9.957513692584189953e-04,1.367070359783213902e-02,1.578159939019200403e-02,4.027905845879044266e-02
1.185569804926862609e-03,1.591601231211728362e-02,1.565136091314254033e-02,6.290964341692515012e-03,2.759885745944134269e-03,5.377361261375898129e-03,4.100736972284684673e-02,4.828837211078931824e-02,2.227671237286274128e-02,2.887128089208412102e-02
7.274924977950957515e-03,9.375063937088715105e-03,3.196286813050534456e-03,7.278764091572284545e-03,2.994407004871016062e-03,7.292572562070745619e-03,6.576406930746846180e-02,8.164111084431401044e-02,2.081402506972916677e-02,2.165364158100031855e-02
2.883961317166738175e-04,6.748849951917466200e-03,8.783843480015178160e-03,9.863113334538679486e-03,2.002208449004576254e-04,6.619360583489314505e-03,5.746462712081720076e-02,6.873867403137429166e-02,1.041335151047274865e-02,1.766697143345150739e-02
1.377904904770253271e-02,2.745029183702353895e-02,2.224989964482336144e-02,1.379516936289577368e-02,5.371420635133241153e-03,2.611333679539845805e-03,2.749200252396868938e-02,3.483927411440092270e-02,1.676815216301431096e-03,7.966614418793250413e-03
1.959895926567278845e-02,4.833340890521709010e-02,3.206319865511807893e-02,1.955187405981853935e-02,1.170954577547630646e-02,3.426094281702476204e-03,5.782762512097317995e-04,1.661896725826178534e-02,8.267621374629996467e-03,1.316148258169964023e-02
1.262751933492206081e-02,6.421635704158717983e-02,4.162851307020827563e-02,2.768394523316792047e-02,1.756612521508971528e-02,9.739436154587291505e-03,1.980248095643031073e-02,1.408086343038322807e-02,1.016998981063987201e-02,3.790096243657586905e-02
4.056176596051219545e-03,7.151705868344776507e-02,6.359221521825406120e-02,3.613822430103256350e-02,2.234286715944018564e-02,1.579864182961934066e-02,5.329503986349169720e-02,1.045323360174360040e-02,1.290979318776329376e-02,4.789143277442822755e-02
6.166992282519333929e-03,7.423893933671758816e-02,9.985674665382632265e-02,4.190639266049710210e-02,2.486277348567911619e-02,2.122779275076006750e-02,1.061601029057229612e-01,7.462730012840779192e-02,1.881810300056878729e-02,3.458178556181192020e-02
1.689177898192902733e-02,7.926498628231694321e-02,1.291395695778780328e-01,4.466679110255384472e-02,2.451437975799134264e-02,2.433199280484442395e-02,1.538107081859695913e-01,1.414037440751120256e-01,2.608207050654004489e-02,1.219599199180048353e-02
2.539103976314738276e-02,8.446071883568607996e-02,1.260133120468261425e-01,4.632284522904273061e-02,2.288791916519823319e-02,2.355442097194062473e-02,1.698622291267435636e-01,1.627902973518720320e-01,3.261705596495138859e-02,1.030593771938808668e-03
2.758246917157106820e-02,8.116220276317842597e-02,9.567144189907093865e-02,4.746620846025128432e-02,2.208158038078072982e-02,1.958483772455575297e-02,1.563708774274075175e-01,1.360109872363246264e-01,3.675560963185096897e-02,4.670399021283146677e-03
2.648861742109766618e-02,6.510906152035993155e-02,6.860443307644968625e-02,4.546150720745115864e-02,2.146199336574941899e-02,1.437123774150645197e-02,1.336256573968463701e-01,9.335245729812013948e-02,3.688970518783137725e-02,4.974176885659116649e-03
2.134419446714698118e-02,3.474769160707929377e-02,5.698120180462742240e-02,3.715771502115893660e-02,1.820273224207128587e-02,8.773132179196724625e-03,1.108713460806053513e-01,5.230135598652970591e-02,3.422794005098128700e-02,1.403154325165276856e-03
7.244910687637677940e-03,1.057025824885665481e-02,4.595832146567004062e-02,2.453680522895673385e-02,1.181882299189556708e-02,2.752936462360440831e-03,8.173676495648900253e-02,4.299347441155264467e-05,3.273141083102591720e-02,1.394228185544337494e-02
1.405879866977587447e-02,5.916601159491226974e-02,3.204591161229809748e-02,1.530027407446723185e-02,6.269601170533319751e-03,2.512021565232111682e-03,4.485985299236098373e-02,7.355746514513446244e-02,3.327422552323749255e-02,1.683934007068586466e-02
3.164942028444927419e-02,8.865426552296437612e-02,3.379870384881781403e-02,1.446886946442826720e-02,5.477806259429539477e-03,4.626758552542482167e-03,1.179386564124661890e-02,1.463450176063041397e-01,3.194549670972192390e-02,1.487649070403480314e-03
3.752454756527216773e-02,8.973711950087899514e-02,5.178126605969391588e-02,1.699738620880476142e-02,7.748921754197840225e-03,2.965130231040774469e-03,7.891297864024048730e-03,1.830205114833911295e-01,2.663699742601767506e-02,1.683599678702534311e-02
3.486794398570922104e-02,7.439000129547908291e-02,4.950484970550537989e-02,1.288969938000245757e-02,7.612326061498300364e-03,2.841076120253037234e-04,1.626112186928652115e-02,1.713738145401136614e-01,2.087215589390417278e-02,2.281690081544499385e-02
2.997804776885737779e-02,5.630073731245335833e-02,3.290731090007853032e-03,6.814976003551029629e-04,2.973458794932673510e-03,1.648491424327174285e-04,2.373797630596384198e-02,1.306645938352815894e-01,1.883885394673832578e-02,2.295948313763612747e-02
2.362838692171446639e-02,3.903433598724793258e-02,8.711478607304692923e-02,1.645814166612373508e-02,3.002802735026209764e-03,3.625891802724224774e-03,4.316106144005511097e-02,9.187534834044826237e-02,2.004445823061923662e-02,2.702689126214489687e-02
1.510133960849102848e-02,2.319673392072256132e-02,1.542464051742307996e-01,2.631758790075324622e-02,6.681288672356132212e-03,8.308705198761045380e-03,7.385386044769177982e-02,6.955179759113942761e-02,2.098978829181008532e-02,2.725878428389360425e-02
6.128164767182732453e-03,8.568831906924282912e-03,1.811459495145151533e-01,2.883125268932740931e-02,6.683303167187264714e-03,9.895531819964229273e-03,8.865730670311246231e-02,4.587447689108705567e-02,2.061239504116400834e-02,1.460044759843417278e-02
1.861702453415110380e-03,8.953265031962392984e-03,1.815270466350904499e-01,2.738360316937120051e-02,3.260332800030737305e-03,5.819464521024126508e-03,6.271469693666469059e-02,1.628371318344830516e-03,2.117339010635881785e-02,8.353070397710492777e-04
5.787575711135130481e-03,2.959363464140290709e-02,1.767098634620385689e-01,2.564835118800877500e-02,6.498561558540107749e-04,3.625908846761198871e-04,2.024251763054223108e-02,5.003296137891189571e-02,2.245699506985366842e-02,3.983879290191342376e-03
1.704069330179566310e-03,4.498979096013647205e-02,1.686530742477757860e-01,2.586791961729775768e-02,1.088544830790566000e-04,8.027269896060212863e-04,1.772499624926715533e-02,4.468781151290531634e-02,1.936902713519270472e-02,1.835330609938125995e-02
2.310118807034596683e-02,5.095625128105054497e-02,1.439987045234054908e-01,2.786916590870516797e-02,5.910536837044787738e-03,7.520416956037678097e-03,6.744760400101859621e-02,2.340702545838507787e-02,9.671314553876474499e-03,1.994472540078547421e-02
4.791243305919161422e-02,5.415706293216738382e-02,9.845960118258986760e-02,2.834083923736414531e-02,1.200890527466175195e-02,1.815534952887106965e-02,1.153957519584863367e-01,9.901651874117632646e-02,4.533084835611203220e-04,7.814110656817626309e-04
6.211582694338357857e-02,5.709143938004538482e-02,4.816741833848781768e-02,2.306051571616577617e-02,1.265782079668457093e-02,2.265780739168101604e-02,1.162639638442502510e-01,1.364932336472932939e-01,4.057127628686359698e-03,2.238693066171683690e-02
6.332925635198637104e-02,4.928328012771936856e-02,1.500784836513242675e-02,1.179762145716434403e-02,8.396539788913399624e-03,2.022705937884031191e-02,9.326792885982913839e-02,1.454847937271389335e-01,2.553259845236424685e-03,3.432250157305741234e-02
6.171167797492482093e-02,2.236723344994179588e-02,8.041725372848142553e-03,7.984316400529002742e-04,4.080769552793695951e-03,1.677931162964941755e-02,9.473662996186166252e-02,1.528856763726123003e-01,1.970528206785454248e-03,3.551569397100892006e-02
6.627954834297673792e-02,1.703972178877997262e-02,1.917921489962947160e-02,1.894228145681179981e-03,3.007775585126765475e-03,1.633721585000534257e-02,1.225212428469697329e-01,1.635067764356314401e-01,3.307626115239067997e-03,2.704840925533840215e-02
7.333901598180657400e-02,5.474143106779916224e-02,3.164069509050757012e-02,5.503554019590324933e-03,4.299782594278097475e-03,1.689856084638732131e-02,1.363489966138979048e-01,1.669457314774436263e-01,2.877826091624892564e-03,2.907225606289484156e-04
7.167087345442878232e-02,7.952557593198270047e-02,3.482287394406789055e-02,1.720765214049150768e-02,5.396916091277076041e-03,1.459027112722093532e-02,1.108597031173589320e-01,1.546932213318270855e-01,2.059750714091723202e-03,4.902370464070103517e-02
5.798567119157312794e-02,8.598314663618353282e-02,3.130776821007096727e-02,2.680070045514356888e-02,5.349084667672465536e-03,8.966811491104825088e-03,6.238813527480766008e-02,1.291395768385913412e-01,8.567891946522562807e-03,1.060881787536487458e-01
4.119128911776400587e-02,7.626446796879807200e-02,2.698750712459656309e-02,3.229460029826113077e-02,4.945777065911993904e-03,2.969214981627051747e-03,2.703538736250200164e-02,1.054527848665489237e-01,2.349979512527924572e-02,1.461773134679343056e-01
2.996869651408799393e-02,5.768669413781708777e-02,2.126115983331771167e-02,3.394813983816973718e-02,4.826731981117438064e-03,1.176567404388405682e-03,2.448335748303207687e-02,9.323786965658320547e-02,3.557726039353165115e-02,1.550463372381322702e-01
2.203866175500429625e-02,3.387562659449140645e-02,1.145784667079845220e-02,3.103983698571138525e-02,4.236829228498576946e-03,4.628795861282217206e-03,3.901285640649571063e-02,7.607374892220837570e-02,3.518819616962659547e-02,1.334741846608510085e-01
9.606137074730602618e-03,4.784744827801465893e-03,8.794959829474405591e-04,2.306055698719555042e-02,1.738173907846078670e-03,9.874297511956854276e-03,3.575277107130094695e-02,2.940270500496729861e-02,2.566986039904260719e-02,8.935256604919872281e-02
7.341245001515301488e-03,2.209742085099144354e-02,1.256046000799436457e-02,1.223709251976136218e-02,2.095070361935353741e-03,1.618125205145265824e-02,2.121153805608336738e-03,3.761635645894158275e-02,1.451854408001678615e-02,3.671172809836803497e-02
1.813941308830964438e-02,3.373994343324891731e-02,2.323081137714772329e-02,2.462240316786043232e-03,3.877748653357879823e-03,1.883161065672130791e-02,3.401990280553906371e-02,7.810373865066899679e-02,3.641184553035231759e-03,4.819171871014098218e-03
1.383335183419614339e-02,3.032410905482472996e-02,3.364672763692079516e-02,3.900135359060983090e-03,1.655988795555775285e-03,1.480453066589234798e-02,4.076335634952992643e-02,6.107185134561210482e-02,5.227335858995988543e-03,2.159387575534372355e-02
8.992906121227167357e-04,2.599793805744227138e-02,4.077947595050597507e-02,6.329976216084116925e-03,2.027188414568462972e-03,7.530791690207016761e-03,2.617572619438933781e-02,1.700759745948320426e-02,5.592522711565657903e-03,1.411198472628636194e-02
1.270587465328150770e-02,2.453970801017061124e-02,4.157017572583186771e-02,4.610279880126745902e-03,4.271820492749069803e-03,2.556839165963275227e-03,2.236297197862313624e-02,3.254414146760696222e-03,5.302045308109301983e-03,8.362547877681284977e-03
1.373815232672212158e-02,1.582326410867459024e-02,4.285006828185537742e-02,3.953244290316737519e-05,5.976861104940842453e-03,3.163097920360939067e-04,3.434185407663139372e-02,3.055394344223701097e-02,1.901692270895198253e-02,3.474327412000084714e-02
5.469176130005903684e-03,2.935990198750091772e-03,5.441434181093501160e-02,3.533983989753208734e-03,8.533277585921894906e-03,2.241317496127789074e-03,3.790310923021489309e-02,6.038309500492013149e-02,2.437006956355670245e-02,5.620146502057231375e-02
7.008573852075147999e-03,3.649151070386185813e-03,6.885636403402577155e-02,3.694209754503945814e-03,1.018864131887614599e-02,5.092143509242021311e-03,2.659153011192322627e-02,7.100091886431608712e-02,2.153276070409191820e-02,7.182317028272430792e-02
1.719902678082960157e-02,1.765699050373966197e-02,6.675658315905767803e-02,2.546133752999688547e-03,9.222467439808533160e-03,5.528554283208076542e-03,2.350789703926776594e-02,8.067295413062416931e-02,2.108267392810891233e-02,8.580421483398986693e-02
1.888532596865555996e-02,2.442964312172849276e-02,4.682071770138911126e-02,2.342806908497314933e-03,6.882159218720194406e-03,3.103886639786388509e-03,3.885502946100440058e-02,1.020231219308702503e-01,2.786022346567852692e-02,9.164811414561693792e-02
1.212389665586867393e-02,1.816559930146403531e-02,3.139406805288816327e-02,1.082213081402656155e-03,4.576165883791753416e-03,1.030842823839965750e-04,5.075739169219052604e-02,1.151859333284195874e-01,3.336721749089757022e-02,7.003936946112720996e-02
2.799729020758067941e-03,1.451949549055700332e-02,3.792510632458824527e-02,3.444586764025813885e-03,2.258253048885790377e-03,2.092039182277967424e-03,4.195885197703527747e-02,9.583100758257223628e-02,2.884672664705268536e-02,1.608435338347888321e-02
5.707500563253620728e-03,2.273932486560280644e-02,6.239794102521903363e-02,8.573179524338170321e-03,6.753648607230591447e-04,1.573465138533983133e-03,2.513721230900138603e-02,4.494728901897539208e-02,1.748532544954204543e-02,4.362804248772834959e-02
1.370724180182028226e-02,3.537703625675128749e-02,9.146971873564463396e-02,1.035274188815298903e-02,8.571713499710275231e-04,1.462524451380840460e-03,1.690475693771949922e-02,1.497481894235839876e-02,6.660953337315343031e-03,8.091032626451100107e-02
1.835414178767492618e-02,4.114412758508680795e-02,1.132755217426630462e-01,9.120202129400373225e-03,1.756529427459068739e-03,5.264049309192267954e-03,1.277129671776530175e-02,6.178905800453318026e-02,2.281525602056413363e-03,1.024921569194202353e-01
1.303020765378395777e-02,3.222588243702201316e-02,1.159277344780061808e-01,7.016241797165093802e-03,2.309047827074262212e-03,8.535630822160401171e-03,8.289755865940279331e-04,8.702457741801075675e-02,7.661578568698788200e-03,1.330324848850576447e-01
4.535635401452988574e-03,7.178708014230717090e-03,9.183374581602922471e-02,3.026744828569271403e-03,4.004684932446541529e-03,1.189203590624971288e-02,1.895238207903735331e-02,8.956474225767999120e-02,1.404512260683411177e-03,1.681286003050558309e-01
2.660846937045944702e-02,2.236562176080532025e-02,4.886275660104063417e-02,4.644736240530418503e-03,8.090127601498494150e-03,1.535034186337498260e-02,3.684748041920366673e-02,6.776073618121669639e-02,1.894866449636156691e-02,1.733846622511779345e-01
4.164213990545329730e-02,3.539665111838730116e-02,1.113396415123537632e-02,1.276985145295731969e-02,1.237571930125012931e-02,1.657352816705869383e-02,4.459337370059448385e-02,2.918290131147031896e-02,3.985292967654932572e-02,1.364875604862802738e-01
4.766325705209671637e-02,2.244903444134054710e-02,2.487258111254062390e-03,1.395156621555757211e-02,1.299489420135791634e-02,1.332886637819362050e-02,4.288151166613481807e-02,5.667689206434569152e-03,4.490041377223821101e-02,9.216972945603903178e-02
5.326615970717676202e-02,1.351532378120304072e-03,2.243444236981800149e-02,4.883373989177825468e-03,8.151472364481972266e-03,6.404270307826290601e-03,3.918790123722756813e-02,2.724570617536192091e-02,3.387885389977521311e-02,7.919206703699889494e-02
6.044416428892986082e-02,1.615713624179581243e-03,4.029635681004199721e-02,7.468587338930982727e-03,3.840841722641882968e-04,6.293924617595820625e-04,3.572722903592621263e-02,4.882122030633165299e-02,1.998299853121272146e-02,9.746900937081987015e-02
5.735105020885139515e-02,2.917362024499824472e-02,2.537104397381955215e-02,1.133750550142982247e-02,4.333318811944976597e-03,4.254672513375490697e-03,2.377451466066646257e-02,7.798286555569257372e-02,1.234411168628097091e-02,1.233019456105613476e-01
3.805789385337041836e-02,5.841729209834918557e-02,1.789003170874881379e-02,3.667992701906970607e-03,2.174448340902243766e-03,3.879652882552389603e-03,5.463838767127818241e-03,1.000885892421693596e-01,9.443991314421074784e-03,1.370532962018928824e-01
1.640678324692890211e-02,6.631468323853775826e-02,5.772318081446146248e-02,5.943741056097689643e-03,3.666838464582294031e-03,1.585591684749841157e-03,4.601845104718941398e-02,1.054448495417820153e-01,6.245332947291586459e-03,1.235826492782582942e-01
6.974378873026204975e-03,5.917029111214994891e-02,7.347775368453379752e-02,8.041365678356005020e-03,7.024573835883337475e-03,1.166774790688141026e-03,7.377029063033739564e-02,1.014179184825192287e-01,6.202741887989466144e-04,8.334735644489608963e-02
5.584566692486783203e-03,5.453571696856740481e-02,7.013975753112401679e-02,4.287773802791080072e-03,6.665269126090563913e-03,4.737875539833704547e-03,6.392677664293423823e-02,8.676982917763276237e-02,4.916622623336053613e-03,5.247589077487427311e-02
2.195844831115324747e-03,5.385609017902139722e-02,5.853345361684474807e-02,8.637548940886491432e-04,5.836343001478755399e-03,8.544502610814163832e-03,2.077897346372067217e-02,5.240825393497590412e-02,4.528598171577505674e-03,6.994422123981763884e-02
2.927464319046266250e-04,4.936242089234466751e-02,4.023673857106600804e-02,2.308814449519898046e-03,5.630486735142581876e-03,1.003470845694479779e-02,2.019107056828127120e-02,1.433470665779284364e-02,4.176570755985229387e-03,1.201869184025710913e-01
7.113134392924707651e-03,4.319122831838002191e-02,1.546016715462736162e-02,9.257321394513884014e-03,3.747911219294203927e-03,7.807351469123703994e-03,3.091737503259485431e-02,8.659415804506114672e-03,1.455406379466335325e-02,1.485595382673581266e-01
2.490165812758868280e-02,3.970710009576794430e-02,1.140620938049194399e-02,2.061159778179678589e-02,1.417855053646882493e-03,2.949847167183145599e-03,1.575530630085913639e-02,4.870593616051728525e-02,1.716666330341060434e-02,1.304124434181683501e-01
4.572558287876941907e-02,2.868229423817383536e-02,4.222646119503644518e-02,3.438491342662500921e-02,9.275919111427055608e-03,3.372750704898887404e-03,8.596741801478553421e-03,1.091839067591043044e-01,1.046296993479634008e-02,8.751409548309369013e-02
6.036427842657334647e-02,2.337136252779596374e-03,8.262528894294082771e-02,4.846294861048076191e-02,1.765812024481705836e-02,1.016900924739869497e-02,3.421076749101321923e-02,1.516381585629421602e-01,8.731504620392607470e-04,4.511949449495674530e-02
6.054732933135547474e-02,4.195243803341986571e-02,1.171340265031275973e-01,5.730447866299008541e-02,2.227484526750640390e-02,1.440829967837140534e-02,5.691536514744777869e-02,1.565628479713033483e-01,5.503882584461263112e-03,8.546305019239358938e-03
4.527702337968452645e-02,6.187889112846309964e-02,1.114479861414509471e-01,5.279562206390301521e-02,1.905619480262357029e-02,1.321788537251270511e-02,7.339489712231304919e-02,1.351363965526737598e-01,7.744550114461457024e-03,2.165972518774509498e-02
2.390166081441108883e-02,5.359884178973092772e-02,5.956500983764993068e-02,3.464813353673595192e-02,9.945142448808228994e-03,9.003623682728121094e-03,8.774773577076874775e-02,1.135820942378516774e-01,8.809346787477778315e-03,4.000185712205629740e-02
7.141195863180678331e-03,3.988042799345955375e-02,3.165377543219793401e-03,1.458042263298440534e-02,2.692946495753966406e-03,7.871115318131786248e-03,1.045001673892481664e-01,1.083238266785443438e-01,1.160423761565464520e-02,4.715407969832820234e-02
8.044779030329102243e-04,4.149368315019341669e-02,1.997950260709129358e-02,3.970650821645839955e-03,2.251282537691840988e-03,1.191412412421335998e-02,1.163961335358220384e-01,1.186307341067568827e-01,1.477482201799343829e-02,5.496992270019448318e-02
6.724138584194745694e-04,4.865809525277590974e-02,2.340884129718857204e-02,1.397122213126228245e-03,5.617634095833451240e-03,1.678139403244092998e-02,1.120619593741641190e-01,1.331154166923295967e-01,1.315075879579753575e-02,7.246434348007518844e-02
2.384962920572616420e-03,3.852823971874928810e-02,4.344150222576191600e-02,1.795212153725034027e-03,6.990686724229621014e-03,1.747281761027119976e-02,9.075933595643669027e-02,1.316724334355931780e-01,5.192147051670640244e-03,9.550295249876200598e-02
7.983435354844102549e-04,9.705769108868599407e-03,8.252500510415529400e-02,6.936487381270021492e-03,4.864564091696974707e-03,1.332453880017079283e-02,5.910760414158018616e-02,9.375546939645794386e-02,2.533747823695177859e-03,1.153032202631013442e-01
1.388741077955478291e-02,1.593840636616669637e-02,1.070157016441310727e-01,6.502149568286232778e-03,2.239320778426108667e-03,7.191132573409867584e-03,2.145477879365535398e-02,2.337801490637706620e-02,2.447841787850951224e-03,1.263861581829811009e-01
2.823412520354319499e-02,2.222979095238184627e-02,9.326088785059523378e-02,2.935418869221033226e-03,2.032634668635491769e-03,2.660757994684481622e-03,1.537893350546070369e-02,4.444242432936423848e-02,5.205744342670567265e-03,1.222639315848494945e-01
3.192948150646577471e-02,1.579481478425254562e-02,5.242231095668274665e-02,1.403913704838291587e-02,4.433381411358509015e-03,2.335656574672289112e-03,3.468851360356293295e-02,7.709651968254041532e-02,1.439492525446417308e-02,9.908480341389475088e-02
2.165678082631185622e-02,1.095530145791914593e-02,8.455528520254005156e-03,1.866886110608749483e-02,8.327765066530108673e-03,6.705044657784020243e-03,2.065417413029945262e-02,7.153775381492059882e-02,2.110278090865857006e-02,7.038751401986290124e-02
3.348797588815160837e-03,9.745240468450886220e-03,2.675867234475269238e-02,1.784803652804159424e-02,1.278302869233642787e-02,1.338914442728105295e-02,1.887581393187364592e-02,4.385110961715677630e-02,2.543024493525036789e-02,6.125349887836267077e-02
1.262085834084072586e-02,7.133363931052681337e-03,4.850307579079645576e-02,1.595646418093923935e-02,1.548847861719142294e-02,1.746577657419191854e-02,4.775978210303373495e-02,1.503346669200289303e-02,2.825850616604084695e-02,7.859459260584387985e-02
1.726315660570658037e-02,5.650130470250260342e-03,5.022007528606271115e-02,1.126830947438732175e-02,1.259437425324910591e-02,1.451124829532181131e-02,3.599295507882537687e-02,5.103704188016885621e-03,2.962327922595353255e-02,1.030273578183665828e-01
1.164405792995565868e-02,9.597513750728894205e-03,3.373320127193156492e-02,2.428310308400145629e-04,3.741902384603755169e-03,5.715841446953047640e-03,2.348553452223887863e-03,1.001732839310640229e-02,2.984413411681973230e-02,1.188092512870203149e-01
8.276243862896076608e-03,1.239754604974146156e-02,1.579064940399379363e-02,1.356109902254089804e-02,5.190342386684248556e-03,1.804075770471005608e-03,1.667344382414795434e-04,8.202926425336831001e-03,2.907133758898450271e-02,1.318268537563075105e-01
1.554999345187114274e-02,4.991608935085422964e-03,1.184723832329421037e-02,2.262125084479075371e-02,8.473302134814876541e-03,3.144164908880475728e-03,4.698514035794172650e-02,6.910399253826132737e-02,2.584424103515084101e-02,1.439199976865197239e-01
2.275632160876829221e-02,9.126343514479466276e-03,1.750668366314294191e-02,2.445724388811678501e-02,7.348054084964169945e-03,2.020587574678955368e-03,9.207363312907128339e-02,1.210447398566352889e-01,1.927874125703274433e-02,1.330058129075153694e-01
1.195638100905684585e-02,1.818162739438988415e-02,1.134732570159074222e-02,2.296030862618221591e-02,6.987635614911721221e-03,5.109172144000194080e-03,7.689339566367363321e-02,9.159027399216934651e-02,1.186068394490418128e-02,8.408431869691897209e-02
1.450998572851817069e-02,1.470866392779325051e-02,2.293341053354337744e-02,2.352064453575217901e-02,9.338572172141880456e-03,1.210205600267914502e-02,1.018781644517100481e-02,8.170792940303605451e-03,6.724365212490163862e-03,2.316961410378708466e-02
3.245221463528128597e-02,6.329499679627221837e-04,7.437245593474837990e-02,2.808350839687968198e-02,1.195665645579619893e-02,1.600327583991353192e-02,4.323643784915653238e-02,8.284869565231410549e-02,4.279249439296210246e-03,6.746914186364777466e-03
2.638390927927901364e-02,1.850439515348628605e-02,1.086505562931393831e-01,3.259122253977132788e-02,1.173270319375274359e-02,1.225416841448119694e-02,3.845076932043201695e-02,6.903137809362470956e-02,4.473204412498370253e-03,5.978389962662467721e-03
7.547814583537563668e-03,2.554291564920921354e-02,1.056878307169678843e-01,3.097529409307134274e-02,7.849802994694557098e-03,3.531035035956218981e-03,7.833238439535421260e-03,5.566170228726099317e-03,8.364108035522583445e-03,3.594936798323337956e-02
3.608333224535093236e-03,2.097149930729455200e-02,8.775977112775601441e-02,2.364714549520798709e-02,2.714088493499598308e-03,3.936530781308164584e-03,4.405338617304056792e-02,2.758269879535683866e-02,1.429435842289457359e-02,5.275537301387217548e-02
1.375837260634582906e-03,2.248129459449221129e-02,9.074346539453417848e-02,1.817834585619845789e-02,7.506060556517991575e-04,5.507852027728695789e-03,3.177738461195294545e-02,2.162731807474800767e-03,1.719027117258491860e-02,4.420766575868854270e-02
1.880396433690808070e-02,4.292046975115200447e-02,1.153617734783876636e-01,1.963214241595570217e-02,4.501053587811219489e-03,3.535293382935315301e-04,2.939072351946604711e-02,7.064986211793004844e-02,1.485901003748656656e-02,1.611912072199896129e-02
3.938472540754078821e-02,6.897138499505944820e-02,1.327624049472293510e-01,2.474048574071507564e-02,1.135780291629407031e-02,8.188525177475418360e-03,1.068411776212681158e-01,1.404071431108467605e-01,1.086338314353260670e-02,1.778369049488879444e-02
5.199179145957016218e-02,7.526289831659913054e-02,1.280431607567332486e-01,2.736948360769580688e-02,1.587963235781857108e-02,1.439853420415655900e-02,1.591587603958668495e-01,1.876511729584752486e-01,9.103568994725336205e-03,4.447837926430554117e-02
5.113858789951405276e-02,5.280066375725420841e-02,1.092353216869579174e-01,2.533033379578221445e-02,1.542160427240059535e-02,1.431774210722029997e-02,1.623130071448062595e-01,1.995178790017933523e-01,1.001927580991087904e-02,5.634284071284033357e-02
4.147598260151760807e-02,1.409258858574303011e-02,8.393035483708016775e-02,2.025935661581930100e-02,1.151408724502174345e-02,8.810448960803757973e-03,1.238517304354332244e-01,1.715497009495126346e-01,1.336428984459132711e-02,5.478305263022886784e-02
3.115225651582899033e-02,2.330355120371298619e-02,5.426617458671925687e-02,1.448437839111964796e-02,6.633053358302536812e-03,2.834290620250267973e-03,7.995667604971071207e-02,1.240158692845703126e-01,1.909371399340476297e-02,5.198425824443975163e-02
2.445501063851771711e-02,5.061114851189446595e-02,2.650134680728324574e-02,9.353782312921903389e-03,2.738671050424098304e-03,1.826188060900253447e-03,7.088665560030350810e-02,1.046081657458657471e-01,2.359442499268872215e-02,6.236380872469549086e-02
2.151775165655973182e-02,6.873333554908812870e-02,5.585427838486382336e-03,4.680776705669581136e-03,1.787030391677134301e-03,7.369646192374353089e-03,1.044973437942610939e-01,1.419795538130788626e-01,2.074484381996534454e-02,8.500930373725912315e-02
2.014278599571597481e-02,7.912695694268298552e-02,1.216653406051298666e-02,1.021548865527423765e-04,3.744328062798822892e-03,1.533176357472875936e-02,1.454304082640527906e-01,2.016364727236159560e-01,9.473274527550819279e-03,9.969696871908648173e-02
1.826345106044973896e-02,7.549430505134625824e-02,2.934133187481578059e-02,3.628012418761301146e-03,4.846853977365796727e-03,1.929175161051647353e-02,1.507135200778826900e-01,2.218259425995061651e-01,4.120195075862924557e-03,9.013343791648645298e-02
1.673464193291203037e-02,5.101578461683588250e-02,3.997592047069623705e-02,3.512055713979580357e-03,1.480217189485860414e-03,1.656251193760093984e-02,1.132946334760826790e-01,1.887639113738869001e-01,1.375273854912603504e-02,6.636255285665544623e-02
1.737568581738474505e-02,1.380433277491251512e-02,3.993812381592933697e-02,2.614549309195453829e-04,4.786306683008528795e-03,9.990865374664616855e-03,6.236195657842460993e-02,1.431487862449400128e-01,1.771167799762484243e-02,5.136673635052754761e-02
1.880309438337221528e-02,1.640674183389126406e-02,3.537033762189574493e-02,2.447185636208569926e-03,9.105337869650231841e-03,3.904540193856255014e-03,2.764277891003090459e-02,1.182985117858325469e-01,1.637970265690544616e-02,4.993162506596300620e-02
1.773180789007378771e-02,2.764937943763825720e-02,3.490381206592346047e-02,2.057525760735271804e-03,9.490483093206018503e-03,5.408961425973693709e-05,1.652147421948759604e-02,1.073472270929050482e-01,1.024340332806125686e-02,4.663055413498309876e-02
1.297833265036759179e-02,1.995990934053391841e-02,4.179692129927459893e-02,1.015137347654587350e-03,8.123364082675436915e-03,2.173510801752810868e-03,2.115467879281163199e-02,9.155582125040255537e-02,9.903366914392006809e-04,3.292415667323200096e-02
5.932251362329899955e-03,5.184633888762953981e-03,5.693905651623126091e-02,5.851840667757237172e-03,7.297875676409205231e-03,3.576933062786140892e-03,3.206886561774730665e-02,7.044892473478303607e-02,8.983068936041210123e-03,2.110861202914129237e-02
8.848862132165170175e-04,4.252447019988726123e-02,7.877077584696863533e-02,1.161313051052178386e-02,7.016335444321562462e-03,4.369076731455610874e-03,4.356944024969251067e-02,5.605715696102588075e-02,1.720102164997504984e-02,2.843848791684611133e-02
5.678899617022304183e-03,7.348149844085304083e-02,9.570195365054642855e-02,1.536082968310154354e-02,6.507029974896118805e-03,4.897332459244457467e-03,5.219636940944197279e-02,5.156520858204779317e-02,1.908060424282777973e-02,5.482717090611964605e-02
1.010470576659261085e-02,7.873494637527467255e-02,9.164634047892201985e-02,1.382600566428467820e-02,5.777333832326103820e-03,5.954265934329155963e-03,5.142878447286391985e-02,4.370689886016633496e-02,9.515349339994870134e-03,8.066493563587205651e-02
1.815118904894123461e-02,6.267251668980400314e-02,6.658689835467850038e-02,8.278209828815653176e-03,5.181926244541332389e-03,7.460496240150798174e-03,3.679499292768458746e-02,1.978184696746791704e-02,9.586240271485229475e-03,8.742712611183475757e-02
3.030854131605534296e-02,4.928058269989470108e-02,3.952059297246886954e-02,3.749409270563622276e-03,4.726071325995277739e-03,7.673162216469101189e-03,1.981030945923685505e-02,1.219348797234020773e-02,2.755977335183994181e-02,7.568548087206493358e-02
4.186039475853396696e-02,5.102338474537219254e-02,2.508435210566573037e-02,3.095165507006212170e-03,4.249342334192707064e-03,5.576736754392895047e-03,1.837923917123310616e-02,3.438844303759532733e-02,3.481624358996091712e-02,5.760273952707489070e-02
4.784514693322207413e-02,5.685958845889929614e-02,1.999198426067007317e-02,4.854831847498555265e-03,3.751778336770696717e-03,3.063548734274953479e-03,2.834091579712125566e-02,4.553049568968075417e-02,3.112103981519975457e-02,3.879484213486669025e-02
4.674585074670638274e-02,5.274433559086039169e-02,1.598196901988689286e-02,6.592465253025683349e-03,3.312069672217463501e-03,2.361331323667535415e-03,2.555349922554817771e-02,5.947922245076413261e-02,2.186851201703589320e-02,1.563042830590199994e-02
4.041402569727971239e-02,3.845221927441230120e-02,1.262263691179181177e-02,8.192126889244467219e-03,2.933883529580276310e-03,2.856846432818234936e-03,2.459624994860728185e-03,8.633161850765126710e-02,1.073071940139019680e-02,1.642644277893692481e-02
3.304474565834918109e-02,2.240456845028059030e-02,1.382205511971350276e-02,1.162361335443151504e-02,2.582235938512767500e-03,3.087478296545648985e-03,4.500427965885581139e-02,1.272347692929321206e-01,4.493514471776572771e-05,5.651667377707266654e-02
2.720873939703334979e-02,1.140712679034083799e-02,2.125734742180260956e-02,1.712247322669338198e-02,2.255858140555725821e-03,3.573594039251188920e-03,8.252989555068136751e-02,1.704878776126562412e-01,5.200363277609983126e-03,9.270725086005415783e-02
1.898301700786518900e-02,4.145996387028140322e-03,3.310593623676767044e-02,2.000981562239961820e-02,1.971043120769093524e-03,4.790189996571337858e-03,9.859065536693895071e-02,1.865852723847802597e-01,1.113395681293712948e-03,1.052686046532753383e-01
2.760602586727157332e-03,1.039102855842725590e-02,4.486954810966821416e-02,1.465153854554029911e-02,1.727579112566085930e-03,5.174822174923523511e-03,8.959860083655600549e-02,1.554618073024021108e-01,1.696181684028234479e-02,8.858365409052892936e-02
1.700196583711616888e-02,4.067635473242651317e-02,5.250516586774051780e-02,2.415674911195465034e-03,1.515934898348492415e-03,4.131584036372673747e-03,7.332189618700996059e-02,1.030629291924721469e-01,3.186543003633114657e-02,6.351754805221783429e-02
2.804522998033196976e-02,7.715351344910714726e-02,5.478397388609183849e-02,8.722545136496076545e-03,1.333358493363230677e-03,3.772510914339721744e-03,7.264907271158833890e-02,7.611888840772956799e-02,3.739347608818935353e-02,5.206812072853587298e-02
2.862295435514374334e-02,9.899103080661642018e-02,4.972797566950817871e-02,1.360142122975647495e-02,1.180789052449789534e-03,4.764957649523646893e-03,8.393134020994783007e-02,7.706095096539307410e-02,3.474059849361514629e-02,4.910308715305927718e-02
3.192506631620204566e-02,9.610083768650715119e-02,3.424815202407761189e-02,1.404112339855759749e-02,1.055376760737834069e-03,4.006560079149938496e-03,7.951177589905585041e-02,6.289276020336453943e-02,2.979237569155575305e-02,3.696419768900272018e-02
4.526926326374757642e-02,7.593551632061783241e-02,1.282793036576835959e-02,1.300832633481951994e-02,9.519460522928657395e-04,5.048204303684472680e-04,4.797352924519282524e-02,1.489806023970415526e-02,2.511536510630566280e-02,1.687961728716675519e-02
5.755185133400284730e-02,5.075221885492849083e-02,2.232617031387186361e-03,1.027581759728296920e-02,8.666391479136190644e-04,5.655547517185902963e-03,1.175302697728041086e-02,3.133780753830758131e-02,1.963877378576715099e-02,6.267787543837888276e-03
5.613649620599604761e-02,2.682659774483481946e-02,5.191174470381004769e-03,5.332819416342983454e-03,7.964115034227753787e-04,7.029957337275316055e-03,4.289242470940567327e-03,3.926132598148021624e-02,1.289857265401847357e-02,1.251181225945172115e-02
4.413371028549277486e-02,6.912201778458028703e-03,2.052930152180996656e-03,1.398466734037835842e-05,7.374556304967318969e-04,4.374282875595420991e-03,2.282516031080292045e-03,1.717962425558238609e-02,6.341268700783435353e-03,2.632538549406996525e-02
3.210460220436281431e-02,4.462336968982070703e-03,5.789996291720731283e-04,3.884784643455767902e-03,6.855470179407199827e-04,7.259071530503702569e-04,2.373434415026369829e-03,8.123891542121640386e-03,1.590066763817819112e-03,3.830405577167882158e-02
2.337748707837904519e-02,5.212880358527120783e-03,8.998120260874488754e-04,6.712398939470300661e-03,6.369252007491232621e-04,2.021336716035199328e-03,5.548041539016749721e-03,2.792281118818411637e-02,9.005583465031678260e-04,4.987621101216951208e-02
1.591388459973415437e-02,2.491090722287112123e-03,1.992816398930071821e-03,1.020021110699751050e-02,5.882962086303666514e-04,4.048842735016751869e-03,1.039269306406647234e-02,3.875939535689007509e-02,2.231156446428171104e-03,6.512818797956039518e-02
9.925980338703798561e-03,6.223407498572052811e-03,5.561925967767332966e-03,1.473662956611357551e-02,5.365418017910517090e-04,5.271233979729018568e-03,1.432421423231965835e-02,2.675392141755798814e-02,4.328972416601262543e-03,7.793739190339661616e-02
5.682564092508756923e-03,1.482528806191940954e-02,1.863127044330353636e-03,1.809364052857211080e-02,4.787826015344328581e-04,4.865171976437474878e-03,1.509982679668602987e-02,8.649190783766011470e-03,7.346694098746804971e-03,7.522643835190948036e-02
4.203363056091351073e-05,1.547432633214973485e-02,9.494524403129181792e-03,1.699524513956803332e-02,4.126186252379271998e-04,3.059887938985903204e-03,1.787554719364230910e-02,4.018147641685938798e-02,8.446483225495945990e-03,5.470883965763701645e-02
8.166473188819755452e-03,5.943680547685677856e-04,1.238628187517354200e-02,1.092061806589271662e-02,3.362827688320668348e-04,1.383192507529416599e-03,2.488578735701317546e-02,4.330685082814071662e-02,5.567018635440889110e-03,3.128518592725512693e-02
1.444808224187704368e-02,2.316214645272971287e-02,7.574758894114057978e-03,4.158438727687659674e-03,2.485884723476989308e-04,9.603829705014099976e-04,3.045689561232628809e-02,2.165105810936072267e-02,1.138135347558820020e-03,2.128461472611861693e-02
1.584258730305157514e-02,4.337514317686282789e-02,4.052521500851648251e-02,2.370790573658768281e-03,1.486954632639960242e-04,1.610027866734832763e-03,3.435769369011093533e-02,1.065230689881043608e-02,8.231647957122889547e-04,2.736876007925818574e-02
1.677904228116914448e-02,5.176959940813666283e-02,6.223239527498859724e-02,6.101467817234870229e-03,3.616515302309499913e-05,2.418802831795163408e-03,4.515026011639262926e-02,4.896448652673314472e-02,4.114353126542294719e-04,4.045580858124537410e-02
2.184797722750085949e-02,4.668475650786163555e-02,6.211321755589607752e-02,9.462075022314973133e-03,8.848203880902207421e-05,2.645684833224525977e-03,6.281168685797394735e-02,8.778746401169930380e-02,3.118026897508989308e-03,4.765884529140850673e-02
2.640276124797859628e-02,3.502403923727971657e-02,4.847756836335980618e-02,7.440454607543208441e-03,2.238095804195668179e-04,2.257544604381914091e-03,7.373849471178661741e-02,1.127892872555830567e-01,7.182829061036628826e-03,3.950992579384421388e-02
2.145079577751232355e-02,3.002559708418533341e-02,3.161800783712061941e-02,2.416239951243452644e-03,3.687090684114581354e-04,1.733361950607982191e-03,6.962876544013892055e-02,1.175499991336628053e-01,1.465092969763107100e-02,1.847188462708373308e-02
7.658914301884075203e-03,3.700792275376321716e-02,1.491634175471024011e-02,7.608637291703888601e-05,5.224607375301114007e-04,1.387028948780833848e-03,5.737455568005902368e-02,1.130981924995749649e-01,2.585941710806749852e-02,2.011469643165635438e-03
2.673654797373202323e-03,4.393609775965210545e-02,4.832647198558243226e-04,1.303057362826900078e-03,6.822050086477502318e-04,1.134472259697581233e-03,4.700299382366242978e-02,1.117520716125644381e-01,3.596122319083920604e-02,1.151377639926252743e-02
2.381930507784103812e-04,3.662959465393928610e-02,1.175723871373277572e-02,2.372015476630762523e-03,8.428989274138839896e-04,8.456529190291699454e-04,4.140322368698152317e-02,1.118027998080779600e-01,3.736065864621383042e-02,1.131604456704710798e-02
1.149381154549373139e-02,1.934822201820235801e-02,1.540051841176655681e-02,1.352765780426582647e-03,1.002913127088676413e-03,5.563861903332416488e-04,3.792529768185241845e-02,1.014883086536706169e-01,2.682629970559585394e-02,1.018298062719658753e-02
2.441354858490950644e-02,7.678047556998468526e-03,1.036678202859168257e-02,5.152574828985153135e-04,1.164501219628941847e-03,3.280856275640024874e-04,3.280877023058784842e-02,7.288492604847454648e-02,8.648862740868429322e-03,1.700829012110073590e-02
3.517834262300742476e-02,4.349649421639222371e-03,1.027980699764557016e-03,2.798554865666393141e-03,1.322102846369219631e-03,1.442222972131053664e-04,2.581692619182479956e-02,3.411973000311530058e-02,9.524668038842679096e-03,3.294319205984486826e-02
4.152150877248025895e-02,3.382078283445310793e-03,4.781104458302662744e-03,7.515301534366320563e-03,1.461291181833806671e-03,2.189595912204452834e-05,2.130856057328451431e-02,7.839822034758629765e-03,2.155158864155632195e-02,4.803838152759203756e-02
3.849911039464782442e-02,2.301813700644447791e-02,2.175215819522900371e-03,1.011801143080882925e-02,1.583991643631913696e-03,1.587886054579920494e-04,2.203863948375423681e-02,1.047059403548489601e-02,2.427204892511228979e-02,5.263812086974689608e-02
2.537883305643866966e-02,4.698235827620020344e-02,7.159956218993790422e-03,6.911609069611229089e-03,1.711655667397414538e-03,2.579665670539333126e-04,2.621968759628203610e-02,3.527308332358652931e-02,1.844679618873114324e-02,4.864451263253269375e-02
1.000467924213005802e-02,6.438174337849836282e-02,1.587940819788926164e-02,8.335226101180927185e-04,1.831745254854243686e-03,3.351514080366472799e-04,3.207358938205243093e-02,6.179234345477008922e-02,8.881408354985371317e-03,4.067452615380987707e-02
1.787037496905332420e-03,7.158311925112635643e-02,1.456830922834163183e-02,8.852197622889947104e-03,1.889799703028720908e-03,3.896787883834211194e-04,3.822824247976771422e-02,7.507176989145000756e-02,5.810128695192011070e-04,2.695543431541108648e-02
4.344202463591011198e-03,7.038798567062889977e-02,3.661595628053310007e-04,1.412970073534064799e-02,1.903753631328289776e-03,3.975325303145335804e-04,4.059383498530779594e-02,7.041953188112941298e-02,5.203985517146577679e-03,1.125685729678158227e-02
1.507746096601332748e-02,6.482832462291550357e-02,2.042820205524412819e-02,1.538244787906573388e-02,1.984200723171610468e-03,3.763453683634294836e-04,3.557253267040585282e-02,4.893942584211143781e-02,9.112671770479528408e-03,8.810335562895052486e-03
2.730866515138591702e-02,6.027909021370060627e-02,3.244951826930070338e-02,1.194609115982697700e-02,2.090966335158008210e-03,3.832236549197824411e-04,2.428744821693756828e-02,1.682690376998745643e-02,1.008800101625436860e-02,2.424153446225363329e-02
3.416332284186968105e-02,5.933543914619882759e-02,3.295554495515715804e-02,4.800877852734164800e-03,1.980712409480393527e-03,3.856554964863526200e-04,1.156563358299344396e-02,1.338274828345860021e-02,7.280112758147868311e-03,3.858556277466666101e-02
3.421471249056341063e-02,5.892932836835291371e-02,2.880185289937697846e-02,2.738286034196038294e-03,1.721647943542482621e-03,2.688761812985845218e-04,3.463943690939112491e-03,2.815558205445081730e-02,4.196856767255253799e-03,3.648363868312435448e-02
3.197202912525304308e-02,5.502234872811026523e-02,2.482153518636929720e-02,7.228581407894516322e-03,1.877501849440569052e-03,1.006877219747533174e-04,2.306836764341477306e-03,2.499635671178821253e-02,7.061595366123013355e-03,3.124635003609593786e-02
3.215454447054682391e-02,4.867306338830497403e-02,1.884294534848222555e-02,7.798017036727501218e-03,2.572420006775431520e-03,1.674824136266608290e-04,2.318609239645759955e-03,1.522330054849783086e-02,1.757765393793785796e-02,4.172045955426557928e-02
3.584411316209824144e-02,4.500572585198923947e-02,8.683999052929249063e-03,6.194629028381612272e-03,2.938164032573782700e-03,6.132358911556869564e-04,3.534583922351114751e-03,9.218621212227814943e-03,2.869327817164683825e-02,5.958550578599186576e-02
3.994297972020229709e-02,4.646578844915652540e-02,2.836162175838014866e-03,4.258933157286388244e-03,2.338456807934052167e-03,1.476334327551550273e-03,1.527038958356868349e-02,7.695066360157715689e-03,3.032572020612334107e-02,6.440459134621491499e-02
3.786870019577075891e-02,4.911571194942462859e-02,1.111677001000607734e-02,2.029916898253456524e-03,1.413999918379450597e-03,3.041744443247753477e-03,3.132807168765592426e-02,1.370462487822252280e-02,1.975321166031169043e-02,5.721629501356115949e-02
2.617273601722491794e-02,4.768303248507839431e-02,1.458239075051586710e-02,7.374939750397198433e-04,1.037352712147609612e-03,5.161671078117216309e-03,5.243598563129854562e-02,3.703233106215702425e-02,3.268874667517792949e-03,5.405260636500611865e-02
1.175256670911786240e-02,4.258033363872963661e-02,1.546495675928831644e-02,2.449762801464135803e-03,1.088486033520560080e-03,6.344713589151469019e-03,7.294138096698443707e-02,7.628322963630670972e-02,1.189911078745308631e-02,5.833987762994467807e-02
3.808572154981836912e-03,3.727435861292172775e-02,1.678856754663003714e-02,1.633894496910610200e-03,1.007488150639069754e-03,5.081756934598030684e-03,8.155626788837914976e-02,1.125140382705705766e-01,2.239668877059751428e-02,6.129624071320192297e-02
1.870043633491300268e-04,2.888595549312315131e-02,1.882668299141471158e-02,5.532421438025087053e-05,7.295803539931187444e-04,2.119219831036019391e-03,7.581960915951416191e-02,1.297528810438581537e-01,2.673003362840103980e-02,5.879436158382132793e-02
8.597419640691822754e-03,8.022767953720569625e-03,1.901113182446469499e-02,2.298814057279799166e-04,5.010670227103392570e-04,1.471897007434558183e-04,6.403691341196930675e-02,1.290323736161554657e-01,2.442882586794158442e-02,5.167608274103743099e-02
1.889201976112019413e-02,2.739225470144613511e-02,1.551908066898154831e-02,2.713160206594998972e-03,3.645604423483009933e-04,5.746185298233514715e-04,5.345631719391379794e-02,1.183308142338765911e-01,1.713118824161857789e-02,3.838275821783222047e-02
2.056868542618517023e-02,6.196958447459362945e-02,9.841444443976773288e-03,5.567365766557162698e-03,2.113252654458792532e-04,2.230118872695299390e-04,4.629726103469705700e-02,1.010992985328483529e-01,7.893031018974218035e-03,1.898454057678741064e-02
1.183978018010025529e-02,7.495490410590530117e-02,5.027216037950278486e-03,7.711617233098644157e-03,2.467061770146866196e-05,3.316969856854821595e-04,4.261123841431796455e-02,7.930672735099646153e-02,9.175309633112389970e-04,1.711564794521286056e-03
3.795998614125519616e-04,6.406467712131440340e-02,2.106995042232405468e-03,8.828105602687083553e-03,1.403326721909658775e-04,5.456073771406581494e-04,3.966223751286218624e-02,5.951803687323124759e-02,1.137106629382062667e-03,3.154332814398084703e-03
1.061046793742843712e-02,4.794774294379131052e-02,2.642772595665956927e-04,7.861321245424062257e-03,2.711721958500808074e-04,2.242278385782371978e-04,3.448109491335039911e-02,4.892044921840638799e-02,9.586050474105314509e-03,3.688680816468183597e-03
2.339980958736942104e-02,4.036793207497930275e-02,2.303902855096816738e-03,3.610937831804451967e-03,3.899457723937714408e-04,1.803196392194429676e-03,3.052065915373743804e-02,4.819092580488713862e-02,2.017310766116581569e-02,1.011254911392706762e-02
3.066700140748563480e-02,3.476031651506814729e-02,1.576538931517073921e-03,2.943498532060175987e-03,4.998148513309253610e-04,2.654928306759516202e-03,3.397955639189704363e-02,5.364877609377097234e-02,2.553911639461013336e-02,7.714561270623233012e-03
1.493504194627728876e-02,2.363593786944846731e-02,2.930095378048309419e-03,7.804459193676348966e-03,5.881318676920768099e-04,1.902889521197996059e-03,4.165408667894111849e-02,6.159643863170757155e-02,2.486706883170083926e-02,6.587351755296174532e-04
2.672651534264816262e-02,1.723092359348096791e-02,7.334654691104733684e-03,6.436400172172801297e-03,6.515976999971627350e-04,4.814789816184094143e-04,4.191820517646075578e-02,6.463674206235905939e-02,2.265693279510474015e-02,1.194770178558820714e-02
6.950078027090240973e-02,2.737958111448288850e-02,7.085549405398488231e-03,2.104476404289056315e-03,6.951345083025524223e-04,2.265239808179339369e-04,3.145269055475632264e-02,5.273847589842110134e-02,2.198506441018610938e-02,2.836036697777596233e-02
8.492986029911203660e-02,4.724163258781713393e-02,3.401380435066556421e-03,1.314518471621536032e-02,7.201044562381687204e-04,6.528890489978291531e-05,2.247079964459065826e-02,2.720060083991032024e-02,2.189896178162641788e-02,4.425106827260114062e-02
7.032468993600687890e-02,6.387708189610091791e-02,6.994468709287756563e-04,1.911847390463203289e-02,7.246879420179917243e-04,2.139574596732068045e-04,2.700230428399771898e-02,4.492212662919482097e-03,1.956591479127748820e-02,4.270519987895465136e-02
4.606636235605313795e-02,7.887281438902862818e-02,1.766949591501479387e-03,1.599848464957038391e-02,7.093813462754432458e-04,2.193665430540353610e-04,3.917281009610678461e-02,3.619153742865959672e-03,1.273955157445939845e-02,1.794882512108493533e-02
3.243035191920166233e-02,1.006217196465336583e-01,9.205198301194532362e-03,7.888975186725651761e-03,6.768476079816656155e-04,1.465268373392285663e-04,4.075078470359606853e-02,4.999404711622995601e-03,1.989071375761875416e-03,1.077678547149660444e-02
3.563921061333212570e-02,1.243851206429619077e-01,2.148896555551336324e-02,3.695574771158340391e-03,6.292859715754616206e-04,1.906163150411598051e-04,2.302060885998425538e-02,1.255010494019329244e-02,7.234983290704599668e-03,2.031561071699741414e-02
4.927018750684858395e-02,1.341986498690884433e-01,3.109117176265569632e-02,7.963492297812638232e-03,5.684004513917067201e-04,2.941095152897270923e-04,3.930251168610763429e-03,2.362305496704771718e-02,7.319111124001321904e-03,8.720597954376256913e-03
6.218176187992677934e-02,1.227464310774704637e-01,3.282750519808978057e-02,1.648281615593528288e-02,4.965476139617267968e-04,3.065338211361903482e-04,2.447847281240569245e-02,2.579515442799525798e-02,2.709211592023650587e-03,1.044708440772478507e-02
6.669443348714922115e-02,9.932205622312535731e-02,2.945146443029010921e-02,2.166692075380815749e-02,4.166745344935105021e-04,1.871216621944262186e-04,3.332447957956875123e-02,1.732655587043364920e-02,1.324513215957383479e-02,2.759547352236386281e-02
6.270333176116800467e-02,7.636096825294172441e-02,2.526422675254786504e-02,1.971887309527422041e-02,3.316863468514000138e-04,1.246460166245717132e-04,3.540607002313285456e-02,9.782145067471017391e-03,1.386059659940310287e-02,4.007722388987356582e-02
5.451781656045370794e-02,5.602123653301158829e-02,1.991712283702614869e-02,1.177475782016230640e-02,2.443628258149182142e-04,2.798557252830526608e-04,3.466617766545621038e-02,1.171651835596115507e-02,4.956899284408801051e-03,4.505917963435752266e-02
4.395833074209274521e-02,3.395481204312000151e-02,1.132760886617726129e-02,1.529596391856981579e-03,1.575372576311879688e-04,3.090940580065026965e-04,2.687583777518984599e-02,1.675165562135548514e-02,5.248171395468409148e-03,4.112822377690684289e-02
2.912514415546867130e-02,9.633139981629141452e-03,2.530288589108914974e-04,6.631823199875077658e-03,7.403308825447337807e-05,1.944277757826430684e-04,4.490622270056999002e-03,6.464981737361498969e-03,1.255498250901327523e-02,3.214314975152990361e-02
1.132529834610137946e-02,1.256939874420628933e-02,1.032231056171016050e-02,1.005635546445601651e-02,3.502518200135357434e-06,4.738139720613056467e-04,3.177190458760537767e-02,3.466832808026126117e-02,1.941189700444961516e-02,2.060537265136385202e-02
1.163561797102954411e-03,2.932279146174229800e-02,1.758242182298950379e-02,1.007600728800239591e-02,7.267122722990708688e-05,9.406061456039971477e-04,6.985380656312815961e-02,1.004370395735062760e-01,2.745961436767933861e-02,2.244823474227681387e-03
1.557452938827806263e-03,4.158354679097683165e-02,2.014187354797025709e-02,1.004881185238907723e-02,1.313815474968299036e-04,3.716269038202222978e-03,9.688402967570772240e-02,1.607550484065642660e-01,3.423602128380696247e-02,2.419260396380129227e-02
5.181544894476437964e-03,5.243257244385730875e-02,1.896410210213148387e-02,1.064208116257016334e-02,1.778909151129866285e-04,5.156918812041666467e-03,1.078509317332509571e-01,1.856125213628214976e-01,3.791558372928637705e-02,4.736341577475369075e-02
5.972635836937390495e-03,6.282124354397272681e-02,1.680302022830296865e-02,9.445557065728049997e-03,2.107497521716804475e-04,3.499864140930515188e-03,1.025215650485718222e-01,1.681265398005379053e-01,3.989143153877408587e-02,5.345315601773303893e-02
7.271649905890444077e-03,7.027839677706063104e-02,1.563061658366764195e-02,5.934912168942209701e-03,2.288418364648712447e-04,4.192974205544198552e-04,8.198571041585712982e-02,1.210728645632659084e-01,4.099349997452576139e-02,4.238019309881295438e-02
3.115984513562849653e-02,7.232702348890585053e-02,1.505178833330166228e-02,3.789721091117848745e-03,2.316575705104771525e-04,1.236426155347573452e-03,5.141544989600175392e-02,6.116232696342929764e-02,3.962292890945583179e-02,2.480552768151739196e-02
5.459415271073615739e-02,6.979619103056493301e-02,1.377891659377310750e-02,6.196171383549236092e-03,2.192933619182877271e-04,1.031505678692850453e-03,1.896336587785544051e-02,2.895643947973605692e-03,3.628113259746319069e-02,7.331800152144559400e-03
6.723720433059157675e-02,6.608691706598915361e-02,1.224843391935474986e-02,1.092742495107931061e-02,1.918885147606804549e-04,7.234512940318183795e-04,1.046933869577614147e-02,4.307606265742315588e-02,3.585172451139194416e-02,6.675138387180604149e-03
6.750805110106194995e-02,6.449330473865723390e-02,1.235115980022696326e-02,1.257141006980265659e-02,1.496174413793619612e-04,1.245853841981602169e-03,3.448732151143121122e-02,7.426472223760022251e-02,4.062073021528944672e-02,6.384082676257796414e-03
6.047043964981108077e-02,6.519815175750119651e-02,1.330916029395012162e-02,8.679294060766496594e-03,9.387503968011564357e-05,1.545821959164933417e-03,4.771884067869722190e-02,9.417068316457491428e-02,4.367221964511971283e-02,1.605562109870543874e-02
4.641527745076769879e-02,6.328889736956817835e-02,9.959398620324275836e-03,1.696442341615639685e-03,2.726512509518688526e-05,6.015074720980411469e-04,4.597535735362695553e-02,1.044014091782248937e-01,3.567768653051972549e-02,4.416674598519134548e-02
2.232257928706763914e-02,5.334349266298467340e-02,1.008048268940068236e-03,4.349007394235932314e-03,4.902735733333658905e-05,6.608498479753771191e-04,3.453443328309795113e-02,1.043155550297932138e-01,1.782397555385389215e-02,4.787454668168920902e-02
2.677678860719913921e-03,3.848220521720600168e-02,1.430381244141722651e-02,6.526400277135134195e-03,1.354006711908704993e-04,5.786661123559280881e-04,2.333251519816882669e-02,9.505035240280319819e-02,1.905281500930226541e-03,2.006676277491819746e-02
1.146712679249813419e-02,2.943767655928109309e-02,2.025575639914589665e-02,3.004317780840092510e-03,2.283717278380335489e-04,7.638230166918448007e-04,1.612496669307388053e-02,7.873412167809684670e-02,2.820197046305805092e-03,1.409240342931022093e-02
3.218115442041787847e-03,3.144110222940176697e-02,1.561827278838199759e-02,5.414230003062125984e-03,3.202489001464988707e-04,1.783395571415010697e-03,1.185442815539152969e-02,5.925940425963840269e-02,1.983961159441027453e-03,2.833937611610774440e-02
5.425301422621242250e-03,3.793056885298571462e-02,6.345418446217584822e-03,1.271037225697320590e-02,4.109782666373016421e-04,1.770574975934153823e-03,1.196625525172957324e-02,4.537857899710789206e-02,8.332590630064497933e-03,2.349047924143713925e-02
4.721488746577667123e-03,4.041167068817724112e-02,1.052339551561758731e-04,1.139936973648242487e-02,5.093471627887900983e-04,1.446607820525904961e-03,1.892980139960196220e-02,4.554798735848551022e-02,1.042989431425673380e-02,2.079229729350028436e-02
1.326686844598227392e-03,3.849736041095054573e-02,1.634967566424609014e-03,1.390358051413025271e-03,6.079184088254213679e-04,1.425854108256963560e-03,3.149214978115267433e-02,5.956104438683795799e-02,7.380205468610066474e-03,3.594101667870472361e-02
8.785363519360975260e-03,3.587435041618907555e-02,5.283655876181935114e-04,8.888041324364465146e-03,6.800098261953214408e-04,1.517723919496202821e-03,4.573919038063063019e-02,7.876027062378428145e-02,2.499575523043700773e-04,6.422955324931016452e-02
1.510008529273271401e-02,3.164826038057946128e-02,2.869321151879216975e-04,1.202591974936411366e-02,7.333481257435429512e-04,1.449253231483061625e-03,5.703800556235744112e-02,9.078425368125336847e-02,9.963863367860953391e-03,8.699835813592506073e-02
1.261351850179732656e-02,2.286186823977721244e-02,2.052162195173766208e-03,8.142326225925646324e-03,8.181173822078898362e-04,1.302794852854413958e-03,5.930133649274108715e-02,8.404199482066518345e-02,2.066528255935073943e-02,8.899133430847407100e-02
2.400983578391300763e-04,1.235332656931067627e-02,9.133323908211688630e-03,1.365585479267628511e-03,9.127556330893124310e-04,1.208607433299931956e-03,4.684797765845402640e-02,5.443586750126006013e-02,2.759570115285474648e-02,7.087424940026634812e-02
7.680446472232852276e-03,4.930050269358183385e-03,1.676945430355647818e-02,4.738577460017197839e-03,9.038134348140365029e-04,1.132896406456736314e-03,2.019348187212801835e-02,9.171554173476648142e-03,2.910132889103021064e-02,4.743386620372137819e-02
5.437060661444918439e-03,1.588019982745127005e-03,1.598162182806887877e-02,7.328667942651744503e-03,8.294534978890471177e-04,1.017683025617360576e-03,1.054914510849420776e-02,3.764234812861842749e-02,2.801311007177951021e-02,3.341575206287168698e-02
2.958092456134932963e-02,1.130965362861635105e-02,3.717513548566772717e-03,5.119647211564211202e-03,9.318413717121820693e-04,8.817622720103014547e-04,3.052418329792199597e-02,7.142302140489945050e-02,2.751667056521397633e-02,2.936017582010545454e-02
4.031544803185178188e-02,2.002320355211483632e-02,1.117580023686453629e-02,9.172398603889263691e-04,1.142470830953272150e-03,7.565331596610883752e-04,3.130905045757467059e-02,8.170613050594262294e-02,2.802017049662064788e-02,2.335789632056139292e-02
2.834517557968492182e-02,2.011911008936390077e-02,1.730567514103949905e-02,1.951454680243211513e-04,8.983226549408345396e-04,6.378094083356601303e-04,1.753569663533508308e-02,6.644504665295060397e-02,2.931142059248688717e-02,1.023569611151420658e-02
6.674520013161814279e-03,1.160794942390468501e-02,1.249026527125900871e-02,5.386234707667863705e-03,7.694412796894522838e-05,5.149206896942310711e-04,6.299964780338710227e-04,3.254818605263062881e-02,3.229716633127591163e-02,2.728165415636342461e-03
9.477281094297329220e-03,9.222694074560730884e-04,3.301294901096682270e-03,1.259948371802910479e-02,4.510540513768459148e-04,3.935925569122854478e-04,1.313595353291280646e-02,8.293866936771194034e-03,3.694854525743693219e-02,1.369394847964950333e-02
1.776824393009641609e-02,6.818557948529357753e-03,3.075304421048602292e-03,1.496098230833252038e-02,4.639478562017295056e-05,2.830339469454920434e-04,2.548781355030411977e-02,4.362081163222657210e-02,4.112055119467897257e-02,3.387080078653312287e-02
2.353211335198044513e-02,1.068160256630469769e-02,4.382257338946900574e-03,9.442659478175246743e-03,6.543348313499310759e-04,1.848430062883415299e-04,3.819644611454287020e-02,6.494869556390646392e-02,4.259525927951354068e-02,4.247913503964588500e-02
3.027277256659959004e-02,1.296300019344080560e-02,3.572235320863552735e-03,2.721074499218207763e-04,7.837019144604202934e-04,9.767438836625887090e-05,4.810616218626769663e-02,7.313392290248763028e-02,4.058540565747040252e-02,3.559515305311152650e-02
3.891601620402082573e-02,1.562865052204425939e-02,4.346670988727576769e-03,5.002918233969188069e-03,4.665491741589635312e-04,2.264257221500890101e-05,5.252429988294544938e-02,7.492650743026364746e-02,3.485566956085423690e-02,2.724062615056301387e-02
4.881506895514006045e-02,1.601796133130688193e-02,5.927373260360306768e-03,3.053448375633495936e-03,2.671412903460620080e-04,3.640536444337355202e-05,5.420466742283285011e-02,7.260043942767523129e-02,2.546538370469067503e-02,2.602558991822291265e-02
5.649725076263571732e-02,1.025003211456136133e-02,4.839314438358149201e-03,2.391338422108656853e-03,2.566019482941685778e-04,7.591277186924741969e-05,5.715169887642512769e-02,6.438310370748472067e-02,1.452341287531894870e-02,2.866979519595245357e-02
5.975418143492240708e-02,1.913759776934436828e-03,1.817515863435531422e-03,5.524751258371439315e-03,1.969391476696014879e-04,9.809706011782527496e-05,6.173854332927376787e-02,5.497433134352944228e-02,6.102130161414533530e-03,3.313228327084508096e-02
6.233607356320387122e-02,2.790010213105878099e-04,1.628908411069665378e-03,4.645370775976825559e-03,5.015715070563761340e-05,1.088342070793493635e-04,6.661177504552773243e-02,5.409310516900841387e-02,2.234085872078810445e-03,4.035999056474944002e-02
6.648897190100497290e-02,7.386333170343171127e-03,5.055064091343052651e-03,1.836112741023458077e-03,7.461757573037199412e-05,1.037929058760215053e-04,7.144003618418341695e-02,6.338433954115547941e-02,5.081180269352501486e-04,4.694030618519692138e-02
6.467141985266362803e-02,1.351304950647511625e-02,6.772522150522242677e-03,1.426409412243988522e-03,1.528808276886303751e-04,7.065675061938515237e-05,7.684797498839442131e-02,7.660944568108044028e-02,2.574140846598231124e-03,5.153322551683234970e-02
4.903315096386112043e-02,9.644902057720469365e-03,3.142787569637467589e-03,4.665829450226138299e-03,2.234538051088562414e-04,1.975996747736407614e-05,8.414880382091868838e-02,9.260257718290916540e-02,8.080340317555697108e-03,6.211806845326807436e-02
2.384168032269242191e-02,2.556731634477918034e-04,2.634391673113049056e-03,5.713670618966505341e-03,2.994097103623117716e-04,1.898700641033142602e-05,9.266789848059531209e-02,1.129844263644768504e-01,1.589886583277712317e-02,8.190721653065367869e-02
8.804372082326168865e-04,5.399358350463292003e-03,5.628192692937064243e-03,2.621750299164004282e-03,3.792122067017537771e-04,6.214229235242680195e-05,9.634471567332432429e-02,1.270837924429609744e-01,2.546714447166532197e-02,9.687469056909295273e-02
1.972933665024438621e-02,3.860435296961694553e-03,5.784680952563955175e-03,1.942992288529033287e-03,4.467510553904110678e-04,1.684544341920271777e-04,8.931562758639455257e-02,1.192412880218513133e-01,3.260782257592126365e-02,9.400772987899262689e-02
2.842345878912294621e-02,4.376396941023208420e-03,6.312815201856210832e-03,3.069756587439784190e-03,4.602742629000352290e-04,2.976396087447024741e-04,7.470115393872989173e-02,9.374332620825155671e-02,3.031446307403315790e-02,8.134207304582741216e-02
2.294848507435327811e-02,1.276330076947944196e-02,7.977651303337577812e-03,3.272360923550473384e-04,4.415290856266742290e-04,3.156651428198083012e-04,5.984448253993119443e-02,7.011562971045492976e-02,1.690906689042091446e-02,7.047413182364328788e-02
1.077985156233729133e-02,2.441749937021958292e-02,8.481158359168600169e-03,1.879183236055444704e-03,4.971214280613516640e-04,2.967703341790750571e-04,4.585767312065277407e-02,5.158252659814718810e-02,3.246915508883702929e-04,5.369491984814871166e-02
9.161213247191097100e-03,3.203709654554085656e-02,6.396042819369522972e-03,2.961666524315732275e-04,5.868297916155673427e-04,5.232790328932328174e-04,2.975120375974303968e-02,2.269936674126771942e-02,9.214569096026886674e-03,2.194340543981554773e-02
2.381389661831984778e-02,3.408189623234329779e-02,3.008718450509070223e-03,3.322412777987775179e-03,4.707850829850692689e-04,8.445292054996498534e-04,9.814119719964150418e-03,2.108511236607658185e-02,8.875729632664065838e-03,1.311666474858499964e-02
4.194513392330372070e-02,3.207852419597487931e-02,2.836307933040719490e-04,3.718809635820712056e-03,2.186250109522744757e-04,6.019910167745227058e-04,1.681087368755419115e-02,6.484064348921285414e-02,3.732643395042188963e-03,3.969565828157568810e-02
5.160100497365116556e-02,2.487493753317422326e-02,1.605869976545173938e-03,2.755005846987631981e-03,3.935473013751943365e-04,1.598946976711619692e-04,5.047674187753811020e-02,9.349276929561606275e-02,3.460477419184114067e-04,6.557134378628007298e-02
5.406853168849087843e-02,1.267305349446338526e-02,3.384650019856349536e-03,1.361135399364955118e-02,1.119771555756299579e-03,3.596815769657129322e-04,8.102311417166252472e-02,1.025474846600479273e-01,1.967438902167560014e-03,9.490349015791041398e-02
5.349894161738108500e-02,4.853413715451442012e-03,3.171610973101477056e-03,2.237501367127307100e-02,1.529711608605236741e-03,2.505214931678678941e-04,9.796747316561507657e-02,9.603639218815351875e-02,2.692568001549865489e-03,1.120771672425242699e-01
4.952244653512630213e-02,1.355471087770526890e-02,2.746285866643047042e-03,2.558771326888675118e-02,9.870975856073711200e-04,2.764673362923138959e-04,1.064181397892463299e-01,8.556204562819565151e-02,2.828002007638984530e-03,1.079682607851899512e-01
4.399472428613689090e-02,3.647907126180419124e-02,1.300631838709346427e-02,2.444267662862878443e-02,1.319586596086784404e-04,9.692251929860743777e-04,1.169839832303881388e-01,8.156832429956656361e-02,1.431968462024345908e-03,9.733763591931834935e-02
4.080543807108467230e-02,5.537216112668543605e-02,1.930183650053726718e-02,1.991470029919507195e-02,1.639236797790098385e-04,1.979171688212697823e-03,1.254601008007558416e-01,7.938296445886022790e-02,2.118931823156245645e-04,9.646506332376660053e-02
3.719928397277865589e-02,5.603816962869926505e-02,1.608167893397446924e-02,1.156896976288350129e-02,2.138401139340573374e-05,1.320647629684249501e-03,1.193733591407031003e-01,6.785878541718674828e-02,6.332082602301229452e-04,1.054275385120805181e-01
2.931991311408967474e-02,4.225001130057966237e-02,8.405259386745711839e-03,1.974941883977259470e-03,1.420149220133655444e-06,2.049463652451665623e-04,1.000557689913925685e-01,5.453879331685734799e-02,2.785922112895493005e-03,1.215805768242834844e-01
2.424171938973811863e-02,2.659696772824411692e-02,4.803112687559666326e-03,3.151113151032121362e-03,1.702855919913339377e-04,9.704312201434584818e-04,8.268608721910336579e-02,6.209251224620036813e-02,1.205885887725737828e-03,1.497505317376527922e-01
3.012792897560538988e-02,1.598049348794670921e-02,5.596317789376405345e-03,1.330006238972505526e-03,2.833785389487699269e-04,7.541948024768150563e-04,7.589048261607772572e-02,9.434375359481868284e-02,5.630873235372341190e-03,1.876269746052017517e-01
3.819673937803091945e-02,1.098793319979692040e-02,4.682232354539620466e-03,4.040535841247408153e-03,2.997125232746249038e-04,4.242510563547822241e-04,7.329532102922280135e-02,1.264036222537914811e-01,1.298322137705060220e-02,2.154166213664720497e-01
3.215894146160549333e-02,1.200321025116908927e-02,6.101274589514101010e-04,8.492336558661633950e-03,3.296010782762607487e-04,3.908328892439755751e-04,6.530754856658316232e-02,1.346458285535819532e-01,1.603332843815578543e-02,2.112429011896118647e-01
1.314854192680513581e-02,1.795692296491899209e-02,1.916689845684807839e-03,9.936563490614178443e-03,3.917948937713092378e-04,3.901272713144242560e-04,5.033806600408256837e-02,1.192946477331842253e-01,1.453679050767556040e-02,1.713230153956303292e-01
7.632390766444776316e-04,2.227763771027020667e-02,1.232782899436118441e-03,7.199096720493019727e-03,4.336899158332529450e-04,2.447142000603868108e-04,3.420887039082895487e-02,9.538715948553896928e-02,1.051873832893063937e-02,1.131084174205018722e-01
1.828453986040473947e-04,1.816084336386931952e-02,1.384787657072174619e-03,2.619099558477639518e-05,4.443902900448002628e-04,7.429975810578080310e-05,2.436789073672920511e-02,7.645932394375766494e-02,5.108051887413003929e-03,6.390102882615052160e-02
3.761096479612864411e-03,8.002537338555991073e-03,4.480215407198539709e-03,8.763800764416738651e-03,4.467071840851534427e-04,3.362840001442663612e-05,2.392364065289773190e-02,6.698827896552021766e-02,1.454419866090504200e-03,4.151632753035700701e-02
2.596608245177528269e-03,1.023260124268100379e-03,7.514063183490765629e-03,1.503404629492078974e-02,4.461576102777591317e-04,1.297851824801741648e-04,2.824543244464263608e-02,6.107633920232336672e-02,8.828416124501560491e-03,3.811294412467440551e-02
1.609184342057547526e-02,6.912927853306963417e-04,8.217349508812376441e-03,1.727877681697536152e-02,4.341603768081271847e-04,2.515684090640123464e-04,2.909450198534561591e-02,4.979361272210064415e-02,1.665004448739883583e-02,2.824378924063797314e-02
2.388115635754960858e-02,8.799108163748269214e-04,8.084091599970666744e-03,1.623549407758369256e-02,4.076349644232915874e-04,3.716166054415040204e-04,2.271273473100376278e-02,3.140701963802006863e-02,2.494180672764910803e-02,1.335947141114858169e-03
2.306368918231249676e-02,4.287972487255297879e-03,8.590761592953355397e-03,1.272983841782531454e-02,3.674561918301281712e-04,4.681710336762728982e-04,1.168203543239830326e-02,1.010858697039093007e-02,3.313348543380990885e-02,3.691534875942319160e-02
2.230622350231924525e-02,1.298374224312588004e-02,9.042774758955967468e-03,8.815023515911873941e-03,3.184276095570383412e-04,5.501241483322136250e-04,4.571319491834925988e-04,1.110125028798752099e-02,3.836600148182066350e-02,5.781838067364370587e-02
2.658037220230313052e-02,1.963234670906769883e-02,8.735516758662910733e-03,7.593155867028043848e-03,2.707743905385014875e-04,6.244768308173046043e-04,7.746657834862074980e-03,2.928291908219123746e-02,3.660748811218960536e-02,6.148508834199873513e-02
3.034488675761914250e-02,2.148124815933817600e-02,8.143827421937359368e-03,8.967214646117806220e-03,2.204942925544560364e-04,6.842982741331134124e-04,1.166760218899019069e-02,3.957106847662701654e-02,2.705417159231730817e-02,5.955567504672697188e-02
2.676627919392081389e-02,1.983847393925784741e-02,7.719318729921820221e-03,9.677116871878586185e-03,1.461152799344200110e-04,7.238918033327824009e-04,1.293137324605860353e-02,4.107070133732810407e-02,1.428215424442428640e-02,5.815611833618600235e-02
1.659033328311940864e-02,1.753831517976781745e-02,7.273315369878518254e-03,9.348322857233829983e-03,5.965535320422262128e-05,7.446798007965480404e-04,1.453971764714399179e-02,3.774862956544254577e-02,4.438115763628739524e-03,5.502834604737572716e-02
5.484507186441082635e-03,1.611894171303495521e-02,6.600099580658888923e-03,1.081072134621091814e-02,1.458866035930413106e-05,7.482214323806467803e-04,1.616921402810472114e-02,2.913340985710465014e-02,2.451341857343002691e-04,4.936406600416595042e-02
2.626163695350785567e-03,1.503412454432998847e-02,5.799388450432317252e-03,1.287944663980926385e-02,7.245205560306299341e-06,7.334029201210571147e-04,1.397202718782762990e-02,9.795418612901065150e-03,9.685765458428132954e-04,4.326311109534831945e-02
5.873165781311952272e-03,1.340592365612549956e-02,4.988423407293309832e-03,9.894646721222795024e-03,1.158689392993787922e-04,6.996869946926592221e-04,7.576557071732555916e-03,1.705248942136625839e-02,5.335157055514226122e-03,4.015483221778136380e-02
1.172681368890174988e-03,1.143307189558087807e-02,4.145745030212279018e-03,9.726297166484519814e-04,2.703155972040176052e-04,6.484653661100537106e-04,3.316249614325819661e-03,3.541093995617134588e-02,1.190779411305941879e-02,4.535615546995399455e-02
1.244847339737911902e-02,9.559800646571310623e-03,3.239238436478744827e-03,6.864570288454844606e-03,2.263151221809770776e-04,5.815336227172870952e-04,7.027571399329919644e-03,3.270649255465656047e-02,1.803947350028972663e-02,5.701044935125275381e-02
2.613667634463910303e-02,7.738960508282963918e-03,2.300047049782818868e-03,7.393349142516627420e-03,5.075769095750087297e-05,5.004024944758532186e-04,1.697180922732254016e-02,1.405472262781638088e-02,2.185346065659846820e-02,6.014090006251805037e-02
2.584080054010864241e-02,6.174283591550699946e-03,1.372098334745711166e-03,1.965084217287969056e-03,3.055664721710435916e-04,4.069509177496133368e-04,2.698728633393725554e-02,4.652398653777895833e-03,2.410973804234433152e-02,4.533335275613514792e-02
1.026285704963887657e-02,5.227823873399094733e-03,4.770441707811922836e-04,3.216679409925832060e-03,1.112765275746891184e-03,3.036893483790501077e-04,3.370508188814731743e-02,1.363099439385857294e-02,2.382876930110160510e-02,2.577923716551553182e-02
4.836318617904870540e-03,4.051251108180295955e-03,3.828108119892810728e-04,2.445928513198002315e-03,1.601993049941513288e-03,1.933771816557610464e-04,3.750995286140612617e-02,1.563635770235255115e-02,1.438301224054587719e-02,2.005819985319978391e-02
7.333643650977756875e-03,1.273251274855991683e-03,1.210938147916335809e-03,5.566357351806845884e-03,1.134832626554109491e-03,7.880396095821744326e-05,3.840007235549984521e-02,1.881303767385089989e-02,8.393207165319341301e-03,2.743527835994104963e-02
3.785059953035711019e-03,2.249359374481869379e-03,1.976525812585841740e-03,1.562126366266798974e-02,3.493119414919362690e-04,3.713349520258118282e-05,3.474369186392885223e-02,2.664967120675955023e-02,3.555294152398616458e-02,3.296234293594223902e-02
5.447478020947496731e-03,3.686715316758676277e-03,2.615001064154721944e-03,2.029320760691591397e-02,1.148711708747460935e-04,1.514330407074076850e-04,2.657156298098471009e-02,3.483582298246620107e-02,5.146121211202406981e-02,2.806590343622781050e-02
9.326302258416841601e-03,2.138820137478494345e-03,3.136565899511554231e-03,1.789723607042333076e-02,3.091873747590275683e-04,2.611319917868329486e-04,1.728277672291112649e-02,3.663967411766691495e-02,5.042981533386824144e-02,1.751620216968478166e-02
3.533368867910524971e-03,8.073419878619372651e-05,3.642779409924705794e-03,1.242949988117424652e-02,3.709471565075348485e-04,3.634171745751287063e-04,1.058105574951502190e-02,2.987232068754827607e-02,3.984803626842748497e-02,1.102697585411025610e-02
1.502099148751566415e-02,8.506571268269065046e-04,4.086059867229325203e-03,6.149454544886290112e-03,2.323296961490210560e-04,4.556654058259812816e-04,7.725910757851808114e-03,1.838092913862988953e-02,2.899075721711479037e-02,1.109431562650231400e-02
3.733365637123962216e-02,6.313903666216886396e-04,4.219271312270577584e-03,1.557577249362175533e-03,1.348998746681090563e-04,5.354943898958949410e-04,9.090008502719404415e-03,9.077687140378747771e-03,2.130740628636133838e-02,1.067401194989560376e-02
5.229051454643427604e-02,7.726610339993569398e-04,4.109278439599002228e-03,8.553663729893933032e-03,1.204032037591343132e-04,6.008386917703749473e-04,1.509174054034314108e-02,7.830391217673626433e-03,1.570625219711483181e-02,6.098655805170716260e-03
5.325502191515490286e-02,1.475929885697063824e-03,4.320044048957650748e-03,1.051116392148574927e-02,8.353979568486379591e-05,6.500110779278441171e-04,2.279885136966387782e-02,1.448240400404146415e-02,1.003428602214022185e-02,5.146768827326567847e-03
3.974338817542161922e-02,2.229520091250835907e-03,4.977953913105170707e-03,7.588736013452898090e-03,3.609991793508599597e-06,6.817396911353544586e-04,2.562015423320537083e-02,2.141443458501640293e-02,3.330384221737824751e-03,1.519685773410305377e-02
1.909914349099556263e-02,2.905381732333998414e-03,5.219356102174236602e-03,4.442799709460108597e-03,7.687846699573893197e-05,6.951976592098381294e-04,2.088095177254783996e-02,2.138807184313448392e-02,3.441336234844885426e-03,3.339663261171046948e-02
2.189227883120098937e-03,3.694486745236646129e-03,4.414763566648833258e-03,3.447228708662520257e-03,1.413768822006645132e-04,6.900282844801364701e-04,1.420563727904128673e-02,1.624448862467986823e-02,8.707019109052166472e-03,5.381344146822554519e-02
7.074793822076428859e-03,4.614720216742731508e-03,3.213479220090578996e-03,3.191464562995936956e-03,1.882444040512251584e-04,6.663569553655470908e-04,1.203711271639758273e-02,1.269663537951308194e-02,1.176133723034997192e-02,7.147286514986796180e-02
1.339905156361116678e-02,5.531748989559199733e-03,2.497809527850953625e-03,3.273752174959416311e-03,2.307910070835579900e-04,6.247875002122739658e-04,1.394658015722455117e-02,1.214487874136759189e-02,1.273064550087306748e-02,7.897620020723226941e-02
1.988341239233880342e-02,6.389624822260920808e-03,2.158461238806804600e-03,5.342239407437053209e-03,3.084136823827202654e-04,5.663868502684113373e-04,1.634169441146807525e-02,1.178502134195581405e-02,1.258817161095044865e-02,7.525787982940271292e-02
2.312134048305094017e-02,7.205120807737962207e-03,1.648116983830543976e-03,9.060468298716095603e-03,3.975111490353153078e-04,4.926593258702348767e-04,1.846853601875461312e-02,1.211629636426341146e-02,1.292725891302220695e-02,7.237639906511185439e-02
2.032207166236896234e-02,7.960881374209357458e-03,9.161220306377167643e-04,1.105919318210623649e-02,3.901657409916857509e-04,4.055093991997162214e-04,2.020500906758962434e-02,1.498685334977255257e-02,1.321592619834560146e-02,7.469976510434865602e-02
1.462146307613213826e-02,8.607850409228717109e-03,2.215545629639356954e-04,8.983360883382460194e-03,3.258577721438594109e-04,3.071933855667467544e-04,1.891876840091692019e-02,1.835079934361926249e-02,9.443942743140565019e-03,6.394701484564406513e-02
1.097982016673174077e-02,9.116337513226538056e-03,3.819676496169933195e-04,4.455436734181229819e-03,4.443014140667533515e-04,2.002620937834891817e-04,1.308491169916519564e-02,2.073077595097508677e-02,3.567273875334318195e-04,2.733814021721932969e-02
1.105137692023532535e-02,9.476411439602547629e-03,9.887555672016094810e-04,7.441634825291050482e-04,6.762874927789952603e-04,8.749610690211887486e-05,5.470053726575157572e-03,2.531484606277764962e-02,1.064050588801601464e-02,1.722067965509301024e-02
1.294899829496090442e-02,9.674777268947748476e-03,1.597589889418051315e-03,1.402110372499998760e-03,4.596070588441635973e-04,2.816505548162666345e-05,3.932635290574289753e-04,3.256893920181456320e-02,1.370048168332274260e-02,4.594357864897036237e-02
1.386122395547795087e-02,9.694952278131500206e-03,2.144076203956559942e-03,3.562186762145041694e-03,3.284412519196730647e-04,1.436982103793549607e-04,3.950707853367441298e-03,3.585360069972210600e-02,9.197190806166438345e-03,5.728020835920513698e-02
1.324662308072684265e-02,9.528581740417081322e-03,2.616372176893467377e-03,5.760563394926566071e-03,8.182561584263890395e-04,2.560741282296556415e-04,6.238931140890920102e-03,3.155487745539936606e-02,3.153955234994756246e-03,5.818230531623794916e-02
1.265661520811612283e-02,9.175814225218088122e-03,3.022350999240910972e-03,6.011268935496002011e-03,3.711150349882135933e-04,3.623354592323640294e-04,7.927096150968654040e-03,2.587458483189435457e-02,5.509273087834312167e-04,4.861525579234942523e-02
1.155980571020629594e-02,8.640153168378961190e-03,3.333172494126415263e-03,4.448272634574534923e-03,3.757480935847911426e-04,4.596730586467726747e-04,9.962744737886577301e-03,2.354274230794428657e-02,2.305534007865936777e-03,3.489193623139899558e-02
