3.549282540768596006e-02,7.377516090308720983e-04,2.927013274842527393e-02,2.662479431270488219e-03,1.011274675341290697e-04,2.636844246621656532e-04,1.018247442984326033e-02,6.160085441423414354e-03,7.371945293109333219e-03,1.267812513262931394e-02
3.658960107193238304e-02,6.355361951727013731e-04,5.771451834923670143e-02,2.165053325959307839e-03,7.469302662537311455e-06,2.990974286752393074e-04,3.580058699945393164e-02,5.819075772080723949e-03,6.440083378124695709e-03,2.445475886541948959e-02
4.402713903752411562e-02,5.215646353225011737e-04,8.971463576639850113e-02,1.624440367545175717e-03,6.748484835842995309e-05,3.292715060419128671e-04,4.504500226613860486e-02,1.430233273837616149e-02,5.387888594048388137e-03,2.306379452121744625e-02
5.628799650201247312e-02,3.984886902589628455e-04,9.832494992402195100e-02,1.055324197160094953e-03,3.881691461704541888e-05,3.535538677338203391e-04,3.632192291661019701e-02,2.512953985334776333e-02,4.239370437228993579e-03,1.131298666574812734e-02
5.526070802424823403e-02,2.691623457704527250e-04,8.041625845597506761e-02,4.731235059458312273e-04,3.296782138739294820e-05,3.714319235961702215e-04,2.088403569736894949e-02,2.759249532317707004e-02,3.020619677330953472e-03,4.379549905852424263e-03
2.202517022576017808e-02,1.365731898569132532e-04,5.250366321469861902e-02,1.063847485591665871e-04,6.959054148051674544e-05,3.825451329795097051e-04,8.855871139684026033e-03,1.595514653668104674e-02,1.759012901025621637e-03,2.002295457468860826e-02
3.338158625491802201e-02,3.770580511950209269e-06,2.515420573283857347e-02,6.674466870349594471e-04,9.614332032422981899e-05,3.866931317131489789e-04,3.327227107117521759e-03,3.161636605565949169e-03,4.825000362186664853e-04,3.492766974517200196e-02
7.523163278723891956e-02,1.262076815192752382e-04,3.327684392301844679e-03,1.194761448348415816e-03,1.021467401142081002e-04,3.838399398198442036e-04,1.938405270273349957e-03,1.534759888984871430e-02,7.808477375093581495e-04,4.987652481868145443e-02
8.125099666946243582e-02,2.504084234611892693e-04,3.286937826602202156e-02,1.673917074437429771e-03,1.114549902075757731e-04,3.741141500310973984e-04,1.062029985128469609e-03,1.418812204129800761e-02,2.003536706800744006e-03,6.374044509455820129e-02
6.204024191318255332e-02,3.660341677024647072e-04,5.638756665190525208e-02,2.091706420155140314e-03,1.286797724060761712e-04,3.578050957362069332e-04,1.024820115607479563e-02,9.526658838705329493e-03,3.159932921406238479e-03,7.037392880682888374e-02
3.932114082363662166e-02,4.705104946234355727e-04,7.044180713762666912e-02,2.436380393392121105e-03,1.421665631961978153e-04,3.353550941202989742e-04,2.322571254596421733e-02,1.439232721162835016e-02,4.226998260951981418e-03,6.264575149770151841e-02
2.396186075357410045e-02,5.615480869572460213e-04,8.088194140577563418e-02,2.698079474558729915e-03,1.491309117447541346e-04,3.073479538935663729e-04,3.205715088999259998e-02,2.817384184413086745e-02,5.183676117671377759e-03,4.261853698724047540e-02
1.722559121404519319e-02,6.371979668837621192e-04,9.356839733725293151e-02,2.869299721752447373e-03,1.545839619715428086e-04,2.744940291385338893e-04,3.252568169597626346e-02,4.008563337805285537e-02,6.011265601538195134e-03,2.357655267653249384e-02
1.529145201409135707e-02,6.958985979594518347e-04,1.064274644532070130e-01,2.944849695290813023e-03,1.595594913063152467e-04,2.376121885697359177e-04,2.991937157264918171e-02,4.336795542654141994e-02,6.696513148477741678e-03,1.757544795043762889e-02
9.465521493447171322e-03,7.365137167120110835e-04,1.150848539429900480e-01,2.921569068799508787e-03,1.614812964257219348e-04,1.976091417453828311e-04,3.275644419740970925e-02,3.806748495482025624e-02,7.232426773047457777e-03,2.401764195590625969e-02
6.385500405701590929e-03,7.583599787537924309e-04,1.207147980479096466e-01,2.798958368884543399e-03,1.596862335793959261e-04,1.554566197879008490e-04,4.199294773192992214e-02,2.568459191910572870e-02,7.612951361958243506e-03,3.324080228326909553e-02
2.886875631777385473e-02,7.612237463854691633e-04,1.275396394956315738e-01,2.580157235703515323e-03,1.553232058747361399e-04,1.121669659283016550e-04,5.072103215035365931e-02,7.913169953376451848e-03,7.832038956572742391e-03,3.600128527404708456e-02
5.174309896094055755e-02,7.453666030798279576e-04,1.356163352209489026e-01,2.270791909849947856e-03,1.487668626548544425e-04,6.876774755749535863e-05,5.352470232475781131e-02,1.246802258122959792e-02,7.895611232446095654e-03,2.671480836615729854e-02
7.375499993667658516e-02,7.115194488352264476e-04,1.397764411923130834e-01,1.876823707863501441e-03,1.396319527547569301e-04,2.627601375896925198e-05,4.954939877442111895e-02,3.145667683665633041e-02,7.824122968263536385e-03,4.700830029593571976e-03
9.317181595388888959e-02,6.608653029113415811e-04,1.357256700526591753e-01,1.406722718873349744e-03,1.279808075846372432e-04,1.432720716938832721e-05,3.709698322996760750e-02,4.336443736850264380e-02,7.626990252224038688e-03,2.356787104531606405e-02
1.017566686187676012e-01,5.950112104088892042e-04,1.260733836361375704e-01,8.756934232265273709e-04,1.143252779289305216e-04,5.212155789399215049e-05,1.446349843278519308e-02,4.431682955023591441e-02,7.296001266144740670e-03,4.834205747238284889e-02
9.363741253588947488e-02,5.159499098414511249e-04,1.187936499720511352e-01,3.005319801568234750e-04,9.905301933296518934e-05,8.627047625909264135e-05,1.225437743594521081e-02,3.861664169648491157e-02,6.858963813607533815e-03,6.471545892371557973e-02
7.610564993345036999e-02,4.260121640822768724e-04,1.196954236814192080e-01,3.103136256988863069e-04,8.240942483615998826e-05,1.160422051381378383e-04,3.012928759001960721e-02,3.610776094893614063e-02,6.394063816402548173e-03,7.315780654556808260e-02
6.252253134920045252e-02,3.278108815484574896e-04,1.285948560300484156e-01,9.469533887938655359e-04,6.475439180407831403e-05,1.408283272608508387e-04,3.113600798574697043e-02,3.976234616483644707e-02,5.914247069355272474e-03,7.244803324754175988e-02
5.720426438622142756e-02,2.241783527889769942e-04,1.412621875666127402e-01,1.577635194665719933e-03,4.656059047486026548e-05,1.601594260100245074e-04,1.971854245252266380e-02,3.982624934435204794e-02,5.331712684554790194e-03,5.897317730200341002e-02
5.570086539167664469e-02,1.180980938244188491e-04,1.507440412535855645e-01,2.170286991321135426e-03,2.827840968173179922e-05,1.737171636384259065e-04,7.371482988072828799e-03,2.425553372936227123e-02,4.701862084634412554e-03,3.675749949855880438e-02
5.671727863917267604e-02,1.263291770905697098e-05,1.496668671940058759e-01,2.737925545298126092e-03,1.032019841341195782e-05,1.813423556687846795e-04,1.051197411542127442e-04,5.781428266892179278e-03,4.306296771336525289e-03,2.143369895150131627e-02
6.338524664335357106e-02,8.914905076265130807e-05,1.376478187222154870e-01,3.295117037236078121e-03,6.891052648978630678e-06,1.830395328204311345e-04,6.947849095372535255e-03,3.460146849900573585e-02,4.138340822792364523e-03,2.507771869507153042e-02
7.339649886293939107e-02,1.842486478659917859e-04,1.243380168214575365e-01,3.761276909992480703e-03,2.292930428615166515e-05,1.789781606372291788e-04,1.936649821721667802e-02,4.739301304179973501e-02,3.655258761612457767e-03,3.926883202378623344e-02
7.745023813917584210e-02,2.698084533328315221e-04,1.205151137693453584e-01,4.052679781681619610e-03,3.740544490808798983e-05,1.694890163749955330e-04,3.090594920573768584e-02,4.404069337761395975e-02,2.655658816834338860e-03,4.295445018483913524e-02
6.816393789859084840e-02,3.431823418395371270e-04,1.293828608202425012e-01,4.290520629315647261e-03,4.997792855168585826e-05,1.550551628394867664e-04,2.945352887982043144e-02,3.745197540151432719e-02,1.815217687157933898e-03,2.779034839803135731e-02
4.479631390182125389e-02,4.020001342427485498e-04,1.471290033747850168e-01,4.602526531856467734e-03,6.034256055708931170e-05,1.363008529496167044e-04,1.425505421234133860e-02,3.947167550708768902e-02,1.614574127007665583e-03,6.577912705967624632e-03
1.345509180942186002e-02,4.442257821175039229e-04,1.600237507418816596e-01,4.709338022451442160e-03,6.823977565766382587e-05,1.139800909695652984e-04,3.932514206385439789e-03,4.691735097602543064e-02,1.746849487121410671e-03,5.505400214853965919e-03
1.350459034048240650e-02,4.682076761894887317e-04,1.360867812305308622e-01,4.567434383867267390e-03,7.347930076119046743e-05,8.895850577617076633e-05,1.990071962849633558e-02,4.526999171272357708e-02,1.999886070581338715e-03,8.381607626036310585e-03
3.037054436005936012e-02,4.727198779206897303e-04,4.083244082550369081e-02,5.741063134461152524e-03,7.594348602940556592e-05,6.218568472392359931e-05,3.801697372516268936e-02,3.115742804551408299e-02,1.848308265237082627e-03,1.037456960397384505e-02
5.411409595223841407e-02,4.569932761149831930e-04,1.176610895905018106e-01,1.039720908579960107e-02,7.556030845113132399e-05,3.467268943994089055e-05,5.817615271081544998e-02,2.161420419731949899e-02,8.195111831388071600e-04,1.227597370582148018e-02
1.070551675106702627e-01,4.207358582923266315e-04,2.726232009069473050e-01,1.752484640855000303e-02,7.230754691374413493e-05,7.482688985376920041e-06,7.183699360112297261e-02,3.126472265148311919e-02,7.702527863891492875e-03,7.028716076003042358e-03
1.766466798443329100e-01,3.641415679204637579e-04,3.505395651127069523e-01,2.203919004492780123e-02,6.627206255559944532e-05,1.829487978945807395e-05,7.412908400367189399e-02,5.091182783622293789e-02,1.654920261747500412e-02,7.730262999483580866e-03
2.169258232386208352e-01,2.878875979718359098e-04,3.343270163963015795e-01,1.991445103466792099e-02,5.764301414418190271e-05,4.160256134893129958e-05,6.747293727523617779e-02,5.953828194233343196e-02,2.234315705293513088e-02,2.399998906943482183e-02
1.992773375058199126e-01,1.931201994671407425e-04,2.657184971572270071e-01,1.293552900463029211e-02,4.658326297127250877e-05,6.144088236188000767e-05,5.264620214196240322e-02,4.845679860890816232e-02,2.265639179483340884e-02,3.122328267817232189e-02
1.391931876165851123e-01,8.142912496182678421e-05,1.988950322410754090e-01,6.415229430386680011e-03,3.323185228022221396e-05,7.682445073637003002e-05,2.878066147963980262e-02,2.464826440177248640e-02,1.996714676807524042e-02,2.754566430335556038e-02
6.836987629873035599e-02,4.518880744891288213e-05,1.607055264404787243e-01,3.457251148995701354e-03,1.796407513466723527e-05,8.680331824374113575e-05,2.837347562818020967e-03,2.107246518166961281e-03,1.807648259516178926e-02,2.156899696063173388e-02
6.298275921753313314e-03,1.843757847575081042e-04,1.445878335038988938e-01,3.196087399957247676e-03,1.374851526274854657e-06,9.063165316804290680e-05,1.345875025737947560e-02,2.610012193935172184e-02,1.792730255233394160e-02,2.220562515780803714e-02
3.544020565177837673e-02,3.334674164872915921e-04,1.326385017617701112e-01,3.324076148362021046e-03,1.629852603178121931e-05,8.779539431484588018e-05,1.831394745357752679e-02,4.232820946770628201e-02,1.779752691768031123e-02,2.895229514710173646e-02
4.783642822743879031e-02,4.895550807173569769e-04,1.189384916619921906e-01,2.406983772530410428e-03,3.518112177651007346e-05,7.771446752657222025e-05,2.041480033555501811e-02,4.486542423200420848e-02,1.569746446534706075e-02,3.336110004613314362e-02
3.707745245338145423e-02,6.495552152343541134e-04,1.092344991664179615e-01,4.687444586731627071e-04,5.455585860887165908e-05,5.972901276786583586e-05,2.304030949341913381e-02,3.382338078341524945e-02,1.068177940961967734e-02,2.713773844804168861e-02
2.566576252971327493e-02,8.102821063104783837e-04,1.061276791235983841e-01,1.381936251773816914e-03,7.285201295609595334e-05,3.377808126036481158e-05,2.027329761739062042e-02,2.137409707941766157e-02,3.927709618680005378e-03,8.084204579979980057e-03
2.601780385834619874e-02,9.685213799729301470e-04,1.029268727551340828e-01,2.350929351924062674e-03,9.024844991734218638e-05,4.788547844292695936e-07,1.161224981742826901e-02,2.238110124054406083e-02,1.173850976559459537e-03,1.814626331513514296e-02
2.288734664968905541e-02,1.121106303138483685e-03,8.763100886324487471e-02,3.207583087369617579e-03,1.087979030320095026e-04,4.030042781378892182e-05,4.589364318875664012e-03,3.608518894164175483e-02,2.248393537904957995e-03,4.075582118461316267e-02
4.247827466948511134e-03,1.264997482745226082e-03,5.182938700217552819e-02,5.183737435638342134e-03,1.269022645545660514e-04,8.963888157185590487e-05,1.806250339310675607e-03,4.554087561315152410e-02,1.103162776082194799e-03,5.154710224764758736e-02
4.935183115353418415e-02,1.397355916621401042e-03,4.392150460327717831e-03,7.925993793452280542e-03,1.389335264250516277e-04,1.465249437876453478e-04,1.750328193358801840e-02,4.056624710006587198e-02,2.194793620069537821e-03,5.223974461002306446e-02
8.330957409215111742e-02,1.515602324414873012e-03,2.715511588567302848e-02,1.007072853111556227e-02,1.470513212319656275e-04,2.073702535833717912e-04,3.808969653181807496e-02,3.212652283049213797e-02,8.161137654280090775e-03,5.101199400046525778e-02
8.424180656814884982e-02,1.617478615601389193e-03,2.164165728797354943e-02,1.138053570827693602e-02,1.623470814534058650e-04,2.725139506053305067e-04,4.219043016345058739e-02,3.518597433269562980e-02,1.658487483998735690e-02,4.875060868216513077e-02
5.579276721991913851e-02,1.701121866637326238e-03,1.613016996875633532e-02,1.244272026555826548e-02,1.796591670222677972e-04,3.474707557479828632e-04,2.297642194526023501e-02,4.598408393867982336e-02,2.105965316899493719e-02,3.444354961598042331e-02
1.735187899521046032e-02,1.765112461624536661e-03,7.132712874087478172e-02,1.294459733370596083e-02,1.744914856700618998e-04,4.291233123077161510e-04,3.187563446719768843e-03,5.205146184533323422e-02,1.741139229572145897e-02,2.155806363472293624e-03
1.897724530057386116e-02,1.808469000086162246e-03,1.352192023791459752e-01,1.217098765881132437e-02,1.567346168650341853e-04,5.027561131748109220e-04,5.709275355479173641e-03,5.962122617936379404e-02,8.487449935741840992e-03,3.332284441504752837e-02
5.613484708051392352e-02,1.830667512848147428e-03,1.900472248624479887e-01,1.042130671313207593e-02,1.786648677891939198e-04,5.715334624647976222e-04,2.438699264845083092e-02,8.360245908174482321e-02,3.496303497494670978e-04,5.085585608174030686e-02
9.284507663551581913e-02,1.831742578533612211e-03,2.047830083373080590e-01,8.578442613239404060e-03,2.204235908326969764e-04,6.636764725010032553e-04,3.734351653553929368e-02,1.050601850547231708e-01,4.023269866262457924e-03,4.991009391161230213e-02
1.066819884722666756e-01,1.812304073782198058e-03,1.669384118354264590e-01,7.231046070156898174e-03,1.698134923280964718e-04,7.697737752953941453e-04,3.716809902222270590e-02,7.608756390361033628e-02,4.455339716656504107e-03,4.891679887277959604e-02
7.437230907202875552e-02,1.773340873019216800e-03,9.703288755799190091e-02,6.982408403900957662e-03,6.633156398812104242e-05,8.258983251205285212e-04,3.329773866209255473e-02,1.311061677753842108e-02,9.798885442950189349e-04,5.787698140643905698e-02
7.655950184329450917e-03,1.716162729631322617e-03,2.059600232302560147e-02,8.562254822937768323e-03,1.535843348292091029e-04,8.471353116945074977e-04,3.165570316305071213e-02,1.079479999393666706e-01,5.453391101700561308e-03,6.700877938995304650e-02
5.172593645681285157e-02,1.642764699187549554e-03,5.084528668290095449e-02,1.177450782807687620e-02,3.633759642913072683e-04,9.672129483177200953e-04,2.726885428196675759e-02,1.535655541327988760e-01,1.314630160312198551e-02,6.534510358465386859e-02
7.581303882070893063e-02,1.555872660264367080e-03,1.099409426964608749e-01,1.494584003224182570e-02,1.317087513750384074e-04,1.154308436804721023e-03,1.681825362222993947e-02,1.513214006678901269e-01,2.161698211099540370e-02,5.830270713116933456e-02
6.852075131058854573e-02,1.458045366768834098e-03,1.533685897571119838e-01,1.642212513626732651e-02,6.635455229805375423e-04,1.118645333457643585e-03,4.950142914317124873e-03,1.307316586224248067e-01,3.038908777929038435e-02,5.828162965222650344e-02
4.085956169648219394e-02,1.351403037630014492e-03,1.894352726409952170e-01,1.635509950008669569e-02,1.149761467547471454e-03,9.195603832346367721e-04,6.179218904554365649e-03,1.008940279418073654e-01,3.692725056971753878e-02,6.366872283201722993e-02
1.477924055415466521e-03,1.239360864319336702e-03,2.196533573835356690e-01,1.609479606851147923e-02,6.894724447167972434e-04,1.191072046704170313e-03,2.023135592605938143e-02,5.620591995103679100e-02,3.907983660147421739e-02,5.888577058186902219e-02
4.052101326137146770e-02,1.127054664423701334e-03,2.242657355073370273e-01,1.629860214343192490e-02,7.416533243569605567e-05,1.812761478652863628e-03,3.312450051773162957e-02,5.358925629926219319e-03,3.794451360250423316e-02,3.715996209995079541e-02
4.840192473544421142e-02,1.017433275402747578e-03,1.956630564779786308e-01,1.665257294199088203e-02,2.742092945985495243e-04,1.075126010133963363e-03,3.230822156560338859e-02,3.217386160595044758e-02,3.543506250794931089e-02,1.198290812473210877e-02
1.975083618324574575e-02,9.100187534203112334e-04,1.672061608720223358e-01,1.691103072806093843e-02,4.544209307533212609e-05,2.006316499310383580e-03,1.761240273746570578e-02,4.859597516276920048e-02,3.126237731723430918e-02,1.217088719821905491e-03
2.042967417266707691e-02,8.089836625608514417e-04,1.706027716475686240e-01,1.720826548941079351e-02,5.354860775063179893e-05,5.215113899141531582e-03,5.258161270687572962e-03,5.096752608824224595e-02,2.537464029582321007e-02,4.848850335858376735e-03
4.576779055273198782e-02,7.257729302988503951e-04,1.856747489487743374e-01,1.763859051000331302e-02,2.143708397556861334e-05,5.416487029934162999e-03,4.849055183697121435e-03,5.046828722731875466e-02,2.081817416463673659e-02,1.116796396788093115e-02
4.610071548651614032e-02,6.616900748285660210e-04,1.799374900008910982e-01,1.820209849290402998e-02,3.776766564111565841e-05,2.731014619948957545e-03,1.049752850349099272e-02,5.721504305096213050e-02,2.040752844390387316e-02,2.382093976875372665e-02
2.188799834492505259e-02,6.016215223555668873e-04,1.742794213186950603e-01,1.896831639860939098e-02,8.673919527105950563e-06,1.994134326201000727e-05,1.688710434772956390e-02,7.134641052412059314e-02,2.224935411168776564e-02,3.702979785040971111e-02
1.345802174542768369e-02,5.508556600826892968e-04,2.062701876233440090e-01,1.983702821489458090e-02,2.656304104013496056e-05,1.186217697519158362e-03,2.468983865820487816e-02,7.154227348551918386e-02,2.221517084575806364e-02,4.529815672566118306e-02
3.197419869256281494e-02,5.492599148578088336e-04,2.476656058679419792e-01,2.026982976297598757e-02,6.681379915923494803e-07,1.337205819317760719e-03,3.001767689135406009e-02,3.335782588634465806e-02,1.992947037477240183e-02,4.692543250593227827e-02
2.016937231335867720e-02,5.928568053828692317e-04,2.350088298111798479e-01,1.962746754037995867e-02,8.595433072087703245e-05,1.360866065059694032e-03,2.740656062188442932e-02,3.095029644208855540e-02,1.850319743216884485e-02,4.383845192476251013e-02
3.100329755668454652e-03,6.013680015760858527e-04,1.766362212748317506e-01,1.789710113737809707e-02,3.621850918367659777e-06,1.437540373034575190e-03,2.332076952876041206e-02,7.411421006195244299e-02,1.827998409263191862e-02,4.081711336414754754e-02
8.797084177105276778e-03,5.847702059074644460e-04,1.521143803526077976e-01,1.595314550288174163e-02,2.241270228450783315e-04,1.461772828944924276e-03,3.111978597344617486e-02,6.629561696493896372e-02,1.498907034726817099e-02,4.136974737245071448e-02
2.069639443063237688e-02,7.169162044630391153e-04,1.943811501662090491e-01,1.470351599111752172e-02,1.720273845307742315e-05,1.389914616694112133e-03,5.206024239499514039e-02,2.411336655905896298e-02,5.943895962356834234e-03,4.572756988927998562e-02
5.103930078612246499e-03,9.813441364537262360e-04,2.381140038639068812e-01,1.400451330621539994e-02,7.517401331721067876e-04,1.308611476028917562e-03,7.265645034292181337e-02,2.022941094994648581e-02,4.200200363082081181e-03,5.434898596337570803e-02
2.919848344026354861e-02,1.003735892129442109e-03,2.135531613918913996e-01,1.316060906463890033e-02,1.215579989872915675e-03,1.414983021514563868e-03,8.284685890001823594e-02,5.439895728219858173e-02,6.540561033189046421e-03,6.788862161841854870e-02
4.650979453228967775e-02,8.109500066216243164e-04,1.472430711064941222e-01,1.220275003062028935e-02,7.310154639608816562e-04,1.634753805257104344e-03,8.783638468974357127e-02,7.975376138332956888e-02,1.560048035613274126e-03,8.089408937549207035e-02
4.314159127634672325e-02,1.241070567626947983e-03,1.217519105883465430e-01,1.120733481529850861e-02,6.453890107417597870e-05,1.451085674182755157e-03,9.412257769425202980e-02,9.110840889200902404e-02,1.068132534988321634e-02,8.230376417779462772e-02
4.031840544598303683e-02,2.222578382220896653e-03,1.417773178795577182e-01,8.184579975515960532e-03,2.984469029939132130e-04,7.115107452085445540e-04,8.970260136284004260e-02,7.717529095656211480e-02,8.178512584455619946e-03,6.831224160878397733e-02
3.763196473365301026e-02,1.007064477849491969e-03,9.556587879937464280e-02,1.125900657952030740e-03,9.288336682601206905e-05,2.133030090567161795e-04,5.529174014829108669e-02,3.208657240573510594e-02,9.298094625963823981e-03,4.987022769062706556e-02
2.557791543842627760e-02,5.646850328368167860e-03,1.114003092548925683e-01,1.992735409464066812e-02,1.188481663540285184e-05,6.792327587684306731e-04,3.116272457371493769e-03,3.643770789001329891e-02,3.674654243442844470e-02,3.959398046703793000e-02
2.115840048059318759e-02,1.692651543798267752e-02,4.218091874432236543e-01,4.564997950571923757e-02,1.234190288798933958e-04,1.620244133995523512e-03,5.283570249520755380e-02,1.031310182280048560e-01,6.840923330466607000e-02,3.483478679518108023e-02
3.907276614724860403e-02,2.734926902057779885e-02,6.802883156803734011e-01,6.952803209299246445e-02,1.835201312055849215e-04,1.988837094691219085e-03,7.085204671724490422e-02,1.377383829011408489e-01,9.753165598152453708e-02,2.290568829771077314e-02
5.343174268602817606e-02,3.153285939424935180e-02,7.920341747927002185e-01,8.308270658951219523e-02,1.527637932201869500e-04,1.551626169546384488e-03,6.368191397439813828e-02,1.319000149459271520e-01,1.151484335885463867e-01,8.328559626794669254e-04
3.585992202861826988e-02,2.867476801563082281e-02,7.715217793429780535e-01,8.446628652499850454e-02,1.435865552161241245e-04,1.014519228100783672e-03,4.962251070828980343e-02,1.026469404694289878e-01,1.167878030607973766e-01,1.975376962755226451e-02
4.829353135177679585e-03,2.184579317533786799e-02,6.684949096784742473e-01,7.715065373529897408e-02,1.750554798169414112e-04,8.184089942686439403e-04,4.065584264866024117e-02,6.552273118416929165e-02,1.065159389696754555e-01,2.794139316640543644e-02
4.352029696364379668e-03,1.395016554310204646e-02,5.203962242859418996e-01,6.487006029677877539e-02,1.936226163154979420e-04,2.264240331708363839e-04,4.271601527798388198e-02,2.424675535584744357e-02,9.024618944263747278e-02,2.676461654129558276e-02
5.773379331688331673e-03,6.127280937173989160e-03,3.742384083538847217e-01,5.071563076693993283e-02,1.902347787479192131e-04,1.647620240642639960e-03,5.561355485188736875e-02,1.084042845912539139e-02,7.018524918781914035e-02,2.820215923485967779e-02
6.704237326034446012e-03,1.525501732583828957e-05,2.893801259879051901e-01,3.894554406135172092e-02,1.912451848775877019e-04,3.956631167086848214e-03,6.953725304377697536e-02,2.189748770475768297e-02,4.959006867059296414e-02,3.766340390413019240e-02
7.326914513746582945e-03,1.593698183795920920e-03,2.846713892760342479e-01,3.297494158965599831e-02,1.991554135740395304e-04,4.791472711807488565e-03,7.309716501085884721e-02,9.298899189158847667e-03,3.603193261511462853e-02,4.785064054267453709e-02
1.539589840821598520e-02,1.599881154157713550e-03,3.143664089669586659e-01,3.170948257134654363e-02,1.979004850019465216e-04,4.223695158579934307e-03,6.613070481309302195e-02,5.714265881360436512e-03,3.425982009856760879e-02,4.897216922259307187e-02
4.696163437214920244e-03,5.546597847713356441e-03,3.304879004642116702e-01,3.196246500645243821e-02,1.899383228979532043e-04,4.545835188015698303e-03,5.662539970611000367e-02,1.101506192110970200e-02,4.130958214870409512e-02,3.934667132576409598e-02
1.686749118083138987e-02,5.898949920900968882e-03,3.363219805111484773e-01,3.346315650326624203e-02,1.907321891482469947e-04,6.357760920715957095e-03,4.654346933689454402e-02,1.472337648350687846e-02,5.120491712583880028e-02,2.220664051013264070e-02
3.497045595271820739e-02,2.335827390531842497e-03,3.392123941371534279e-01,3.642102651131844115e-02,1.914168794025777475e-04,7.069499292013847053e-03,3.137751483271364328e-02,2.231571322147516551e-02,5.796832715227281246e-02,7.500576327244701941e-04
3.690008008909381049e-02,2.237340447340700061e-03,3.012095687645386377e-01,3.636299858415118630e-02,1.678722883455855623e-04,5.085195034324389504e-03,1.347548916255557339e-02,2.397081605931272730e-02,5.514543363016120164e-02,2.500025834468606184e-02
1.665780707861250556e-02,5.067672094262828074e-03,1.961116046893094378e-01,2.825133901784042390e-02,1.409878854176241174e-04,2.599673741525960254e-03,2.203647897996567281e-03,1.075237174787396777e-02,4.072420793099836012e-02,3.820008680712124599e-02
1.451785502897061202e-02,5.429493185138036491e-03,7.119380846799852613e-02,1.466480675398796132e-02,1.594212241701006448e-04,2.007623429959205872e-03,1.033620637938168288e-03,1.053982774512671368e-02,2.112949978366437248e-02,2.999992553027536549e-02
3.678673264995813152e-02,4.530478008196215517e-03,5.237395528241293313e-03,3.855524115957069398e-03,1.796513914803343065e-04,2.237641819402655819e-03,4.165192942405806023e-03,2.371819537125748056e-02,4.679942571038443397e-03,6.358640729464499694e-03
4.593379584078725875e-02,4.158187324039285676e-03,2.355626042514940427e-02,2.098823216505028844e-04,9.936331090068042124e-05,1.030319060210854775e-03,1.002863907880783764e-02,2.039846634798126584e-02,6.252514887501276278e-03,1.339590627175854878e-02
4.953720095791104561e-02,4.917573270244887836e-03,2.008202367705604063e-02,1.431420248077703433e-03,1.012930899540882666e-05,1.442023162976548882e-03,1.384490429706653966e-02,9.304353433240045851e-03,1.411643691506568599e-02,1.621347250245732188e-02
4.279142799629416516e-02,5.907042576991545189e-03,2.168914863260300308e-02,4.964058838841553870e-03,1.356010414211136956e-04,3.417751265938990569e-03,1.369624750560152066e-02,5.976235260764663215e-03,2.189066572702842023e-02,9.232887239286689807e-03
1.670923533542828868e-02,6.256149634716231742e-03,4.104483191370449091e-02,1.115792183670619511e-02,2.960233214374869467e-04,3.913222137126841187e-03,1.168335419260035923e-02,1.487201302098640696e-02,3.169362461024811950e-02,1.091188643732314729e-02
1.428917680941250816e-02,6.196777207034971299e-03,9.790832182521494453e-02,1.792700202193386189e-02,3.234338025231746556e-05,2.604054375946945627e-03,7.912647574451623506e-03,3.027966505113119378e-02,4.366572989881071370e-02,2.787576087621348314e-02
2.089997351291255842e-02,6.342233301694539215e-03,2.058173614786840411e-01,2.552897620753562594e-02,7.294443463611581698e-04,3.069618637409696617e-04,3.049657477996017222e-03,5.342075993414085316e-02,5.573486081598408304e-02,4.512998942591571472e-02
8.722550907091616151e-03,6.742129388793823876e-03,3.452055977638348039e-01,3.513639887873815093e-02,9.932247579740468256e-04,3.079884457137638688e-03,3.080204727848525822e-03,9.247992458705371621e-02,6.678467901473837676e-02,4.302526425159786810e-02
5.852245453376003076e-02,7.039951041025356744e-03,4.782003158765348316e-01,4.464338009714974298e-02,7.481209396286449785e-04,3.808580013826550360e-03,1.403958844345263440e-02,1.373331245697714253e-01,7.778038026090695889e-02,2.052466714243184054e-02
9.640682839678739458e-02,7.147447660186182980e-03,5.952759253206520995e-01,5.038099190405587180e-02,7.553088904641904475e-04,2.863687588553847328e-03,3.343224731295412616e-02,1.507749946713737021e-01,8.804369462477679154e-02,2.745515046309438077e-03
9.772241018780927768e-02,7.435043709707200681e-03,7.170385706214174037e-01,5.234964544956557247e-02,1.014801881650946114e-03,1.614312296691763297e-03,4.931862682808359211e-02,1.082283720559487628e-01,9.467790675849117876e-02,7.205193578325778253e-03
7.069450470281000987e-02,8.097613584164163256e-03,8.244075014927486622e-01,5.337867609000049307e-02,7.648884610968613483e-04,4.465516649123643856e-05,4.786513985431448820e-02,3.917633468856681483e-02,9.678848718823836184e-02,6.051070202133307027e-03
4.662749777103046556e-02,8.506287684718803754e-03,8.302654859638125551e-01,5.338443839293723764e-02,8.001001632600897328e-05,2.014055393813034105e-03,2.567467062953631210e-02,1.406384057507344045e-03,9.493611531902673706e-02,1.776891227034501156e-02
3.800274181246455357e-02,7.950008467577830348e-03,6.857229348393281132e-01,4.951081758635719754e-02,2.380004257009885233e-04,3.448225960294299015e-03,2.964796474946735164e-03,1.887706506225686649e-03,8.656178785854073965e-02,1.357058730108674262e-02
3.199232046517989925e-02,7.087287388915097450e-03,4.787127018024669445e-01,4.236759344258319432e-02,6.825711106378671482e-05,3.677193401685476155e-03,1.708558121228509821e-02,4.343803327082965127e-04,6.899644990277965795e-02,9.479308202387541279e-04
2.649912284850280270e-02,7.471835582585958230e-03,3.424048168125599645e-01,3.658929451234119168e-02,6.468699777010324418e-05,3.583926200690483628e-03,1.039267333789494624e-02,1.774428035059364209e-02,4.730160406335896794e-02,1.059941182585379289e-02
3.771683277038444249e-02,9.336720049407321725e-03,2.933060284217021696e-01,3.387752822806441855e-02,2.175517786051583315e-05,3.494212826570898545e-03,5.236589825012864276e-03,3.844918992521739048e-02,3.156652757304278384e-02,9.944187655246742447e-03
6.857894789854626638e-02,1.109473372776166242e-02,2.435661162550361580e-01,3.037238919063710990e-02,1.032135911597464016e-04,2.722437924929438022e-03,1.868470129667306953e-02,4.079669044968842889e-02,2.517961174097825550e-02,6.439928607241515029e-03
9.829758669947380456e-02,1.143546703021505045e-02,1.517295351267383685e-01,2.283323272034410573e-02,8.288025502540657388e-05,1.633357624742783976e-03,3.078250422652255985e-02,2.518231257453303756e-02,2.295218777184714065e-02,7.589321053692069455e-03
1.078575862827542836e-01,1.093950471767893111e-02,8.106847375186201909e-02,1.408062041686906907e-02,6.506976228264348431e-05,1.597708498342940032e-03,4.376558953306444733e-02,3.591334250934403310e-03,2.152720680864542158e-02,1.357053626233678013e-02
9.815284496079096366e-02,1.111275302223763140e-02,9.878385204106703010e-02,9.742573016164979977e-03,1.048957152102662055e-04,2.711879297391508927e-03,5.282008707236092449e-02,3.924331249363503804e-02,2.267992145881637944e-02,2.275162361912534334e-02
7.759789731723264194e-02,1.237544411651984345e-02,1.736499184760220693e-01,1.080119254035186334e-02,1.498866458441228187e-04,3.800318242991767778e-03,5.378483312912794162e-02,5.787474256684790874e-02,2.521357049977104164e-02,3.365688533133811416e-02
4.627065381339288963e-02,1.378516152689082501e-02,2.221932354375255880e-01,1.279154281628060857e-02,1.542423807481766308e-04,4.275843514372152168e-03,4.813299965999952995e-02,3.222969326332729423e-02,2.420024278875909998e-02,3.983579678646277655e-02
7.591957428543295340e-03,1.463952319391697253e-02,2.301758642822206991e-01,1.330867939441849994e-02,1.492991350155767707e-04,4.049619975658972845e-03,3.602103073085720364e-02,2.977352879993183307e-02,2.098256464496888601e-02,3.487907926708257861e-02
1.471359504129001600e-02,1.521760142090099882e-02,2.442440811637758002e-01,1.553159279651230781e-02,1.968187288060744351e-04,2.678557831376159135e-03,1.593942922464458220e-02,8.150039735999337065e-02,2.437658389767274891e-02,2.333055577187303359e-02
9.618990421048911887e-04,1.554598738456377562e-02,2.468837919543619974e-01,2.064083973121308771e-02,2.666184038009167365e-04,4.103259140931107330e-04,4.996794475518430770e-03,8.654775851443392842e-02,3.754503222683521629e-02,1.537765531684623377e-02
3.540872924740755268e-02,1.461501856864120576e-02,1.568490586226284900e-01,2.188994780375315419e-02,2.418869000166267314e-04,1.181472099227070171e-03,1.355643141284289428e-02,6.381539085786637477e-02,4.991959203805926976e-02,1.338353046896216016e-02
4.252833545491521011e-02,1.180165569150122551e-02,2.158509431057738237e-02,1.302760874022696955e-02,1.658332375922131523e-04,9.942433311742838661e-04,9.340506904020683121e-03,6.368069605455969895e-02,4.867879552602437376e-02,1.424665526070893751e-02
6.352301738081259606e-03,8.423261228654979962e-03,1.693374064363733777e-01,4.810924744487721748e-04,2.822008342703329672e-04,2.189697220174164054e-04,9.313753155381472582e-03,9.954021163051632315e-02,3.615643528568749515e-02,1.953232260898603301e-02
4.366773204815149745e-02,6.436219547017903164e-03,2.118107514319879092e-01,7.008802030518145043e-03,5.209687274942318650e-04,9.775730893506924535e-04,2.536437809855684317e-02,1.331706595469271948e-01,2.617544102763333380e-02,3.230556174531298147e-02
7.427213597492199337e-02,5.598593692802510471e-03,2.049126884130549053e-01,4.663312999941550754e-03,3.200449584322064434e-04,6.694080132452439030e-04,4.703447538406135831e-02,1.310164173994165793e-01,2.139410422520365840e-02,4.799447113307629686e-02
7.441626750630629672e-02,3.952732307359950459e-03,2.167002652529615991e-01,2.404983919720037402e-03,4.440564926178397140e-04,2.788361438466814991e-04,5.559626547637806088e-02,9.660245219203963951e-02,8.338023754440131857e-03,5.655784934484803239e-02
4.523636777451849056e-02,1.490756503150169731e-03,2.136558837398083721e-01,5.042192425801150443e-03,9.064007968338605274e-04,9.928260501062943690e-04,4.720394037564882433e-02,4.556414733909450870e-02,1.863175987893508218e-02,5.139672800882436748e-02
6.514451783487529291e-04,1.922792502868095679e-05,1.433936740514685504e-01,7.970727193132734131e-03,4.267818779649835840e-04,8.583439516569756804e-04,3.218388517786893027e-02,8.376361233042476512e-03,4.355340764303490542e-02,3.251382262533723116e-02
2.602300072763844008e-02,1.568130372094069577e-03,7.477812633496519479e-02,8.517679360191163576e-03,3.675462288306380939e-04,2.735954420341475245e-04,1.839948937687131345e-02,4.189966513406206267e-02,4.880758087742641943e-02,4.517902810453823699e-03
8.753322603991761999e-03,6.874690381564417356e-03,1.410822615731340546e-01,1.124150490460838758e-02,6.020888976723585105e-04,2.523536472343471462e-04,6.346943181738052414e-03,3.682456611045040185e-02,3.808170116675158035e-02,2.490297719213860686e-02
3.999801808758402660e-02,1.502280037162531147e-02,3.455414022646463579e-01,1.901480988909638042e-02,3.758643944048145852e-04,9.402542363249193373e-04,4.188810788986354824e-03,8.707041733049859095e-03,3.088716038903095013e-02,4.654266174798410427e-02
8.314455038670703901e-02,2.041796807199328795e-02,5.429562582730390607e-01,2.844043278358472995e-02,2.620456784850753356e-04,1.656337110014466851e-03,1.261687720778864076e-02,5.744727607422618100e-03,4.011124406077918453e-02,5.380639612235898345e-02
9.608864769642014303e-02,2.180616056042039216e-02,6.411749131772782606e-01,3.703917957540463907e-02,3.810755402102214244e-04,2.349840218508459332e-03,1.944652775281720605e-02,1.034733087064441774e-02,6.217256810724988009e-02,4.779660672262726201e-02
8.272447453085365887e-02,2.411069009231458365e-02,6.941205758537535297e-01,4.666765914733501941e-02,4.705214048262527644e-04,3.289155717921142009e-03,2.362989902414141044e-02,3.806669707069063741e-02,8.679673136904247910e-02,3.803857409190748023e-02
6.769193571245897545e-02,2.858032960625949206e-02,7.467667832966971009e-01,5.629290054172653851e-02,3.795474731478052136e-04,3.540966916226484865e-03,2.287261771433601182e-02,4.519732271478781038e-02,1.069381990653314185e-01,3.519927169271724887e-02
7.405662624315366427e-02,2.927412943466973366e-02,7.223265922062123146e-01,5.864245714482756860e-02,2.597523305499643831e-04,1.623993746867455259e-03,1.991897095049359120e-02,2.145614922470731600e-02,1.167334485072758915e-01,4.051116463642455423e-02
9.772124816245578161e-02,2.281609705389511800e-02,5.445185107351585563e-01,4.882840750771828831e-02,3.739191632809103403e-04,2.252615654115466999e-03,2.087834383111628750e-02,1.000898080273693661e-02,1.099049746926226701e-01,4.406748702052497302e-02
1.096337079231797101e-01,1.417457989915892058e-02,2.697325979284625475e-01,3.127516700719904646e-02,6.018901178750103156e-04,5.874018697323226887e-03,2.502819334027251222e-02,2.068756851802935892e-02,8.609087517062261052e-02,3.669831057597087998e-02
9.028680763109651897e-02,9.131036034470121562e-03,2.259161498910881860e-02,1.422547109313717847e-02,3.713661664989526814e-04,7.213725448568796515e-03,2.596321068162818144e-02,8.501667042196526733e-03,5.304017881152882363e-02,2.164765774705490822e-02
5.135849502921054771e-02,7.404806130522831147e-03,1.272679028677723700e-01,1.734428478460317904e-03,4.157568651943259409e-04,6.108074324672633192e-03,2.334914906574203294e-02,1.021414023456127668e-02,2.052418724467536260e-02,1.063573024454446923e-02
2.083782769200024504e-02,6.332960133527134987e-03,1.800322288357227574e-01,6.056310707766717275e-03,8.853950548585545234e-04,3.247823681418668396e-03,2.042885472539571895e-02,2.976573962863109449e-02,4.070726833987512068e-03,1.024668085854963349e-02
1.952552972920450908e-02,5.805800946765377751e-03,1.693091536574653222e-01,9.539609874650549146e-03,4.110337251326126942e-04,1.369626424513818502e-03,1.090274335988425554e-02,5.684334259713180043e-02,1.700688673427103864e-02,1.592320857679910620e-02
4.894755041689623221e-02,6.843075739018205685e-03,1.446883919737138868e-01,9.912865924008126828e-03,3.689172575705672156e-04,7.354029929603212758e-03,1.394182888569688895e-02,8.630812631054432527e-02,2.033058806417253547e-02,1.790814457237873900e-02
8.661746519868626648e-02,8.953265889456369850e-03,1.342847873233652123e-01,9.192833845546730803e-03,5.918220215847350705e-04,1.207451977474326317e-02,4.509034888649204181e-02,9.583515228317780743e-02,1.954116788489537737e-02,1.124156985095985453e-02
9.824283561092544970e-02,1.049681935170935013e-02,1.121917408520083093e-01,7.473519286038839832e-03,3.777986224029891639e-04,1.247722222340734259e-02,6.128108327165584374e-02,7.385273910167258760e-02,1.567390245243884678e-02,1.434567721487138136e-03
7.022272711868539352e-02,1.018395260450405578e-02,4.599414826822949970e-02,3.026546293920139279e-03,2.840492290318547106e-04,9.038105020200198556e-03,5.459448889690560192e-02,3.673654577756951117e-02,4.662390544546282829e-03,9.782999075197240484e-04
2.376589193685858803e-02,7.943217841353721748e-03,3.859326430710036809e-02,3.554165273434680035e-03,3.874515232350281410e-04,5.559934065525176314e-03,3.562441629402567089e-02,4.797281574047405558e-03,1.246308991466491684e-02,5.572571094953907705e-03
1.399626733803954748e-02,4.451147995786493977e-03,8.193642417955333823e-02,7.921999506035840716e-03,4.543710581721971658e-04,4.366601756099923459e-03,1.668825689703784185e-02,2.006920916518839526e-02,2.498554613184652412e-02,8.731512971313807464e-03
3.809842153513275792e-02,3.677712433547224678e-04,5.693910302156930670e-02,6.010641823363415369e-03,4.264162724032641619e-04,3.956318267929726483e-03,2.796472750918930703e-03,3.925949191610961231e-02,2.271836859761282648e-02,3.433055304334782162e-03
5.368349084946928695e-02,2.704954746660942141e-03,1.520989871609672826e-02,1.394620992459047948e-03,3.973328135725053955e-04,2.277931728637063846e-03,4.918960216978198428e-03,4.720901067204889834e-02,7.873387500335402370e-03,2.629022428282080590e-02
5.885669657266113380e-02,2.230061365088519074e-03,8.608352322065587758e-02,8.622188055976667126e-03,4.277956414669733631e-04,2.671064603815180918e-04,6.594996839482563863e-03,4.955837715754514428e-02,5.736574520913978112e-03,4.369267809791970575e-02
5.633467611786525248e-02,1.735792247422880252e-03,1.029702199896202902e-01,1.004151651464622527e-02,5.045499372321229350e-04,2.498952121665284215e-03,2.614466762306399614e-03,6.122457663021809576e-02,5.141753228233356468e-03,4.721730845535405952e-02
6.096915641181759049e-02,5.343487739578305779e-03,5.122704187369814255e-02,5.676915825079360128e-03,5.305411771141661488e-04,4.577926992537071152e-03,7.349194999774813150e-03,7.774721940769650785e-02,8.925434986675629540e-03,4.148505808821417729e-02
8.056354600504707364e-02,5.466359165608008705e-03,1.145432537377091484e-02,2.015649144785377697e-03,4.439704060861262257e-04,6.782129901447685183e-03,2.091466461657236209e-02,7.571435761324132874e-02,2.179316783996660192e-02,3.040571131237338257e-02
1.042534487129089527e-01,2.298273651951691400e-03,7.192048647501819020e-03,6.352295682890411743e-03,4.349357817545424572e-04,8.302372030467576949e-03,3.122931458422285173e-02,4.354691911390261294e-02,1.971454237770178114e-02,9.849651359788005878e-03
1.165377651539591664e-01,3.119186555830508276e-03,6.361972782191381570e-02,1.816678133928200864e-02,6.910173002769586133e-04,8.583593878882488093e-03,3.489952605585575074e-02,7.045328717206167726e-03,4.345953209738224673e-03,2.134242732335739356e-02
1.118961631242731819e-01,9.384266094475568476e-03,1.278083765104985892e-01,2.636893930816003317e-02,7.872573374825238886e-04,8.240924510658439311e-03,3.635290193919121088e-02,5.459985005784626089e-02,9.553644999550808467e-03,5.143854142019891468e-02
9.329996176843260991e-02,1.317711395278298864e-02,1.447513522101493977e-01,2.040897203618061498e-02,4.443581013411545097e-06,8.076843096734958802e-03,3.676194168336800738e-02,8.077670345128981633e-02,1.137961483283027493e-02,6.288062648668749088e-02
6.348545144475491175e-02,1.226706900063165642e-02,1.357482587136505103e-01,4.840550159546183444e-03,1.400461694393757102e-03,8.373987981687803367e-03,2.817112409913893542e-02,7.950504167251755405e-02,8.002191700485217218e-03,4.880448547856583441e-02
2.459144455507578791e-02,8.947147480051532292e-03,1.125599574096313865e-01,5.617767800255246691e-03,2.108371460468917713e-03,8.902046268368624463e-03,9.509451717741725790e-03,6.147712522164664600e-02,1.314310123261067109e-02,2.221765455383872823e-02
1.247318253753776710e-02,6.272361228873474595e-03,5.693443236031463239e-02,6.843265811856932661e-03,1.407697051142614520e-03,8.819529254777974323e-03,2.525187024206604087e-03,4.292545365255991813e-02,2.225721601489334331e-02,6.004598206818581238e-03
2.861574299707935615e-02,3.492661358181021938e-03,3.375532950695607493e-02,9.965589637857102598e-03,3.511136975699311372e-05,7.397314500093209351e-03,7.052399481532863057e-03,3.268994365345891107e-02,1.366945506602997885e-02,1.001022819140328507e-02
1.497915716397811570e-02,8.878993275997867527e-04,1.396012740327744195e-01,2.247330561526532725e-02,9.770002745213301511e-04,4.984618891864548047e-03,2.843857920918060889e-02,3.762608012821853920e-02,1.751300292862372279e-02,2.164122652949291431e-02
1.388573828975531513e-02,4.931845762873364979e-03,2.303112855287586247e-01,3.600570194136693686e-02,1.150547888803000844e-03,1.959350579831828278e-03,3.714655648512859426e-02,6.529124244174670799e-02,4.599202136262948298e-02,2.454178787329884537e-02
2.930029347583380447e-02,6.025100172203413235e-03,2.486740856192561910e-01,3.764150545881458920e-02,1.611847668560898936e-04,2.354696196797492237e-03,2.387036962167213283e-02,1.061118721244843632e-01,4.761767039953179737e-02,2.059531146874692825e-02
9.359110028792798353e-03,4.897642434926768873e-03,1.392746178044307337e-01,2.530501929890911078e-02,1.903024699309059566e-03,7.716843958880841188e-03,2.620527711902203519e-03,1.275733176054803797e-01,2.612476829070307233e-02,2.247473600018461137e-02
4.501885491911497561e-02,3.782363637901385751e-03,6.516982056376632859e-02,7.766005800503063446e-03,3.785677205919187396e-03,1.157273434323618892e-02,1.051948328588437308e-02,1.002321141058640647e-01,5.236526384620678216e-04,2.882444398438660169e-02
1.077828774650008981e-01,2.946927427403717679e-03,2.382744092099002009e-01,5.631504852274335157e-03,4.025769930679519784e-03,1.193073440659364604e-02,1.486923792395195010e-02,2.391947008292515109e-02,1.752897529973136345e-02,2.428975541545594710e-02
1.438871361745696353e-01,1.199664821494632327e-03,2.835164646880294348e-01,1.187861128951245467e-02,2.653240516621333239e-03,9.876423450278861565e-03,1.689477986160421372e-02,6.982839324737583064e-02,2.754856582873711074e-02,5.731656003250347811e-03
1.354222294925364889e-01,2.219955783334117642e-03,2.334943389794299218e-01,1.372615087225339398e-02,9.125134889326903375e-04,7.558686561084437816e-03,1.668884062257198347e-02,1.331422683962624753e-01,3.394082846502946560e-02,1.104973337516455129e-02
9.364292373467168751e-02,7.013911301418319401e-03,1.930812872494793442e-01,1.514165520540984924e-02,2.530222096317429449e-04,5.492171063016746888e-03,1.320686275252334375e-02,1.305453663546256859e-01,4.073538320292379583e-02,1.672133605541363532e-02
4.527473531551534647e-02,1.098928698947875850e-02,2.103608187349716441e-01,1.725504153025544246e-02,7.100681278204200525e-04,2.964941478207254195e-03,1.315181212251119100e-02,7.090854855816110247e-02,4.665527426396037097e-02,2.131030160138829357e-02
9.984490077187052268e-03,1.124191896767114812e-02,2.523979898006248335e-01,1.836543844388303925e-02,7.279940640020671379e-04,2.886068875434743782e-04,2.222739938126731818e-02,9.458422033013565156e-03,4.546284133773230429e-02,3.351482520289735673e-02
1.113935609075801525e-02,8.840524409529298272e-03,2.896275060782504407e-01,1.768223687286969367e-02,6.316043713956860347e-04,3.592923749443519867e-03,3.470666939870965806e-02,1.453393155635753723e-03,3.463800375579173529e-02,4.553633183922027594e-02
3.050447336506312626e-02,8.800138834917294040e-03,3.244741603782789197e-01,1.711811395329014898e-02,5.990241314770802837e-04,5.827244374212096727e-03,4.086875893076994531e-02,3.058183263896846818e-02,1.994247120554343278e-02,4.785881477132566258e-02
5.649590314372131272e-02,1.236387128826540484e-02,3.306394167826706143e-01,1.852761115593676983e-02,6.061012490429708733e-04,6.187235474909452172e-03,3.777872798961581097e-02,5.026855773470609301e-02,8.571151591426266411e-03,4.297493649028865520e-02
8.113483539780921849e-02,1.436932547250797595e-02,2.592660363515384425e-01,2.158461130815653856e-02,5.900780006579348178e-04,5.081176113643263818e-03,2.802923040810384112e-02,2.701368128959318049e-02,3.139641751298504618e-03,3.578066292848578606e-02
8.863102790060620184e-02,1.116025945823441966e-02,1.335963680717440205e-01,2.512034658519805494e-02,5.637799560803095781e-04,4.289551726420374328e-03,1.601455837603151661e-02,1.684247317792686785e-02,4.083820871627228018e-03,2.411179608769041180e-02
7.233782471188590635e-02,5.601376187102092424e-03,4.720645169149761955e-02,2.819078030863486628e-02,5.423023085975471873e-04,5.215762656783894287e-03,7.735985669180332584e-03,5.444612982686113795e-02,1.153989522219728454e-02,8.293134892671999436e-03
4.010273053850454267e-02,1.984276819272193151e-03,3.566783319314664052e-02,2.984728705623439921e-02,5.055656022029899775e-04,6.836766963954887463e-03,7.947820876095728487e-03,8.645278602974600102e-02,2.291266626113585073e-02,1.341768928902867079e-03
8.255847201645426237e-03,1.083661977055294396e-03,3.096564528650031303e-02,2.951795578970971279e-02,4.764607379674323903e-04,6.733079539794357971e-03,1.703638869618017901e-02,1.106000289672012526e-01,3.324210556196594696e-02,1.641540978673322604e-02
1.005646560423672023e-02,1.946713397308948851e-03,2.400295383825487225e-02,2.679385082581737382e-02,4.979022040019404939e-04,4.267653804162115094e-03,3.109022274922570647e-02,1.057586987567543657e-01,3.918879358329318413e-02,4.185775488363782659e-02
1.709712009673136635e-02,4.325708030566846087e-03,8.589874313695031183e-02,2.101579921642213883e-02,4.975846460401656167e-04,9.941236661742611225e-04,4.162304666424195693e-02,6.975138554397170010e-02,4.083028029359710154e-02,4.368117575420010779e-02
2.699252100573553553e-02,7.468866713694628789e-03,8.561816069846886479e-02,1.312967941631265449e-02,3.829577661126030573e-04,1.993880648347606463e-03,4.035757001942064798e-02,3.477311308401329765e-02,4.055901821385517886e-02,6.716900090887724904e-03
4.281680850754725903e-02,8.945926896491911834e-03,5.142729223844809405e-02,6.105142614524752299e-03,3.208383252327720765e-04,4.663322260568833130e-03,3.069977440294832313e-02,2.439229630859749906e-02,4.073627981300313033e-02,3.969455781728703503e-02
4.718939190148523088e-02,6.905468223806486908e-03,8.110147471790714324e-02,1.194833065853619612e-03,5.252184840059593738e-04,6.072650664633509436e-03,2.647107727989594927e-02,2.713599329448194986e-02,4.061151470507232825e-02,5.579814570732222201e-02
2.860406931021418700e-02,3.213455849104580528e-03,1.822895563844806333e-01,2.514679297810293486e-03,6.092612742227034028e-04,5.011757699981713582e-03,3.334704283811894265e-02,2.173230409208627006e-02,3.743550442378829751e-02,3.943851588073336856e-02
4.385471509089635192e-03,2.119488728995967426e-03,2.260347156916028832e-01,3.320991081032843763e-03,1.813910591243373012e-04,3.153689692511685468e-03,4.011695065470641253e-02,2.820983103031735051e-03,3.313180495326724373e-02,2.124368593456345961e-02
2.955501814932671827e-03,4.774986684688605452e-03,1.199246653511104321e-01,1.405121676764221981e-03,1.663930141707215720e-03,4.126384679594820824e-03,3.190709467660845372e-02,4.913588872937450780e-02,3.360459484350149240e-02,2.217902828347654426e-02
1.905523974222865144e-04,7.172446217913574194e-03,3.345892894895245717e-02,6.318863471932993636e-03,2.453421365166603453e-03,8.128687668367757732e-03,6.193710730747691365e-03,1.013488232268958539e-01,3.574770734293593322e-02,3.337406209177948974e-02
9.434913903521221015e-03,5.213401822163118288e-03,4.245865301983045570e-02,1.139617994529455638e-04,1.679819504058234752e-03,1.089866795576907577e-02,2.470541231086684567e-02,1.238455963522928222e-01,2.521953635183245279e-02,3.439194095106139215e-02
3.096701554857940117e-02,3.674709837946168469e-04,1.267405218236898889e-01,1.858231249708346827e-02,2.130389603837796932e-04,9.975299975645937275e-03,4.454098623040908533e-02,9.822128279038574994e-02,2.594753071802669703e-03,1.919156908260448435e-02
4.479455955756296570e-02,2.090099439468321753e-03,3.065048827523498276e-01,3.605846519746275236e-02,5.615872546899370026e-04,8.267249684813501864e-03,4.624603707474427700e-02,4.722902203193444365e-02,3.078763653380382770e-02,6.445747614465370881e-04
3.869662214395579863e-02,8.158755736106753200e-04,3.463927093972769544e-01,4.017517615288712651e-02,4.603062650564435435e-04,8.753269361871230184e-03,3.288438834165793856e-02,4.720611687077172491e-03,4.267365917991220586e-02,1.400179863011925645e-02
1.674945843241801638e-02,1.377512914774998379e-03,2.762208790549341431e-01,3.453719987173222566e-02,2.373930870144691659e-04,9.675997839342318288e-03,9.434764155950060155e-03,1.628094381401400462e-02,4.364558253744816457e-02,2.147693979389160568e-02
6.474407545287909176e-03,8.491446304736130143e-03,2.162551173266936133e-01,3.081023939872301262e-02,2.811033345125307347e-04,8.179996037243654483e-03,1.801680623890742489e-02,1.635874198126118645e-02,4.862246360567751974e-02,2.575330300342543177e-02
1.168433722595164925e-02,1.790525562606627707e-02,2.221634060290490764e-01,3.387114544242966763e-02,3.772826102712575165e-04,4.808702823413355497e-03,3.809677818986196424e-02,7.588900093916635739e-04,5.873277188449050473e-02,2.170759806364256847e-02
6.062196013418112706e-03,2.073658997844503304e-02,2.619499394499108513e-01,3.909617872044632292e-02,3.556864048024108529e-04,1.585937772731510877e-03,4.153275456834869955e-02,2.257414436323170945e-02,6.241069175639268191e-02,4.885320526688254929e-03
2.208997865241408773e-02,1.435372292065069215e-02,2.671537302704826145e-01,3.922779471644066707e-02,3.087756470351904654e-04,6.842461059466992297e-04,3.247901078287786236e-02,3.383225019128853484e-02,5.238807851805956511e-02,1.588094961207690142e-02
9.213490679524408491e-03,4.699245001139979935e-03,1.786673628408030623e-01,3.094941303776452962e-02,3.160081936917553979e-04,1.402341462122155304e-03,2.038275193816033865e-02,3.220810205017674704e-02,3.364636869823973975e-02,2.437922816883332511e-02
2.095970528003353664e-02,1.144115853859158094e-03,5.377509194020606807e-03,1.745235940540636882e-02,3.348492312957448373e-04,2.941845978052617418e-05,2.565486745909440619e-03,2.719779735872195764e-02,1.775954346949126794e-02,1.644713867585894870e-02
3.117835746860232390e-02,1.663072881318202693e-03,1.539565957915305094e-01,5.415017056900147188e-03,3.272553157418161391e-04,2.312316967445542971e-03,2.914559347195570457e-02,2.954078453561858122e-02,1.177579082920534974e-02,6.238451432310044426e-03
1.355420436579477667e-02,5.027755391724142995e-04,2.027574916340370847e-01,1.372667430944597873e-03,3.123345171266646183e-04,2.908300306445356018e-03,6.672726797879321992e-02,4.748320063801049484e-02,1.206374782297059238e-02,9.519266940221326329e-03
9.854832244263591126e-05,8.592095879160892855e-04,1.536097519052820048e-01,4.229992298996154351e-03,3.078366017138874544e-04,1.006101513182945271e-03,8.985821287645674726e-02,7.981412539048958477e-02,1.082290024385052472e-02,2.596967767143927575e-02
9.503490569334053714e-03,1.423140242248955526e-03,8.353135898589694741e-02,4.966519286923060800e-03,3.047885346959751688e-04,1.951654313431318809e-03,8.970555893026216365e-02,1.052648145856992512e-01,7.505767416342777089e-03,4.168214981463283508e-02
1.918914110979224111e-02,1.009596542945778372e-03,1.055321837463914225e-02,1.741399521687750970e-03,2.945854010760527806e-04,4.386402166024159881e-03,7.187341952269124534e-02,9.455263558471992125e-02,9.304967877869628479e-03,4.444706776948002119e-02
2.310979810054623971e-03,5.972754911211893523e-03,8.870850108413122492e-02,7.242124485713595169e-03,2.812034177761776909e-04,5.868977868405067522e-03,4.276851573092636111e-02,4.484691625249893898e-02,2.035938504045653810e-02,3.350734504279755110e-02
3.024691989312231627e-02,9.309291376164378212e-03,1.661850339222331052e-01,1.726138966578259423e-02,2.686674769340112673e-04,6.590683949371166708e-03,1.196867879351383446e-02,1.086336440451718573e-02,3.443385191260274480e-02,1.762771617434804455e-02
4.938193513234680199e-02,8.779586146964751814e-03,1.360574400052989297e-01,1.980936611918186763e-02,2.551806867862546906e-04,6.515452079245620184e-03,2.136754523135662651e-03,4.188025782439184358e-02,4.021925245628887174e-02,4.724075199888404762e-03
4.676457311789839616e-02,6.377080569547109376e-03,1.963189498700155036e-02,1.282775826526222004e-02,2.389211642921367374e-04,5.448292152194771087e-03,9.171110718610073903e-03,5.168937620375286396e-02,3.269021187686116381e-02,6.660237379436897975e-03
3.276951134088821466e-02,4.754785156303470255e-03,5.364822971309362448e-02,3.363669776932614285e-03,2.208610192888115810e-04,3.899378045070858289e-03,2.853566268444042084e-02,5.415534658818251662e-02,1.769690004583182596e-02,2.158931318570169247e-02
1.252237712721711999e-02,4.982128761561553133e-03,2.308102762803103045e-03,9.485891172216988267e-04,2.020827921162846410e-04,3.144714407784175627e-03,3.118637829678636009e-02,3.961073783250364244e-02,5.860364000579294276e-03,3.640422950416753733e-02
1.262679747763018924e-02,7.564551593688724138e-03,1.147239860509972342e-01,6.839561651101736840e-04,1.824196102888237794e-04,3.780872076240764362e-03,1.189790673515925268e-02,5.424987042080599460e-03,2.844598731766445447e-03,4.188149059360458254e-02
3.108120821587088273e-02,1.144204954837331825e-02,1.707391500716108068e-01,3.528682190538872873e-03,1.616893809939882738e-04,4.958078016504523754e-03,1.568291283210045128e-02,6.197320629757188670e-02,4.844057902526729270e-03,3.823743452634017354e-02
3.113556000053901984e-02,1.242681288530070836e-02,1.022648637232486668e-01,2.985665939914856210e-03,1.403434591115030683e-04,5.691077951368855338e-03,3.488744264086255514e-02,9.327884334169717073e-02,3.296518545995294567e-03,3.530479655388856636e-02
1.975013668899799207e-02,6.873047990292638874e-03,4.080920849242047899e-02,1.941292136003380277e-03,1.188865540225860678e-04,5.854389761538067623e-03,3.552846658309887634e-02,8.552960687843169652e-02,5.214656328555309500e-03,3.649224394125438753e-02
1.416380119136667788e-02,2.920674874043973756e-03,1.483611775021282664e-01,8.825294889860215916e-03,9.754638349606615188e-05,5.400194555058629789e-03,1.927818813143260951e-02,5.565228502527004573e-02,1.472207287070103482e-02,3.430223810770589854e-02
1.914621746705224073e-02,1.018144745692691096e-02,1.371169772474453707e-01,1.381741520152878627e-02,7.653334952700016451e-05,4.241305238276457494e-03,1.429459978768967895e-04,3.066242226004720073e-02,1.727337441592411565e-02,2.386477073864914228e-02
2.602667977894145696e-02,1.114890898464241178e-02,1.597740972086636457e-02,1.469174238374867589e-02,5.620859075137623088e-05,3.262974024270968564e-03,9.308034589031361633e-03,2.765843889384846446e-02,1.307760637994353180e-02,8.935397176031164776e-03
2.933118012873259239e-02,8.560515559768402949e-03,1.136415646924898715e-01,1.318799169269748751e-02,3.694881031346437122e-05,3.329849389938219044e-03,8.474540977773881850e-03,4.126864121022467274e-02,9.712229037717569693e-03,6.993184940699457945e-03
3.040475885883198517e-02,6.745776553065652506e-03,1.492023546928834543e-01,1.256899945565558528e-02,1.901024387304068461e-05,3.208361113297488864e-03,8.390679363692534268e-03,4.853622128902261579e-02,1.166414381020670910e-02,2.213803359263383924e-02
2.832834481735398147e-02,5.856659091799232449e-03,8.513761719606031952e-02,1.286101732974242497e-02,2.588833451375951338e-06,9.155075169006100713e-04,1.558670246081770606e-02,3.584280887245778341e-02,1.552081356146853969e-02,2.864645627091275820e-02
2.123611306795888942e-02,2.827647253036644128e-03,3.353697855643855349e-03,1.194086119102307463e-02,1.202890481008605475e-05,2.945544743122233480e-03,2.552828882202901398e-02,1.464470377732296144e-02,1.699670124116466757e-02,1.870285546163923465e-02
1.322967576697156762e-02,3.391645922321785776e-03,5.621711214433965792e-02,1.049790708195724037e-02,2.451758378661689320e-05,5.492907849513397993e-03,2.957210102486306641e-02,1.871818506250816794e-04,1.782406993224443237e-02,3.340806888942043223e-04
9.300377684836968681e-03,9.475519426091299352e-03,7.539123281933077236e-02,1.155044154452274617e-02,3.479775239168194934e-05,5.151559763610303461e-03,2.395176105332372934e-02,1.321865294890037928e-02,2.214782565378939014e-02,1.142969229657253387e-02
9.836104358236730238e-03,1.111862947203158709e-02,8.929626877676553887e-02,1.560358961196102456e-02,4.299168567728323088e-05,3.152443101852017704e-03,1.115889284633854797e-02,3.146370547455249606e-02,2.897303377372707767e-02,1.039317916415952170e-02
1.621046937358651754e-02,8.176458892495698169e-03,1.039577224314927606e-01,1.949386447545703449e-02,4.885423070729678961e-05,1.365211250433044166e-03,2.954353404390367387e-03,4.107439097618648116e-02,3.242110477258736134e-02,9.830776212520818055e-03
3.177337719430469581e-02,4.929471460016524378e-03,1.080716856574897855e-01,2.007131260923329663e-02,5.184247001665646417e-05,1.133678998642843926e-04,1.215539147032027034e-02,2.527512703606933295e-02,2.923721337723723251e-02,1.833712094755370406e-02
5.396062230891968126e-02,4.753218531763506519e-03,1.158513781394079345e-01,1.800173685553575764e-02,5.232655043101768015e-05,1.286714846887747213e-03,1.449810916501874207e-02,7.359297777795535331e-03,2.252195566821134365e-02,2.875338579038146103e-02
7.300886075143762921e-02,5.944574886937848898e-03,1.629436068867768372e-01,1.734022747915255763e-02,5.148459169412986005e-05,2.972056677363310671e-03,1.529754125161949738e-02,3.246527166495290911e-02,1.687447698203306534e-02,3.177780276374537333e-02
7.809191257108340223e-02,4.158838777928605852e-03,2.468423925094127558e-01,2.056532879585848753e-02,4.871967732530499309e-05,4.247888799591813778e-03,2.154738645550511103e-02,3.614027094846400390e-02,1.297197045937566705e-02,2.958500461976090040e-02
6.301001350652286892e-02,1.507548531496222081e-03,3.166241931749024241e-01,2.513288679239178772e-02,4.180857634130832027e-05,4.080021321418192057e-03,3.266286440511114580e-02,2.065739609400550625e-02,9.265026247388308614e-03,2.931023448115492938e-02
3.150378322500896333e-02,7.012989091534828183e-03,3.428004346528880086e-01,2.675343634483074579e-02,3.241145459054061735e-05,1.964635444556668987e-03,4.021162121378443755e-02,4.898818790336833401e-03,6.755706962798791425e-03,3.233161650498500572e-02
3.918435483451943036e-03,8.717821669926642536e-03,3.537011688307728496e-01,2.450750956818124535e-02,2.588915692306813950e-05,7.653615603166503837e-04,3.792911535935059725e-02,3.347276315446298667e-02,8.492395695448453838e-03,3.722550220916704539e-02
3.626518187332325449e-02,7.418236813013730051e-03,3.768334013039490449e-01,2.026691003865266003e-02,1.951939922891271950e-05,1.540873419662535737e-03,2.979422444091308492e-02,6.154474393547173378e-02,1.373936293195610579e-02,4.581882388424585867e-02
7.274919884701290529e-02,5.420121816549069646e-03,3.824803211472178055e-01,1.478348486360323705e-02,2.562239209525098636e-06,3.313524491581172561e-04,2.632724133771332728e-02,8.064701701125177868e-02,1.569121513410393770e-02,5.774266287527306946e-02
1.144512203768396075e-01,3.204684199672751602e-03,3.235112901173328726e-01,7.562286405454697255e-03,1.859160659100559369e-05,2.631632746322721140e-03,3.269309261685770379e-02,7.577769822235490282e-02,8.812921575150399131e-03,6.424402101620385608e-02
1.329805927496075235e-01,1.500375428542410515e-03,2.163592298996243057e-01,1.346214568931488817e-05,1.992407397330124037e-05,3.302490318687424046e-03,4.246829131061349849e-02,4.418515836463422775e-02,1.897412797031990984e-03,5.805416685066048382e-02
9.726546727566651174e-02,2.779833958109479558e-03,1.425072084209716428e-01,4.311157445411951603e-03,1.350613454429209858e-05,2.812582887474595651e-03,4.647027464185834317e-02,7.983535003624416676e-03,4.021157759603969165e-03,4.696507813455436109e-02
2.743916056652264193e-02,7.488751735634997450e-03,1.530784628121011348e-01,3.707470372011373999e-03,4.998838180724704267e-05,2.587396569888373958e-03,4.623399824513420298e-02,4.362842799500173119e-03,7.459643044312478342e-03,4.567228426471171138e-02
1.505052424812299700e-02,1.205330736769885148e-02,1.974601312985686530e-01,1.000832299001523738e-03,1.039631976655316822e-04,2.773325859205321136e-03,5.153163941692697619e-02,1.576113204236976456e-02,2.253810975242827655e-02,5.481411353907960499e-02
2.584129029346127638e-03,1.337066865691576185e-02,1.849675464518062140e-01,4.745352793518418932e-04,6.554276765396207507e-05,2.669639852287638594e-03,6.307937444608244237e-02,5.411693789943726463e-02,2.708703273162813702e-02,6.037932829306134896e-02
2.945013889366418502e-02,1.239064419151580769e-02,1.040395723381239007e-01,2.533910611094753254e-03,1.502564206086882316e-05,2.372557298158535586e-03,6.657411012727730559e-02,8.859515516463126183e-02,1.848310723085109727e-02,5.285199546064313358e-02
4.024629211366441417e-02,1.151574867926418062e-02,2.153546620042279258e-02,3.677092165198440725e-03,9.993758486141253060e-05,2.621088239153055149e-03,4.968790465458026301e-02,1.048963098451722031e-01,5.942928085872994579e-03,3.350222976795425717e-02
3.440724547076515205e-02,1.140232726347291566e-02,2.749501846400556962e-02,1.736928245361992005e-03,3.177640470761495129e-04,3.037157042170939014e-03,1.921715278299684221e-02,1.058983408861357556e-01,2.296704300699095071e-03,3.930248849149478932e-03
3.899543948082493522e-02,1.151207217888560765e-02,6.324723559820383256e-02,2.109423674614440726e-03,8.506509101383009832e-05,1.995589703688263345e-03,5.556387638613089798e-03,1.070983287537021211e-01,5.681912193621272561e-03,3.487467320027232837e-02
5.900645094348733188e-02,1.130289050036641617e-02,7.412486327161453559e-02,6.857779612702541092e-03,6.691676592718241159e-04,1.045257357152312890e-03,1.550810283731272020e-02,1.173015016114826725e-01,5.654373621801586647e-03,7.478569410890245628e-02
7.737904490283671610e-02,1.040744759986048790e-02,1.343589242370940920e-02,1.315191964648489489e-02,1.095037492426943282e-03,4.638882361067615465e-03,2.217054126572965203e-02,1.272654582339369511e-01,7.811626075803111083e-04,1.061344407770111881e-01
8.504525987420087640e-02,9.574342927673609380e-03,9.598240303075761259e-02,2.016442930515384077e-02,6.663339051694875054e-04,7.436328927475161638e-03,4.063634525178976692e-02,1.249039960610957845e-01,9.257679405560669678e-03,1.273985216456447189e-01
9.134465436359871793e-02,1.033598351326479176e-02,1.534367293973039614e-01,2.391352094287920588e-02,1.787155140278397962e-05,9.144052130053075683e-03,6.459176181695740204e-02,1.150053936404262095e-01,1.886283746558485575e-02,1.381450363895104783e-01
1.026722065570066927e-01,1.122838093938647794e-02,1.041474524652459821e-01,1.971612485151828104e-02,3.307122896576821045e-04,9.223752101355292207e-03,7.107715287711147134e-02,1.114134000112352724e-01,1.905796486053156283e-02,1.301919256729157093e-01
1.018668030215094666e-01,7.089369168903614064e-03,9.998729553889952604e-03,6.202045979253370880e-03,3.272111371730771455e-04,7.170159225941085887e-03,5.295305852925200063e-02,1.156493383970201294e-01,5.561635255582396929e-03,9.769455284862790800e-02
6.543654487236208461e-02,3.628797688086478866e-03,1.395919614396517183e-01,1.205654543829014561e-02,7.528732181259645425e-06,3.911061015210539824e-03,2.935951303612014188e-02,1.176789448920283476e-01,1.531798408527112847e-02,5.061687117652686335e-02
3.042318791457738342e-03,1.432558834331866190e-02,2.884334895564952261e-01,2.744249437491866686e-02,6.830415727846280045e-04,8.698966807374470915e-04,1.708639213874723825e-02,1.106233696249038223e-01,3.177748088795440129e-02,9.000838360971511951e-03
4.389241276695231980e-02,1.854593967338389118e-02,4.610136021638001069e-01,3.717148434363699849e-02,1.117330890027574573e-03,1.493089094712725037e-03,1.116938639600015964e-02,8.979515899927477396e-02,4.042082819942295624e-02,1.384279500809616412e-02
5.165308963822028837e-02,1.883638045328383387e-02,6.097369058304967782e-01,4.507566466637612929e-02,6.959861683631320302e-04,2.844160360170072677e-03,4.103529417359609403e-03,4.863558056142452263e-02,4.934033364815609835e-02,1.781059450442441100e-02
3.566002905095554121e-02,2.111786798501523454e-02,6.704257370137761685e-01,5.290960232550846049e-02,5.503459213682001361e-05,2.258842222417582236e-03,4.398849618374260466e-03,6.893077571494729203e-03,6.252462984670850710e-02,1.057799366344172425e-02
1.531843529116204243e-02,2.442118140008158605e-02,6.262451014364776025e-01,5.563198620885435181e-02,2.860480706051378485e-04,2.140065968264521752e-04,2.069011410671445575e-02,5.141757746266741730e-02,7.040868006474806928e-02,2.610609661162201223e-03
8.618565557899509483e-03,2.303006852267280510e-02,5.089058596432464165e-01,4.918799243432519369e-02,6.823121046456095832e-05,2.461973624483061729e-03,4.189745252467188402e-02,6.450413229617962818e-02,6.356298406864911710e-02,2.670793496694104548e-03
3.102369905062283759e-02,1.583979945728399008e-02,3.499627781393792603e-01,3.681749863291707003e-02,4.490264868594699688e-05,2.310683482416706416e-03,4.977602222215951611e-02,5.381413095305481037e-02,4.650964744410892443e-02,9.256572722428108024e-03
3.412057063799751877e-02,7.383470896189211000e-03,1.665658062106405435e-01,2.372289550349822307e-02,3.939084511628478818e-05,1.516222754649003402e-04,4.262265821287197776e-02,4.201497252317334258e-02,2.982013159816463213e-02,9.918086090790090292e-03
1.906790101212720370e-02,1.216549493010244537e-03,6.227457965514302668e-03,1.115328431570607529e-02,8.344391208502979741e-05,1.811719081551760833e-03,3.224468404053949105e-02,3.707638115219318020e-02,1.667790568626769526e-02,3.886737648505092860e-03
9.554238903318230600e-03,2.550674492715945471e-03,1.125115123231977821e-01,5.181107804396989890e-04,3.695768850128021112e-05,2.555043752611297833e-03,2.383677784644030323e-02,2.752021885646104005e-02,5.437026109014054913e-03,2.521203538427105317e-02
5.408862054002912777e-03,3.939691518463276157e-03,1.218348088739134305e-01,7.446172241580751097e-03,9.732753599535416450e-06,2.641413460590273828e-03,1.297614880319544750e-02,8.687381008497018289e-03,1.052830717626778573e-03,3.935217641497959495e-02
2.671616499298916023e-02,2.127857368751720490e-03,5.354131651920714108e-02,5.338035138406414457e-03,2.705252217820743366e-05,1.907731884106350162e-03,3.117448995791950728e-04,2.585907352239608711e-03,2.115315275216006659e-03,3.903043026602688592e-02
9.384320150470375210e-02,1.541954423404991951e-03,4.499263760524149086e-02,4.398600273855902271e-03,3.804970347232530808e-05,7.409553864181400631e-04,7.012111707202599992e-03,3.589485348814867166e-02,1.278074014519719331e-02,2.908329344522244189e-02
1.500277833426672813e-01,3.293044235271585813e-03,1.149119381136290002e-01,1.410186585840476209e-02,3.035373366886133273e-05,4.801000938587442722e-03,6.213047053589917414e-04,9.879967447997461960e-02,2.226294526200728319e-02,1.871015153887073054e-02
1.537889820048973233e-01,1.303399054289359907e-03,1.028496137753959760e-01,1.656705152534761194e-02,2.773136588902212998e-05,7.753362134593298934e-03,1.283876074187569570e-02,1.466968234705990637e-01,2.470134689375962436e-02,1.157454502866469247e-02
1.159264767556748010e-01,1.973688641073483713e-03,1.762532480933561366e-02,1.209196160021650153e-02,3.636940421717187719e-05,7.866157955318494807e-03,1.954471134205967853e-02,1.498587790168111056e-01,2.155799201921703920e-02,4.020067811039421818e-03
7.099255382840667650e-02,3.355858442749140927e-03,4.955115292634706264e-02,7.125127980293449043e-03,4.511086513703371488e-05,5.734678204666499024e-03,1.279460957876439250e-02,1.214991513627490666e-01,1.678930330951683078e-02,7.524546899516511636e-03
3.258493025444402641e-02,2.776249506908481934e-03,2.231020843486385130e-02,5.626172332126592318e-03,5.062095932496275011e-05,2.852280555871751413e-03,6.685550513543463786e-04,9.068420362952370195e-02,1.115210784733961999e-02,1.837546761309441501e-02
3.601962838736738268e-03,2.110418482919599031e-03,6.520551813763163229e-02,5.102711047737996074e-03,5.803436118543017720e-05,2.962206488849941101e-04,4.908826958493674002e-03,7.036943430253674026e-02,3.873978126558592743e-03,1.756187564596939713e-02
3.143587501564705511e-02,2.102240766224106744e-03,1.217028227615540859e-01,2.450587701059162710e-03,6.917555059980942612e-05,1.229651707962670700e-03,3.985211023460642071e-03,6.097414249909418466e-02,2.292771743737823803e-03,1.038540249484336091e-03
3.103561476129077651e-02,2.164597774474825726e-03,1.121260332641529356e-01,9.012734889258383619e-04,8.116146194236172691e-05,1.680908031344753237e-03,6.411970636611846915e-03,6.413709093141176099e-02,3.125968828970338356e-03,1.998324281932336785e-02
4.673171630228265677e-03,1.964969980528378114e-03,6.640856945258116761e-02,2.582864712314733059e-03,9.189876678172826090e-05,1.839215058740542759e-03,1.477365067246484177e-02,7.877189865262719526e-02,7.565353945804265123e-06,2.868870585197102682e-02
5.253891786661140512e-02,1.760690428472101634e-03,1.560245906642475193e-02,3.963436468275451270e-03,1.028540534348602029e-04,1.921486146222701509e-03,1.837330876086424453e-02,9.392714954815273298e-02,1.133121338239884840e-03,1.896976451824074553e-02
7.721258497212390992e-02,1.706336114454039699e-03,2.680610995446391226e-02,7.526022231895557711e-03,1.165924909066388639e-04,9.108234637027544205e-04,7.852864721607646231e-03,9.593153079818524109e-02,1.989845941744039590e-03,1.040450633050727563e-03
6.337344549733921195e-02,1.680808103730311014e-03,4.976483644380219618e-02,1.221789062265201189e-02,1.311024524805647008e-04,1.295750278914513040e-03,1.087490243033787003e-02,8.036856135535996870e-02,6.578668599633018775e-03,6.423930679129665269e-03
2.867048560356503031e-02,1.607073697839480307e-03,5.526799843623611541e-02,1.493318966000170556e-02,1.406237753387142779e-04,2.600978469863203350e-03,2.278172886057085525e-02,5.582006350822944080e-02,1.159141430781679763e-02,7.219950076642287287e-03
1.020923996808947333e-02,1.537322015879275579e-03,6.394596759349555071e-02,1.507401473855496214e-02,1.476231788267978447e-04,1.450402853997777818e-03,1.960429015852341653e-02,3.815824896554929208e-02,1.897832513404874855e-02,3.174106068017850529e-02
3.371520034787778980e-02,1.504501286484461690e-03,8.015311236380602555e-02,1.460004492997376939e-02,1.633690490561182042e-04,7.314463493214146388e-04,5.498312667255481762e-03,3.768455634065175780e-02,2.754238226074898557e-02,4.494100004991238156e-02
8.740210718227046927e-02,1.480721284701688170e-03,7.161542958244206114e-02,1.442648645413864734e-02,1.825031696720324571e-04,1.692119402051791991e-03,8.841605142945128601e-03,4.896702016411905167e-02,3.202651434081412590e-02,3.793635653456380735e-02
1.322711290661227612e-01,1.446350123193885107e-03,1.473683926781929436e-02,1.356165537061156286e-02,1.802281234825244135e-04,1.338866130179909141e-03,1.444563010179717062e-02,5.772284043014819233e-02,3.043451941554720097e-02,2.280380022370006796e-02
1.423985622845165278e-01,1.410429501244392500e-03,5.298609926200691100e-02,1.171744774581973472e-02,1.664935320638531605e-04,9.816274860016392136e-04,1.020124181392477805e-02,5.785546440074141455e-02,2.721321929655142607e-02,1.105826076401955280e-02
1.245813082950731343e-01,1.378660626860956457e-03,6.572853318945451329e-02,1.037849092305695789e-02,1.938776890642419047e-04,1.087224295288332331e-03,2.869622729135420502e-03,5.526160558500213538e-02,2.673523806842919778e-02,1.507085086395197875e-03
9.840201597935487043e-02,1.343539244983020563e-03,1.695580937159250901e-02,1.062443020397665742e-02,2.421133686585774517e-04,1.201609466525464928e-03,5.545237703081938758e-04,5.574057899894359347e-02,2.789938202963963138e-02,1.939186721275346081e-02
7.312951040181747686e-02,1.299303957142893939e-03,3.177417214144433177e-02,1.153857461699326660e-02,1.979146356092416066e-04,1.110708868625903808e-03,8.199427030971464126e-04,5.649049431365586044e-02,2.756581788267548766e-02,3.226291221545622701e-02
4.784879380578790226e-02,1.246807405967467058e-03,4.458237922557835298e-02,1.163820850026139886e-02,1.010400008053375623e-04,1.017554192729921156e-03,4.180745035734662225e-03,5.071003256323927677e-02,2.549887472277328343e-02,3.002229293296053772e-02
2.170040495890582927e-02,1.186634834666739149e-03,5.791829681972986837e-02,1.076454644430121371e-02,1.968054208827798917e-04,1.023395625229473957e-03,7.847222987969863089e-03,3.634400237902072478e-02,2.340691157799457828e-02,2.149698140127507748e-02
2.785704941937201806e-03,1.116785463177986763e-03,1.019576213020279981e-01,9.725030401890653528e-03,4.158647210034179952e-04,1.033949024098586127e-03,1.154082133069302130e-02,1.795125733908506035e-02,2.183468505284138009e-02,2.326377803862603871e-02
2.287960977467989182e-02,1.035899473640580597e-03,1.364918977778732112e-01,8.907023885100621291e-03,1.898607724081936680e-04,9.999473852181496418e-04,1.526104355585011958e-02,8.139905321572042662e-04,2.015612476228099623e-02,3.697880737386802230e-02
3.840193971292883007e-02,9.444022049302467107e-04,1.176220280836246385e-01,8.084244687077760116e-03,6.017006367468330378e-04,9.641315148853663464e-04,1.959638759725584878e-02,1.390403354683901124e-02,1.813589782674877859e-02,4.825371316250855191e-02
5.075732385442018740e-02,8.430117591641209541e-04,7.885914022836225390e-02,7.101805817439198892e-03,1.077541955298161108e-03,9.492756571471137102e-04,2.415759786097727499e-02,2.687662327707215915e-02,1.607844201704025991e-02,4.360711610140557276e-02
6.049596858009061162e-02,7.321751890168328412e-04,8.262830643147511811e-02,6.075059468482975344e-03,6.041324859635489788e-04,9.348365280750150098e-04,2.576248852410781970e-02,3.709526771960337810e-02,1.412076640288656079e-02,2.338248633953614666e-02
6.728440941458840863e-02,6.127364659482951482e-04,1.205260446886102371e-01,5.095094031279581021e-03,1.561544550282840775e-04,9.091186717659772553e-04,2.324506970754458557e-02,4.360403756612735160e-02,1.214894873167156678e-02,4.519710385812681849e-05
7.147657827683603915e-02,4.861712356972040273e-04,1.245245304552053678e-01,4.128400883432758323e-03,3.436946238832632675e-04,8.808671211305049535e-04,2.263474653567835310e-02,4.767963519640933123e-02,1.012631263575920933e-02,1.520662230193276822e-02
7.383184430183534208e-02,3.542270603438733259e-04,6.666515489954223661e-02,3.151783366055989355e-03,1.339917919997696120e-04,8.550029119851345434e-04,2.872468863833097311e-02,5.039618043415847182e-02,8.135968687061951102e-03,1.998395022784131905e-02
7.419749441939631207e-02,2.187481267771993344e-04,7.899038576457321700e-03,2.200572232338203829e-03,7.063842952004265811e-05,8.269165077817218577e-04,3.337544387381834871e-02,5.090026785268281229e-02,6.226999739800316916e-03,1.582043093097938377e-02
7.206988198019220748e-02,8.177106405623281178e-05,4.690282652827863774e-02,1.305621590739973296e-03,1.100065726342711948e-04,7.937756207919613840e-04,2.461484885903357511e-02,4.934449575332350985e-02,4.391910029984437414e-03,2.352481979562959409e-03
6.804959444421911086e-02,5.446999841517138961e-05,4.247865513677528959e-02,4.694872919153603597e-04,4.868054289951897530e-05,7.573485447511402744e-04,6.455869931800618799e-03,4.857549607161721489e-02,2.637622404947203864e-03,1.598929703016974124e-02
6.356986151561208609e-02,1.876721106590076478e-04,1.411147247688061823e-02,3.048190700456893110e-04,9.056904233944189548e-05,7.187538769399955899e-04,3.806313836918112040e-03,5.083858458028536753e-02,9.961788457579657391e-04,2.820367475067970045e-02
5.948209440490084821e-02,3.155548555257592391e-04,1.906078588849949296e-02,1.002744992799801645e-03,2.797808042307001913e-04,6.770811817180515807e-04,1.155347847823283078e-03,5.454797226401947308e-02,5.090602075919427490e-04,2.914567152344425122e-02
5.569808981871159775e-02,4.358899363983316641e-04,4.318531666263172863e-02,1.611902453297408416e-03,7.318082594832493921e-05,6.318359939535572343e-04,1.020849617350967284e-02,5.525751333810344917e-02,1.869470928139264475e-03,2.497007262396075747e-02
5.196209464785044030e-02,5.465465540143800210e-04,5.518516346800027284e-02,2.127750427374705371e-03,7.043108690747172315e-04,5.836155313548860909e-04,1.143365570501746718e-02,4.962306149891475976e-02,3.075973542325401242e-03,2.222992093090509977e-02
4.831184650284003901e-02,6.455627510914080597e-04,6.684982857399297818e-02,2.547511029262882615e-03,1.192690919807675711e-03,5.329686134213878872e-04,7.619767787970934542e-03,3.929900953074844799e-02,4.116487280796863463e-03,2.117504992582870671e-02
4.485592040703489242e-02,7.312044116405304198e-04,8.698752940233367426e-02,2.867632020777818869e-03,7.292617977377073091e-04,4.800585243434332596e-04,6.903072688198392051e-03,3.032407243718014678e-02,4.983392938740311730e-03,2.110797489128575857e-02
4.157029324788965446e-02,8.020047008480165988e-04,1.025301269270000454e-01,3.086731086332132959e-03,5.270908231514744155e-05,4.251827796302207023e-04,6.856286402631675894e-03,2.698267352045851872e-02,5.675090543903571309e-03,2.291780195293273426e-02
3.839521652426042264e-02,8.568000094936351627e-04,9.038592127261887987e-02,3.206872568097659561e-03,2.721427256649009015e-04,3.689245064312645121e-04,2.339224762714904680e-04,2.775099692709986909e-02,6.192687510647490977e-03,2.550323997160275705e-02
3.533098433032797608e-02,8.947644253938307705e-04,4.374667383683517735e-02,3.232182095282999049e-03,4.965895344575482035e-05,3.118955353272053832e-04,1.257401179735878095e-02,2.883350995712356118e-02,6.539277365442031260e-03,2.491484873717717333e-02
3.239418314498011819e-02,9.154339569740412453e-04,2.175451580202965307e-02,3.168135478107344388e-03,4.634064984464891763e-05,2.546448498917455727e-04,2.184077758179856985e-02,2.905654015788120687e-02,6.721414696708083794e-03,1.740581872696897112e-02
2.957275140650507742e-02,9.187184819894904288e-04,8.104382383701240478e-02,3.022031042783952272e-03,5.345987280217059560e-05,1.977585334089186511e-04,2.506328450087388221e-02,2.946005654498225559e-02,6.749290525867594065e-03,4.064521233296615292e-03
2.684647639613397044e-02,9.049048607489297005e-04,1.131561372759863904e-01,2.803093843914400592e-03,1.036520553809215585e-04,1.418834094686155457e-04,2.385521857321690892e-02,3.053740063526609594e-02,6.635755004311860022e-03,7.185230103219000103e-03
2.420862736864125286e-02,8.746519030698805385e-04,1.113545787874324622e-01,2.521960467978312959e-03,6.430945765679666620e-05,8.765937657414077562e-05,1.952855816374601469e-02,3.174831372852113254e-02,6.395833748669312382e-03,8.812835376267435378e-03
2.165657435668031511e-02,8.289756338037769555e-04,8.684388259331918269e-02,2.190275436997195149e-03,4.845393208704843206e-05,3.568617709210506947e-05,1.507471254178431239e-02,3.257711671008316906e-02,6.046699212955392033e-03,2.671836999374716144e-03
1.918194128298335299e-02,7.692249081132084302e-04,5.817455923040605603e-02,1.820534652874875427e-03,7.603152299790613623e-05,1.346631328389735532e-05,1.323735511842173695e-02,3.305869314454297492e-02,5.607338006792245491e-03,3.941493604424419275e-03
1.677607244264127731e-02,6.970488327939638063e-04,3.485173890556460957e-02,1.425845144888251807e-03,9.414774653443507794e-05,5.926252827368560887e-05,1.120841508691785594e-02,3.374644475057985565e-02,5.097937096182655024e-03,8.356298599984952197e-03
1.443489916210972598e-02,6.143570296484782796e-04,1.415813325076236730e-02,1.019544365439723236e-03,9.248161609931194603e-05,1.012248635976445595e-04,6.170046406676917179e-03,3.512699798075808594e-02,4.539360260746572867e-03,1.163198135170907116e-02
1.215480118740100424e-02,5.232734008750723840e-04,8.480390693651480849e-03,6.148444500512393555e-04,9.529575254499962481e-05,1.389488657786821569e-04,2.496886770274578306e-03,3.624727924078772340e-02,3.952725377382681343e-03,1.140289707935196635e-02
9.930615842450307706e-03,4.260845008877391310e-04,3.197142059788365270e-02,2.245415370074249953e-04,1.074053856080537268e-04,1.721071185431228656e-04,3.722423260340216710e-03,3.484326915900574223e-02,3.358926236641475438e-03,3.930002191786694313e-03
7.761703941636458048e-03,3.251840117581907843e-04,5.197216335919489089e-02,1.392753493182705279e-04,1.172587110434790951e-04,2.004544038261875253e-04,3.795271845970643598e-03,3.048435685606709633e-02,2.778109767715823599e-03,8.432709710846631596e-03
5.652829845186765900e-03,2.230147813043655545e-04,6.637980646396343665e-02,4.655242697742573328e-04,1.220752682533207873e-04,2.238353393809726258e-04,2.963817930526491465e-03,2.601044945076278619e-02,2.229199546520559128e-03,1.864012623472956903e-02
3.602781328868225399e-03,1.220098135369253431e-04,7.698847628018759548e-02,7.443980623544265915e-04,1.267277154863035674e-04,2.421884096540959975e-04,1.026467862718589800e-02,2.377023599792555883e-02,1.729478551022530994e-03,2.254565119889754415e-02
1.604010475655304538e-03,2.453368051729077010e-05,8.651742926571291681e-02,9.675855884506423532e-04,1.324077079066837334e-04,2.555456204148481110e-04,9.706271490518418241e-03,2.261057577645569916e-02,1.294204689394344316e-03,2.029422512688938002e-02
3.338089380301831506e-04,6.717413366781933045e-05,9.474155602050071678e-02,1.128456982923518957e-03,1.370108649319854268e-04,2.640305630482369455e-04,6.170738927310094428e-03,2.058602921516800716e-02,9.362672094892681221e-04,1.335446907649012749e-02
2.183469354949833362e-03,1.510525285864628927e-04,9.848276861503366120e-02,1.222212323139107567e-03,1.395087965897083332e-04,2.678553094982140067e-04,1.168741667347307153e-02,1.807774977460406204e-02,6.659092194894379200e-04,4.466147341056214692e-03
3.950580009960427859e-03,2.252674135793998362e-04,9.559598497033626463e-02,1.245982939442836753e-03,1.398178016710411621e-04,2.673149436197073243e-04,2.715729041627817572e-02,1.619035963450347893e-02,4.905234911759472245e-04,3.307531582006684005e-03
5.675588700849457102e-03,2.882544663904751717e-04,8.768805540593799241e-02,1.198881238987369339e-03,1.387738946275970681e-04,2.627796975482568262e-04,4.040856527549007565e-02,1.411467815217280417e-02,4.145181522706127900e-04,9.664587286600271818e-03
7.326964631586269441e-03,3.387549664687160679e-04,7.817909070128306603e-02,1.082001474313297375e-03,1.382697496344303771e-04,2.546855023464010136e-04,4.271477742012038531e-02,1.001553689303679058e-02,4.392546795897608013e-04,1.533675027568501097e-02
8.794895449395382508e-03,3.758438300469247478e-04,6.887989346410230973e-02,8.983726158736315363e-04,1.369576904003904456e-04,2.435232912807485642e-04,3.845279855405939196e-02,3.513115574437719428e-03,5.630629707487661180e-04,1.913295987648302304e-02
