4.978528837221525040e-03,4.018598789180684305e-03,2.057162860673338121e-03,9.621213137241532294e-07,2.547136422813212260e-04,3.941466298173236342e-03,4.508132422438120013e-02,2.388153257079192633e-03,3.799788318648011920e-02,7.809724423491130711e-03
3.013312620892862493e-03,4.750544141849598681e-03,1.668899221870130938e-03,9.418660937870838377e-07,2.126613845911125126e-04,4.130417338437700550e-03,3.363821425282799427e-02,5.691427607170822071e-03,2.502166197231286623e-02,5.770468941888386681e-03
1.147531485778508593e-04,5.757145083767598731e-03,3.785543129022890616e-03,7.761299945812751229e-07,1.865478556098288244e-04,3.355183893231692034e-03,1.236457571591475200e-02,1.035041569202477425e-02,1.348747962707643952e-02,1.127056091653435947e-02
2.233442133287508180e-03,6.172225461464411755e-03,6.711935056226788453e-03,4.659128248163239741e-07,2.026874413497646295e-04,3.171904605191280032e-03,1.210828217631700586e-02,1.400787930672050749e-02,1.150414766273269267e-02,1.401952742986741288e-02
2.626794357863785918e-03,6.123534209598870300e-03,8.342067762133592232e-03,1.635823556479005365e-08,2.123642700330523304e-04,3.557125027836588460e-03,3.070961775683517248e-02,1.388754356030567211e-02,1.765382617217806094e-02,1.929705317353732491e-02
2.309021731713699257e-03,6.179598781259575818e-03,8.779975054989206523e-03,5.632970500160723055e-07,2.009493960131292884e-04,3.611419687160910899e-03,3.544406631414147996e-02,9.234868014069115907e-03,2.726722712404230919e-02,2.682263393049874947e-02
2.442916141961079014e-03,6.414418141802787250e-03,9.193576818330051470e-03,1.259877285995662322e-06,1.876116812972431391e-04,2.468957693594453929e-03,2.472394899625688508e-02,1.498155547761840373e-03,3.659602096068253346e-02,3.300727343328979657e-02
2.837342522892260816e-03,6.591789076842423725e-03,9.871545426328127981e-03,2.056522967431017491e-06,1.834841930100201100e-04,3.540184254152551040e-04,5.369288810081609270e-03,6.237605466756043771e-03,3.989149954373526902e-02,3.616199651957656414e-02
2.186359781414088516e-03,6.679981753568894551e-03,1.034363659531784864e-02,2.933042692531618612e-06,1.877841602336360145e-04,1.195985296345616986e-03,1.176761359041213900e-02,1.095615292752100123e-02,3.264161283889031873e-02,3.563343729731328208e-02
1.506205275067608654e-05,6.798019246614875853e-03,1.020595862233706144e-02,3.866354529119896309e-06,1.874715155975558963e-04,9.281661720872053968e-04,1.760961259049182576e-02,1.233194480659193827e-02,1.975400372536613436e-02,2.895110640659228143e-02
2.234038494617726373e-03,6.971644529605082810e-03,9.641418252370161784e-03,4.831007449997132496e-06,1.660049988753955965e-04,6.859497618786425735e-04,1.044321427095123989e-02,1.293435377379835959e-02,1.225626751423888015e-02,1.683518708183270526e-02
2.360066407452949058e-03,7.155693173523711322e-03,9.479863476640790904e-03,5.799771258266582090e-06,1.462349518432862607e-04,2.130193501854284535e-03,2.162485166698643836e-04,1.484085812397209492e-02,1.514841571650001224e-02,7.823095755912549965e-03
2.045391911195591447e-04,7.349011178125983493e-03,1.022191752266963030e-02,6.744281534759409180e-06,1.730992821426419225e-04,2.464348809358052252e-03,1.589685228208572668e-03,1.652960980607251842e-02,2.496890497317682395e-02,9.323844802822042754e-03
2.233463483832824701e-03,7.581260520977062094e-03,1.124579803906931331e-02,7.635724556862767578e-06,2.019114217847158357e-04,2.060854110584309489e-03,1.719583135625410777e-02,1.443162175419925031e-02,3.703616240533334075e-02,1.665093062218245615e-02
2.903586958994285993e-03,7.857207557377133764e-03,1.175153542278473476e-02,8.445545905766276660e-06,1.318828877763527523e-04,2.000081252390434848e-03,3.395331298408888615e-02,7.895174349801626495e-03,4.877934250318212428e-02,1.875600459959383612e-02
1.632607494599239064e-03,8.170312002545483676e-03,1.187887293041261540e-02,9.146165633789404156e-06,5.474878889106221506e-05,2.486386763800929340e-03,3.931122760807986144e-02,8.096559002777870516e-04,5.951821785613706228e-02,1.201999484936214051e-02
3.924995231580031760e-05,8.532177955072483069e-03,1.217027597777786165e-02,9.711682432215088269e-06,1.928412315592132839e-04,1.987940525110805205e-03,3.308630588507559950e-02,2.823395199459137386e-03,7.046225312829396126e-02,1.688673505348104419e-03
3.969772894318628802e-04,8.948691606404666002e-03,1.265472062703104639e-02,1.011854924011758139e-05,3.659558873101077694e-04,9.553870173028241371e-04,2.183755952287731034e-02,2.947745497748996413e-03,7.861634584064504383e-02,6.603957183138258608e-03
1.806095475389458017e-04,9.398083007470808478e-03,1.308743094492989360e-02,1.034620317262811919e-05,5.090762122143424422e-05,5.072408887109977962e-03,1.141663830585584564e-02,1.957597848276641361e-03,7.174821235585944479e-02,1.003419790953412848e-02
1.030340271357525457e-03,9.879319585676952370e-03,1.352422403024653753e-02,1.037763351860810465e-05,6.327297078285174306e-04,7.161897682334693489e-03,6.470814675014262447e-03,1.412501197295405742e-03,4.247639687488617699e-02,6.730602998766246382e-03
3.140940092862765272e-03,1.044040255945171379e-02,1.411065834554196298e-02,1.019987284750606474e-05,8.845991439434398688e-04,5.815928873078125144e-03,9.255687864886997379e-03,1.701065379814640111e-03,6.353140565037769354e-03,3.156247386585730921e-03
4.635765147767894299e-03,1.107625469936529376e-02,1.465997622462335802e-02,9.804397947228544693e-06,6.290607086651227569e-04,2.646788824329421308e-03,1.842567262388491653e-02,3.241182323536994942e-03,1.135318679405615018e-02,1.618603412006627482e-02
4.235650938714361977e-03,1.167485835615742103e-02,1.502538394996132988e-02,9.187429352879901293e-06,6.250257826901711115e-04,2.700904724573832856e-04,3.210198216748153671e-02,5.806993528109453614e-03,8.421165347036348864e-03,2.844516160092918494e-02
2.777341755238154145e-03,1.223391334694937799e-02,1.562984743194857640e-02,8.350120574465454121e-06,8.737589301261334271e-04,2.239210033474400494e-03,4.814044462113849232e-02,7.080249193519356186e-03,8.074251452111252253e-03,3.798244516079338218e-02
1.458714904925070919e-03,1.297745648654431358e-02,1.671242634101103089e-02,7.298630735885234227e-06,6.192796786348430142e-04,3.078163146341061310e-03,6.002103292791118733e-02,4.731748200582769175e-03,2.557682044649868536e-02,4.425389642882922303e-02
3.364655707636360999e-04,1.389606131818643675e-02,1.730104802026648930e-02,6.044077136334781661e-06,6.563791507485769363e-05,2.426785493761661212e-03,6.043170711357707947e-02,5.984655910899344417e-04,4.913247383569039478e-02,4.849162717015810531e-02
7.567761369742753664e-04,1.448686624924748478e-02,1.663580048642571141e-02,4.602367171370789307e-06,3.905915526678406112e-04,6.191684652447648242e-04,5.309966924744599637e-02,4.223734675661593228e-04,5.932209396275817115e-02,5.414079619909497459e-02
1.391389231031567395e-03,1.473782989093351363e-02,1.641601610307088371e-02,2.993912033021557587e-06,2.307444613620582969e-04,1.100520111808793791e-03,5.230219561770075437e-02,3.486084060302818699e-03,5.170188609543482916e-02,6.180001938515197052e-02
1.349846599170339027e-03,1.574811321364869357e-02,1.835367635731120772e-02,1.243227572623311935e-06,8.563854409222672651e-05,1.815166194995297688e-03,6.186468319622783624e-02,9.243436209166521617e-03,3.342539574622604287e-02,6.396076601576543286e-02
1.128548797257475584e-03,1.750562164057259049e-02,1.905751902185675445e-02,6.215694178435358950e-07,1.452892571172033126e-04,1.490749979370784538e-03,6.305638225080681392e-02,1.330443560800607591e-02,1.307293026263242099e-02,5.181323361598633159e-02
1.123858108071484636e-03,1.645965844688931229e-02,1.322436761075435063e-02,2.569358543366093127e-06,2.387244016590247793e-04,3.022268097322213811e-04,3.665514484944379370e-02,1.437543776281245168e-02,1.723468505977196691e-03,2.804796385379406190e-02
1.131229420731605893e-03,8.183642473791157002e-03,4.159665933801787521e-03,4.566693328455379504e-06,2.546296401294930096e-04,1.569629561239704353e-03,9.805094451640046851e-03,1.230401618008507454e-02,9.763164923568504183e-03,5.727803945447033224e-03
1.003144009462638439e-03,7.668809006440855183e-03,1.153720330439661533e-03,6.578543319628696553e-06,1.829130856120271401e-04,3.635322826536829723e-03,5.015749228195034298e-02,8.213294007934289834e-03,3.544583792560283830e-02,5.677484547701915074e-03
1.059134433554975762e-03,2.834925778162815727e-02,6.509768729275121173e-05,8.569083350631293439e-06,1.067109314119522173e-04,5.201777560118551677e-03,6.760886625898335223e-02,5.156590401278505174e-03,6.837040633802045353e-02,6.157103235522648835e-03
1.329877188982045216e-03,5.220176629357866499e-02,1.989744690670611563e-02,1.050251115005262513e-05,2.215570874436747985e-04,5.374904082398366569e-03,6.257629632435042499e-02,5.262068075797491501e-03,1.049431203739124296e-01,1.458767152834465272e-03
1.130302027406030483e-03,7.595549612238888804e-02,6.484082871086979671e-02,1.234387351757083759e-05,4.380307609626325391e-04,3.263446251309375795e-03,4.138359188308958492e-02,7.188355670122005200e-03,1.450862183085869506e-01,1.502761705303222450e-02
2.609121217171497310e-04,9.022169812672699296e-02,1.096104610293391346e-01,1.405988082149844040e-05,2.146506627666619862e-04,8.116100141046809005e-04,1.277117151925073746e-02,8.653185920047263072e-03,1.761998871082074980e-01,2.771786894707226057e-02
1.671261347794791071e-04,8.663110444610828964e-02,1.250613342327852318e-01,1.561968959482795425e-05,5.617579876509525266e-04,4.912652373790722324e-03,7.540226758799406688e-03,9.248287456972368800e-03,1.795490001917420531e-01,2.636871988056059893e-02
5.965914953435340340e-04,6.876610750476673528e-02,1.106344853415077989e-01,1.699563353531636316e-05,1.031407067091216941e-03,7.088090320570508522e-03,5.225562556661690269e-03,9.103309161715615258e-03,1.528784405509154287e-01,3.006877967406484595e-03
1.372747937014603828e-03,4.789431770369328989e-02,8.569616367349570940e-02,1.816388424107287847e-05,5.604003900670655224e-04,6.647305717767218111e-03,1.647307990753409807e-02,7.960357941861612510e-03,1.122407757427672792e-01,3.316949614116996431e-02
7.809080701936747370e-04,2.931966191520628956e-02,6.285348188146801240e-02,1.910502451842078589e-05,2.173712827947038898e-04,3.838755154059892132e-03,4.010917799681092827e-02,6.659058618736301595e-03,7.239278940432301857e-02,6.289876186593898466e-02
5.233604037022232926e-04,1.075757292932125707e-02,4.306480456779845228e-02,1.980451905178976128e-05,4.333593824081876582e-04,5.458052391055243438e-04,5.323421378517219360e-02,6.365152095994582732e-03,3.665353453319081245e-02,7.587232897015072641e-02
1.172782610684727864e-03,7.690212578325613182e-03,2.596583927622837448e-02,2.025306958147534789e-05,2.091299810343924580e-04,4.995298731157871673e-03,5.403773394674678265e-02,6.439988376934297799e-03,5.184214885738372761e-03,7.563029654920205846e-02
1.583536041139017511e-03,2.015644579230636141e-02,1.211882628730787288e-02,2.044684444164823284e-05,1.092765852245579708e-04,7.170520397090318632e-03,4.441224861896883591e-02,5.395449772566588906e-03,1.680287486548475914e-02,6.825533398302439936e-02
3.156054525262157271e-03,2.210585224392186757e-02,9.196783637956031793e-05,2.038757530866307439e-05,2.018963033305654108e-04,4.774255833369153018e-03,3.048615279936396638e-02,2.492081430926782262e-03,2.341463800688569491e-02,5.597815366953111382e-02
5.589034473699950462e-03,1.590854745586622876e-02,1.145709441758301604e-02,2.008251722554579808e-05,2.395140780638574049e-04,1.930457502850007083e-03,2.171488080774747545e-02,2.288686476967699123e-03,1.714057861978773162e-02,4.076946666870506081e-02
6.671193428682804273e-03,8.748892388251376662e-03,1.881476470115987787e-02,1.954427131716200632e-05,1.850179545973166064e-04,8.656989920711479630e-03,1.804684054446366315e-02,7.621625883775722671e-03,8.797107529461669143e-03,2.532811208209162154e-02
4.884016636027742331e-03,7.026079951766303101e-03,1.997584317910322538e-02,1.879047301391496093e-05,1.617255370730446347e-04,1.062737246999719866e-02,9.248912752664293496e-03,1.152912552942790894e-02,8.536776084874244178e-03,1.006151868826053383e-02
1.351186919402248875e-03,1.193267301420847769e-02,1.818619053822777276e-02,1.784335199257855954e-05,1.850381872655618620e-04,7.748878559459749203e-03,4.549928432894236041e-03,1.442027292709859194e-02,1.960927445742788322e-02,4.899592724042334257e-03
1.348412413631450060e-03,1.858701429040202774e-02,1.754211994671281069e-02,1.672917332850935022e-05,1.786738030828835479e-04,3.890156083308149524e-03,6.944519722772990455e-03,1.797892790891876882e-02,3.735014616965898204e-02,1.518045798258754568e-02
2.010716994120027683e-03,2.024691471608505364e-02,1.779670137743824196e-02,1.547757241424853973e-05,1.423925477528509450e-04,1.481597475972341480e-03,1.133474458033983424e-02,2.053531352128210377e-02,4.949291560034044940e-02,1.552761018690855532e-02
1.613828873588186909e-03,1.569244629956088877e-02,1.728798777387641900e-02,1.412079897173182646e-05,1.529449006344892330e-04,4.040993603013316249e-04,3.784689463231763473e-02,1.882506697964928671e-02,4.408833176348041921e-02,7.338644300781002605e-03
1.444110814950424170e-03,1.164892670870138272e-02,1.681949209441654589e-02,1.269288797431175625e-05,1.962726164266981722e-04,2.976325951900585416e-03,5.589020686210061095e-02,1.451977433933787816e-02,2.418405958147490376e-02,2.568571075508030779e-03
1.621920539648346411e-03,1.372617134721878032e-02,1.679483736182932688e-02,1.122877740374598811e-05,1.487866897569913862e-04,5.343504494511177455e-03,6.401256754340139965e-02,1.339319769389095069e-02,7.893798529770398170e-03,9.400381577967339974e-03
1.673290817629856635e-03,1.599352006906400170e-02,1.451573786996748772e-02,9.763394271123195496e-06,4.592001864147129519e-05,5.591694318335348884e-03,6.975313628047227765e-02,1.715192794106609048e-02,8.148801114554019703e-03,1.163946872836854607e-02
1.515738769401415390e-03,7.710594594334018066e-03,8.841072675306307568e-03,8.330731246489938018e-06,1.366191372339355472e-04,3.117721424450412698e-03,7.424904465191295433e-02,2.062816902028995203e-02,1.939160101988145202e-02,8.789715516353834718e-03
1.440372172946129299e-03,8.955957463443822014e-03,4.236457558363857651e-03,6.962936899389962097e-06,3.569916381266209594e-04,2.215639224169195726e-04,7.242596820252428236e-02,1.867114360314700919e-02,2.864775928444359201e-02,4.342712706489839161e-03
1.546753497697510478e-03,1.887208066926650621e-02,5.340977718170347201e-03,5.689442808731814833e-06,1.399644922202132277e-04,1.339990608568104435e-03,6.304522244343356563e-02,1.223249342671592181e-02,3.248058339604959627e-02,6.352936654114974858e-03
1.540176337185498361e-03,1.417155251762089799e-02,1.011910733287483925e-02,4.536149872399936066e-06,6.445229883753087006e-04,9.584083447835534900e-04,5.133225049328184880e-02,5.226753731166091863e-03,3.603715840535121062e-02,1.790447646017177125e-02
1.246456059223820462e-03,3.148228574518362882e-03,1.299697847118813122e-02,3.524694286604744389e-06,1.122475967252113639e-03,4.466212591431520731e-03,4.248640836977102264e-02,1.000544588268326759e-03,3.912864744502092540e-02,3.079458556967860916e-02
1.149276062521639198e-03,4.297207214414982233e-03,1.251791566371972253e-02,2.671812561371828955e-06,6.415535590484994439e-04,6.208248601474476540e-03,3.565212395309730331e-02,6.105665129929399408e-03,3.405462652401274742e-02,3.435987195839446812e-02
1.638100249677597363e-03,8.624727469647198302e-03,1.158366795667974819e-02,1.988824152500182131e-06,1.532295951947311267e-04,5.853053059474696423e-03,2.616621080668536659e-02,7.246320175951660031e-03,1.982842958570712327e-02,2.692424882791447441e-02
1.700863224892900684e-03,1.343643127437759051e-02,1.171090100956498695e-02,1.481246300003462384e-06,3.622977443990890592e-04,5.338585798453645073e-03,1.298278791572518749e-02,2.807705739396549813e-03,7.631765811024704416e-03,1.440154786506037815e-02
7.740642595259811438e-05,1.613931115113744624e-02,1.126839127862322779e-02,1.148549453074485985e-06,1.212795584658551328e-04,5.883871392398622863e-03,5.838260732800035560e-04,2.774330300527175826e-03,5.953113522385213539e-03,1.858201045669201574e-03
2.787093554788910594e-03,1.203561258037426016e-02,9.403397627882389281e-03,9.840609552171567569e-07,5.681041776169896593e-05,6.526108364915787774e-03,1.344670450565830372e-02,3.485239020375709151e-03,8.603551164238212520e-03,8.948245360636349413e-03
3.592804462004422356e-03,1.891547956988142744e-03,8.067671780782525656e-03,9.750277696272726016e-07,2.120447403560774338e-04,5.602482946950194248e-03,2.833276297022959550e-02,7.142118592345593400e-04,3.125267252401291856e-03,1.682817979740367301e-02
1.625207117771816645e-03,9.115736368812360144e-03,8.752757909529056135e-03,1.102839645765470851e-06,2.075935835190123276e-04,3.086729305685281203e-03,4.704479163917545809e-02,5.602888842998790878e-03,1.439134038460227263e-02,2.075137627248102926e-02
7.989893026258174753e-04,1.616225745797138583e-02,1.006278575472619764e-02,1.343395712093859968e-06,5.329287212633485840e-05,4.669617097278828586e-04,6.830491138297890841e-02,9.964314424522079106e-03,3.636377442261391757e-02,2.119069323641606384e-02
1.575094515943036315e-03,1.629432722742166564e-02,1.024570434658742674e-02,1.667605204943958883e-06,1.560853759152154943e-04,1.707009267799548813e-03,8.818264810162444733e-02,1.549652973340383266e-02,5.152769238377329086e-02,1.943068650130925362e-02
1.177749375909225909e-03,9.239795388576143784e-03,9.655217477846330873e-03,2.042040753084777852e-06,4.476016875193035861e-04,4.206226494510303775e-03,1.007268193195869910e-01,2.019668870523187026e-02,5.278669201948182899e-02,1.683716073988452550e-02
9.788568741437250233e-04,1.337106635595484896e-03,9.251040522172697747e-03,2.429735338714499264e-06,2.002582100559503146e-04,6.760968188778013199e-03,1.017701523614762543e-01,1.837859696475257348e-02,3.992793284910498008e-02,1.554832762271922929e-02
1.202911482802597248e-03,1.049908039580905138e-02,8.984034285033451819e-03,2.791043229383492099e-06,6.799201253983832823e-04,7.805480612023689597e-03,9.143964703126471194e-02,9.023303875950810030e-03,1.827901351958947929e-02,1.724347803142851909e-02
1.340218743411915152e-03,1.681684008489590931e-02,8.775365589991748413e-03,3.084531557435502714e-06,1.056138581467979754e-03,6.770794370515559324e-03,6.927674989551818596e-02,1.440207496613052753e-03,4.539924207126868477e-03,2.031936032634570205e-02
1.281813503323429079e-03,2.086548639678114866e-02,8.917449004986175570e-03,3.268012749327583499e-06,3.534981827847613351e-04,4.546626678960082393e-03,3.267316539961419991e-02,7.051150560795165466e-03,2.174063415933151500e-02,2.081670226799851170e-02
1.300249662322596356e-03,1.938008827805673406e-02,8.660564501199171511e-03,3.299725117103673752e-06,2.151042394546298230e-04,2.344227688728537252e-03,1.283459430991106681e-02,8.463298809975176515e-03,2.916251104375024508e-02,1.717571416541729956e-02
1.463320288043049207e-03,8.102218475315675281e-03,6.659283336555956931e-03,3.139353708218553308e-06,3.457335659396375250e-04,1.500721645159646409e-03,4.932162500972137043e-02,9.178876540324275649e-03,2.672893238805671562e-02,1.214405910559859976e-02
1.553232799047866161e-03,8.297433415634578729e-03,3.670476664019950777e-03,2.748790739696616221e-06,1.037961912780233347e-03,2.783061332869818816e-03,6.232579598168658946e-02,9.723477550062458591e-03,1.943622683789888658e-02,9.425286524969503366e-03
1.498691684919047605e-03,1.778167016625014848e-02,2.427511025044335781e-03,2.093211113978531108e-06,6.590139425115956393e-04,4.966603270231573219e-03,5.526022430761244608e-02,8.341769193383417533e-03,1.517617075521014540e-02,1.057191277924602983e-02
1.592065582437019334e-03,1.459884646534759245e-02,3.915656382709424913e-03,1.142613113360438461e-06,2.185559838495897936e-04,5.885774665610436426e-03,4.106998048268915152e-02,5.167597491325550026e-03,1.961835253766513326e-02,1.528687009656808440e-02
1.959757069825956554e-03,4.254779802057649662e-03,5.999205963895554161e-03,1.274792839270660931e-07,4.816219522851124756e-04,5.149753226945360043e-03,2.712046377471040090e-02,2.540744235130511577e-03,3.188964140786758328e-02,2.175393925181746263e-02
2.023320787608527335e-03,5.096071455645635566e-03,6.418487181363088240e-03,1.736582001845948595e-06,2.151798826578724588e-04,4.063108651414014047e-03,1.460141985620724836e-02,1.658174346334542314e-03,4.422305194528287214e-02,2.639910447145574907e-02
1.227110604634984881e-03,1.038585076923652893e-02,5.273147790216264549e-03,3.698381295014272128e-06,9.456637773825381861e-05,3.030192991935883387e-03,5.212852976515228512e-03,1.462973288409443254e-03,4.764388041329701423e-02,2.662013221577661307e-02
1.374680591013851822e-04,1.377683021030221173e-02,4.221109991087754199e-03,6.017503629994124367e-06,2.074866375349446483e-04,9.449873012789865648e-04,1.387729065535062492e-03,6.407636114261752378e-04,4.010211262380328212e-02,2.353921120300198067e-02
3.127586804962946792e-04,1.773883424051994270e-02,4.321725901272324352e-03,8.689727374146839496e-06,2.594015842544326270e-04,2.625834237114721588e-03,2.648546034303305742e-03,1.520450139397215138e-03,2.743146036334377300e-02,1.857542779505840652e-02
3.976323408790765159e-04,1.936283536095025071e-02,4.466990255384953312e-03,1.170780749366879003e-05,2.012666448423000207e-04,5.968557635133184963e-03,5.479882895781227128e-03,5.602194610102079544e-03,1.636676131586431784e-02,9.472901507556362108e-03
9.103983638492484532e-04,1.274276479681275831e-02,2.132674264106028915e-03,1.506061041168514296e-05,1.685087012834678947e-04,6.447719452462880724e-03,6.272145105104261036e-03,1.085265079386930204e-02,1.021260759343751295e-02,4.510341098515698380e-03
1.382970664528582845e-03,4.844243411681336837e-04,2.944345817338294390e-03,1.872062098854984495e-05,1.865397528891664543e-04,3.258541013304477093e-03,3.153606436380771566e-03,1.389645037347574628e-02,1.084430714448316596e-02,1.635896928499413691e-02
8.393538132436342575e-04,9.633384537604660486e-03,6.929016229525923956e-03,2.264597401147114890e-05,1.944387186212692459e-04,1.044341110818253291e-03,3.666091226846501447e-03,1.129483395412530546e-02,1.955616082964087982e-02,1.796839332555663638e-02
1.609821378031481493e-04,8.188307601393364499e-03,6.259363465786076802e-03,2.680823212697158332e-05,1.788177541406126209e-04,2.754289742328001628e-03,1.191895109123101287e-02,4.136412207700621360e-03,3.313097539414105314e-02,1.068572806253762983e-02
1.749386134003617249e-04,1.057446281184952139e-03,2.499181569086059151e-03,3.119033180338133131e-05,1.641528020339658351e-04,1.021428530705306963e-03,1.989326866386156162e-02,1.827867702755966214e-03,4.225170542486278435e-02,2.310603418388203472e-03
7.325532471928384009e-04,5.037044221420457560e-03,8.002412903793435471e-05,3.572924884861144535e-05,1.591874604032008397e-04,1.822401577676660382e-03,2.956376974750355921e-02,1.963685427317413395e-03,3.881439980713046606e-02,2.838382085086798255e-03
1.114742993389141509e-03,9.727736332209758682e-03,8.710121730525041857e-05,4.032136960682569107e-05,1.616215022322185714e-04,3.708645080803628109e-03,4.297700161517376688e-02,2.725553567488726500e-03,2.516325286894312285e-02,4.693899348026842229e-03
6.104764660196792137e-04,1.392876538596000795e-02,8.412111403277534524e-04,4.494793916209838621e-05,1.636178459382697532e-04,4.266485671165419664e-03,5.645138088330797083e-02,8.122675214971886853e-03,1.268474967646281495e-02,2.807835672066708987e-03
4.625610628831121340e-04,1.566639824855801250e-02,1.633508211699137482e-03,4.967004349051941717e-05,1.473965732555699627e-04,3.162650407304352495e-03,6.423264901190427201e-02,1.189966589633476186e-02,1.090180418675702582e-02,3.112548762285145734e-03
1.398401139710640914e-03,1.518437048552231938e-02,2.411026672700034273e-03,5.436399002051879977e-05,1.244838355736494363e-04,4.610424725464651687e-05,6.525170928365729706e-02,1.363873682444923831e-02,2.014689682840773571e-02,1.103979340550245540e-02
2.620866294763082339e-03,1.611930425279526138e-02,2.978745768594334101e-03,5.872870252162644097e-05,1.442020178106527865e-04,3.503090438947911375e-03,5.971234014536899032e-02,1.245069192206083898e-02,3.401761411280450342e-02,1.819809620044912299e-02
2.975006710601465782e-03,1.744198869394233964e-02,3.159231573096333602e-03,6.285470177231905345e-05,1.860860918098919035e-04,4.643502157451890808e-03,4.489169876715464608e-02,8.228767391692832361e-03,4.562857955232604151e-02,2.233205549493963785e-02
1.942534143904371810e-03,1.200139522067521052e-02,3.382236764260224387e-03,6.722680647635342790e-05,1.394178951371067145e-04,2.590984374259342436e-03,2.370163813356362947e-02,4.021001635625085294e-03,5.068741196428099005e-02,2.127278144403250276e-02
9.401621440725783322e-05,2.079381426982871740e-03,3.661815620347961490e-03,7.151261886568604891e-05,4.366479507284528960e-05,5.081839613632604252e-04,1.067606783070616447e-02,3.211561391522010488e-03,4.781272129811359878e-02,1.498274195356800141e-02
1.887622348856840809e-03,1.542865232263244610e-02,3.493889890355465159e-03,7.452850048499672336e-05,1.412137269103660520e-04,2.324678102090957377e-03,1.734298717735176243e-02,4.916015785204123217e-03,4.006711976345085635e-02,7.753157090968281623e-03
2.456922393976601615e-03,1.730204037066506578e-02,3.011437474277684021e-03,7.682911161285874526e-05,3.638933648505880626e-04,2.596481122063864101e-03,3.634526284154977055e-02,5.640942627270382689e-03,3.626303781504520984e-02,4.525224229859355074e-03
2.301984057234886076e-03,6.164825545420513087e-03,2.676013738666511294e-03,8.085038007217897028e-05,1.483798964408433469e-04,2.434205661814303930e-03,5.198132534547636463e-02,4.584443928034485742e-03,4.517342099063097888e-02,5.120922570226054717e-03
2.344806597683045044e-03,1.025642414204784234e-02,2.431284050190716736e-03,8.538525824170582084e-05,6.288602502102471270e-04,2.486588179182026501e-03,6.183645851635274221e-02,3.907275688137363916e-03,6.329471504733823195e-02,5.168464218960369151e-03
1.963579649241009063e-03,1.946525744745725844e-02,2.417970745385360394e-03,8.513608415356345059e-05,1.097433088999363740e-03,2.500062352565146726e-03,7.462456839307110568e-02,4.753267932369817025e-03,7.199523868803588134e-02,1.919971928281149782e-03
2.082401638305186756e-04,1.192335091737133437e-02,3.172798901967095742e-03,8.250193364526833102e-05,6.181908991417460995e-04,2.370333931023000090e-03,9.061585804438311575e-02,5.970795845226373362e-03,5.584615543981615721e-02,3.748471006938946994e-03
3.428250056638960323e-03,8.102849361347762985e-03,4.161597307069171692e-03,8.884293856883075592e-05,1.687594862672995807e-04,2.594599589057372709e-03,9.868850215256974590e-02,6.390934710230541070e-03,2.238514879202568170e-02,9.472482554869744720e-03
4.744447990171420278e-03,2.429695057564893595e-02,3.911186319890272781e-03,9.934000958196299771e-05,3.912847500955927245e-04,3.106493260843617207e-03,8.920381375320809991e-02,6.385494123703704637e-03,8.521268118236547534e-03,1.233953155763246878e-02
2.651329496417993963e-03,2.736591119939715475e-02,2.337013750397385053e-03,8.963806494239824521e-05,1.759785358292320601e-04,2.832896988428278574e-03,5.669908400814809707e-02,6.025536725442680493e-03,3.289020922517915668e-02,9.707781595160157664e-03
8.003404985746035566e-04,2.455104726866335491e-02,1.047277480670183664e-03,6.944832937581950946e-05,9.068655419278558063e-05,1.722360479873589036e-03,1.939103740041575293e-03,2.457672976799153870e-03,6.163902478134081209e-02,2.522414381365035638e-03
2.658138335875520099e-03,2.405681093524664194e-02,8.340332808108164150e-04,9.111993361607798102e-05,1.956815452872675816e-04,1.508597782666473057e-03,7.602302244631842232e-02,7.270086734857791194e-03,9.314436385380184258e-02,3.920441028948087187e-03
2.283663896305371081e-03,2.165353579530265166e-02,7.425561764332510488e-04,1.353796441067613415e-04,2.374355162603173253e-04,2.208820422639379451e-03,1.371530229286727354e-01,1.987885134330269823e-02,1.111763539228778630e-01,5.172944794844156272e-03
9.775970251990823753e-04,1.288063173057475697e-02,1.245672571082802110e-04,8.990831591223763378e-05,1.929170592501254456e-04,4.648980098811082945e-04,1.617262315192144473e-01,2.731019857000733381e-02,1.110063857903570705e-01,1.429694674642687001e-03
4.620815339810178599e-05,6.806593145908804675e-03,1.711702010657948757e-04,7.213605733478561120e-06,1.969679164310972547e-04,5.346105669919272267e-03,1.487691833680321596e-01,2.591608552953787725e-02,1.027091778119155197e-01,5.070830013868824621e-03
5.255491331408738065e-04,1.277260405988140009e-02,4.325763158598287979e-04,8.750395704216786506e-05,2.350869381695868494e-04,1.165779302135659841e-02,1.105485184313945157e-01,1.958045951487816586e-02,8.694746531681780966e-02,1.220776894329106757e-02
1.038056745903403588e-03,2.225074964698336294e-02,7.637419554618499022e-04,3.083802844703172280e-04,2.050251032728369878e-04,1.484683053909416350e-02,6.289176635746680788e-02,1.367412691598976666e-02,5.306945094779078054e-02,1.649609745539214536e-02
2.281970452942616058e-03,2.045581572527476952e-02,2.897838512013331059e-04,9.107087681659987012e-05,1.682617156740841573e-04,1.590365847100294952e-02,2.611856228673175434e-02,1.039245065134749429e-02,7.895968168675370283e-03,1.519613209771361953e-02
3.913189370457302065e-03,9.150849288415086047e-03,1.560495266833634466e-03,6.927311272203494135e-04,2.599635124583696212e-04,1.697726504581137386e-02,1.108703313612295974e-02,9.413118811328304719e-03,1.766293894519720478e-02,1.142876639316016754e-02
4.489364825701504594e-03,1.045637632425928335e-03,1.322683407119145966e-03,1.170736052384471673e-03,3.439567529241534965e-04,1.719327286702171734e-02,2.142523620173964610e-03,9.333475025858926910e-03,5.111598651839863519e-03,1.097792637008388958e-02
3.163650850663707065e-03,2.414986894447504386e-03,4.994902378320477876e-04,6.932997898194822543e-04,1.277410795301757212e-04,1.436506243064666552e-02,1.922138247391205063e-02,8.537524949962314869e-03,2.633691831310943851e-02,1.196126505322767444e-02
9.449121183786109591e-04,9.625526623426469003e-03,1.091725272656540128e-03,9.637830891130769824e-05,3.395547606864298025e-04,8.529887299362517300e-03,3.371069272656557897e-02,6.234419646385969647e-03,4.543909071771630448e-02,4.314211411110363721e-03
2.408659985106346546e-04,1.889121279992765981e-02,1.767448288232898726e-03,3.042278186850606750e-04,8.141985311139258693e-04,2.731578805880228566e-03,2.521374820912410802e-03,2.360545117190388821e-03,4.241627724745614114e-02,1.635987248333261451e-02
6.491759282071032922e-04,1.841465796183433881e-02,4.383853577183431313e-04,6.328137121917235105e-05,1.342895546792090104e-03,5.948827797347185520e-04,6.901342142494212850e-02,2.620727247184271528e-03,2.392393972640929206e-02,3.960767740115619939e-02
2.998210081114076678e-03,6.134568925762691298e-03,3.886556860332528954e-03,1.109886518610336457e-05,1.819594003831884145e-03,2.316149179430940577e-03,1.260420031690892839e-01,6.117268572798565882e-03,3.555588312276205913e-03,5.030130995465736943e-02
5.015879414505393548e-03,6.647930624870793809e-03,4.058320401019058915e-03,1.294307901515872662e-04,1.606504209288020643e-03,3.866055570778341877e-03,1.323646129322206821e-01,4.193660353314539180e-03,2.839525450402820977e-02,4.505240799919814354e-02
5.090899699442991665e-03,1.249275017454272788e-02,2.070112556095259938e-03,1.299543507086214824e-04,5.792802726148731096e-04,1.849125569327014860e-03,1.068488941198336289e-01,2.719597278538554447e-03,3.073629512090253826e-02,3.332297323005128931e-02
3.066593712303552349e-03,1.457710770743817288e-02,3.723051090432937405e-03,9.540660630380861268e-06,3.176123513502137285e-04,2.467929837116732052e-03,8.399721287919602319e-02,8.024597636833892544e-03,1.844981022136805288e-03,2.479193059824899917e-02
1.594610699916260035e-04,1.480466173895506402e-02,8.957443246899822464e-03,6.583700288684062821e-05,4.052684860720696621e-04,5.789090284901675376e-03,7.233755507135741780e-02,6.550324668935909866e-03,4.433314519436021284e-02,2.127860597938713641e-02
2.101027254249231146e-03,7.705535526524100697e-03,1.056240194811427190e-02,3.077195613947067898e-04,1.271233883061056221e-04,6.955301661356259359e-03,5.987748106391417580e-02,5.627252555594927609e-04,8.579492059497331735e-02,1.929133702098505612e-02
2.623248038052100432e-03,8.994169300274711121e-03,5.379638513862348460e-03,1.007218057640993505e-04,7.577638173055088364e-05,6.496724031887263391e-03,3.755982214734656516e-02,4.607055239893504892e-03,1.072525161843775610e-01,1.492850235708180311e-02
1.380662157316468177e-03,2.513450574070920721e-02,7.234685141754720623e-04,6.882104743413545783e-04,1.888739075909305707e-04,4.967871732982515401e-03,1.054073952967186402e-02,6.726804539481108514e-03,1.014171049000953534e-01,6.802812994655672157e-03
9.017968207447710390e-05,2.663322187955270010e-02,1.815309811708643636e-03,1.165026585766513632e-03,2.042926036866884901e-04,3.741044425464832429e-03,9.547751640437930273e-03,6.209559029057230492e-03,7.145228337621638282e-02,2.449598338202250807e-03
4.317790161537156542e-05,1.205034563664083430e-02,3.319945066013660611e-04,6.865447026692081704e-04,1.428784860249919368e-04,4.605770353781114129e-03,2.498419887431864786e-02,4.100889582881427076e-03,3.345340187373222612e-02,8.247877716326738190e-03
1.513526784327058877e-03,5.451661241368623012e-03,8.538936692355223509e-04,9.757607604321914135e-05,1.268100186346400148e-04,7.067482161876589321e-03,4.976195652178077439e-02,2.456406045319110831e-03,5.823136120336095713e-03,8.828963056357989891e-03
2.214891866579934629e-03,1.296216803933666374e-02,7.047620805181525287e-04,3.150339148109811355e-04,1.482135693987040074e-04,8.636800807193721619e-03,7.344105756865716705e-02,2.787146235136045945e-03,5.945369538701760978e-03,6.638070731954224049e-03
1.346398741569583470e-03,8.147893796551600523e-03,1.694500888823270018e-03,9.412659814206220652e-05,1.500319412137310999e-04,8.551960926490203077e-03,5.803877791886827980e-02,3.564494528753931347e-03,1.180146304658128212e-02,5.067721467799136091e-03
4.885818289805500883e-04,4.845122023574052750e-03,1.717443773077878544e-03,8.071587580117764883e-07,1.354067809630484052e-04,8.535921684377058630e-03,1.308009055373440810e-03,2.519024988872701955e-03,2.569178085793607028e-02,4.948373570636731278e-03
9.212024495834422863e-04,2.032053017962101235e-02,1.984244139159568442e-03,9.591103101709981494e-05,1.312023077664119870e-04,9.120265595331151359e-03,4.951087751024822042e-02,1.575609697376208814e-04,5.013608001100033906e-02,4.232559320807637721e-03
1.808128207929615358e-03,2.969104209332436295e-02,1.223535215982780693e-03,1.407923145430694232e-04,1.363621280354219794e-04,8.097412744308921800e-03,3.839267681783087305e-02,1.676645158699533594e-03,7.055129746188354423e-02,1.593994212158772808e-03
1.907794932808200240e-03,2.452014022128884072e-02,2.879803989593543619e-03,9.576107886142462674e-05,1.383711950791037570e-04,4.306625755086598839e-03,1.740582346117765938e-02,2.298886234882350100e-03,6.915924750563050283e-02,3.985185545262452840e-04
1.454563835237461956e-03,6.174721841901676181e-03,8.291417301463753844e-03,7.314489866521218142e-05,1.375894715858644616e-04,4.049564126780478114e-04,7.871923723340250312e-02,1.329137277615626217e-03,4.618930960272482622e-02,1.633489953583604562e-03
1.376335035843223803e-03,1.247179498978012377e-02,9.313997809303980677e-03,9.222896354959747643e-05,1.398008030127939920e-04,2.669574861730934952e-04,1.314000781285944719e-01,1.944342137963685126e-03,2.088307913169871327e-02,6.578221009660660708e-03
1.653184800790719576e-03,1.918951665804894541e-02,4.279457334610230548e-03,1.006794913971788643e-04,1.448294543909078944e-04,2.684892630828119697e-03,1.695720883966214121e-01,6.967048622398125217e-03,9.433699069081214958e-03,1.019742488350374073e-02
1.427981537400233513e-03,1.353458370382143103e-02,1.469264107547886035e-03,8.880380226633760154e-05,1.499797846421333934e-04,7.599786442220951566e-03,1.761162444933470350e-01,1.139836035822793490e-02,1.104274822834645613e-02,1.105916388110247082e-02
5.281340400699225139e-04,2.598890836477576842e-03,2.986709354382539525e-03,8.097846056713123633e-05,1.551976562998488157e-04,1.229550303836342631e-02,1.525452367498651429e-01,1.252596469744405271e-02,2.020421195266564052e-02,1.161628235767493689e-02
4.766127063373638525e-05,1.057828044873428477e-02,2.185140517241339949e-03,8.204665798226500723e-05,1.613324318049764658e-04,1.382824237684562863e-02,1.282694096630016267e-01,8.553855440814498584e-03,3.959969612014515444e-02,1.300707309324706899e-02
4.106152377760137473e-04,2.625508980458433547e-02,3.087721821880500157e-03,8.067460965481117944e-05,1.681538173542222151e-04,1.037353439711906529e-02,1.124303091447377001e-01,6.053107579638051811e-05,6.822759064188060885e-02,1.216006171294679340e-02
1.227318153979676694e-03,3.682049911516959567e-02,4.582762531291313668e-03,7.449140390497832674e-05,1.755719611310275390e-04,4.241760209389575792e-03,7.639015551692604489e-02,9.521209130052084649e-03,8.773745301966033583e-02,6.679146803276439677e-03
1.404399493575519617e-03,2.977840093754080888e-02,3.294999347629550424e-03,6.882420961522173609e-05,1.836347534018611179e-04,1.387891082957944805e-04,8.416349351568406384e-03,1.492422500152699137e-02,7.828734482558531715e-02,9.773024656359181037e-05
1.035592582894870719e-03,6.662468550276971074e-03,7.464105995113922212e-04,6.491040953188535972e-05,1.910281775783090330e-04,1.054184742834861008e-03,5.283864861620847508e-02,1.452567108170641288e-02,4.232426168319825682e-02,2.783955874615434180e-03
9.498445733118408537e-04,1.392010829719713717e-02,1.102708731260681986e-03,6.034469241733887587e-05,1.970729577531715976e-04,5.757336595185421398e-04,6.475760010617194473e-02,1.025020682408324911e-02,6.888029282299294124e-04,5.320079516603708723e-04
1.348823478255922357e-03,1.775226550805358849e-02,3.113040623158139751e-03,5.460272610332633997e-05,2.045043369971698537e-04,4.036906745124698749e-03,3.275125874658654790e-02,4.653435167101916542e-03,3.419203748248493546e-02,3.358941485574608136e-03
1.399151626946008734e-03,8.229684670395422466e-03,1.436429264246640762e-03,4.889760555551119452e-05,2.143427641920358118e-04,7.990843439882244423e-03,8.665952957101282980e-03,5.565508876734924937e-04,4.825796833284110715e-02,6.299620977376780770e-03
4.410960854140151413e-04,4.026881498028800008e-03,3.769250645651240836e-03,4.358972796349194859e-05,2.200530643009695260e-04,9.766191316154622035e-03,4.816144404408391477e-02,4.343463545380055017e-03,3.740916387021544359e-02,8.765395142838658046e-03
7.557705743384811889e-04,1.356162940207060637e-02,5.691474472142597774e-03,3.822024056649724771e-05,2.188064065958873490e-04,8.625059217533115677e-03,9.498937250764602491e-02,6.863783176801660155e-03,8.534705622527023056e-03,1.273867227327889033e-02
7.966815525709115917e-04,2.137494355070622756e-02,7.448083322579840534e-04,3.272199964246329614e-05,2.241634043202535894e-04,5.897720446241359361e-03,1.228984854348325190e-01,9.431349309097844871e-03,1.829863874765341736e-02,1.741851677983719329e-02
4.551570361571187820e-04,3.033542681198607774e-02,6.351887670419549374e-03,2.741634726089303478e-05,2.421531439002747499e-04,5.207454011664923617e-04,6.597370444476882700e-02,1.283718703029587856e-02,2.792938122627303121e-02,1.719118412964535866e-02
1.774867305242189882e-03,3.708481551871634085e-02,9.049448701147939922e-03,2.244365342381426470e-05,2.436137441693721206e-04,9.520362343512217898e-03,9.448213337714789217e-02,1.565923311018934880e-02,2.646303463686442564e-02,7.946690690752320971e-03
2.009091536498290413e-03,3.023913464772706380e-02,6.179351726852924664e-03,1.775550081364271501e-05,2.146639744287402534e-04,2.042251823864074667e-02,2.771618067767938620e-01,1.457474207019418370e-02,3.411589358926673393e-02,5.079856214094588193e-03
9.225717040874224393e-04,6.184694371125111674e-03,1.555160772826848399e-03,1.337895169138691060e-05,2.170838335355604201e-04,2.427229362587942155e-02,3.811351826874158633e-01,7.840826859709829760e-03,5.720350382562475883e-02,1.157063751023389500e-02
5.967284060749925706e-04,1.933355846009324197e-02,5.841939907210922907e-04,9.421291169959171167e-06,2.820569671868263808e-04,1.897103566873750008e-02,3.902540145837761765e-01,1.085619652149317745e-03,6.877133575254200382e-02,8.717998028810793401e-03
9.632853087658366058e-04,2.977692565945882358e-02,9.714112671978595822e-04,5.944391483825758781e-06,2.783164697196231926e-04,1.103543427427990976e-02,3.551302754011157470e-01,6.151396335746200754e-03,3.265903705613448088e-02,4.855162149127364643e-03
2.207339769221320323e-04,2.991058054407538802e-02,3.480645088456760239e-03,2.959247766197851043e-06,1.355090298520945848e-04,7.548455776345377663e-03,3.048798743166840075e-01,5.731082887209923774e-03,4.776797723658969541e-02,9.558913676380309879e-03
1.026655568134286160e-03,3.364546936093852636e-02,2.592776406377843464e-03,4.833194128512323254e-07,1.345073611821847378e-04,8.976826584940244061e-03,2.291285583649358137e-01,3.733164462929842650e-03,1.254369940670999328e-01,2.248315259984919046e-02
3.203640137574433836e-04,3.998386064210290858e-02,2.970453339910198148e-03,1.457305342873938640e-06,4.447532823271635352e-04,1.024559030959343482e-02,1.277137763451473840e-01,3.318361245229594150e-03,1.599048814568352628e-01,3.329075745584028634e-02
2.469464860353087158e-03,3.889990760197402364e-02,9.674823140257211157e-03,2.855470908673733338e-06,4.374972458182936337e-04,6.355036822684389033e-03,2.575374843544943337e-02,3.257838088184956613e-03,1.497963590566037395e-01,3.240038678549009288e-02
2.587879713877051183e-03,3.240764961003489431e-02,1.320170250432339126e-02,3.724664128117449159e-06,5.619450698552920162e-04,2.990971611573899416e-03,6.098950682383488808e-02,1.131362876058254058e-03,1.150341509735770956e-01,1.985987441628875652e-02
3.392191982490577740e-04,3.110628056742616859e-02,1.248120988371511676e-02,4.086098842518681018e-06,1.811724791645287751e-03,1.245306917481304489e-02,1.349621094579361857e-01,2.739390373047667811e-03,7.329623899234120887e-02,2.851025725921356533e-03
2.011669841394155087e-03,3.454197023633784336e-02,8.702686539606799623e-03,3.967333253946809549e-06,1.828160807816022956e-03,1.529104909428941235e-02,1.834222169334455976e-01,5.448875163362851617e-03,3.642974571670953843e-02,1.200719370542490706e-02
2.903475726882617878e-03,3.137911182161173124e-02,3.125853247529669122e-03,3.407487016982319676e-06,6.010262927380322215e-04,1.014835558541677882e-02,1.787090929639486292e-01,4.696982511442959751e-03,8.569804449148786182e-03,2.159711767032996763e-02
2.683959028996974177e-03,1.772867156481182718e-02,2.578184666894214622e-03,2.456765256671703154e-06,4.144745990317147107e-04,2.722368337576094866e-03,1.322125129803520538e-01,1.484558052750118698e-03,1.595872581304451365e-02,2.554774814413915060e-02
1.930661150498008769e-03,2.979268585858388472e-03,6.280203934336260965e-03,1.172479692024718773e-06,4.516780610950684111e-04,4.825724012601017654e-04,1.024838518709800389e-01,9.262048791985091597e-04,4.065128057091175334e-02,2.604220667858322610e-02
7.410603359618996673e-04,3.080995351061462020e-03,7.238316588947718566e-03,3.826154374868833647e-07,8.376836321231793036e-05,1.556267217427780491e-03,1.161717098343363619e-01,9.784049266517386243e-04,5.499988181326741221e-02,2.583163926231263341e-02
2.403423800877682224e-04,7.609698909986852174e-04,6.704138974967235529e-03,2.140595413500155671e-06,1.803577737024312052e-05,5.516306846462609541e-03,1.265036524619755631e-01,3.214536771767800101e-04,4.614195933143937223e-02,2.464882160364601296e-02
3.822191730746388703e-05,2.420464650437911640e-03,6.217023380584479203e-03,4.029932400415673748e-06,2.170561532337024230e-04,8.681204410229390045e-03,9.141100798416869344e-02,7.178977916080292367e-04,1.870814044602798348e-02,2.067638623300070699e-02
1.251418051425779235e-03,3.053013088768540082e-04,6.298440779828687504e-03,5.977880535732182254e-06,4.378440417251532307e-04,1.023922081989668206e-02,4.573702859195061254e-02,1.576596053225810682e-03,7.606994236473392686e-03,1.552139897390015892e-02
1.567428345613550633e-03,9.402468738767138373e-03,6.629949117426566299e-03,7.912350616655071828e-06,1.487790672790659783e-04,9.491849922537107589e-03,4.535269837698502338e-02,1.906201365853213339e-03,1.729756697748683486e-02,1.309880201681674385e-02
2.569491617202940802e-04,1.774004155573599695e-02,6.477125556973072941e-03,9.763467054745299966e-06,6.390478647645349460e-04,6.247306150405410562e-03,8.027564310265447589e-02,2.243555773251762041e-03,9.178837708260561765e-03,1.399365961681228558e-02
1.250422340206234009e-03,1.707131223128657144e-02,5.157097972543013380e-03,1.146537561292659856e-05,1.076680305200922042e-03,2.763737462134152178e-03,9.669381976787617961e-02,2.436467698418612760e-03,6.890975091150788011e-03,1.549723768729573126e-02
2.116611904195117230e-03,8.053089559605357967e-03,2.514674312533937695e-03,1.295804981500850107e-05,5.923493035139026398e-04,2.457945459100829410e-03,7.540877443754885612e-02,1.489078110740593307e-04,1.725561057482285707e-02,1.634876373002219427e-02
3.526291357162025623e-03,6.005161167270554792e-04,1.363192430049755188e-03,1.418874047056273634e-05,1.654097852942756127e-04,5.754413039971911087e-03,4.060124402159552559e-02,5.328770347217523864e-03,1.453901695896137394e-02,1.714821234480494797e-02
5.811893252839488329e-03,3.803310253506123496e-03,5.983057099751280111e-03,1.511334237718119780e-05,3.647949832694726154e-04,8.495658393657548949e-03,1.307908338578736389e-02,1.017852729290479388e-02,4.948510995754661600e-03,1.697425838203018428e-02
6.899890581929139094e-03,4.168781665530230628e-03,8.954117978838700351e-03,1.569784637609736343e-05,1.752088514003188110e-04,5.993076057095248627e-03,2.157962839760899088e-03,1.037943504397170758e-02,6.256074978255488799e-05,1.440139886475287449e-02
5.259712832845599498e-03,3.843645008117774382e-03,6.935220351883956622e-03,1.591923058041048948e-05,1.285653875954193286e-04,8.361288949762155347e-04,3.288058186690766098e-03,6.996804711504094922e-03,2.721548322634223006e-03,1.205949360684912056e-02
2.028484830168725099e-03,2.609110179505845506e-04,3.657057778486534584e-04,1.576553394772572055e-05,1.824599661900768073e-04,5.205668999793564011e-03,3.357916371630154800e-02,4.182010027786089296e-03,9.613278103196658958e-03,1.422776947457836220e-02
7.961329287315903986e-04,8.357619980253723838e-03,5.570079699945528103e-03,1.523637875331993603e-05,1.343004139664173095e-04,2.475092978936509029e-03,6.661193671558553187e-02,3.547641271557422631e-03,2.041425317514430557e-02,1.767179591507159891e-02
2.387953673342950358e-03,1.969700878234049990e-02,7.522140158472493017e-03,1.434435270146014354e-05,1.888187184460380882e-04,3.423556092871313412e-03,6.903344585679443979e-02,3.154969961012159697e-03,3.066809814619924149e-02,1.203497586032745668e-02
2.947985718605786610e-03,2.990841114921692287e-02,7.838874767477200731e-03,1.311451888569183467e-05,3.980052878045445687e-04,4.901493816491531326e-03,3.480262026181817764e-02,1.260002353215984540e-03,2.599303202880635585e-02,5.861951766037856205e-03
2.952839594302361301e-03,3.374344771139333593e-02,8.473703349745460855e-03,1.158112973686811924e-05,2.139487861362351754e-04,2.265671514260508444e-04,8.214790378082887506e-03,1.330596979935977061e-03,2.457155501166752233e-04,2.514883532274779510e-02
2.851476116319032889e-03,2.468598276608941280e-02,5.814323396496438694e-03,9.787350219238322496e-06,5.616429508265973619e-04,6.380340860468491568e-03,3.248073618454871275e-02,3.319413204842181636e-03,2.976352479666397391e-02,3.415097910762912581e-02
2.891042957537954226e-03,3.192534681235482865e-03,3.199445542269861806e-03,7.790113757586490691e-06,1.059377251967917469e-03,1.253855747184724929e-02,3.969851219883178961e-02,5.459079522502298734e-03,4.198257995109309915e-02,3.397491773216732708e-02
3.034346417092844903e-03,1.776279080780842137e-02,1.347887514445966425e-02,5.657814459953507000e-06,5.653320970088910333e-04,1.950044053738936300e-02,4.621062568066566789e-02,9.021505617532139115e-03,3.322078826672010543e-02,3.275632875836644031e-02
3.092199320090253251e-03,2.416955675552653199e-02,1.609382765974611690e-02,3.456057206529397096e-06,2.672527141453244688e-04,2.625833636751308958e-02,4.700854130260951474e-02,1.304191763989890653e-02,1.543982838425721899e-02,3.208275399654658688e-02
3.010340301903304244e-03,1.607930621972580507e-02,8.793144256347912649e-03,1.247688232062873366e-06,4.453879091439410620e-04,2.806831750884515239e-02,1.599386858168576689e-02,1.569818378070707635e-02,3.071153840348535627e-03,2.677201506687089741e-02
3.050239311329870900e-03,4.992505119008944572e-03,1.867101883831669661e-03,8.819038525618341740e-07,1.287415661422669434e-04,2.243160239200009745e-02,5.349739500847899148e-02,1.713063650039237107e-02,2.189435452729476470e-02,1.580106215715636891e-02
3.389744515263284821e-03,7.380586151352862279e-05,8.410365847970203979e-03,2.829809476497069490e-06,1.283468590245999549e-04,1.234306070712711846e-02,1.311841735338104553e-01,1.801635483157327730e-02,3.879674851427989540e-02,5.487980074533428849e-03
3.506620424780196917e-03,1.263177614153865877e-03,9.548641907138223986e-03,4.535725444298794275e-06,4.453135646104595924e-04,2.140488131595611430e-03,1.815192137731730104e-01,1.714039047822836850e-02,4.775647913065311084e-02,4.696284271327137846e-04
2.698379682074404651e-03,4.004768052464373687e-03,8.991234926123543164e-03,5.978964048048908402e-06,2.712274022801115900e-04,6.977859505248713845e-03,1.944587001502687540e-01,1.348136491143803010e-02,4.832757458231141945e-02,1.821880197569284397e-03
1.414114119218535821e-03,2.392000261430213444e-03,9.338202428461209528e-03,7.056180107098572860e-06,5.566768157150919164e-04,1.561414726841820616e-02,1.818775093316388758e-01,8.366205431500699577e-03,4.786581663042242807e-02,4.860338326959834712e-03
9.213730381216063111e-04,5.674458328082312465e-03,9.478705701476951642e-03,7.590678427625614940e-06,1.055488584060230777e-03,2.230630315223924506e-02,1.653816791423417254e-01,2.708110218406591108e-03,5.103262156276013040e-02,7.381212156333421745e-03
1.225635986299123629e-03,1.622574395064514674e-02,8.201089048521289365e-03,7.599638483646224297e-06,5.669885304248377736e-04,2.415981783577520955e-02,1.712237031746918492e-01,4.716031259538401924e-03,5.472294073901387557e-02,8.240135065364325925e-03
7.560099727153462906e-04,2.317929817778670645e-02,7.447351007465147048e-03,7.286655477956550290e-06,2.180632029724417266e-04,2.156330766230874288e-02,2.122551123105892168e-01,1.356022632192220925e-02,5.580763548766371623e-02,1.151083871065665051e-02
1.195299753728131052e-03,2.443093253843606205e-02,9.010407364021628604e-03,6.475752053754386532e-06,4.204228602055322330e-04,1.854290839279786052e-02,2.638041996650271059e-01,2.006588346845172149e-02,5.606616612488037055e-02,2.066223733613260782e-02
3.224785626069178249e-03,2.222469112671874789e-02,9.912586971295812149e-03,4.616762603804985777e-06,1.875399679060330135e-04,1.640122189021082574e-02,2.757366015464600140e-01,2.144794887759216007e-02,5.738615662734359441e-02,3.013294657780191121e-02
3.883472402371614118e-03,2.003759771726956046e-02,5.886658630253993434e-03,1.997649275493055617e-06,8.660697632071871917e-05,1.072777369303795462e-02,2.184779916876012362e-01,1.900381578926049406e-02,5.793658514965846495e-02,2.882045605070392147e-02
3.622193182307754077e-03,2.062081375949842768e-02,1.329328770017270712e-03,2.328091991495383044e-07,1.751285443562598917e-04,1.907457085281716574e-03,1.074186186600326609e-01,1.518269921001902389e-02,5.375559368131268417e-02,1.318261210338719097e-02
3.819409023137796538e-03,2.246440359634671244e-02,6.024613707109044772e-03,2.651881000358059542e-06,2.103942641904365412e-04,1.715913276065205925e-02,1.514460103474144642e-02,1.055881868515871382e-02,4.188287785546896541e-02,6.837988938294407154e-03
5.046513861293643911e-03,1.736277701061318332e-02,7.441445175150812781e-03,7.678243184051966716e-06,1.575139439823483654e-04,2.666484805556728829e-02,1.101955384113165876e-01,5.047769423104897166e-03,2.470469152930230422e-02,1.791800801173414753e-02
6.848813674850208304e-03,1.205587507944853431e-03,9.838413249663972501e-03,1.405085434798904152e-05,1.246962704259789597e-04,2.692745512684048548e-02,1.611517592480560257e-01,1.825770040586903789e-04,1.079212053607615622e-02,1.699917314754372660e-02
8.175441950839069244e-03,2.595097525552009926e-02,1.363650619843119992e-02,1.643998656469298318e-05,1.319474281363913998e-04,2.073889003795564845e-02,1.723827244394978142e-01,3.257990882786788219e-03,4.620497123895333548e-03,1.031962149699988847e-02
7.939916178794401147e-03,4.006152544032619278e-02,1.386301717827981977e-02,1.723061993488056987e-05,1.379950822343137826e-04,1.116979531565843661e-02,1.487085290958564954e-01,3.404138882517234767e-03,2.612282882230042985e-03,2.072571919249549359e-03
6.153003554437213793e-03,3.538503651856578225e-02,8.373155253914559698e-03,2.766404310996819609e-05,1.292821134326865699e-04,6.769773284887449331e-04,9.186483663794609011e-02,1.899713937266731597e-03,2.137011936095092879e-02,6.827133076938099975e-03
4.153668368576001434e-03,2.018263622126321641e-02,1.280270706693741305e-03,4.270697739520186979e-05,1.062548652540383834e-04,1.138474461932480024e-02,3.244106572127246346e-02,1.004453215920036394e-03,4.600991286113592649e-02,1.031866813291901046e-02
2.931715125941610108e-03,8.280363370299496581e-03,2.925128705180927470e-03,3.796265923671376827e-05,8.340679213409214656e-05,1.434908965089815719e-02,3.590492412620583523e-02,1.769729819889657302e-03,6.183986898496497686e-02,3.319608380897816693e-04
2.002230094916974262e-03,5.221913631919289367e-03,3.752456623880808060e-03,2.326683330205055563e-05,1.015918786216827305e-04,6.816414738811496163e-03,1.322221162096072766e-01,3.420707336478995102e-03,6.602379978091192647e-02,1.923955165871784126e-02
6.727695684945047628e-04,5.882108408925563157e-03,2.555120291065975276e-03,5.069503142705307990e-05,1.388466393414102495e-04,5.003524905789771826e-03,2.515833072445433638e-01,4.883881298084574892e-03,6.755923674135200230e-02,3.297502405660578118e-02
5.547380571065537933e-04,3.152429109725551123e-03,3.347173251243415124e-05,1.003098349003612668e-04,8.846866409013055029e-05,1.174915645357313063e-02,2.860063626495147338e-01,6.072769735204225187e-03,7.095212895612455772e-02,3.204071050986159047e-02
8.636137012624550604e-04,3.517840629776094064e-03,3.136886921942985684e-03,5.995219485065611574e-05,9.183700354120563348e-06,1.132460053896313518e-02,2.268004390119312541e-01,7.762461739880766910e-03,7.264988455278638402e-02,2.395328424705254339e-02
7.027579452428757596e-04,9.318175254346054356e-03,5.670788674175018286e-03,3.128748713077462898e-05,8.638254370891342319e-05,1.053000353552185388e-02,1.893641263676889841e-01,1.120539463848338295e-02,6.961412773924592623e-02,2.213611240715403564e-02
1.215231650569291140e-03,1.107354787017942113e-02,6.577415518531505578e-03,6.935704271303950606e-05,3.063643501853060419e-04,1.585329083566340558e-02,2.697460145033167001e-01,1.751653168304085489e-02,6.158212417894006613e-02,3.147632468753327334e-02
2.394754461870295722e-03,9.653357156674579123e-03,5.430179905131777077e-03,2.936355898992007657e-04,8.846134541436943529e-05,2.537982951317415553e-02,4.168073003289891054e-01,2.574711668860107591e-02,4.831807239048301061e-02,4.527313122389401562e-02
3.133383066153881853e-03,7.627473902677595063e-03,1.804017731980619120e-03,7.831320233481175433e-05,6.900554098071131227e-04,3.160100477115949935e-02,4.938056700522813758e-01,3.168989544579557671e-02,3.170536741429625521e-02,5.280874482753201982e-02
2.981605283426267718e-03,7.695410071153536806e-03,3.257891883626263477e-03,6.997359621324100330e-04,1.159487159950009678e-03,3.039623432385026372e-02,4.417124476974709779e-01,3.089484944710040384e-02,1.800403103443099298e-02,4.893976614553952748e-02
2.613044208136655611e-03,9.994927659666821840e-03,5.157352212202724606e-03,1.170749521888329436e-03,6.820830739403178390e-04,2.467400244673949306e-02,3.266468981750831335e-01,2.333544864195873786e-02,1.292381824107609843e-02,3.730721818193966088e-02
2.566587202196696834e-03,8.627086552263438929e-03,7.325048841362184803e-04,6.964568495345088489e-04,1.028530021244672952e-04,1.942141828711032095e-02,2.376291846101522554e-01,1.315066549179396728e-02,1.529240455947398006e-02,2.503733994242874142e-02
2.583686682387053516e-03,2.597612574323637704e-03,1.174252470489729749e-02,8.485706306621948729e-05,3.260479363967707148e-04,1.563248687030464879e-02,1.977799282209010967e-01,3.931202045870264145e-03,1.794161050208298996e-02,1.583179670244322726e-02
2.356023996024806094e-03,1.831559465008165966e-02,1.865169273858784810e-02,3.034152327997289515e-04,1.127630857935547871e-04,1.096361034297197584e-02,1.830459943366532227e-01,3.413125744930961894e-03,1.395462760391686687e-02,8.841883063500931977e-03
2.181444470936296735e-03,2.481640058181604561e-02,1.655465602355547794e-02,8.232952139328701549e-05,2.476514667543756735e-05,5.058393846708105109e-03,1.717028686054290487e-01,8.718057856080143816e-03,1.683740280372071456e-03,2.177105342855134400e-03
2.382237129188808245e-03,1.839666130553821097e-02,1.052870463713404502e-02,1.517674885013192693e-05,1.248492513166187846e-04,3.962091035545226101e-04,1.470687692711290795e-01,1.166088131617497997e-02,1.376233693192125372e-02,4.748042775266939249e-03
2.377112473829643725e-03,9.909861961460096277e-03,7.219416283531445919e-03,7.913727074451274476e-05,1.724707154340169137e-04,2.576749577238275982e-03,9.076106641674425157e-02,1.299885883524630470e-02,2.374138315495188251e-02,1.175862222729334543e-02
1.086267043195996394e-03,7.660325974130784664e-03,5.780549246495188254e-03,1.224957585293860024e-04,1.395818407505665284e-04,6.576432002419974922e-03,9.970659220102297271e-03,1.435666097114027956e-02,2.445948218920980868e-02,1.873596227420861599e-02
1.571935375618325071e-03,7.162578522408871544e-03,1.859571415749901053e-03,7.579933061852323789e-05,1.331375766666283720e-04,1.224819364315934446e-02,5.314387999129487755e-02,1.658363613384664786e-02,2.214312154370098526e-02,2.520570596703113411e-02
4.155224994979609884e-03,2.227291652568632110e-03,3.787220028775557454e-03,5.120471889979509415e-05,1.485409017807662281e-04,1.626073482302728412e-02,7.203797609946982483e-02,1.935392048809605331e-02,2.530644921043610079e-02,2.973113793265597798e-02
4.899219236028275713e-03,4.350304574021322812e-03,6.463486442833774048e-03,6.865272819807745949e-05,1.434241157439583234e-04,1.651021116211116510e-02,7.377559363255108138e-02,2.151864488969816927e-02,3.247850155904265235e-02,3.024662592881981887e-02
3.299856070921395376e-03,6.829677439535325814e-03,4.970177478959535329e-03,7.606416477769505123e-05,1.599123831881633115e-04,1.549708005275753954e-02,9.735099158210801240e-02,2.145186809867428296e-02,3.404219816656874759e-02,2.580339289882677134e-02
5.872559063149073062e-04,5.571597139462694179e-03,2.860749134143259105e-03,6.359421496467992832e-05,2.023791113815295232e-04,1.675863187172450114e-02,1.382252195883096890e-01,1.876089631771981833e-02,2.710687238854338904e-02,1.877365386742015432e-02
1.400679893542121530e-03,4.633206624510017441e-03,3.014695681561090079e-03,5.565212010830262540e-05,1.636412506651338734e-04,2.068861442173828766e-02,1.651372340060910660e-01,1.581825426789023117e-02,2.119151362347545392e-02,1.396907526847924325e-02
1.920757730167048719e-03,5.077045036572563202e-03,4.554638512435874725e-03,5.730182038321502091e-05,7.151492251054540454e-05,2.482945278220251989e-02,1.699015094566662665e-01,1.558065515271409886e-02,2.478014672169864818e-02,1.358798291240339955e-02
1.665847331381571520e-03,5.003337940429288325e-03,5.350782223757899470e-03,5.729238389339300595e-05,1.663789177630784638e-04,2.593653146100720688e-02,1.672803574458488762e-01,1.773605286216213203e-02,3.195869198371735498e-02,1.461217110776140415e-02
1.511477911885406164e-03,3.768683074257646141e-03,5.040349172973459732e-03,5.319345403900899009e-05,3.853430945492625844e-04,2.199978601510410928e-02,1.617891509031615938e-01,1.900347259111401579e-02,3.029851291337812974e-02,1.387179390361260346e-02
1.578607239690669973e-03,2.841976537509492608e-03,4.601929061744230651e-03,5.037740109425605699e-05,1.664831702820623882e-04,1.508673022151581049e-02,1.466468373960312099e-01,1.742081515655527491e-02,1.955219093780031364e-02,1.328290606082202334e-02
1.600778379459663310e-03,3.109352345174435598e-03,4.491393538844007383e-03,5.022796446178869078e-05,6.156789765283302409e-04,1.086714193167564839e-02,1.243535852479301790e-01,1.408526882820024945e-02,1.210502367419332911e-02,1.594711919081279183e-02
1.525330353618221165e-03,3.656192150688687605e-03,4.396254644029290448e-03,5.026317836262771008e-05,1.091850122434923423e-03,1.161088776996918592e-02,1.012108842426492489e-01,1.020051049987608094e-02,1.359215524327452886e-02,1.957821404798654533e-02
1.469047008052453687e-03,3.495051010288754978e-03,4.116962268161277090e-03,4.966495227480765098e-05,6.224635348943598906e-04,1.202666996157327438e-02,7.185704253215681458e-02,5.247032355382567556e-03,1.419485785231277240e-02,1.924197326274746517e-02
1.455837546538496074e-03,2.879687982589532007e-03,3.794857991468069975e-03,4.973048032295413997e-05,1.546083845733428781e-04,6.927835327429000822e-03,3.342319552222960261e-02,7.650879439491786033e-04,3.984266263022479861e-03,1.456664732929051007e-02
1.430219904497608907e-03,2.433747068347513406e-03,3.527829692144886231e-03,5.128054895381874601e-05,3.691350086315143219e-04,6.898668955868558945e-05,5.130200333729115214e-03,6.225308970006468955e-03,1.212171959748077101e-02,8.756556152609871330e-03
1.379738167267337712e-03,2.169684423066886927e-03,3.255593242476547289e-03,5.347022745075822784e-05,1.442412001779499304e-04,8.839615563732841977e-04,1.021836372488965639e-02,1.022357423020804970e-02,2.157131340845768949e-02,3.412143217079159629e-03
1.329817627173484219e-03,1.821197147767538967e-03,2.936795189380231839e-03,5.497857007207616837e-05,4.363672481545155502e-05,4.198534617213908748e-03,4.551192027554758213e-02,1.257533899427924588e-02,2.105544536018777793e-02,2.505983064705055371e-04
1.285266760218343757e-03,1.381115748707808458e-03,2.604838852259235352e-03,5.660069623305274413e-05,1.356851814674667309e-04,8.263457055277739077e-03,8.879365470303843266e-02,1.125881702277153375e-02,1.874065517944108542e-02,3.751475888186972529e-03
1.232997434281363257e-03,9.795870100267551131e-04,2.285570661673741628e-03,6.079675937888962960e-05,1.773383549282245080e-04,7.494235628959644915e-03,1.271777562066649658e-01,4.660101405505482318e-03,2.103644305831607955e-02,1.465893916404558371e-02
1.172044733443994464e-03,6.287217779956337906e-04,1.969991710283932728e-03,6.616273040784638243e-05,1.296607992459631155e-04,4.912797880529645722e-03,1.586471926054204840e-01,2.920715443421190334e-03,2.384458916107502074e-02,2.430968394449648309e-02
1.110575980140204606e-03,2.749732666527465123e-04,1.652315984335146499e-03,6.730781663553253710e-05,1.054707365499780639e-04,4.024371375615337990e-03,1.766249443075574854e-01,3.639136772707799936e-03,1.904425705115534925e-02,2.315584103080874437e-02
1.046219985228447145e-03,8.083385251293936891e-05,1.343062689534325373e-03,6.664614019266769461e-05,1.245287534596856182e-04,4.554712849251086812e-03,1.747450698692407378e-01,3.988206958302522621e-03,6.258100304310470867e-03,1.284135439183445131e-02
9.715376868562758134e-04,4.066818887496433154e-04,1.051247329944961055e-03,7.541487834017560944e-05,1.335758613687960407e-04,5.132582084325510233e-03,1.598005147578697716e-01,1.228955942516773633e-02,5.146649646869232327e-03,3.242149417588849510e-03
8.953096463946184436e-04,6.960187201743359272e-04,7.778907171618731214e-04,8.853907455327104145e-05,1.232320185467822217e-04,5.936894571746350636e-03,1.426905363141687533e-01,1.382454074087985374e-02,6.955366600998335452e-03,1.525439116577978569e-04
8.313087079769227502e-04,9.577647924592873731e-04,5.241447054094947478e-04,8.160142986979232991e-05,1.204096183164426212e-04,7.264130078308957995e-03,1.221962607075537943e-01,9.345420058994186388e-03,2.168928295984280576e-03,5.567680199059445341e-04
7.622611931594120479e-04,1.189812133350737298e-03,2.943092508335443417e-04,6.444183717639736728e-05,1.291729623130918588e-04,8.026794762668761768e-03,9.165731350069374062e-02,4.094791156558701302e-03,1.141518896017267547e-03,2.578957957290966326e-03
6.629805333193546871e-04,1.383512733044648356e-03,9.195754745694375166e-05,8.913783787691284099e-05,1.327889619914613469e-04,6.938933832497787280e-03,5.750976033565957657e-02,5.268484040034703345e-04,3.155588147481883012e-03,5.266798754179549159e-03
5.733103101837999215e-04,1.536254402132397612e-03,8.161382302889462221e-05,1.357503247094557139e-04,1.306278465928172202e-04,3.768690526080370126e-03,3.660876151548248664e-02,1.933288289875413840e-03,9.877802268314471099e-03,6.874880630198176509e-03
5.504288676559897491e-04,1.649601135398904433e-03,2.256590524913236950e-04,9.212764122552477954e-05,1.395455324471676342e-04,7.013729734743985502e-04,3.516586049023059934e-02,2.955129487461848146e-03,1.972253116096828879e-02,5.211396455119816050e-03
5.137491439061792672e-04,1.723444471834341537e-03,3.392838936800537442e-04,2.622403542191032625e-06,1.570554825356674762e-04,4.460174846956287131e-03,4.386513879862091736e-02,9.172905030528353577e-04,2.428162945404666734e-02,2.211080481273156127e-03
3.424605020026359097e-04,1.756838411444746695e-03,4.222718762640118679e-04,9.428770058479964632e-05,1.556810641697381156e-04,5.007642312865743378e-03,5.355062483420361397e-02,4.088265096807025718e-03,2.051695008325575900e-02,2.470168510939193748e-03
2.108508293903933349e-04,1.750756041625081867e-03,4.754276991577747525e-04,3.146319111677975747e-04,1.418031169423484617e-04,2.355947226934179510e-03,6.116769406176753715e-02,9.330067355118081690e-03,1.135107521040909680e-02,6.594857482512051991e-03
3.979144451949695655e-04,1.707712266661207991e-03,5.001752271076170559e-04,9.520462452623745222e-05,1.698408911541853710e-04,1.532710845535570441e-04,6.148914682753488237e-02,1.251281384058659969e-02,1.456930807675118136e-03,1.077221752172139065e-02
5.211153635351011655e-04,1.630421229611686172e-03,4.983462478550381314e-04,6.870856542906631382e-04,2.261592226564157124e-04,1.737402342525491347e-05,5.031427397321187184e-02,1.435545680868642246e-02,1.392911434823373117e-02,1.255810539113100428e-02
3.379829787678580123e-04,1.521883494478353579e-03,4.723051522137232459e-04,1.162439248549988671e-03,1.954743797595767912e-04,1.350038877706159074e-03,3.764452171984979112e-02,1.641741705344465854e-02,1.622770243598566087e-02,1.194705185788325248e-02
2.272569142063396528e-03,1.385918745090300094e-03,4.249782752070429279e-04,6.925465213135035885e-04,1.035937493176855052e-04,1.585033951809515333e-03,4.032955648470659682e-02,1.790350013455210137e-02,5.152837313108346931e-03,8.219877970155215277e-03
4.176191418390524587e-03,1.227012986880148763e-03,3.596962800323265440e-04,8.434807131864208575e-05,1.984358502728523501e-04,1.235968988648943143e-03,5.682289385062615217e-02,1.702816709682091270e-02,6.714904857668521979e-03,1.965321689155022020e-03
5.143954193451523958e-03,1.049930291848457211e-03,2.800445275803301352e-04,2.985093756373335462e-04,4.396795933739876976e-04,2.502975190768817575e-03,6.434871896110799794e-02,1.402163468178717690e-02,7.077899097458363771e-03,1.883452429911269214e-03
5.142215873859766993e-03,8.596276078915319942e-04,1.898130729262355733e-04,7.309101100257535161e-05,2.538605357844866137e-04,5.749156881764974462e-03,4.565076114292927062e-02,1.050784036345098899e-02,1.331438780904407003e-03,4.130673446605786494e-04
4.171282656969866644e-03,6.612722777589758339e-04,9.297827065961980118e-05,2.864428109495282794e-05,5.424626813096773605e-04,9.363719008938854380e-03,7.278930557989034614e-03,7.221335071595838366e-03,9.842758233993397637e-04,2.753775265380191753e-05
2.267921983261619260e-03,4.601116871177547566e-04,6.416885091373931743e-06,6.158093747883820095e-05,1.060131424415873503e-03,1.210399784037540123e-02,2.970040414280832736e-02,3.885665750809064612e-03,3.354275802871604147e-03,9.289958060435813542e-03
3.361037998425753953e-04,2.612899258950305116e-04,1.044931029201621157e-04,1.010265420854142542e-04,5.296803083790482466e-04,1.378440220701371462e-02,4.993218153859467490e-02,4.963447060145791730e-04,1.906842366709745424e-03,2.569990050306195442e-02
5.294906774312594993e-04,6.973416892979244336e-05,1.976139953045377554e-04,5.062657689657617719e-05,3.811475713542875326e-04,1.411474692793839025e-02,5.496374317920335595e-02,2.327827849961060930e-03,1.190057145889698506e-02,3.723345842760238805e-02
4.210639249133501768e-04,1.099278923657404441e-04,2.822060831939760830e-04,2.256229579819604510e-05,4.809599115134313989e-04,1.215175365346348423e-02,5.387008662819184335e-02,4.358876665755315703e-03,1.208719179512555281e-02,3.676041172854149774e-02
2.299856251119433161e-04,2.734734631947843830e-04,3.548543033610288846e-04,3.679054770480583728e-05,2.978857629682768937e-04,7.302723628850429742e-03,4.326363857910159316e-02,6.124222400482286569e-03,2.217145140579616751e-03,2.808622320747294898e-02
3.402901110990945877e-04,4.171918983475778292e-04,4.129453103170552123e-04,4.125195753032157502e-05,1.083165354777195985e-03,1.182098417547566317e-03,1.118891524003205046e-02,7.453474166941995681e-03,1.866986568323675960e-02,1.737895606851101726e-02
5.321392868338763616e-04,5.379649387641813416e-04,4.547246741542149205e-04,2.612321269340818795e-05,1.292749677493488332e-03,2.087480658277281707e-03,3.224829553663938198e-02,7.553212222113684336e-03,2.321166657782487361e-02,6.284604783637176909e-03
6.298212631078469511e-04,6.333259943203420035e-04,4.781352366184233433e-04,1.580939203748225102e-05,9.432924805290933846e-04,4.573664315093179267e-04,5.093533084980924469e-02,7.678903854296155462e-03,1.372333037423870833e-02,3.737027846928701186e-03
6.269822850139255416e-04,7.015094355779342983e-04,4.808332959580685542e-04,1.534765067630490713e-05,3.029459669672188008e-04,6.375698868873245009e-03,2.619735999309079702e-02,1.022755305018245402e-02,1.718212985561299883e-03,7.813915444404960151e-03
6.056112298577562411e-04,7.414861516384889514e-04,4.627999752504457880e-04,1.349589551254831201e-05,2.366573588420424869e-04,9.733648767073600078e-03,1.503179966560139712e-02,1.383536226602598979e-02,1.354295385433861715e-02,3.651037974999983733e-03
7.934367004835615744e-04,7.529791294305411293e-04,4.264651973590804709e-04,7.863507983658646068e-06,3.838215528490256296e-04,7.657911130279968989e-03,3.172909955890065165e-02,1.429151227371317813e-02,1.777405840226077213e-02,3.903263594677594192e-03
1.136996451768211959e-03,7.364580631419602496e-04,3.711793676521426351e-04,3.769686456560877355e-06,2.532050507575421029e-04,2.555272433644143523e-03,1.322623111682691421e-02,1.143088096921258089e-02,1.768497901825776333e-02,8.545504866372559405e-03
7.464167399093804729e-04,6.931151457737182988e-04,2.928030334409529234e-04,2.460096085837504725e-06,1.654260997679299317e-04,2.118751913462433179e-03,1.870631759734173519e-02,9.253682849022249260e-03,1.733898888960756085e-02,9.093834501861623731e-03
1.289641323504818211e-03,6.248271940066939560e-04,1.954565600289675836e-04,1.495986188756933239e-06,2.266552287341366974e-04,5.232751193603558428e-03,3.846789458626331121e-02,8.611772385444350225e-03,1.506981973537996691e-02,8.184976769467356209e-03
4.175071764797274806e-03,5.341058514463420306e-04,9.261417247132620661e-05,2.755729720756000791e-07,2.910962868761759917e-04,6.537162838543552311e-03,3.760523427997489176e-02,6.179666342139549656e-03,7.972407815200222361e-03,7.910722794727795965e-03
5.537156859582929684e-03,4.240264668172364867e-04,1.809046018970644174e-05,8.096212946625727842e-08,2.150657666488023996e-04,5.043926912372550565e-03,2.572175317392485713e-02,1.172354934702639307e-03,8.075408155921099448e-04,8.117718846082149983e-03
4.025221024116305141e-03,2.981335012533834860e-04,1.580261578359824510e-04,6.821256245478737106e-07,9.596348556150982568e-05,9.907873027731094531e-04,1.991834016554595507e-02,2.817243506156300991e-03,5.768816115689051616e-03,7.008748430049883266e-03
9.845209539745846707e-04,1.603482159384417597e-04,3.140411431384769665e-04,1.979389839903097783e-06,1.944531406510921490e-04,2.506572029247716542e-03,3.156435388743025761e-02,3.214466645572751531e-03,5.907321990885007826e-03,2.867088099347969363e-03
1.208476733408170127e-03,1.489108722318876506e-05,4.305368101387529838e-04,3.597152310850472386e-06,4.146654202053769926e-04,2.414513356078099374e-03,5.828377988962166190e-02,1.127427745937388537e-03,2.498611957915050641e-03,4.807807170441148054e-03
1.742475659783599556e-03,1.338289923150922723e-04,5.238245382216730585e-04,5.699606279281331025e-06,1.808848716717002586e-04,6.074486989446727710e-04,8.962796300482675504e-02,1.797996103543920022e-03,4.693320454668415721e-03,1.555485366951302184e-02
1.527980089462780463e-03,2.813794159106024575e-04,7.024378263963236427e-04,8.263609521431847130e-06,6.149719581197047409e-04,3.706341531274665903e-03,1.169966846255466597e-01,5.464499475390873634e-03,1.463787135750133431e-02,2.636428181285645558e-02
1.484196775988715685e-03,4.234124083323414817e-04,9.237247329562137425e-04,1.107205403306291238e-05,1.088018694370734363e-03,5.184505771631061841e-03,1.262932843802575256e-01,8.955074630414089354e-03,2.354718665105573136e-02,2.961541658199631777e-02
1.666674568149082835e-03,5.556617591000548870e-04,9.414875089083316745e-04,1.398194974992484125e-05,6.105523271328380623e-04,4.087354555148396511e-03,9.063430034529537660e-02,8.963115362775397194e-03,2.885590956467161058e-02,1.886510412539759221e-02
1.782474393249251342e-03,6.740529564701629086e-04,8.208215278493068059e-04,1.693460316835091229e-05,1.531616656258493261e-04,5.603385690690079139e-04,7.223552789938532392e-04,3.506820999232236353e-03,2.987630626864760941e-02,1.103041630299274930e-03
1.739961474147908157e-03,7.750432831406967602e-04,1.122215352174022558e-03,1.983420822477009520e-05,3.460065733127188530e-04,7.088751245437042124e-03,1.034882459900830498e-01,4.125667515343894691e-03,2.363993062865383382e-02,1.674536846807763921e-02
1.682720913175965363e-03,8.557059806300424537e-04,1.966397960344353022e-03,2.254569204921117912e-05,1.441428829564406178e-04,1.082438750221435819e-02,1.694508538549570897e-01,8.396548114441747951e-03,6.533960772509543428e-03,2.026724631204991633e-02
1.810327138637533341e-03,9.132894152781369278e-04,2.481503306217696953e-03,2.495563205678120219e-05,8.968193033315362468e-05,9.121327146083954215e-03,1.937419769031717698e-01,7.896765484683087102e-03,1.789486154250780059e-02,1.516729451208126585e-02
2.044863204184779824e-03,9.452752255605757293e-04,2.027771599709290301e-03,2.697800060778219095e-05,1.383080320109966819e-04,4.035292152021042675e-03,2.084515324024991123e-01,5.843332598492298816e-03,3.863913126740808196e-02,7.857808132150638503e-03
1.920491078670654274e-03,9.505309948719713664e-04,1.242904542982270011e-03,2.852950127438320230e-05,8.689062311501825908e-05,1.385398037650062896e-03,2.217494279977086091e-01,4.871439861522914617e-03,4.738873300630491031e-02,2.093253903611563826e-03
1.240633833082843262e-03,9.293813254911335690e-04,9.964477408574046353e-04,2.953007211803479384e-05,1.392361909996399252e-04,6.289598325575992792e-03,2.166558147581293392e-01,4.209315978369580595e-03,4.513701905815824256e-02,8.072493052000441743e-04
6.642428084348537837e-04,8.812649523847643522e-04,1.164856851757547227e-03,2.991755182755670428e-05,3.388740197856296996e-04,1.051512116370872246e-02,1.912129431595885332e-01,2.012509318075274452e-03,3.755282791986451485e-02,4.775638562375821711e-03
1.033351822039906259e-03,8.045880118541867557e-04,1.185484563866647054e-03,2.965027285477682376e-05,1.422591543313350866e-04,1.308300911169242749e-02,1.568760100210367658e-01,1.812462713979909844e-03,2.772075763157746606e-02,9.374747325720458532e-03
2.193473618493146926e-03,7.017379318725012766e-04,9.928845897347528694e-04,2.870234629256820604e-05,6.258674772187120330e-04,1.359818230088868582e-02,1.162990438619306566e-01,5.785157553802658219e-03,1.531181597960029096e-02,8.908879256037373351e-03
2.782824009593894837e-03,5.794898244105034946e-04,8.322484750084751040e-04,2.706392697576814654e-05,1.105741220247737511e-03,1.293036120646634535e-02,7.582011189353518588e-02,8.562902694001343212e-03,4.719829728326079498e-04,3.702014814948703138e-03
1.286739894609357365e-03,4.382207687932276625e-04,7.419729157749412616e-04,2.474433744184259806e-05,6.349845819930404617e-04,1.111780671225918136e-02,5.339383827719569597e-02,9.674895631118582071e-03,1.377318265170258613e-02,9.024963070711640965e-04
2.218700516005714819e-03,2.706237226124921964e-04,6.114286228910669743e-04,2.177224557877400224e-05,1.528784009059975905e-04,6.267334732655381949e-03,5.119471463321714072e-02,8.968988962348337091e-03,2.263492665607215459e-02,6.252364748693406155e-04
5.298843333949291093e-03,8.452696429991960164e-05,4.302594767144361028e-04,1.819380904159841126e-05,3.765968402141753996e-04,2.576592344637989099e-03,5.295770574489133686e-02,6.105803569403002971e-03,2.252247856574120591e-02,5.268727401802103701e-03
5.170984316149614297e-03,9.398479823984070918e-05,2.567210480455685111e-04,1.407152272338814208e-05,1.566460110454262152e-04,1.242001514800880439e-02,5.865936052633649589e-02,1.216659930048989572e-03,1.428345165819966053e-02,1.438569253026462588e-02
1.891953853810631825e-03,2.694788365491885065e-04,9.046038063226778149e-05,9.483398123217655053e-06,6.130566180333017886e-05,1.847515298592304622e-02,8.406992961935944031e-02,3.966411578348896100e-03,4.225288400222182439e-03,2.176530276288010657e-02
1.565236964988257935e-03,4.854049700785423868e-04,9.559938480168148978e-05,4.521227378302216285e-06,1.598198257983032291e-04,1.901167828286697004e-02,1.238072612215900120e-01,6.535872870798970120e-03,1.167322313930258676e-04,2.280296417748101795e-02
2.897262345491404857e-03,7.201567661802697360e-04,2.736043598759270098e-04,7.118562009458726423e-07,2.067650531801616936e-04,1.594590815666319106e-02,1.485716609804766108e-01,4.913172696501421147e-03,3.639967606469853532e-03,1.708909088270292934e-02
2.755968504247892272e-03,8.669652681111912661e-04,4.143872525009128669e-04,6.103867778132279358e-06,1.622560387933510181e-04,1.134582028289821826e-02,1.382410009288783104e-01,1.002481012625858203e-03,1.205140198071737688e-02,8.368758461194850118e-03
2.706447277716411779e-03,9.556615048622607318e-04,5.741150721969725092e-04,1.153652349792287331e-05,1.394066123565402984e-04,6.083410633825237120e-03,1.009879155803012907e-01,9.669342387283411545e-04,2.114941270434998744e-02,1.459971575649823394e-03
2.716833646685434464e-03,1.204630848082187747e-03,7.871060220997958250e-04,1.688807335968190701e-05,1.582826735812192440e-04,1.328488951913864855e-03,6.622517814639124201e-02,1.613096978579389240e-03,2.950246342476403605e-02,8.935977177372048368e-04
2.166019349239984518e-03,1.552772976977172129e-03,9.200149918772486607e-04,2.203631468006521236e-05,1.661399263349383785e-04,1.835443563462016816e-03,5.936408238933305048e-02,7.176041513312012878e-03,3.563166802216163886e-02,4.334224374304884633e-04
1.694524003366258214e-03,1.478044918119705451e-03,8.952837402453648697e-04,2.686158118583598792e-05,1.528897804187165680e-04,4.099371743549995971e-03,7.290332073920539890e-02,1.145004149882479678e-02,3.561048846178461319e-02,2.028195132815355066e-03
2.192928071994345619e-03,8.332500923227195710e-04,9.918358888469989802e-04,3.124964726726173935e-05,1.430957458237888072e-04,6.153752022610905516e-03,7.175748153359014225e-02,1.108223435237095517e-02,2.648568622344172827e-02,7.229210337431471456e-03
3.123795008136481897e-03,3.910941968072074461e-04,1.383279773350863879e-03,3.509453728711500617e-05,1.418114358779375725e-04,5.891668820076224888e-03,3.747696161228810524e-02,6.190885711750583088e-03,1.222956595862486999e-02,1.075689124050057885e-02
3.424968269880765762e-03,8.318855167174170990e-04,1.438363619594266746e-03,3.830116448642029804e-05,1.376684557047987633e-04,1.118859148265915864e-03,9.750225480567796879e-03,1.320574509428766672e-05,2.688314036479800325e-03,7.033764214900859769e-03
3.182016316428757079e-03,1.720671022610915316e-03,4.710282723229049662e-04,4.078770479519295888e-05,1.282774039025837609e-04,5.625601857731643562e-03,4.388837137084813239e-02,4.039749209777372153e-03,3.625983980833637991e-03,1.638304054346261147e-03
3.218161305261425277e-03,2.099915772865179782e-03,7.741017225735602513e-04,4.248764938333179773e-05,1.190793318718055523e-04,9.148243115899828276e-03,6.491514762829454777e-02,5.026305387370540168e-03,1.015971510728325491e-02,7.972783421345950097e-03
3.578779165535167419e-03,1.654186190826741325e-03,7.910355217571968462e-04,4.335149777189415039e-05,1.114260320513381055e-04,8.253979374853922038e-03,8.084004971157070230e-02,4.382821328058805234e-03,1.377107531481687810e-02,9.018813317162506851e-03
3.231511361499478634e-03,1.124565387626387265e-03,4.253029260671587907e-04,4.334804480970477384e-05,1.029907064797463013e-04,6.363001778028470716e-03,8.032924438624625130e-02,4.133422469258960993e-03,1.327430139605402168e-02,7.799177329266167302e-03
1.281507815020174702e-03,1.541537675250512348e-03,1.374358738574932553e-03,4.246522147233985797e-05,9.336810328881735017e-05,5.730115995856043497e-03,4.982347446087072307e-02,5.074571437625010825e-03,1.262523966376970230e-02,7.234888757662132769e-03
1.682330820378952164e-03,2.310093240025789217e-03,1.302947164101578509e-03,4.071047294673167216e-05,8.389723512423064565e-05,5.344032871089286936e-03,6.756784945747587937e-03,5.390184714419775196e-03,9.267379418473029734e-03,6.904431190381835233e-03
3.716925447272566903e-03,9.294932310968165821e-04,8.863688230446322390e-04,3.811066651796854280e-05,7.498992737686082039e-05,4.737210680051706299e-03,1.202536836735240700e-02,1.605603269850830201e-03,5.461334296682922133e-03,5.167237059333695814e-03
3.440828127490974317e-03,3.201465266613297105e-03,7.762039928963526420e-04,3.471151727996526110e-05,6.627613101097995128e-05,5.187719262202452816e-03,4.046884422616006151e-03,7.101120478455369769e-03,3.107353162634989702e-02,1.588617448189835139e-03
1.762132166679703914e-03,6.252708529965417088e-03,8.296508831879733032e-04,3.057654045298326974e-05,5.794045715134328763e-05,6.202089576158096099e-03,2.783442546247226826e-02,1.615111274639436170e-02,5.271431938476070500e-02,2.967776127842697894e-03
1.172137567755120874e-03,4.703956715539392083e-03,7.310992152534587490e-04,2.578558012625094302e-05,5.045011102643146331e-05,5.049855750687838075e-03,3.668036680806720934e-02,1.929191352643960800e-02,5.742470799404419957e-02,7.788235719506835311e-03
3.249774509347863344e-03,6.819373467829471661e-04,4.937599222840569329e-04,2.043295438247785594e-05,4.372090362444323088e-05,9.208057739005982454e-04,4.366596391916988118e-02,1.473333369136720084e-02,4.799087838372361609e-02,1.312759561088761365e-02
7.119342798018456729e-03,1.304218777821990628e-03,3.292871363389766144e-04,1.462520555628953577e-05,3.768000486848222300e-05,3.747576539169179214e-03,6.727889184339000406e-02,6.279050900242345509e-03,3.482864999161928293e-02,1.883697971195819748e-02
