1.624894229418598259e-03,2.252065486544925152e-03,3.999235427470360072e-04,1.285477509898389501e-03,9.313803210053329278e-05,7.626154190083780319e-04,2.161354347277356924e-03,2.463512639030387974e-02,2.876197589027340920e-02,5.575388321532833910e-03
3.625994073833658377e-03,1.453608293678471629e-03,1.144998409022423072e-03,1.357548793243435001e-03,1.769701640864857265e-04,8.177405621794531232e-04,2.755348842483648988e-02,3.034702867301091594e-02,1.630496529644294423e-02,1.323662463050180203e-03
2.879932342183829427e-03,1.194887842425219589e-03,1.381898484198176673e-03,1.428538341893417904e-03,1.323770248621134089e-04,8.592081774776678471e-04,5.420870691141993492e-02,2.571154288616766398e-02,9.383898751351312656e-03,8.180092499869152933e-03
6.707942908328946071e-04,1.355890639928074943e-03,1.716598081619591896e-03,1.499472731834946551e-03,8.818224763619466212e-04,8.870740740439376050e-04,7.117487746300428519e-02,1.057119073439751616e-02,5.922409326514921357e-02,3.300851152379684871e-03
1.056825601920169475e-03,1.377002184860144120e-03,3.388862468187274837e-03,1.571404628967964503e-03,2.143830531100582130e-03,9.017425557611005249e-04,8.179637000270713332e-02,8.120135258397363082e-03,1.251149740702147128e-01,1.780110903709866688e-02
3.124851081151556499e-03,1.194004989898115546e-03,5.454072966976419856e-03,1.645316261048766120e-03,2.160511251694939572e-03,9.039531014950669997e-04,7.985960507792043417e-02,2.825529765410224325e-02,1.783290514144236782e-01,4.373256558531770505e-02
6.979075773421371601e-03,1.054005296718778673e-03,5.449706856031726748e-03,1.722078591015329492e-03,9.190817193018422423e-04,8.947554596351870154e-04,5.289329072161697010e-02,5.121577878066344708e-02,1.975038930508168367e-01,5.723459334200831777e-02
1.013880803180727125e-02,1.000618563130021774e-03,3.431637504354779263e-03,1.802442329518793782e-03,7.778940792353868094e-05,8.754791276853610615e-04,1.195714273947339097e-02,6.969398314260531746e-02,1.869023527473722968e-01,5.270757690901377995e-02
8.623800945335616253e-03,9.262635079453996950e-04,2.149512009565776680e-03,1.887006012829280056e-03,7.244346986331262953e-05,8.477018750677644187e-04,1.048657206850799918e-02,7.364290795041196491e-02,1.628132812754234104e-01,4.136632212697127081e-02
4.683053554505755937e-03,8.155168981800444078e-04,2.664069639052251033e-03,1.976172947148809467e-03,2.505906709313242492e-04,8.132066362246053544e-04,3.578325699190333491e-03,6.988456626204861410e-02,1.351444252795089007e-01,3.790670665541736456e-02
5.995206656177618637e-03,7.247995974531601165e-04,3.100734465340584597e-03,2.070124137019536351e-03,2.471175743895209580e-04,7.739190960789207267e-04,5.139382714389161173e-03,7.659792129252020187e-02,1.068552898348175406e-01,4.290420434354634549e-02
1.453952489821548968e-02,6.679829681160219350e-04,2.182124276918411508e-03,2.168803134603260359e-03,9.595070492100839384e-05,7.318516414901676771e-04,1.073804344212793763e-02,9.605254688747918990e-02,8.011452716174714828e-02,4.515144447628156171e-02
2.237080819800373044e-02,6.242387402640509541e-04,9.214591437681303367e-04,2.271900785633906329e-03,1.053275242928925512e-04,6.890742852448535852e-04,4.050409880289156106e-02,1.106873746210473436e-01,5.665637945811635018e-02,4.211684796522897900e-02
2.196899205259382828e-02,5.915705242588709372e-04,5.802044377070722644e-04,2.378842326238421630e-03,1.939298298140350514e-04,6.476621844062375880e-04,5.395867924213552241e-02,1.072463267642322360e-01,3.661674533669076470e-02,4.420661303933670627e-02
1.520194543045911076e-02,5.837246319405154163e-04,1.239710787569090877e-03,2.488783552180033522e-03,1.778228224205453815e-04,6.095786236981275922e-04,3.841626271598726217e-02,8.968010514000809841e-02,1.996894296567737134e-02,5.501766794063291111e-02
8.288349153442831768e-03,6.048970287495882871e-04,2.162941663670580553e-03,2.600615542764380447e-03,1.095941545082003367e-04,5.766043508358064621e-04,4.358008821587744039e-03,6.796766773035854692e-02,6.687912043849308583e-03,6.395399313721859824e-02
3.019749943269397011e-03,6.506138469962788589e-04,2.369722937132679071e-03,2.712973920359358637e-03,1.644190746061247033e-04,5.504084368670896562e-04,3.262947115186889957e-02,4.637894606038663048e-02,4.996896666046711510e-03,6.328397781731615046e-02
2.424282974284732578e-03,7.196459427016722431e-04,1.663130731832715165e-03,2.824252366194550997e-03,2.890971964396352699e-04,5.325307374935731811e-04,6.229892175895027778e-02,2.469102057381689086e-02,1.689680718415802196e-02,5.763980978829740670e-02
7.623750598433034348e-03,8.140270422188850084e-04,1.196173944308217586e-03,2.932624144831897338e-03,2.112624812805506073e-04,5.240709618704021905e-04,8.181617392336967831e-02,3.911658940254325069e-03,2.629257233814634442e-02,5.309841615726293429e-02
1.010869418948031132e-02,9.331677955877308323e-04,1.789414301445440680e-03,3.036072221200803237e-03,6.123329576993811075e-06,5.255740413152872438e-04,9.810859445335336215e-02,1.200287237011472309e-02,2.733263031253203856e-02,4.827570031419457786e-02
9.951954465548020975e-03,1.073058075141008864e-03,2.470602983876735419e-03,3.132420901268624745e-03,2.517344103408627283e-04,5.375660247860631312e-04,1.192203018880612642e-01,1.872911146537166102e-02,1.933938366956804156e-02,3.904217249489398689e-02
9.718836017678143466e-03,1.229637440744116555e-03,2.121867499901265719e-03,3.219365653009947405e-03,1.067060798237059668e-03,5.607097711536206163e-04,1.359824140840252549e-01,1.528313746047160228e-02,9.655922481666155688e-03,2.609924992769088736e-02
1.027367201911537874e-02,1.400833230836062053e-03,1.309976446613789159e-03,3.294513081329728758e-03,1.573227310583440869e-03,5.945861789827845689e-04,1.263324116162129751e-01,5.239342003799766188e-03,5.744416808263787082e-03,1.514489174360817564e-02
1.036427340213457240e-02,1.583879098115433589e-03,1.107016508333349969e-03,3.355436248791717532e-03,1.135167672303993370e-03,6.372783685512717691e-04,8.799792332608780132e-02,4.829977970036312615e-03,8.336106678614643023e-03,9.081294129801652237e-03
9.966145224705342046e-03,1.771077625455930345e-03,1.421472643001680343e-03,3.399717713403158613e-03,3.984775841420450104e-04,6.879404582311859093e-04,5.149050759938052918e-02,8.189226684842870752e-03,1.388091563635746040e-02,3.523312823079750855e-03
1.025281232033330332e-02,1.953652904071735176e-03,1.600604386144458685e-03,3.424965537315549560e-03,2.264522192979566179e-04,7.477584917396672744e-04,4.757279215351851304e-02,2.908247976628440968e-03,1.923863671745609794e-02,3.162189599462376152e-03
1.037750792965815190e-02,2.131187212155246161e-03,1.577889325454936509e-03,3.428857621227046799e-03,4.830598513216545400e-04,8.145245775472821984e-04,7.176564873078121465e-02,4.992192952946962123e-03,2.250519416881847576e-02,1.456179534497332832e-03
8.016720764182380318e-03,2.304925217075092913e-03,1.627929784380797258e-03,3.409244196382112471e-03,6.150694798564064437e-04,8.805066423982818970e-04,8.996897996347490156e-02,8.028958550976541403e-03,2.300175466967225441e-02,1.381153507931755925e-02
3.442125968789106101e-03,2.457834594266614971e-03,1.746689320935052242e-03,3.364188009624886119e-03,5.766968606911648462e-04,9.440711359401651520e-04,7.415869830094269644e-02,7.078369078754866497e-03,2.183621428871294207e-02,2.720586052166357530e-02
8.549179037773403070e-05,2.568333953284482503e-03,1.820490672617068725e-03,3.291872281923196968e-03,5.870530733135721508e-04,1.014651547241585041e-03,2.932893746400294654e-02,9.214312889539262239e-03,2.071458218944877486e-02,1.976019439014130644e-02
6.981764762695282693e-04,2.653622917102446081e-03,1.933077477257338743e-03,3.190628922387906113e-03,6.342600548714077534e-04,1.088194623758481942e-03,1.294129936357255040e-02,1.614960699146332848e-02,2.011699341870929261e-02,5.323480452183096748e-03
4.578293728301828340e-03,2.742107182133171964e-03,2.101363217575089211e-03,3.059240217142324917e-03,6.515071119245982329e-04,1.136066457064891823e-03,2.733745679299880854e-02,2.091720417124640768e-02,1.952846720375914571e-02,2.995345317055208428e-02
8.081263169548722272e-03,2.780548654601658776e-03,2.093069519559735865e-03,2.896976396888970365e-03,7.247108533822410039e-04,1.157374344355136713e-03,2.018923427431821085e-02,1.678148453549457852e-02,1.874010230764754439e-02,4.456921282772528109e-02
7.064667286951791490e-03,2.690816017543503497e-03,1.949869138263943822e-03,2.703025769190564066e-03,8.083916656344736391e-04,1.204209497174063342e-03,1.990660496340848976e-02,4.829544906404433999e-03,1.802374462787224851e-02,5.120077495428548148e-02
3.225399382384179438e-04,2.570008489941780216e-03,2.222646559156611201e-03,2.476454881179573648e-03,6.777668636919434875e-04,1.270750888574658476e-03,4.419611955162575795e-02,8.400075797421056173e-03,1.747188652267009715e-02,5.379902400601994927e-02
8.385670203850118659e-03,2.574842351889832740e-03,3.032313592026224074e-03,2.217460351901001051e-03,4.979666193502315513e-04,1.236646151912175213e-03,8.201457763046277050e-02,1.861045376042431629e-02,1.687543062941308791e-02,5.464318104713080521e-02
1.303089302404955574e-02,2.491479919882794072e-03,3.513853754401313062e-03,1.927502287552779105e-03,8.094402358197449457e-04,1.102696815515908074e-03,1.079975002104014287e-01,2.772247045726859010e-02,1.621892035396908446e-02,5.063330637204360718e-02
1.116631715155075137e-02,1.971395323656255794e-03,3.045071860128525151e-03,1.606629539532368044e-03,1.481235819560578707e-03,1.118527508917226305e-03,1.082002726502631490e-01,3.799201040384532491e-02,1.580066049875260281e-02,3.294602764448750776e-02
6.291756065599196993e-03,1.457312273898053430e-03,2.248974920254112869e-03,1.253099978590690175e-03,1.664853704897565007e-03,1.280287153094842320e-03,8.872638253712965273e-02,4.336280830241029394e-02,1.560247270123861843e-02,2.584041983667174653e-03
3.430604383383803295e-03,1.705426615317821122e-03,1.939983600378737336e-03,8.690383135125988399e-04,1.323986820599994726e-03,1.032833657810522344e-03,6.563970134554741875e-02,3.461098281990645370e-02,1.503743363336037045e-02,2.107013155503056900e-02
3.611819913751126467e-03,1.777358731631837512e-03,2.014041808921504702e-03,4.613318277745006831e-04,1.323185017753484823e-03,3.732837883604887309e-04,5.551429282704406498e-02,1.387560693931695101e-02,1.393436937397221805e-02,2.187289719014594985e-02
4.442026733853647082e-03,5.118802875973061842e-05,2.022931914944601801e-03,2.949122243849024074e-05,1.572049352992258096e-03,8.314157335918564854e-04,7.317612178072475937e-02,5.598181416606807029e-03,1.319816782556266534e-02,5.641792217471137093e-03
4.425964505317794666e-03,1.656515992862065897e-03,1.854680666366150671e-03,4.366732907952580430e-04,1.080770554830703511e-03,3.640375674898252249e-03,1.217794548480438388e-01,1.470818416175821361e-02,1.357351190621586441e-02,1.590935979811704953e-02
3.922591600031126793e-03,2.815636825697344098e-03,1.494265124993672360e-03,9.312943061903971925e-04,1.059965252270221321e-04,7.022344603102627543e-03,1.786956548195892391e-01,1.422424744963571470e-02,1.438900216797454022e-02,4.074707491309226964e-02
3.191957752233373722e-03,1.462212293323679815e-02,1.052752079286439942e-03,1.426927862226898529e-03,1.404911860379548646e-05,7.524071943682211598e-03,2.066979426122580454e-01,7.329303821392282869e-03,1.458179255664973466e-02,6.094113511904101360e-02
2.228531312931423137e-03,2.609409859304746143e-02,1.010787518369263933e-03,1.929541461429362063e-03,7.168276311756998807e-04,4.385787323673206659e-03,1.865303886066806138e-01,1.790637866719684392e-03,1.437044124613878239e-02,6.029273626760855986e-02
1.569812088314086803e-03,2.858806291775882469e-02,1.462605829385861056e-03,2.491867996542669605e-03,9.465550865611726920e-04,4.189763867707379358e-04,1.301428630040084855e-01,3.352861220405849337e-03,1.473663360442396472e-02,4.659946306288943046e-02
1.632270642673581788e-03,2.136274722054401498e-02,1.526201012270684285e-03,3.096439434255264436e-03,4.296905128127053732e-04,1.654567704072093396e-03,6.727416180861842121e-02,8.721897593737067481e-03,1.529464789443067685e-02,4.797588803893595988e-02
2.007548284685705189e-03,1.010871919070689511e-02,5.916151264377358032e-04,3.624005575022601171e-03,2.098184828085145656e-04,1.601807900968365032e-03,2.887904541718964296e-02,2.236793377234308489e-02,1.398938055688934284e-02,5.961852424657353849e-02
1.555616981269907460e-03,5.263291323415227995e-04,5.862812221566820678e-04,4.102614255484911092e-03,3.610358591002071535e-04,5.948174574316649008e-04,2.941976944214255013e-02,2.047208259985647261e-02,1.024565832612788462e-02,4.588800022062854839e-02
1.294621541140866415e-03,4.821278979755810358e-03,1.173863286903559320e-03,4.784573555118643191e-03,1.066591208766575296e-04,8.629830938029225160e-05,5.208393285704120829e-02,7.464096246909975897e-03,7.065723993511720258e-03,8.764312537899688130e-03
6.722965467514867115e-03,6.503665568196621317e-03,1.581756311821973324e-03,5.620511239512313538e-03,1.134256377224579417e-03,4.889986747428978764e-04,6.207232869242556433e-02,1.663124608997899618e-03,6.584566751152071129e-03,7.721309649860331331e-03
1.152845202808262803e-02,6.826827146638200436e-03,2.314292157418816609e-03,6.022790227366733168e-03,1.558281324755613796e-03,2.103436421690274907e-03,3.870809085189366727e-02,6.589701027569064978e-03,4.894465991963390522e-03,9.136833461470008494e-03
1.165688278024523510e-02,7.480629672343908770e-03,2.754301277083475753e-03,5.823313125739486631e-03,1.040970022879345990e-03,3.478110256206182107e-03,1.181498079480571006e-02,1.166214176656297716e-02,2.915647393329955789e-03,2.453231603444850153e-02
7.147666534817028773e-03,8.388654775853800205e-03,2.499003158067696160e-03,5.939313621720332219e-03,4.183680382582363310e-04,3.921000667468426022e-03,6.265969700558024491e-02,1.216648403633993451e-02,1.360084559714176689e-02,2.034338006805027146e-02
2.032480548523856682e-03,9.029619871855984123e-03,2.642208218341038882e-03,7.103454541250560361e-03,4.053449832976254255e-04,4.060263243803127579e-03,7.758383262608885278e-02,1.194896207106319226e-02,1.863017206298473588e-02,2.412364209422521860e-02
5.108439803623591926e-04,9.758843333118915817e-03,4.033456889859983810e-03,8.576089072784804507e-03,1.044750211052814870e-03,4.615535131083104044e-03,4.077309287170299834e-02,1.530617278329224340e-02,1.538556437372988472e-02,6.190633983064418311e-02
9.754021832473808076e-04,1.084451974830636517e-02,5.420720986120544996e-03,9.280919271584473981e-03,1.968155697070999091e-03,5.285633899892915911e-03,1.525481023053810829e-02,2.117115228997216297e-02,9.265877665005157332e-03,1.126975146011618689e-01
2.301154400370345084e-03,1.112466445880318060e-02,5.094418209689146118e-03,9.552729224186049320e-03,2.366493955327382635e-03,4.941504800343690836e-03,3.913611069646096008e-02,1.937849329936300671e-02,5.964092794081016918e-03,1.286086273350727227e-01
7.063889776785610940e-03,9.405759612456552135e-03,3.253047877598160172e-03,1.041432619435131608e-02,1.139752065955455676e-03,2.416002530063529087e-03,2.304587230817929655e-02,5.746042673290883800e-05,6.572303668378754946e-03,8.995963739603207721e-02
1.465357863378900262e-02,7.095324530322372029e-03,1.343469055265191859e-03,1.147121804934921746e-02,1.934021780549575889e-03,2.350106774459796016e-03,5.930522046652206974e-03,2.991215381263021347e-02,8.814350934920514580e-03,2.199523657495117829e-02
2.052491325021379640e-02,7.277204242637416894e-03,5.054548309560568005e-04,1.115839775702687567e-02,4.936270290741323792e-03,7.266647924114309591e-03,1.202638705570655518e-02,4.733830081221247765e-02,9.424979112414169982e-03,3.412561184299263417e-02
1.973563628250220997e-02,1.058619611968698339e-02,1.595284507013505163e-03,9.520436629696297018e-03,4.876655405239866542e-03,9.238589533688232672e-03,1.930905472067328058e-02,3.330906323553930320e-02,6.723501115918101290e-03,4.626182602905577756e-02
1.185564774182635943e-02,1.422991085966076978e-02,4.885859828530594168e-03,8.948389166838849329e-03,1.182288425774602296e-03,7.391237261104927764e-03,7.368839917182940999e-05,1.136110059300359833e-02,3.330773884762096466e-03,4.899347904145357618e-03
1.341845304850803819e-03,1.582720758177064493e-02,8.958575880499279262e-03,1.090760524931195033e-02,3.090396046763133758e-03,3.967905259406850037e-03,3.381578953392826159e-02,6.430802923230218016e-02,3.819577904639893592e-03,6.392139010076797190e-02
7.041268165174630750e-03,1.593095957595507678e-02,1.146589221224932585e-02,1.373640602453857912e-02,4.963167219488425798e-03,1.107085650897304862e-03,4.610853948977585576e-02,1.000191279005488848e-01,7.343875004608552831e-03,1.186671316626738970e-01
1.246225504776856015e-02,1.616315031485880335e-02,1.157639643386727292e-02,1.528205546542094583e-02,4.800191083913309988e-03,1.604863464153125432e-03,2.451285676869099928e-02,1.146932164915362429e-01,6.781407421788676615e-03,1.493192566002850274e-01
1.759402274793743504e-02,1.704808905548278047e-02,1.087421406045623387e-02,1.579339221827660150e-02,4.516958839456220419e-03,5.227465893862287723e-03,5.392940370611248001e-03,1.226508953051871909e-01,1.820294814060202790e-03,1.788567948929024320e-01
2.387969588603586213e-02,1.814938202294863120e-02,1.144482784334786840e-02,1.641463240156568193e-02,4.761252589977656678e-03,8.915869979849751562e-03,1.242634878768951803e-02,1.285900071068564465e-01,1.370289726684328566e-02,2.130317374540678377e-01
2.817441435239567693e-02,1.868436281629886134e-02,1.309408831437321521e-02,1.660566611883971741e-02,5.281388613176545704e-03,1.088267321935553443e-02,9.146841356015969482e-03,1.224733780500987662e-01,2.219809440619577995e-02,2.211217785924769474e-01
2.624735367169880179e-02,1.774324598825048616e-02,1.299566353428131121e-02,1.479019272881974822e-02,5.845099347383702834e-03,1.065031375742333045e-02,4.174631197245873976e-02,1.009575293098975146e-01,2.613577763024534789e-02,1.742745026990877300e-01
1.858963725621307767e-02,1.485298029132889157e-02,8.785190019366690556e-03,1.038594361316318507e-02,5.500664139034641166e-03,8.892002279284305297e-03,6.342685129246089515e-02,7.255718218088133553e-02,2.736894862177415705e-02,7.887017990298013370e-02
9.213156735092252816e-03,1.050521030220057973e-02,1.548456442995240889e-03,4.410010089962174661e-03,2.985201181482354145e-03,6.087443747580017529e-03,6.012485377878522275e-02,4.292093820793767972e-02,2.549297346246983190e-02,3.216675683434475075e-02
1.203115758795834749e-04,5.934849579440003645e-03,5.049803484641050659e-03,9.386681086527738768e-04,9.228245053070210924e-04,2.723289210501769059e-03,3.211271950738700531e-02,1.290445371303937383e-02,1.930883365125125178e-02,1.268934724650571666e-01
8.414147479365209278e-03,2.534862835344365000e-03,8.188501597889972713e-03,3.455468796225766477e-03,3.140061464973167588e-03,1.905648469551576732e-04,2.406911137554364893e-03,1.148671342577806120e-02,1.120301428210975642e-02,1.929314014712087411e-01
1.355953104676449646e-02,1.791558152542538232e-03,7.585339500134525778e-03,2.518460711833283867e-03,1.500554721399830795e-03,3.319347594201133120e-04,1.844563440622063941e-02,1.834732814619215169e-02,6.402940403086825397e-03,2.291980819584932272e-01
1.136572919186849828e-02,5.202443372468674998e-03,4.143858387562282877e-03,8.257790384626254553e-04,2.755448912982553025e-03,3.847259794221527529e-03,7.267600302526607860e-03,3.447279167340822764e-03,8.491177016587737186e-03,2.203817307785790047e-01
2.609170808472055427e-03,1.251110962819643353e-02,1.386031728357882279e-03,4.820474666589061666e-03,6.427616587872948817e-03,9.213632126177142764e-03,1.762048523046429865e-02,5.427048688772224960e-02,1.696458062875140851e-02,1.478735911570379924e-01
6.904237150609085667e-03,2.031763443574472958e-02,7.794206407099990574e-03,7.265525565161190524e-03,7.708016931852980889e-03,1.359060294136949822e-02,4.007349016211694814e-02,1.130595274414731843e-01,2.803289943782090107e-02,3.743445239228419125e-02
1.268711753955896471e-02,2.524177100028065363e-02,1.345488867593403956e-02,6.877305902188718054e-03,7.540917908682582584e-03,1.532192280302719679e-02,5.637830238487125806e-02,1.496217696006164610e-01,3.785491900763673923e-02,4.902083518992465805e-02
1.506242986756821910e-02,2.779849003881712174e-02,1.787982637966617841e-02,5.605131141615629121e-03,7.760278770276536793e-03,1.504191370446902182e-02,6.825791610729813053e-02,1.568478407402043584e-01,4.616831661213113835e-02,8.502454126090924769e-02
1.539703275673055642e-02,2.946356270193888766e-02,2.085096665132911073e-02,6.677518417604551108e-03,8.476591274519700708e-03,1.376626911884494889e-02,7.272964755583684326e-02,1.485645814973510503e-01,5.449873796635476553e-02,8.877020370787011561e-02
1.287647896460941861e-02,2.819681173346239023e-02,2.008932183028177415e-02,9.518074798191809155e-03,8.101466359276582319e-03,1.114170842579333652e-02,6.459258254243280262e-02,1.227427041837747257e-01,5.986995040130155266e-02,5.779844030360416912e-02
7.792727695938696589e-03,2.254170265861485736e-02,1.392321515300960245e-02,1.018483579022359982e-02,6.053988687075829121e-03,6.924330728870298560e-03,4.404236552617150219e-02,6.656635216139993039e-02,5.642827707206584525e-02,2.870179426916362811e-02
4.088628054034935781e-03,1.642513990658732437e-02,5.900101483100444674e-03,6.715124356628404158e-03,4.213572652966293512e-03,2.934922173396012791e-03,1.891334470522960942e-02,6.812836439747867743e-04,4.603750653616831695e-02,1.358262391682944492e-01
4.827258758248950676e-03,1.232992124390095562e-02,1.837489163871004966e-03,2.934098103837616241e-04,4.619497380234827318e-03,1.567603440049162352e-03,3.282273744960083686e-04,3.005295627973966072e-02,3.934719873142844548e-02,1.789822851120779490e-01
9.256386445639804700e-03,5.337890319597216396e-03,3.378429253465783152e-03,7.207830213917105523e-03,6.828516186671069847e-03,3.182577758293849389e-03,7.319584851958982168e-03,1.238020170381019976e-02,4.232749808087030857e-02,1.160538909913662875e-01
1.719221026342505551e-02,7.114176073300643166e-03,8.552181131442885068e-03,1.341294327728748820e-02,9.055637917993311636e-03,6.610566575077895038e-03,3.829150719298710787e-04,2.925312256141521933e-02,4.882143109975482093e-02,1.271476492524561790e-02
2.864084666297741014e-02,1.787183944651320883e-02,1.493505196873027088e-02,1.632638529287178467e-02,1.036879351437724160e-02,1.047066940879074100e-02,2.008178686081545095e-02,6.834338654198864049e-02,4.913861647773522245e-02,1.270439827104023478e-01
3.547343258828542650e-02,2.244040562987457271e-02,1.790700494130676237e-02,1.766727008607502786e-02,9.618480475632530322e-03,1.198325872053986919e-02,4.771904112659562658e-02,8.030106125659156047e-02,3.992169893999651664e-02,1.619274783030562603e-01
2.500546832158265925e-02,2.830668643194773904e-02,1.159674634519345174e-02,2.145459091178179498e-02,4.657810096769065926e-03,7.496948999278906824e-03,6.687571331934655250e-02,3.977406749660587770e-02,2.501496356491528586e-02,1.078238885935229735e-01
1.838076773730475426e-03,4.150708137570650880e-02,3.187509128283471781e-03,2.803412941215420798e-02,4.026953175790609282e-03,2.685328027009704650e-03,6.422961121246098526e-02,4.624215868679625724e-02,1.219835982837508791e-02,1.652822370631388052e-02
2.730975488525244285e-02,5.443455020248812171e-02,1.727760467986525980e-02,3.365096173081386088e-02,1.144254648953434671e-02,1.280548025474333856e-02,4.348520602923591077e-02,1.294718077389003241e-01,8.494349579502645520e-03,5.064027693463404173e-02
3.754470567509333306e-02,5.663032608156564479e-02,2.333888352652585541e-02,3.588238407021372700e-02,1.355195017887532959e-02,1.766618343287290616e-02,1.984291098007309392e-02,1.710700794517469037e-01,1.450038359577330779e-02,7.808021571048642806e-02
3.588764737075449823e-02,4.904173468186964063e-02,2.288073217183326027e-02,3.544882691207270481e-02,1.233875493054975916e-02,1.768837764647556224e-02,3.046987705068413509e-03,1.755092192516467531e-01,2.445454482769990681e-02,8.521364226646170603e-02
3.195932779896861614e-02,3.994102768088521327e-02,2.099961773822602365e-02,3.337475968576007757e-02,1.215628402909078865e-02,1.639166318257754412e-02,5.439564259504269667e-03,1.633134499515958016e-01,3.281148966744169837e-02,8.554463419373739552e-02
2.806979792521395109e-02,3.295520357980434578e-02,1.918423212520328769e-02,2.971420201972304470e-02,1.333984491522370239e-02,1.523591851372006582e-02,4.907130828343267241e-03,1.405583230096059677e-01,3.610983497940128267e-02,8.045658979663669608e-02
2.083989232044512058e-02,2.514197818897808551e-02,1.552560636485455364e-02,2.449860012644109256e-02,1.274162606736446365e-02,1.266274139968949497e-02,2.818975870123692322e-03,1.065516952385470451e-01,2.883934802174855164e-02,6.945573633377086220e-02
9.507345819713469356e-03,1.384965125910145659e-02,8.854456800566649563e-03,1.832248507317181876e-02,8.883872163235643007e-03,7.445300384381800009e-03,8.369239382469971164e-03,6.978452685988924264e-02,8.150857779642991727e-03,4.554506590624609469e-02
1.501480403589835946e-03,1.585905342368343612e-03,8.401457524367728687e-04,1.247937944330527842e-02,3.665776306289050476e-03,1.524766746160699299e-03,3.147871515330042530e-03,4.488373775171061730e-02,1.439561511084672292e-02,4.322675386442117670e-03
6.485559592468709625e-03,5.462685213376180550e-03,4.924712331569930726e-03,8.388349692012729911e-03,1.144877542722806782e-04,1.419352023850360732e-03,9.529782031268810988e-03,4.215919520905575535e-02,2.003619355261742133e-02,2.886688828777434629e-02
3.099267621755719126e-03,2.686125840762383036e-03,4.990869093880851218e-03,6.602219690129172008e-03,3.419931898859439540e-04,4.589031650423960711e-04,1.930642660529325108e-02,6.501530272132978461e-02,9.623198045680330520e-03,9.042819775274418131e-03
7.102513565885362409e-03,8.953403672974544550e-03,2.424362680490572963e-03,7.437512778385670445e-03,4.637554775080487968e-03,6.343779690367275410e-03,2.138358026548852625e-02,1.139182837982045532e-01,8.811300716298636065e-03,8.125136189852819046e-02
2.122499913073431013e-02,2.392257924028341060e-02,1.622595667537552258e-02,1.160999450897099404e-02,1.133480284995758147e-02,1.426753657447782028e-02,1.869031630636070265e-02,1.848147942371569652e-01,3.520480281805599826e-02,2.170301717414009068e-01
3.598704099239764809e-02,3.636665996910371651e-02,3.139217499474851458e-02,1.797495828583927854e-02,1.778316494094079811e-02,2.132192763560320989e-02,1.537430785768027428e-02,2.566564746199620495e-01,7.442187609325891240e-02,3.543938269359720450e-01
4.665737367387803175e-02,4.258620957577389371e-02,4.095753187725447581e-02,2.256233261691289668e-02,2.155545099887647836e-02,2.408134382143789845e-02,1.266566130101716946e-02,2.914522751060041328e-01,1.031142290942530376e-01,4.422560696079005926e-01
4.836261992589568903e-02,4.099404638817432528e-02,4.141819782424924906e-02,2.289695184766941255e-02,2.129583691539996271e-02,2.158683741369621031e-02,8.741914006689917652e-03,2.660936306948434305e-01,1.216305753831970898e-01,4.336651838274680482e-01
4.016077024625692993e-02,3.234462848818096120e-02,3.505953066003032054e-02,2.085066166813430433e-02,1.745316085409974113e-02,1.635847118248395446e-02,8.085919446453142256e-04,1.975650134467698826e-01,1.442797002507283655e-01,3.251457769288080835e-01
2.593069545499411196e-02,1.963558860513865342e-02,2.584825657836177515e-02,1.838414009301083882e-02,1.183356993880597952e-02,1.056931134889246490e-02,9.074965910582218076e-03,1.194353474524507130e-01,1.673775476378683846e-01,1.724749213363215850e-01
1.025676364325115407e-02,6.090157721572912221e-03,1.565321331851174738e-02,1.394195873131089808e-02,5.910462206356625371e-03,3.814975193286693038e-03,1.016142480081476743e-02,4.727741535903179360e-02,1.698614597835469142e-01,4.044489570782112270e-02
3.834619662189752733e-03,5.871715305067512491e-03,5.965402313927267719e-03,6.275563760108170477e-03,5.574506369163831571e-04,3.512898368803551909e-03,6.627685310959019298e-03,1.288680244842805092e-02,1.428354786628979467e-01,4.926731524836078235e-02
1.286057438424113158e-02,1.338390547852567197e-02,3.127001287820622283e-04,1.682470053740560542e-03,2.761328314496395465e-03,7.998926256789724853e-03,3.223937392653268563e-02,4.302197494550770440e-02,9.934857095225980983e-02,1.067175791257961304e-01
1.391983201911862686e-02,1.418532154042064820e-02,2.030282536859300945e-03,6.260808672959768291e-03,2.940687339661197594e-03,7.257230919858257204e-03,4.480156897372517683e-02,3.098371720153403688e-02,5.584036678731471581e-02,1.396192022791749587e-01
9.660829817000794392e-03,1.049292600825410017e-02,2.420684087717429444e-03,8.052256853648780827e-03,1.696373782548677702e-03,3.919687930152553762e-03,3.592155292754015128e-02,1.010279906751669621e-04,2.043208536453807594e-02,1.565722238415867273e-01
7.300305857986947103e-03,8.541795026611773145e-03,5.361896671292448388e-03,1.054685220936449688e-02,2.449802169477991592e-03,2.579563284911333236e-03,1.952948812261290357e-02,7.112098824854935081e-03,1.216192291213547688e-03,1.799376157673230336e-01
1.047097231206756997e-02,1.187084005197314510e-02,1.030707230231429558e-02,1.496559140778093953e-02,6.008799338664304497e-03,4.078833803988232351e-03,9.896943780988548198e-03,2.708349202266204306e-02,4.608318043464851646e-03,2.174280423813857999e-01
1.574866835707908544e-02,1.726409679443950337e-02,1.326931947191956757e-02,1.908757536611272940e-02,9.511825613176047925e-03,5.371510076938486311e-03,4.253080848052755852e-03,7.554876349526770674e-02,5.874544147873283703e-03,2.313926479220658194e-01
1.863418293334108758e-02,1.967358996009099456e-02,1.201320990657175902e-02,2.109596195521229456e-02,1.038377414903759836e-02,4.161636652968711894e-03,6.793170266123957357e-03,1.003809331114898090e-01,1.817566908620062149e-02,1.818987807829879344e-01
1.961052989156069834e-02,1.922989936255322524e-02,8.758978149113612680e-03,2.172583741606221724e-02,9.398040346832666619e-03,1.469327468901153455e-03,2.395945847625939942e-02,9.808742286218274931e-02,2.456068682119379176e-02,9.877150724259042835e-02
2.230330529053907093e-02,2.013999837663174933e-02,7.674673844373704548e-03,2.144030351158893524e-02,8.842255222795416050e-03,1.975754281942790434e-04,4.050659824603319858e-02,9.621242281437111799e-02,2.698334796538342031e-02,5.354282603046546518e-02
2.711298828810013856e-02,2.349668534328222189e-02,9.884572229880015520e-03,1.848912330562718642e-02,9.328389880235286868e-03,2.731527305208938071e-04,4.901128638269103277e-02,1.038260571682073363e-01,2.916539806329596085e-02,5.359798115555819420e-02
2.888968185655271803e-02,2.485853769586474082e-02,1.163326527617632687e-02,1.204120481179597746e-02,9.554466681521038562e-03,1.823890383713118240e-03,4.358125860008577046e-02,9.318033544539025548e-02,2.926075063468840803e-02,3.167198366032862589e-02
2.240114773377211224e-02,1.983452289795217122e-02,8.566659755660583492e-03,4.785711330949631200e-03,8.026749560054197152e-03,2.525483966214845787e-03,2.329104608233864213e-02,4.378914363150351874e-02,2.501635125046343042e-02,4.421545115146401778e-02
9.700686544829504460e-03,9.870610531966566431e-03,1.435292268364546635e-03,1.986478058863898853e-04,4.534307457755984601e-03,1.336588052653850129e-03,4.245942287190083292e-03,1.975826075151492292e-02,2.138109108563192307e-02,1.168261914853978845e-01
3.652454642636964333e-04,1.289237465891117504e-03,4.259360240303568940e-03,9.195783891156610219e-04,7.921282818313731423e-04,8.540324705101999319e-04,2.578575169987321059e-02,5.193148071346712774e-02,2.541023151401422195e-02,1.197534505284679196e-01
1.251211007581560066e-03,9.682671003357866402e-04,4.683177830531764195e-03,5.081424794790932037e-05,1.041406475486979797e-03,2.029819991355380580e-03,3.039836890412805567e-02,3.733461162092004820e-02,3.592272337580326713e-02,6.203585242286348972e-02
4.364040041449390381e-03,1.721119232128446360e-03,2.125772340222409872e-03,1.626675183117080262e-03,1.179964154559386916e-03,1.742552945361579243e-03,1.871748957839994287e-02,5.929863780163945226e-03,4.474204378392288017e-02,7.906189793062616544e-03
8.145398489390087357e-03,3.269660498455434668e-03,2.003187990501467761e-03,3.007411135634476939e-03,2.002926549882851417e-03,2.177647866786859739e-03,5.886756859799775581e-03,1.313631441859885486e-03,4.617042968862179741e-02,4.913829506448051665e-03
4.917307112138323902e-03,4.382006452367233438e-04,6.559421284599931470e-03,4.143884770337210276e-03,4.677913658485828054e-03,4.959443899754955448e-03,6.901878419932410205e-03,2.527574016869194029e-02,4.015698107832934433e-02,5.561347200042883465e-02
3.778422788063558451e-03,7.266679373437659115e-03,1.300542196133210732e-02,5.528424770907770444e-03,7.902431305480867724e-03,8.404109562259141908e-03,1.617453095171545244e-02,6.123458924784808827e-02,2.843778049576253103e-02,1.326045236815588113e-01
1.272615954051884747e-02,1.164152160971830205e-02,1.710528812903151785e-02,7.536597651677958906e-03,1.005026090970218867e-02,1.017103303488020756e-02,1.422084089440961430e-02,8.036068893255060575e-02,1.240686092841700519e-02,1.910714920050999299e-01
1.715856260840072783e-02,1.056644171138486354e-02,1.684301184320985759e-02,1.003981050092351938e-02,1.072826656545814925e-02,1.062606802625562161e-02,1.722766300817956623e-03,7.666151842551889584e-02,6.100729302759672415e-03,1.918752641900092759e-01
1.605949545933719330e-02,6.142046157540589045e-03,1.307952573329839753e-02,1.250440990061162626e-02,1.013317044841457841e-02,1.103967117434629178e-02,1.256129064138976695e-02,5.786992549462556534e-02,2.533658453114011333e-02,1.472501592577558915e-01
1.343631499526466017e-02,2.708492060356232443e-03,8.353835288371865009e-03,1.435203199420345861e-02,8.150537131478763006e-03,1.056170521417645544e-02,1.036399842713727967e-02,3.415909014604463778e-02,4.430393559416229837e-02,1.166864949997641066e-01
1.377570448557020356e-02,1.955804670953137890e-03,4.642699433301655972e-03,1.573349447242287924e-02,4.479115464570431263e-03,7.356848563990363125e-03,1.265515139322809929e-02,1.359694958149508873e-02,6.052327974987271875e-02,1.250182070564350711e-01
1.586886939030380389e-02,1.327486468404259290e-03,1.440074070311545820e-03,1.741668665348298367e-02,4.486492766764229494e-04,1.413783271384894211e-03,2.924827635562532099e-02,4.100182908381194008e-03,6.907854587702465243e-02,1.223788544742745871e-01
1.495416536745820292e-02,1.943540762430430533e-03,2.634550272132684268e-03,1.882696173774683207e-02,4.957102920333088941e-03,4.928573488108533955e-03,3.939183039544098819e-02,2.736382177181299891e-02,6.758046243359314142e-02,6.164261026923076314e-02
1.001360673396496474e-02,6.401306363152503565e-03,6.364055798519886037e-03,1.767682076025295715e-02,7.371925402217523703e-03,8.658951519151497633e-03,2.311173698369932764e-02,5.823318975066153064e-02,6.087334405298731183e-02,2.831614948112713692e-02
4.480154832980431240e-03,8.241275230284100112e-03,6.732266837639171338e-03,1.346823278366707927e-02,7.605240099479204478e-03,8.318975361859212020e-03,5.266518115222612248e-03,8.365946994043126084e-02,5.709426408583222895e-02,8.890086683702062842e-02
1.295383315153390792e-03,6.533392897782599844e-03,3.243351456242345339e-03,9.356285945372593352e-03,6.576091883920684965e-03,4.998402020772197210e-03,1.772051390468907736e-02,8.745638166393983337e-02,5.906117115202885737e-02,1.099341131797557797e-01
7.196731295976827297e-04,4.011917417803084925e-03,8.047706039195658394e-04,8.314473138620473783e-03,4.990911852832019199e-03,1.581432806123845430e-03,9.092541409893808990e-03,6.934708221894358982e-02,6.187025094163946942e-02,1.181985003233899378e-01
1.050965027735264665e-03,3.584668394638234473e-03,1.272006329665642012e-03,9.918585282784431884e-03,3.743672733391787810e-03,1.104673248078387286e-03,7.498310696981212546e-03,5.032303783152880516e-02,5.952924065121697333e-02,1.248496297884922890e-01
1.199794336202202538e-04,5.783914680397418337e-03,3.165547933914007652e-03,1.263183731977955172e-02,3.945963868229628198e-03,4.358455497881185726e-03,2.240756651441712377e-02,5.313203089873901053e-02,5.224046326753269132e-02,1.276172294616182978e-01
3.670537043370006997e-03,8.799611290498244101e-03,9.649039537404346598e-03,1.555028010761389488e-02,5.434716221711539778e-03,8.545858505329647845e-03,2.713047598064791815e-02,7.567696631441976629e-02,4.483513231224388329e-02,1.381011337119851801e-01
8.289290455123728141e-03,1.054439700185845659e-02,1.413510172021852779e-02,1.635233631152976236e-02,6.633196434458223795e-03,1.015399573909419283e-02,1.253562296559149712e-02,9.682712898355119724e-02,3.909445551772206678e-02,1.692995701897378191e-01
1.227540493972240250e-02,1.105432558148419092e-02,1.586894804028657346e-02,1.236217353977953591e-02,6.529501458632470598e-03,9.027276759372303630e-03,1.305762223032917030e-02,1.079287068817252476e-01,3.228067472742228439e-02,2.109373417776478910e-01
1.367529520268507409e-02,1.180462309829976436e-02,1.676420932103446504e-02,5.337948724581926055e-03,5.645800548819171830e-03,7.438722917751676780e-03,2.964781039820798755e-02,1.147428305196302178e-01,2.370760379274221286e-02,2.396696663813763784e-01
1.069709501141931016e-02,1.299884644108153728e-02,1.719041277963834213e-02,3.870822523670217757e-04,4.909984702653693092e-03,6.260082307484434762e-03,4.074180228993691533e-02,1.105265947269857274e-01,1.761444061623040208e-02,2.430852662345035498e-01
5.749140095018500686e-03,1.371274176082545003e-02,1.588944381953500545e-02,8.804940147474624775e-04,4.635249998824723591e-03,4.849377028887712736e-03,6.996329680050591970e-02,8.042842967002133969e-02,1.765992794016142328e-02,2.243183509740023229e-01
4.444785430413644538e-03,1.375851405045731835e-02,1.327269356678914027e-02,1.200565829020439762e-03,4.599335327131606060e-03,3.585565954683932795e-03,1.158634485493515998e-01,3.347536210678764279e-02,2.187270273410905214e-02,1.959256437311337473e-01
6.662721359631095658e-03,1.323999567917289767e-02,1.141555960310930949e-02,1.146077551789559477e-03,4.535379481316396434e-03,3.692734648410682385e-03,1.471618287681937254e-01,9.943268108116281451e-04,2.545185225411291524e-02,1.738456848982472269e-01
6.071254799511951322e-03,1.192868262468080136e-02,1.130692849694153734e-02,2.382457012922042493e-03,4.687895596744331116e-03,5.209432411579692154e-03,1.457160195044152062e-01,9.258394563508111352e-03,2.735199003530611531e-02,1.636089451308994080e-01
2.164118055830561559e-03,1.063135051170860379e-02,1.230037556353874920e-02,8.977769807774153149e-03,5.496612990160857498e-03,7.237370798904298533e-03,1.202626592695465874e-01,1.956494547795499528e-03,3.050914998214612067e-02,1.510112648603283425e-01
2.589438236851314933e-03,1.087939721230741195e-02,1.359702989867304576e-02,1.184490105197582265e-02,6.195665053725881756e-03,9.343077861332331827e-03,8.242823653387969240e-02,8.593940857979386755e-03,3.439622527608594826e-02,1.203660547019697880e-01
8.947451353296690876e-03,1.184901410058204589e-02,1.448478190219258492e-02,6.368054092005897421e-03,4.920267029948830612e-03,1.068863244749009532e-02,4.014804941599429966e-02,1.735477646330086873e-02,3.225836430790200715e-02,7.440525185313930090e-02
1.095196859522683253e-02,9.713943725248414332e-03,1.325695498567270800e-02,3.251292931321890511e-03,1.064967388733449724e-03,8.962568828482503705e-03,6.313204458616127057e-03,1.439138214018293935e-02,1.957779150672869090e-02,1.641215632808224606e-02
6.997980012787958191e-04,1.915283303410774633e-03,7.996477274819450282e-03,1.027609120485168011e-02,3.753566735608674515e-03,2.897609642342531371e-03,1.212015580537109151e-02,1.375066652707751871e-02,1.419225696294797515e-03,6.472023177059420262e-02
1.549185413553092784e-02,8.737957118931809902e-03,3.903313025799921496e-06,1.298756519541778565e-02,7.529299088191747889e-03,4.727445908182955313e-03,2.530585808760323421e-02,6.127833500834405089e-02,1.223241533219316529e-02,1.571543724643940931e-01
2.527787944045955040e-02,1.626060800617234320e-02,5.462188509501706216e-03,1.202204819988916297e-02,9.253117682623253001e-03,9.154317261251130461e-03,4.313020728483854538e-02,9.878241817333878461e-02,1.557548705388037830e-02,2.084309032287589292e-01
2.513272577771897415e-02,1.823759487326635093e-02,4.955883245160067931e-03,7.180391259138999699e-03,8.573480719682072260e-03,8.693973632565160647e-03,5.755945964553643018e-02,1.071109210460694378e-01,1.004963052868569628e-02,1.942853731787449190e-01
2.157076620347138027e-02,1.770114461807431247e-02,1.786571534980241783e-03,1.304754643772509243e-03,5.874740576898647600e-03,5.936337703774628716e-03,5.717849552657450207e-02,1.003928963983754807e-01,1.803035656210108528e-03,1.639244202914826309e-01
1.931421832808299238e-02,1.666315207266885062e-02,1.216063491842769503e-03,1.006608823391880566e-04,2.801737970129285823e-03,3.928807553688499002e-03,4.916071102973638973e-02,9.574231484103536138e-02,2.936983900046610807e-03,1.598844079907518201e-01
1.433620518727129513e-02,1.212940483135225775e-02,2.357184523015366708e-03,4.108650380618745004e-03,9.877428619948663314e-04,2.769724364279206076e-03,5.100107396778198743e-02,7.815165940641841114e-02,3.089267079033022889e-03,1.404395842763913049e-01
1.770662072841987320e-03,2.422359388827985665e-03,9.763287188214206207e-05,7.380679241487173373e-03,7.004743233717344213e-05,6.548198695225564483e-04,6.301522653252998596e-02,2.382866185138794377e-02,4.436573118933360635e-03,4.987268864401365326e-02
1.413278957081799854e-02,7.211168087745367834e-03,6.803769074443891465e-03,6.609918579971669865e-03,2.033033687726068864e-03,2.645711574863081859e-03,6.179271986254564197e-02,5.215779926044938897e-02,1.290069047447698139e-02,7.098040860360446680e-02
2.405718731108116154e-02,1.065075068662294823e-02,1.159975900648153001e-02,5.387529106954518435e-03,4.301641905664147988e-03,4.670892103753566775e-03,2.712427502954094585e-02,1.009010151340277439e-01,2.414013217270797804e-02,1.183028259445061403e-01
2.512292314976995178e-02,8.970395673664604066e-03,9.538275556860804569e-03,7.423138503666820188e-03,4.306901404783443875e-03,3.360663563347698630e-03,2.894966449271831749e-02,9.577963797124505740e-02,2.521033135629804564e-02,6.162221637334568125e-02
2.238557010170113756e-02,7.631845924858950657e-03,3.530822820543632039e-03,1.078180239468512144e-02,1.907616884409399447e-03,4.790072196174420061e-04,6.886803701204111117e-02,6.418926082222912999e-02,1.150200777379621446e-02,1.545374001979535165e-02
2.069620969745562117e-02,8.637205741696990513e-03,6.688794168099483628e-04,1.145094522891795114e-02,3.073100105296260368e-04,5.109243718275254236e-05,6.730604814979279649e-02,5.337209026277996149e-02,4.853644719537531828e-03,2.279760526202307888e-02
2.121890140276075712e-02,9.874864912520656818e-03,3.657549053781011719e-03,9.203957017254378939e-03,1.657513393785165065e-03,3.402559562199393255e-03,3.422706599497160607e-02,7.912189337217731544e-02,1.067063679975418025e-02,4.162903011594665942e-02
2.448780082111972484e-02,1.005752655475281032e-02,8.808353545564065815e-03,6.809819757497811814e-03,4.327725262819338489e-03,7.739483344060173707e-03,2.809714066659153506e-03,1.211955940098704831e-01,8.332258607889182073e-03,1.247459030046869782e-01
2.984702593232643406e-02,1.002755383917744610e-02,1.193221823317619501e-02,5.327745001320501918e-03,5.328482138709892367e-03,9.764240842086600522e-03,2.894504821096020517e-02,1.533374188722364528e-01,8.859437682315226409e-03,1.886524844915814236e-01
3.206212402493188035e-02,9.807624625697355936e-03,1.254502339809348936e-02,3.548551957316936276e-03,4.047207718277131931e-03,9.066164619428197791e-03,4.748221791789745266e-02,1.610368275402112026e-01,1.518488697142349013e-02,2.174203128678131036e-01
2.497799734347244671e-02,7.734356484273014441e-03,1.164074142804191227e-02,1.528762082970592552e-03,2.656466326098581420e-03,7.764701327831007721e-03,6.486218579888416991e-02,1.434565871012354887e-01,2.022307237074098818e-02,2.036083117836069711e-01
9.580091673263603502e-03,3.106839749632868495e-03,9.148083491166008469e-03,1.478215003155590977e-03,2.911634925022750855e-03,7.812402255531614506e-03,8.254958767426606725e-02,1.133680561081173710e-01,1.798616388720686299e-02,1.594478200592709394e-01
5.686687308624979904e-03,2.248448039795554985e-03,5.177918085009182089e-03,4.034885141262201796e-03,4.100403518842825334e-03,9.201448616846812437e-03,9.962095718231549213e-02,8.800634057518622044e-02,1.059325075053429467e-02,1.123602611448966532e-01
1.360782460902234398e-02,5.858679426254059276e-03,9.235713993828218284e-04,6.053357351011990836e-03,4.989623430979049645e-03,1.060411324176397004e-02,1.107273459011778871e-01,7.259025545868190432e-02,4.304711485685510167e-03,7.876777918747229768e-02
1.462191060283285320e-02,6.779853137944085589e-03,2.682728755486190209e-03,4.513073770713420425e-03,5.550483095445942101e-03,1.086946965534260796e-02,1.041413119497461570e-01,5.833815912314075508e-02,1.525850372221793354e-03,6.390299418020205235e-02
1.301416453883885022e-02,5.004727813224345116e-03,4.804669261842102815e-03,6.796903841373832991e-04,5.770482958006440191e-03,9.710135031729206015e-03,7.574812965327931691e-02,4.066889364630661002e-02,1.426851099458222721e-03,8.053420845779978021e-02
9.641058249524894763e-03,4.054088951438738521e-04,3.574227498819530519e-03,2.601367244460901871e-03,5.314495258728289470e-03,7.935523821145302678e-03,4.125544405242545509e-02,3.202314781569524926e-02,8.399601456464409269e-03,1.379649738833970685e-01
3.408423373253285753e-03,5.740581301356870690e-03,1.585526275721427540e-03,5.134960877586709077e-03,4.855798000794161323e-03,6.946585925912331094e-03,1.850930096740487085e-02,4.768743214533191499e-02,1.708412999817699590e-02,2.110953321217081402e-01
2.397713521359683825e-03,9.983322876499944876e-03,7.158760766011796652e-03,7.411590249071869051e-03,5.356661494988302491e-03,7.050329135969962864e-03,4.417576290252696325e-03,8.352375881795072454e-02,2.139360705782525351e-02,2.482771598679903158e-01
3.302757523889710608e-03,1.031434884455105505e-02,8.716289477530688931e-03,7.680909966778483311e-03,6.216900596358201567e-03,6.882383315155806564e-03,1.262122497668815430e-02,1.166001556875997242e-01,1.952113249111900317e-02,2.220563689109733563e-01
1.723460563272723395e-03,8.622590646485529461e-03,6.169806512673936191e-03,4.798748964284762532e-03,6.014282413088212209e-03,5.235958585574773325e-03,2.876125563780962402e-02,1.227328275013589015e-01,1.555955523653693509e-02,1.498263490858558755e-01
3.011067235135682710e-03,6.449345793547622135e-03,2.316358829670149555e-03,1.116671828808254302e-03,4.274060239348548458e-03,2.268262212284485185e-03,3.467891274176074234e-02,8.835238099897399500e-02,1.261272595727338727e-02,5.254458408020280108e-02
4.966129485343110002e-03,9.783504272414117464e-04,2.739316517335829444e-03,6.550648793183179355e-04,1.084066473758131099e-03,1.851450401405921233e-03,3.709948317871729351e-02,1.468732701613775608e-02,8.303921912806853239e-03,7.512008754408551481e-02
2.553911648694317410e-04,1.082985124912395555e-02,1.167589876367881689e-02,1.255075577839776923e-03,3.842542488187059794e-03,7.944707388641175302e-03,4.777351398135161464e-02,8.236788047397482215e-02,1.631128368056810642e-03,2.326041675273762821e-01
1.152730605634225830e-02,2.625852487286089651e-02,2.444231202602644218e-02,3.251201520710790896e-03,1.021022969453235819e-02,1.597040298362878072e-02,6.122939850212888446e-02,1.778593112636872031e-01,1.715968038374636115e-02,3.796899060555868344e-01
2.157746068918858784e-02,3.798974746190068169e-02,3.550648514754683321e-02,6.966663997684236984e-03,1.570337404954831595e-02,2.271748452806178487e-02,6.289190843628283956e-02,2.417798662957597877e-01,3.160556202449098934e-02,4.527160132230604317e-01
2.165045923807381451e-02,3.951243355830447862e-02,3.769561668696470857e-02,9.471210825913081721e-03,1.674654070437504860e-02,2.317662350196807164e-02,5.097936585231425954e-02,2.438870923230215537e-01,3.601464249700618570e-02,4.039006622076620201e-01
1.215525036171237472e-02,2.978273188933238183e-02,2.931057866609974860e-02,7.804662406645903987e-03,1.201084378225197175e-02,1.586254447174505547e-02,3.642636763606112160e-02,1.797653383838275221e-01,2.810428372411082065e-02,2.487008749144961339e-01
1.571255601267144281e-03,1.642821723764196704e-02,1.809607634209557669e-02,3.602784290178009160e-03,5.430908423589376165e-03,6.492449099028357526e-03,2.824637602283590343e-02,1.007569384139168911e-01,1.599294405229230095e-02,9.669219216553796847e-02
1.044421217464165837e-03,1.133719283450641650e-02,1.519717206405265912e-02,3.166452782779545332e-03,3.299183430705773801e-03,3.399894776988662739e-03,2.715253894076062949e-02,8.103605739529519403e-02,9.605892360399896981e-03,7.266378621452003472e-02
4.710478123636526078e-03,1.711434682227398404e-02,2.217179304023652459e-02,1.015173689052421835e-02,6.855782543184817807e-03,7.769857031468191573e-03,2.784906798467861808e-02,1.296188908939673312e-01,9.846267569139503448e-03,1.623635809367326988e-01
1.015149605222938865e-02,2.279809142988737866e-02,2.834793498178193177e-02,1.980104348218932747e-02,1.080877892463244158e-02,1.205877617707361120e-02,2.431089691388521948e-02,1.735698726406227910e-01,1.094449271444553062e-02,2.187169736465571779e-01
8.737864635364970406e-03,1.899367258453541277e-02,2.493733660825094706e-02,2.447681995866456475e-02,1.094779599193242484e-02,1.044229597870994369e-02,1.659766136689522567e-02,1.551570903303385873e-01,1.075544890025337263e-02,1.657136525559712859e-01
3.471311212858446942e-03,9.994157377231529041e-03,1.573339219535718411e-02,2.292285657474616573e-02,9.404986409582019938e-03,5.955569740813165119e-03,1.170245460533275370e-02,9.971847205507454459e-02,1.152168702455337243e-02,9.004002086583481890e-02
7.914483815360894405e-04,5.147412754980785869e-03,9.621627964168261507e-03,1.972489909487729412e-02,1.023203422283440814e-02,4.142993245867842775e-03,1.523083665928042993e-02,6.140426588271773178e-02,1.272584786227636856e-02,8.402225446400070352e-02
2.817659321610408146e-03,5.976690136056951944e-03,8.963806786676447452e-03,1.804851849911049202e-02,1.322903224498921636e-02,5.073519447129548957e-03,2.452673944964663816e-02,4.977121642481574515e-02,1.070668623993854644e-02,1.104297418019657279e-01
7.186666605275735323e-03,7.046601804733664681e-03,9.298097763475841535e-03,1.707407700630429390e-02,1.442871169833060893e-02,5.224595286105074808e-03,3.018194607675311197e-02,3.631822872123534329e-02,4.115677223508081711e-03,7.779932559219374100e-02
9.782496747028546560e-03,4.180385691852420843e-03,6.027696937077924727e-03,1.479181879626212046e-02,1.105892163421529593e-02,3.032026996683985509e-03,2.197877366856188994e-02,7.011074056539248062e-04,4.695263676856270552e-03,2.981426638213852467e-02
7.914700188724399163e-03,1.622160847376283820e-03,6.927287032850639598e-04,1.055808361623370578e-02,4.910296363848765978e-03,6.344470994450168971e-05,2.776526614164455484e-03,4.673096999378886091e-02,1.194787169678745292e-02,1.415947019272680296e-01
3.345375277094505585e-03,6.412725831121102692e-03,6.280556122505703137e-03,5.594173692225984026e-03,5.525144858032940117e-04,1.112060348639838572e-03,3.258919801346607525e-02,7.695949678489610868e-02,1.498379118196936990e-02,1.844817551272779632e-01
3.156984198792443276e-04,8.188447134496800589e-03,7.580767937006040874e-03,1.367798451311293389e-03,2.472375823297603449e-04,1.425104912193902399e-04,4.907620165224776260e-02,7.609520595678702370e-02,1.466468311707863972e-02,1.593332473515872427e-01
3.090921638142855778e-03,8.563526744184394787e-03,7.113850508686384369e-03,2.481331743289213847e-03,4.443892022325201217e-04,1.438458197896455614e-03,4.597494258406466250e-02,6.168674734709483215e-02,1.371852839390397434e-02,1.257448584131028169e-01
6.695150805014553688e-03,8.911321778310832276e-03,8.327780786776473737e-03,6.981441687648477779e-03,2.372044765282578863e-03,8.547836433067169427e-04,3.491862059581284788e-02,5.241942725639626988e-02,1.167174333435134180e-02,1.105802052208020858e-01
8.913276190561489690e-03,7.951358894261569693e-03,9.618305788797668412e-03,1.115425995718124196e-02,3.874583410370151075e-03,2.658877853317639451e-04,2.903331101003732775e-02,3.919250443827854147e-02,6.041548790742597153e-03,7.649696949745840580e-02
6.131158307129676993e-03,5.220184807869625472e-03,7.725556766068862602e-03,1.316279267616005805e-02,2.518865746019245417e-03,2.192662590884897171e-03,2.953937436698450200e-02,8.079238481432401628e-03,8.803162240069552572e-04,4.059568404596600524e-03
3.364191438942566639e-04,3.119789362337401818e-03,3.727031297356187857e-03,1.318090193510409319e-02,7.741375964895411826e-06,5.346482349797241143e-03,3.217232157100485823e-02,2.940051021293724892e-02,3.139898277382697448e-03,6.131335558362668858e-02
5.589921807034067477e-03,3.241163436493713600e-03,1.072185880467481497e-03,1.259336488613994713e-02,4.513763022961997601e-04,6.538020082253042341e-03,3.584779768169914921e-02,5.083515130041697111e-02,3.944872619608273852e-05,8.374811324213510266e-02
6.851961305481425041e-03,4.347319807695265367e-03,6.442935739859383072e-04,1.174747286479319204e-02,1.564998111875284380e-03,4.920245834964773711e-03,3.886416612584096125e-02,4.986381784136345585e-02,3.139064375235633801e-03,9.040614182872622195e-02
4.502145976593371207e-03,5.380251650232094687e-03,1.357234004347953986e-03,1.049911351722742150e-02,4.031117161743879435e-03,1.683706451157988013e-03,3.628099263025115484e-02,3.502019297274754778e-02,2.711873826605419591e-03,1.095728026434480279e-01
5.772909871297842149e-04,6.857734905759758741e-03,3.115171511177233267e-03,9.560387392171357940e-03,5.327542398627420350e-03,2.402799033823916058e-03,2.800723043269515503e-02,1.430799630091237826e-02,9.932582466811484996e-04,1.167675747909531214e-01
8.014929519004789296e-03,8.669488796611149808e-03,6.241112934067113635e-03,9.788920359455123218e-03,5.324604307443438905e-03,6.828172758915115187e-03,2.247047466043283412e-02,1.135968159397568802e-02,9.009176501825612131e-04,8.171643975332772147e-02
1.648254904660323428e-02,9.609888114016446048e-03,9.518770781248570359e-03,1.103818809845731781e-02,4.574663259424665424e-03,1.032961535041802478e-02,2.694507736272043485e-02,4.196853159980172554e-02,2.025924197253453716e-03,2.365191228222967776e-02
2.297540898183100810e-02,9.350589982974456468e-03,1.102779597167964989e-02,1.272925445509703532e-02,3.792592828224623878e-03,1.195325489886600416e-02,3.877066242878129954e-02,7.023429381310235253e-02,1.832016124162884948e-03,1.509577547457987071e-02
2.535551969855936311e-02,8.811205003720696399e-03,1.040849774086867637e-02,1.484049452464030958e-02,3.625086727308896289e-03,1.191504768991079148e-02,4.758289310577647896e-02,8.665129335236629315e-02,1.291204506853990642e-03,2.437399365840219392e-02
2.484108224896335038e-02,8.704314567812851747e-03,9.146219524524641306e-03,1.709271788959570992e-02,3.813634434921907724e-03,1.032995647442227008e-02,4.230102397081962617e-02,8.850539780503023646e-02,5.770362110973490180e-03,2.391770434525056568e-02
2.371766980046704706e-02,8.851612476398550838e-03,8.758471583690224938e-03,1.774899050214473126e-02,3.480352696465357099e-03,6.672182816486043298e-03,1.911273585835326222e-02,7.393181521680380897e-02,7.752432206940030289e-03,1.906463237192802460e-02
2.159012631991656661e-02,8.598785949647509350e-03,9.183970930132961605e-03,1.511305128861517057e-02,2.949364207057595787e-03,1.309917796092870297e-03,1.152786514079251999e-02,3.730592330177767701e-02,5.784497908760441454e-03,6.588222112036207050e-03
1.616096720164464720e-02,7.258314062156443272e-03,8.924468111382708249e-03,1.020293603057658913e-02,3.431260745691972359e-03,4.067687413726371257e-03,3.133528874916382406e-02,1.752079391092161570e-02,4.151193440966207196e-03,5.625652432290395577e-02
6.516989082784890863e-03,4.235329252204451250e-03,6.277897890253633997e-03,6.004553658102709628e-03,4.327175232882730406e-03,8.345801461625329890e-03,3.454531544991507053e-02,7.378131101515171542e-02,9.761489800104036774e-03,1.139544407320134817e-01
5.798704520634120028e-03,8.263372635362589095e-04,3.621139578440577119e-04,3.593569390743680050e-03,3.453062668573258186e-03,1.210221343876429281e-02,3.442220051076104459e-02,1.214628719362301212e-01,2.475131474868157849e-02,1.751001333947579675e-01
1.759735680500255917e-02,7.266919280359663592e-03,7.848472977649956217e-03,7.690782624469670158e-04,8.166544398509783306e-04,1.609324815584775581e-02,4.261093395228316566e-02,1.628718841686733199e-01,4.255417590631625779e-02,2.444895678533830219e-01
2.561327665388409003e-02,1.256605243132459873e-02,1.471375269681612051e-02,4.092414139941813293e-03,6.101404822344472624e-04,1.936028930093213959e-02,5.272397687846822750e-02,1.927139177660210367e-01,5.296916816214879142e-02,3.005100051299381403e-01
2.879387899615246799e-02,1.339536078128767717e-02,1.561452538523711367e-02,8.310465177622440580e-03,7.588241255643777541e-04,1.977797468491450730e-02,5.285263765969067107e-02,1.948431167504949546e-01,5.147775163763258777e-02,3.011351451901899678e-01
2.861145560467786078e-02,8.639918309994314843e-03,9.293805265448023406e-03,8.160717098311863482e-03,2.670898031774582640e-03,1.651668344035693570e-02,4.233598827091406003e-02,1.663474081807018168e-01,4.150758505614668414e-02,2.347607916332041522e-01
2.640505113950703669e-02,1.176988125596093327e-03,1.444387840324669759e-04,5.527211909430153336e-03,2.692546850541527922e-03,1.113634744905231747e-02,2.755408852891412519e-02,1.256004422037983459e-01,2.815560440502563183e-02,1.372526000929584489e-01
2.244427271443491870e-02,4.283833188921254420e-03,5.735162341067548582e-03,6.673482134451890271e-03,1.705215982638320481e-03,5.723468766025783389e-03,1.354730115700453555e-02,8.988332291607201152e-02,1.450765323330739306e-02,5.296128064965260895e-02
1.790247808562909701e-02,5.515093441430793386e-03,6.748473557122280225e-03,1.309362956690089674e-02,1.694693375979022375e-03,8.631388670033266104e-04,6.983905420715775907e-03,5.946135875259139086e-02,4.808438291728880584e-03,2.835593976722174461e-03
1.421976982108902332e-02,4.370175325302910058e-03,5.985128951432962079e-03,1.833616127625225731e-02,2.481894597577535746e-03,3.605230040743897905e-03,1.484273439893999368e-02,2.764462271926174108e-02,4.366319119213556144e-03,4.198986464005154129e-02
1.049273362173485345e-02,3.773228194433986271e-03,5.908198522060278610e-03,1.615251122301608264e-02,2.710516307761418400e-03,6.977195151371849355e-03,3.380092523307954427e-02,3.875870931080532128e-03,1.264031103731235936e-02,7.719053275603396380e-02
5.860167895847288172e-03,4.068120285006716734e-03,6.066150352900487666e-03,8.082795791217088632e-03,2.209220829067763681e-03,8.240256493540680169e-03,5.075351398193867630e-02,2.301375816105575428e-02,2.198762206631627025e-02,1.010114183852696412e-01
3.482413798525327633e-03,3.444207271737726849e-03,5.641210386498125839e-03,8.376282751740653752e-04,1.792144375673712479e-03,7.488994307823838154e-03,5.766802448050452334e-02,1.918364981446590151e-02,2.662348754139578014e-02,9.527985907595018511e-02
6.600278159943056416e-03,1.459519836244752532e-03,4.995463747608195303e-03,1.458018865843159918e-03,1.853665995312200714e-03,5.876662359342788543e-03,5.856772725328891760e-02,8.379639409849017062e-04,2.744537612626804512e-02,6.503690610632009705e-02
1.232800103254972843e-02,1.338700412898405421e-04,4.532751290201308091e-03,6.482514391312323241e-04,1.984292223722614133e-03,4.626945621497851810e-03,5.976399420296879539e-02,1.597710053609276842e-02,2.588331322783202909e-02,4.176891315221415574e-02
1.554106878127556150e-02,8.177595696350584576e-04,4.142865967250733417e-03,1.029512710243821660e-03,1.553175209292685785e-03,4.227531252674365456e-03,5.947567227855095340e-02,1.719003693627289137e-02,1.999890762983620382e-02,3.761515686031640521e-02
1.643914179818289564e-02,2.117648303104896837e-03,3.827176054039984135e-03,3.951826432265171003e-03,6.001423860296573650e-04,4.315838059230920308e-03,5.176258308872964953e-02,1.639180790808631577e-02,1.028937748160428482e-02,2.886977864685821155e-02
1.812280016938669705e-02,2.282828274659610794e-03,3.589072794940554798e-03,6.970061736471081654e-03,7.405877725375875197e-06,4.456685094114542708e-03,3.831059958236966712e-02,1.999934724859728577e-02,3.238890584908901173e-03,4.641971477497624718e-03
1.997643822810538441e-02,1.622060204312609404e-03,2.984178321392845588e-03,7.775241187457216860e-03,3.289941703171084405e-04,4.658152536520697266e-03,2.864045165443980523e-02,1.554386069628643958e-02,4.229365767969553089e-03,8.503677954162951191e-03
1.903799743196926686e-02,1.261977185023489649e-03,1.861193568469215196e-03,6.902443449842015494e-03,9.682194041558136142e-04,4.877982563026695036e-03,2.628691173568980730e-02,5.520388749623350577e-03,1.010734351433089685e-02,1.124037785583890253e-02
1.494211153163156787e-02,1.304479182827459650e-03,1.038687708432306685e-03,6.069857197677806966e-03,1.116688570213626112e-03,4.824552485761479832e-03,2.434961363755473382e-02,3.458496018348936052e-02,1.244599460637577613e-02,5.343535660338204207e-02
9.782336925660443244e-03,1.261265578262035390e-03,1.173226187081643232e-03,5.763770803845065689e-03,7.780589051158488985e-04,4.489387782539327673e-03,1.928113939997709581e-02,6.002434870185890253e-02,6.735671591260725642e-03,9.771284082051756581e-02
5.450269799152142672e-03,1.068186009256431607e-03,1.652984091796679119e-03,5.458069206407174627e-03,4.384201308755858884e-04,4.180169609193537701e-03,1.640659648098826903e-02,7.410079802603723731e-02,3.772712443542534846e-03,1.284492199927334266e-01
2.845395888673112657e-03,9.479951369672328905e-04,1.598408464547862364e-03,4.940424445157924095e-03,4.384379655741602500e-04,4.019197526426942363e-03,1.622021364887763981e-02,6.974180201119409284e-02,1.280513804243594254e-02,1.323042232650690764e-01
1.775682815711979515e-03,9.302164135224502087e-04,1.123924763780171374e-03,4.442483966504491566e-03,6.929869750723943907e-04,3.883020740871990541e-03,1.070372527099353738e-02,4.936131234580398014e-02,1.814222905514804515e-02,1.118538504960686075e-01
7.397116841468922340e-04,9.069693928147283188e-04,8.071927294427280958e-04,4.063854671862488811e-03,5.437091566074963613e-04,3.707040267063975523e-03,5.951829287553626370e-04,2.978901542778966335e-02,2.267238372041314662e-02,9.124592571421862031e-02
2.026871280720401319e-03,8.585939843135828413e-04,7.171603305674658681e-04,3.696733627309887853e-03,5.349660853048176807e-04,3.545609333104117553e-03,6.468124378355736073e-03,2.609051726676684183e-02,2.864985305534140103e-02,8.910135816831658839e-02
6.789135680631185055e-03,8.305099443426319783e-04,5.850085409560790107e-04,3.292328460341613534e-03,1.797685671073625743e-03,3.430465163248364209e-03,1.612151308174198869e-03,3.903071970445323030e-02,3.387964253710946949e-02,1.004737390137220576e-01
1.203390517564217888e-02,8.274209192172091209e-04,3.778268964540204425e-04,2.899639438577312350e-03,1.899347499264158676e-03,3.335392483797289948e-03,4.940324488351186157e-03,6.041063842089720165e-02,3.526481909337721848e-02,1.123008536735364965e-01
1.584269723876848002e-02,8.229836213412742262e-04,2.589683630858352062e-04,2.541338496086578257e-03,8.105436553155775676e-04,3.237692505141358777e-03,3.120085826122234295e-03,7.792080253032622472e-02,3.332180986311063936e-02,1.177860408971293654e-01
1.722777162596582021e-02,8.095960097581553216e-04,2.279092336718603878e-04,2.194121066050039402e-03,2.266273089755421700e-04,3.144526773937006848e-03,6.375487827419682244e-03,7.955898082488468970e-02,3.083952076442055337e-02,1.148708376250164864e-01
1.667532263231080378e-02,7.946075289711764487e-04,1.180034516107115973e-04,1.846605212278614036e-03,4.014723017950914616e-04,3.074301810836771627e-03,1.618132815429224741e-02,6.816623646576505657e-02,2.911604920274947494e-02,1.071508157203482914e-01
1.581344506091629173e-02,7.770830219260690605e-04,4.460822930737285774e-05,1.509259682878390327e-03,1.744227952268177231e-04,3.025413955663451386e-03,2.068159977288318296e-02,6.252871883394590935e-02,2.759193943498196300e-02,1.029048704733995651e-01
1.591236257737410620e-02,7.494077459452095757e-04,4.671409538537451243e-06,1.187429487611847212e-03,9.956346274885058325e-04,2.963337841334988572e-03,1.845949443404296120e-02,7.078872584736828344e-02,2.581225273003436016e-02,1.024510741217699028e-01
1.654445871422209613e-02,7.082898847300673865e-04,2.001571043026057926e-04,8.763666465823540148e-04,1.362449994714135014e-03,2.874733751058810172e-03,1.213957016955136484e-02,7.711742687796613316e-02,2.403258057240713688e-02,9.517925011526397194e-02
1.653339014959996980e-02,6.542319637613524261e-04,3.569501618004057315e-05,5.738029167555785612e-04,9.179828856021608535e-04,2.820839159763814923e-03,7.718142260838333456e-03,6.769819805275302527e-02,2.246338286288467739e-02,7.709093969039909622e-02
1.594882339214601791e-02,5.864447775553470249e-04,8.317462787474594289e-04,2.824265604757487209e-04,2.305201156455553152e-04,2.829633038732269797e-03,1.085150544290714239e-02,5.259247780468104261e-02,2.098749680786565416e-02,5.934066995188960747e-02
1.588631532134019211e-02,5.030870944853798503e-04,1.315658991568990042e-03,4.015360331044036304e-06,3.896810447325826807e-05,2.767762496993294609e-03,2.273608124023181187e-02,4.825311411664674754e-02,1.950410040493540456e-02,5.210879692163974952e-02
1.657997505277703301e-02,4.036852957737626139e-04,8.501005742039521905e-04,2.618111565112344512e-04,2.518692345443614145e-04,2.564491515620656754e-03,3.945796508685790044e-02,5.482570683694268365e-02,1.806446159364624715e-02,5.283738850182788382e-02
1.709896235925354585e-02,2.890659541192658246e-04,7.867712044797852832e-05,5.148820160592936868e-04,3.682658659993751278e-04,2.499330504651891150e-03,5.417379242389398081e-02,6.357525321491407089e-02,1.671293627696757156e-02,5.633823816097910386e-02
1.670115651640613832e-02,1.602171034106705577e-04,1.247391573175912316e-04,7.538850624025167846e-04,3.064731290423122409e-04,2.739662784384534235e-03,6.237172396135345215e-02,7.272409543109568941e-02,1.542168878489342913e-02,6.251792934600187979e-02
1.563416973064470777e-02,1.828104477940648421e-05,1.170292690993399187e-04,9.776609403777823584e-04,2.804064568556265428e-04,2.657377735604865912e-03,6.695431657742773046e-02,8.382003698312183448e-02,1.416453214127842350e-02,6.862070281479011602e-02
1.493711805906700399e-02,1.349565833430890435e-04,2.396926319125425916e-04,1.185531385217440496e-03,3.354476785838916625e-04,1.579951653115676136e-03,7.353989365685664747e-02,9.103200254054533147e-02,1.294859405043158503e-02,6.713687594239488299e-02
1.531073826337492859e-02,2.971195041559242960e-04,1.780786263258978008e-04,1.376736737484295352e-03,3.734577277809248796e-04,2.468087523834027039e-04,8.047484351397675428e-02,8.339388142323224395e-02,1.178032527859147575e-02,5.560873149859301562e-02
1.537071186508978150e-02,4.655488471988793913e-04,1.813050039429291399e-04,1.550316838469285039e-03,3.721386488651292636e-04,1.373371952840182482e-04,8.179426050777070800e-02,5.613772050090693605e-02,1.065046582289424365e-02,3.773650283762997742e-02
1.240128174136621506e-02,6.373749461277814941e-04,2.862663985546566440e-04,1.705415459076232813e-03,3.769227557273463914e-04,1.268173841394886099e-03,7.955473413338448596e-02,1.757968280314591708e-02,9.550001778232881586e-03,1.493072200208008307e-02
6.529385734459194381e-03,8.094786187176391656e-04,3.694878782783789467e-04,1.841382203242288799e-03,3.983519950196593535e-04,2.195537359213461503e-03,8.274174722590453557e-02,1.563095930434965641e-02,8.477590692064379888e-03,1.209955780294524538e-02
2.025005900670739673e-03,9.785709877052004013e-04,4.157613437065015797e-04,1.957672434048158237e-03,4.155164061440131664e-04,2.142377319819324232e-03,9.422607863541153372e-02,3.154738010676540194e-02,7.432314404047491406e-03,3.573975032023275072e-02
2.357239879683132450e-03,1.141332888664312387e-03,5.007743428999093674e-04,2.053837276134602360e-03,4.237647803095184740e-04,1.661123719536009360e-03,1.081684158014481895e-01,3.020917688817462837e-02,6.410278475978571817e-03,4.652150766488734324e-02
6.315999138239400054e-03,1.294502864433186382e-03,6.232522512046080338e-04,2.129605891049357255e-03,4.316537502756027087e-04,1.449231624098052361e-03,1.185548722441022301e-01,1.803606946860224214e-02,5.408199206734220707e-03,4.362660910346427556e-02
1.036503363350501500e-02,1.434936901786609082e-03,7.051242606788217428e-04,2.184922289285282961e-03,4.393629671821593931e-04,1.627609544262439284e-03,1.218203725175509011e-01,1.305991234112340027e-03,4.425145868289763126e-03,3.302963226774795202e-02
1.190634847247107331e-02,1.559689083711911272e-03,7.594827965461675842e-04,2.219933161620895375e-03,4.442489604033415503e-04,1.795725345076664044e-03,1.149007056501134133e-01,1.313715769313505283e-02,3.460759987382927040e-03,1.945524581306905948e-02
9.871521072866019930e-03,1.666099914212981238e-03,9.076933181970970330e-04,2.234990414461477358e-03,4.494877089373175297e-04,1.354966710617012049e-03,9.966297433688003915e-02,1.922387012249278035e-02,2.514481261562038356e-03,5.593828093817725632e-03
5.461826991865047914e-03,1.751866284707083790e-03,1.110723959039316587e-03,2.230669968462537390e-03,4.522155813517462087e-04,4.266394474344774681e-04,8.426246872146128664e-02,1.721342402065447960e-02,1.586838244263741749e-03,5.378487002180817531e-03
2.031436856619055382e-03,1.815096347933829084e-03,1.117959468790303851e-03,2.207776473365580944e-03,4.424174270364942358e-04,1.016514186705301222e-04,7.222480908840309133e-02,1.248849110244430044e-02,6.798125151004190403e-04,1.064530610712979136e-02
1.433470667930023413e-03,1.854359201396314641e-03,9.940111707059562547e-04,2.167332978800343840e-03,4.285973209349138065e-04,7.075449682590088333e-04,5.811169489314697151e-02,8.962503308046073161e-03,2.047436986892324073e-04,8.998898121569559941e-03
1.701973597880178813e-03,1.868725991563890791e-03,1.302342177991207880e-03,2.110569751792194543e-03,4.326132900152072566e-04,7.624492497389201949e-04,3.924739251455462707e-02,7.734298921087463807e-03,1.065373832919612506e-03,1.347850030018905160e-03
4.135060158851724173e-04,1.857796173843785171e-03,2.164150984426779778e-03,2.038911941249996369e-03,4.344940939869698497e-04,9.521090626206157523e-04,1.873321263844139953e-02,8.613157694938750400e-03,1.898355357144169498e-03,8.027772939106976938e-03
1.753944539916991010e-03,1.821709282361802908e-03,2.705782992592005443e-03,1.953959390183638341e-03,3.859134455882429421e-04,3.359427651881631473e-03,5.349273338391138770e-03,9.570914688060644729e-03,2.697587208774878016e-03,1.340432793124038575e-02
2.660280180625634785e-03,1.761144448578759935e-03,2.286970626044667644e-03,1.857461170578567468e-03,3.285952433497885562e-04,4.368115006018876909e-03,3.565456432128585873e-02,9.114069485394910713e-03,3.460281089530131086e-03,1.329992738713956825e-02
1.781205358672235907e-03,1.677307303931499603e-03,1.545949043615739513e-03,1.751289315970669825e-03,3.669788546678129848e-04,3.257187276920737139e-03,5.874733497619852307e-02,9.793530541156674971e-03,4.187509488526307798e-03,1.145323711605426148e-02
7.477696358469069354e-05,1.571903463139119432e-03,1.350641020759706101e-03,1.637406959245813962e-03,4.145575865006072172e-04,1.037495777570958616e-03,5.114599571106754478e-02,1.406393513240797311e-02,4.872525442104468432e-03,1.107179731354576008e-02
2.338405464030934335e-03,1.447099466298886090e-03,1.574198301405797199e-03,1.517828067106523609e-03,2.435914483173784255e-04,8.675210282710943454e-04,9.267993437926252964e-03,1.839700150422858213e-02,5.499726217367792956e-03,1.164378823283436504e-02
4.396744364511000550e-03,1.305472731617218426e-03,1.653899649845634893e-03,1.394581456457853058e-03,2.443189216243805322e-05,1.772070582636397617e-03,3.532268767195951426e-02,1.748586872590134067e-02,6.069900195603153067e-03,1.172461396498744937e-02
5.373562371115981826e-03,1.149951708618961437e-03,1.526661865967319674e-03,1.269685374162203171e-03,2.916237637258674558e-04,1.786625092969855574e-03,4.195027322877963039e-02,1.179123748561993965e-02,6.603454183248829226e-03,1.151482659452321942e-02
5.514428588463180132e-03,9.837474780620895747e-04,1.433033696530587337e-03,1.145108023166727150e-03,9.475808787392354070e-04,1.417101684581568120e-03,5.623945421191403789e-03,4.933021019505426895e-03,7.086988620102729376e-03,1.305729366017424967e-02
6.029096148647571096e-03,8.102785413374222591e-04,1.401358105470652728e-03,1.022703790922294478e-03,1.169770729316773738e-03,1.476932404111490609e-03,3.910368234140630672e-02,4.575276276252913422e-03,7.465392011443171445e-03,1.969244715805622964e-02
6.257415823858745660e-03,6.330907904326919539e-04,1.325443655806175574e-03,9.041803933764669052e-04,8.364413976367976716e-04,2.127056750370851391e-03,6.988144189393628858e-02,2.418378084406419548e-02,7.756072449041741430e-03,3.304826088996121874e-02
2.550703442938764311e-03,4.557746246276543319e-04,1.211103864504059751e-03,7.911225304496828821e-04,7.538321741248288832e-04,1.010006051149807838e-03,1.086631809430975565e-01,5.980348522481814671e-02,8.069261754093885741e-03,4.942218120748213817e-02
8.186165880916780949e-03,2.818811992654156849e-04,1.102266323423291370e-03,6.849574851688472986e-04,1.024379460290801309e-03,5.287388975189389814e-03,1.808297848753145642e-01,1.073324311171369588e-01,8.364878128817102021e-03,6.229535632871766732e-02
2.375531861177658174e-02,1.148398677521734914e-04,9.586846434922477803e-04,5.868078780512282506e-04,7.954657749675604758e-04,1.580010967786781018e-02,2.662769488277619834e-01,1.501043350163897283e-01,8.400141641714695129e-03,6.873729713270566866e-02
3.689388596316633961e-02,4.212113929462959474e-05,7.781784478575789598e-04,4.974772861783199407e-04,7.971539460579765495e-05,2.402322510575093453e-02,3.173919096992164901e-01,1.683731634563880308e-01,8.243732832848826506e-03,7.004288500787982097e-02
4.144947662264121535e-02,1.860488712405217486e-04,6.703605839033638641e-04,4.176942108992876468e-04,6.177257585587639377e-04,2.476027798418700687e-02,3.087675458231071701e-01,1.557226512179395728e-01,8.459778894744068162e-03,6.689927008997881286e-02
3.762129638782712310e-02,3.143328697142141787e-04,6.100101652052490261e-04,3.480947749748444613e-04,1.753304535503970719e-04,1.935240036231974242e-02,2.500112351097610874e-01,1.232962911422612329e-01,9.173963906316497802e-03,5.818792269708805004e-02
3.047618134524620465e-02,4.247638195266611994e-04,3.595113425418832798e-04,2.886641617163252806e-04,6.020395214822958901e-04,1.219746161516149958e-02,1.671036013921745333e-01,8.643233606890377008e-02,9.520744912782791447e-03,4.501933698105674286e-02
2.487464159378904166e-02,5.155822342499326002e-04,1.537521191356230801e-05,2.387403124841011842e-04,7.352592248861257148e-04,5.615133427280710396e-03,9.015804016872457083e-02,5.363998196499476789e-02,8.865099383785201084e-03,3.257256840531189135e-02
2.242829171690567322e-02,5.855160296975331791e-04,5.005151493968666102e-05,1.982072651532665254e-04,3.773917294547516265e-04,2.385304452707763404e-04,4.475937631076989942e-02,2.949279258078455618e-02,7.847410089246954421e-03,2.592348451982491239e-02
2.130067714069387372e-02,6.338061189175285982e-04,6.838912569452678530e-04,1.675380050668575857e-04,3.768411606961403603e-04,2.970138140827881679e-03,3.413296383130674794e-02,1.713198681435121329e-02,7.343842307182719964e-03,2.518916110405131775e-02
1.824300981559294835e-02,6.602194574496110437e-04,1.019546555986398061e-03,1.452856556736450326e-04,6.215443375120997815e-04,3.684016661934403150e-03,3.611379314600365181e-02,1.317340590084104153e-02,7.242258472275880411e-03,2.652628124527776216e-02
1.228889467698588735e-02,6.650492772158071893e-04,4.201536206936708727e-04,1.279833529852637103e-04,3.159631452910484492e-04,3.243572805520640763e-03,3.055851856148548290e-02,1.010185255540771779e-02,6.983108286694410423e-03,2.753699200744482573e-02
5.974375246243942422e-03,6.491025645558029652e-04,4.743860052357309377e-04,1.155734187362525672e-04,3.952988850878374214e-04,3.096878793048700451e-03,1.958538172470307079e-02,7.415628108082631884e-03,6.493266566498148880e-03,2.977141188241136729e-02
1.659383597729922367e-03,6.136751514561693786e-04,7.925339969986231956e-04,1.118521859398481936e-04,7.095265693001043825e-04,3.343039448989338237e-03,1.112190040251489521e-02,1.048538971318718933e-02,6.027075066776023740e-03,3.501374934745332679e-02
1.382402959611386470e-03,5.605150908776494094e-04,6.555345632324493296e-04,1.129896387963832472e-04,5.765652513407251625e-04,3.423454665407117247e-03,1.380738771789680186e-03,1.745278919736163725e-02,5.654615035038720178e-03,4.075520584400306456e-02
4.601415877633019402e-03,4.917752714163790232e-04,6.246479600439192384e-04,1.063935927082215423e-04,4.887675539210811814e-04,3.240176653660250487e-03,2.927518544281011020e-02,1.878193049415474714e-02,5.260413368261739053e-03,4.222566439478127320e-02
7.273585377815465491e-03,4.099564866246494335e-04,7.680980629601254391e-04,9.531992379449244035e-05,5.132120342144502615e-04,3.143287160877408434e-03,6.869442246892985826e-02,1.074706090944488671e-02,4.778784920568833298e-03,3.879294328933188818e-02
7.471975097347883718e-03,3.178424031595816573e-04,8.451595345804396517e-04,1.020681163402344018e-04,5.088279800593692708e-04,3.278852339841366054e-03,1.001500918676401786e-01,1.622403936452892353e-04,4.287760623883166318e-03,3.469226101163479237e-02
4.550082220794425709e-03,2.184280639348558936e-04,8.155969071743786152e-04,1.156355036994933562e-04,6.144125808465374788e-04,3.283035385207472810e-03,1.080772374862485063e-01,6.900040709478739293e-03,3.914935735151896419e-03,3.250238245787942515e-02
5.163733370898565544e-04,1.148437133998187772e-04,7.868488393453316673e-04,8.365010579857792025e-05,7.647119598617483022e-04,2.875885411796660039e-03,1.003531778887847281e-01,9.990524314335436779e-03,3.601909081849119423e-03,2.952706665232793931e-02
9.066743599215336576e-04,1.027583848741559026e-05,7.821988215633402615e-04,2.408331155123689601e-05,4.736984732037819758e-04,2.662386207022682510e-03,1.008309786946807451e-01,1.548900722488442093e-02,3.105368680494363827e-03,2.255489757700912534e-02
1.639422862512935177e-03,9.211262191244828576e-05,7.620941167180164894e-04,4.564474349449406483e-05,2.086162187551939549e-04,3.277209789727466693e-03,1.140649343054189330e-01,2.608551633882445070e-02,2.508625965580965015e-03,1.391077885418540855e-02
4.507040938311182576e-03,1.892609351535010640e-04,7.132904687334428980e-04,1.098551023388327048e-04,4.916008261821140646e-04,3.448708482587407084e-03,1.131495482865837315e-01,3.455437884735396148e-02,2.380400218422059483e-03,9.900016028995222220e-03
3.345481253002500002e-03,2.782861743084788769e-04,6.377154888950102660e-04,2.153179397795522182e-05,2.304665614827838501e-04,9.172711678797955620e-04,8.018784899749011041e-02,3.020376525825919922e-02,2.840830469257644379e-03,1.290852796992420642e-02
9.752023685921506081e-04,3.565539171112029116e-04,5.523922095676355630e-04,2.835947221161844709e-04,1.939952017269337974e-04,3.769805929773145398e-03,3.629218439280848529e-02,1.342353154225332454e-02,3.020462015175084079e-03,1.755973913836264555e-02
3.869626943133908353e-03,4.217423320730834019e-04,5.004800758905899065e-04,1.241921731359437256e-04,4.927139129801819985e-04,6.846264721415887440e-03,7.117022121831636551e-03,2.743452629499327187e-03,2.284237971922884781e-03,1.665288509070238926e-02
2.871972039518374230e-03,4.718981105347427635e-04,4.621068029946927085e-04,5.861046221434580055e-04,3.347792491831706263e-04,5.932448636020784538e-03,1.220764681146697256e-02,7.201979295806315053e-03,1.271059982087754817e-03,9.204641782723937266e-03
1.038922178133052212e-03,5.054829115869656584e-04,3.329551385852284298e-04,1.001735360740953727e-03,4.281411849226520534e-04,2.632889936651207352e-03,2.936989758705582307e-02,1.961603796143693637e-04,8.488744746380739656e-04,3.303286826288010999e-04
5.901635937209627307e-03,5.214092267917450193e-04,1.558830445269403198e-04,4.728134557305913813e-04,9.376714885148150274e-04,2.432592349379086557e-04,2.721247388010870905e-02,1.355317516896746913e-02,8.929299385357057379e-04,5.470201451082542035e-03
